Time(s);Current(A)
2.75000e-06;-0.0030166673218411
2.75025e-06;-0.003024582251407151
2.75050e-06;-0.0030324971809732155
2.75075e-06;-0.0030404121105392797
2.75100e-06;-0.0030483270401053305
2.75125e-06;-0.0030562419696713947
2.75150e-06;-0.003068686325772683
2.75175e-06;-0.0030829597397311385
2.75200e-06;-0.00309723315368957
2.75225e-06;-0.0031115065676480262
2.75250e-06;-0.0031257799816064823
2.75275e-06;-0.003140053395564914
2.75300e-06;-0.0031549272332686523
2.75325e-06;-0.003172028250023942
2.75350e-06;-0.0031891292667792026
2.75375e-06;-0.0032062302835344923
2.75400e-06;-0.003223331300289782
2.75425e-06;-0.0032404323170450717
2.75450e-06;-0.003257533333800333
2.75475e-06;-0.0032740110147389118
2.75500e-06;-0.00329023698229515
2.75525e-06;-0.003306462949851361
2.75550e-06;-0.003321132419286605
2.75575e-06;-0.0033351733488623664
2.75600e-06;-0.0033492142784381273
2.75625e-06;-0.003359349643857469
2.75650e-06;-0.003367907877436472
2.75675e-06;-0.0033764661110154744
2.75700e-06;-0.0033850243445944627
2.75725e-06;-0.0033935825781734653
2.75750e-06;-0.0034021408117524683
2.75775e-06;-0.003410699045331456
2.75800e-06;-0.0034175699400433614
2.75825e-06;-0.0034181819121071417
2.75850e-06;-0.0034187938841709216
2.75875e-06;-0.0034194058562347007
2.75900e-06;-0.0034200178282984806
2.75925e-06;-0.0034206298003622605
2.75950e-06;-0.0034212417724260396
2.75975e-06;-0.0034218537444898195
2.76000e-06;-0.0034177353105916373
2.76025e-06;-0.0034117066599970284
2.76050e-06;-0.0034056780094024294
2.76075e-06;-0.00339964935880782
2.76100e-06;-0.003393620708213211
2.76125e-06;-0.003387592057618612
2.76150e-06;-0.0033815634070240032
2.76175e-06;-0.00337263427630511
2.76200e-06;-0.0033625338834142966
2.76225e-06;-0.003352433490523466
2.76250e-06;-0.0033423330976326358
2.76275e-06;-0.0033322327047418054
2.76300e-06;-0.003322132311850992
2.76325e-06;-0.0033120319189601614
2.76350e-06;-0.0033010824883228512
2.76375e-06;-0.0032897902021056576
2.76400e-06;-0.003278497915888445
2.76425e-06;-0.0032672972371652455
2.76450e-06;-0.0032561335510735445
2.76475e-06;-0.003244969864981862
2.76500e-06;-0.003234257416286742
2.76525e-06;-0.0032237271847662084
2.76550e-06;-0.0032138155111495928
2.76575e-06;-0.0032041536215145663
2.76600e-06;-0.003195083089489503
2.76625e-06;-0.0031867185723194486
2.76650e-06;-0.0031792389854501594
2.76675e-06;-0.0031739418444009866
2.76700e-06;-0.003169412473474662
2.76725e-06;-0.0031679059010675885
2.76750e-06;-0.0031676199850371816
2.76775e-06;-0.0031702221099722183
2.76800e-06;-0.003173990473939753
2.76825e-06;-0.0031813085868364305
2.76850e-06;-0.0031900601474598826
2.76875e-06;-0.00319881170808332
2.76900e-06;-0.0032144571510393065
2.76925e-06;-0.0032328864584757104
2.76950e-06;-0.0032513157659121144
2.76975e-06;-0.003269745073348487
2.77000e-06;-0.003288174380784891
2.77025e-06;-0.0033088322604657014
2.77050e-06;-0.003337756684328235
2.77075e-06;-0.003366681108190818
2.77100e-06;-0.003395605532053401
2.77125e-06;-0.003424529955915984
2.77150e-06;-0.0034534543797785176
2.77175e-06;-0.0034867164011431473
2.77200e-06;-0.003521730016607318
2.77225e-06;-0.0035567436320714297
2.77250e-06;-0.0035934657245346663
2.77275e-06;-0.0036308777284591157
2.77300e-06;-0.0036682897323835014
2.77325e-06;-0.003706494138366895
2.77350e-06;-0.003745018529496508
2.77375e-06;-0.003783542920626121
2.77400e-06;-0.003821422355192519
2.77425e-06;-0.0038590413455591764
2.77450e-06;-0.003896660335925834
2.77475e-06;-0.003932368505643356
2.77500e-06;-0.003967305054164477
2.77525e-06;-0.004002241602685598
2.77550e-06;-0.0040338749740478855
2.77575e-06;-0.004064174467469945
2.77600e-06;-0.0040944739608920555
2.77625e-06;-0.004120023464772558
2.77650e-06;-0.004143654843780811
2.77675e-06;-0.004167286222789104
2.77700e-06;-0.004182555264740872
2.77725e-06;-0.004194447455742205
2.77750e-06;-0.004206339646743558
2.77775e-06;-0.004218231837744911
2.77800e-06;-0.004230124028746263
2.77825e-06;-0.004242016219747596
2.77850e-06;-0.004253908410748949
2.77875e-06;-0.0042541433803074905
2.77900e-06;-0.00424967096973507
2.77925e-06;-0.00424519855916264
2.77950e-06;-0.0042407261485902115
2.77975e-06;-0.004236253738017783
2.78000e-06;-0.004231781327445362
2.78025e-06;-0.0042273089168729325
2.78050e-06;-0.004213941488923168
2.78075e-06;-0.004196982104839449
2.78100e-06;-0.004180022720755701
2.78125e-06;-0.004163063336671953
2.78150e-06;-0.004146103952588234
2.78175e-06;-0.004129144568504486
2.78200e-06;-0.004107106192949859
2.78225e-06;-0.004083016836065499
2.78250e-06;-0.0040589274791811795
2.78275e-06;-0.004034838122296819
2.78300e-06;-0.004010748765412459
2.78325e-06;-0.00398665940852814
2.78350e-06;-0.003961044292066417
2.78375e-06;-0.003934813048480871
2.78400e-06;-0.003908581804895324
2.78425e-06;-0.003882489520535044
2.78450e-06;-0.003856453350223772
2.78475e-06;-0.0038311072215156884
2.78500e-06;-0.0038060397430973807
2.78525e-06;-0.0037826067148618303
2.78550e-06;-0.0037598337048264743
2.78575e-06;-0.003737060694791157
2.78600e-06;-0.003718960385657233
2.78625e-06;-0.003702746990955754
2.78650e-06;-0.0036865335962542748
2.78675e-06;-0.003670320201552823
2.78700e-06;-0.003654106806851344
2.78725e-06;-0.0036378934121498643
2.78750e-06;-0.0036216800174484125
2.78775e-06;-0.0036054666227469333
2.78800e-06;-0.0035905586975600408
2.78825e-06;-0.0035804932097001593
2.78850e-06;-0.003570427721840295
2.78875e-06;-0.003560362233980414
2.78900e-06;-0.0035502967461205326
2.78925e-06;-0.0035402312582606685
2.78950e-06;-0.0035301657704007875
2.78975e-06;-0.003520100282540906
2.79000e-06;-0.003510034794681042
2.79025e-06;-0.00350308366582068
2.79050e-06;-0.0034973901669837692
2.79075e-06;-0.003491696668146858
2.79100e-06;-0.0034860031693099572
2.79125e-06;-0.003480309670473046
2.79150e-06;-0.0034746161716361352
2.79175e-06;-0.003468922672799234
2.79200e-06;-0.0034632291739623232
2.79225e-06;-0.0034575356751254125
2.79250e-06;-0.0034518421762885017
2.79275e-06;-0.0034461486774516005
2.79300e-06;-0.0034410118916638117
2.79325e-06;-0.0034379401468590145
2.79350e-06;-0.0034348684020542226
2.79375e-06;-0.0034317966572494254
2.79400e-06;-0.0034287249124446283
2.79425e-06;-0.0034256531676398363
2.79450e-06;-0.003422581422835039
2.79475e-06;-0.003419509678030242
2.79500e-06;-0.003416437933225445
2.79525e-06;-0.0034133661884206525
2.79550e-06;-0.0034102944436158553
2.79575e-06;-0.003407222698811058
2.79600e-06;-0.003404843241869124
2.79625e-06;-0.0034027433422940084
2.79650e-06;-0.003400643442718893
2.79675e-06;-0.003400133986346912
2.79700e-06;-0.003400266777424009
2.79725e-06;-0.0034003995685011066
2.79750e-06;-0.0034029231106167323
2.79775e-06;-0.0034064120778118834
2.79800e-06;-0.003409901045007041
2.79825e-06;-0.0034172301910363263
2.79850e-06;-0.003426110065224479
2.79875e-06;-0.0034349899394126465
2.79900e-06;-0.003443869813600814
2.79925e-06;-0.0034527496877889818
2.79950e-06;-0.003461629561977134
2.79975e-06;-0.0034720877628435036
2.80000e-06;-0.0034884005224996737
2.80025e-06;-0.0035047132821558165
2.80050e-06;-0.003521026041811987
2.80075e-06;-0.0035373388014681576
2.80100e-06;-0.0035536515611243277
2.80125e-06;-0.0035699643207804705
2.80150e-06;-0.003590098063416022
2.80175e-06;-0.0036117747826047144
2.80200e-06;-0.0036334515017933705
2.80225e-06;-0.003655128220982063
2.80250e-06;-0.0036768049401707556
2.80275e-06;-0.0036984816593594117
2.80300e-06;-0.003720158378548104
2.80325e-06;-0.0037419562656049454
2.80350e-06;-0.0037642036061351003
2.80375e-06;-0.003786450946665217
2.80400e-06;-0.0038086982871953718
2.80425e-06;-0.003830945627725526
2.80450e-06;-0.0038531929682556433
2.80475e-06;-0.0038754403087857977
2.80500e-06;-0.003897687649315952
2.80525e-06;-0.003917642878572743
2.80550e-06;-0.003936672515129615
2.80575e-06;-0.003955702151686518
2.80600e-06;-0.003970640631837944
2.80625e-06;-0.003983927034907819
2.80650e-06;-0.003997213437977716
2.80675e-06;-0.004010499841047613
2.80700e-06;-0.004023786244117488
2.80725e-06;-0.004037072647187385
2.80750e-06;-0.004044297475810874
2.80775e-06;-0.004049074539736936
2.80800e-06;-0.00405385160366299
2.80825e-06;-0.0040586286675890525
2.80850e-06;-0.004063405731515115
2.80875e-06;-0.00406818279544117
2.80900e-06;-0.004069370526270812
2.80925e-06;-0.00406530719655387
2.80950e-06;-0.004059708706116996
2.80975e-06;-0.004054110215680132
2.81000e-06;-0.004048511725243258
2.81025e-06;-0.004042913234806384
2.81050e-06;-0.00403731474436952
2.81075e-06;-0.004031716253932646
2.81100e-06;-0.004024592634396496
2.81125e-06;-0.00401181178426421
2.81150e-06;-0.003999030934131902
2.81175e-06;-0.003986250083999594
2.81200e-06;-0.003973469233867286
2.81225e-06;-0.003960688383735
2.81250e-06;-0.003947907533602692
2.81275e-06;-0.003935126683470384
2.81300e-06;-0.0039203348359968795
2.81325e-06;-0.00390473091431027
2.81350e-06;-0.003889126992623661
2.81375e-06;-0.003873523070937051
2.81400e-06;-0.003857919149250468
2.81425e-06;-0.0038423152275638586
2.81450e-06;-0.0038275271764824166
2.81475e-06;-0.003813068587537072
2.81500e-06;-0.003798609998591703
2.81525e-06;-0.003784151409646334
2.81550e-06;-0.0037696928207009896
2.81575e-06;-0.003755234231755621
2.81600e-06;-0.0037429585493262327
2.81625e-06;-0.0037315643608973144
2.81650e-06;-0.003720170172468415
2.81675e-06;-0.0037086130350080047
2.81700e-06;-0.003696990096015283
2.81725e-06;-0.003685367157022581
2.81750e-06;-0.0036737442180298594
2.81775e-06;-0.0036621212790371375
2.81800e-06;-0.0036504983400444157
2.81825e-06;-0.0036388754010517137
2.81850e-06;-0.003625266722133598
2.81875e-06;-0.0036108561683674493
2.81900e-06;-0.0035964456146013253
2.81925e-06;-0.003582035060835177
2.81950e-06;-0.0035676245070690284
2.81975e-06;-0.0035532139533029044
2.82000e-06;-0.003538803399536756
2.82025e-06;-0.003522152561470311
2.82050e-06;-0.003504597059298609
2.82075e-06;-0.0034870415571269364
2.82100e-06;-0.0034694860549552343
2.82125e-06;-0.0034519305527835322
2.82150e-06;-0.0034343750506118597
2.82175e-06;-0.003416430492655864
2.82200e-06;-0.003397042792419106
2.82225e-06;-0.0033776550921823475
2.82250e-06;-0.0033582673919456225
2.82275e-06;-0.003338879691708864
2.82300e-06;-0.003319491991472106
2.82325e-06;-0.0033001042912353807
2.82350e-06;-0.003280728787753312
2.82375e-06;-0.0032613582095238846
2.82400e-06;-0.0032419876312944898
2.82425e-06;-0.0032234230552708834
2.82450e-06;-0.003205183956359399
2.82475e-06;-0.0031869448574479153
2.82500e-06;-0.0031696175212347515
2.82525e-06;-0.0031526583699816473
2.82550e-06;-0.0031367209712332995
2.82575e-06;-0.003121196173160451
2.82600e-06;-0.0031070306434347415
2.82625e-06;-0.003093414008901932
2.82650e-06;-0.003081677428831851
2.82675e-06;-0.0030707000460601986
2.82700e-06;-0.0030622889446790024
2.82725e-06;-0.003054914150456588
2.82750e-06;-0.0030502167607766983
2.82775e-06;-0.003046600551634785
2.82800e-06;-0.003046300815729965
2.82825e-06;-0.0030473403269436644
2.82850e-06;-0.0030483798381573655
2.82875e-06;-0.0030553812296134912
2.82900e-06;-0.003064790127587767
2.82925e-06;-0.003074199025562027
2.82950e-06;-0.0030836079235363025
2.82975e-06;-0.0030930168215105784
2.83000e-06;-0.0031044481263903675
2.83025e-06;-0.003123381237006794
2.83050e-06;-0.0031423143476232212
2.83075e-06;-0.003161247458239648
2.83100e-06;-0.0031801805688560425
2.83125e-06;-0.003199113679472469
2.83150e-06;-0.0032221467770404354
2.83175e-06;-0.0032468355176117334
2.83200e-06;-0.0032715242581830735
2.83225e-06;-0.0032980515064266985
2.83250e-06;-0.0033253211746828958
2.83275e-06;-0.0033525908429391385
2.83300e-06;-0.0033809223177914973
2.83325e-06;-0.0034096825678284126
2.83350e-06;-0.003438442817865279
2.83375e-06;-0.003467226453520759
2.83400e-06;-0.0034960195326784295
2.83425e-06;-0.003524812611836051
2.83450e-06;-0.0035525601382317903
2.83475e-06;-0.003579885453011867
2.83500e-06;-0.003607210767791943
2.83525e-06;-0.0036324218125701525
2.83550e-06;-0.0036567790799151437
2.83575e-06;-0.003681136347260135
2.83600e-06;-0.0037021648957072657
2.83625e-06;-0.0037218492520341238
2.83650e-06;-0.003741533608360982
2.83675e-06;-0.003757207192891103
2.83700e-06;-0.0037712611609829086
2.83725e-06;-0.0037853151290747145
2.83750e-06;-0.00379260467835242
2.83775e-06;-0.00379716264267278
2.83800e-06;-0.003801720606993148
2.83825e-06;-0.003806278571313516
2.83850e-06;-0.0038108365356338764
2.83875e-06;-0.0038153944999542444
2.83900e-06;-0.0038172835644131892
2.83925e-06;-0.003809272757467532
2.83950e-06;-0.0038012619505218884
2.83975e-06;-0.0037932511435762313
2.84000e-06;-0.0037852403366305737
2.84025e-06;-0.0037772295296849305
2.84050e-06;-0.003769218722739273
2.84075e-06;-0.0037543618152963594
2.84100e-06;-0.0037367403384723046
2.84125e-06;-0.0037191188616482198
2.84150e-06;-0.0037014973848241346
2.84175e-06;-0.00368387590800005
2.84200e-06;-0.0036662544311759945
2.84225e-06;-0.003644820711529856
2.84250e-06;-0.003621847544751172
2.84275e-06;-0.0035988743779725276
2.84300e-06;-0.003575901211193844
2.84325e-06;-0.0035529280444151603
2.84350e-06;-0.0035299548776364766
2.84375e-06;-0.0035061353504923444
2.84400e-06;-0.003481974048939095
2.84425e-06;-0.003458039223003928
2.84450e-06;-0.003434195851694628
2.84475e-06;-0.003411013082645866
2.84500e-06;-0.0033880970757901993
2.84525e-06;-0.003366486732799988
2.84550e-06;-0.0033454036386203648
2.84575e-06;-0.003324945606103443
2.84600e-06;-0.003306806143185394
2.84625e-06;-0.0032886666802673754
2.84650e-06;-0.003272101141349393
2.84675e-06;-0.0032561711791514536
2.84700e-06;-0.003240241216953541
2.84725e-06;-0.0032246185942098075
2.84750e-06;-0.003209120080255468
2.84775e-06;-0.0031936201267648303
2.84800e-06;-0.003177900727901854
2.84825e-06;-0.0031621813290388778
2.84850e-06;-0.003147406060575217
2.84875e-06;-0.003129563655230907
2.84900e-06;-0.003109217896238532
2.84925e-06;-0.003090319241406393
2.84950e-06;-0.00307095639022857
2.84975e-06;-0.003051593539050714
2.85000e-06;-0.003032230687872858
2.85025e-06;-0.0030128506681142957
2.85050e-06;-0.002990378349151632
2.85075e-06;-0.00296790603018893
2.85100e-06;-0.0029454337112262284
2.85125e-06;-0.0029229613922635645
2.85150e-06;-0.002899741257473717
2.85175e-06;-0.002876426217699935
2.85200e-06;-0.002853111177926192
2.85225e-06;-0.0028295161473385244
2.85250e-06;-0.002805885583237484
2.85275e-06;-0.002781555128189177
2.85300e-06;-0.0027571358502828003
2.85325e-06;-0.002733060267901335
2.85350e-06;-0.0027090283037706354
2.85375e-06;-0.0026853987123690677
2.85400e-06;-0.0026621625384776566
2.85425e-06;-0.0026394090649935597
2.85450e-06;-0.0026172164980075912
2.85475e-06;-0.002595393823417243
2.85500e-06;-0.0025738956970217126
2.85525e-06;-0.002553327215044998
2.85550e-06;-0.0025338880124265977
2.85575e-06;-0.002515436614578974
2.85600e-06;-0.0024981152824678976
2.85625e-06;-0.0024820518299222515
2.85650e-06;-0.002467558623398984
2.85675e-06;-0.00245518576400841
2.85700e-06;-0.0024455383312490873
2.85725e-06;-0.002439148085550542
2.85750e-06;-0.0024360180292129895
2.85775e-06;-0.0024359102993996213
2.85800e-06;-0.0024387644094194857
2.85825e-06;-0.002444511317826113
2.85850e-06;-0.0024545981250275297
2.85875e-06;-0.00246519448045087
2.85900e-06;-0.0024817827288222383
2.85925e-06;-0.0024991314057421755
2.85950e-06;-0.0025255809721201083
2.85975e-06;-0.0025531855284520984
2.86000e-06;-0.0025807900847841353
2.86025e-06;-0.0026083946411161727
2.86050e-06;-0.0026405948503864123
2.86075e-06;-0.002680062748894318
2.86100e-06;-0.0027195306474022234
2.86125e-06;-0.002758998545910129
2.86150e-06;-0.0027984664444179676
2.86175e-06;-0.0028441150084285304
2.86200e-06;-0.0028905479580311343
2.86225e-06;-0.002939466940939301
2.86250e-06;-0.00298870142526167
2.86275e-06;-0.0030397299031176264
2.86300e-06;-0.003090986055918842
2.86325e-06;-0.003143391579447522
2.86350e-06;-0.003195942969119384
2.86375e-06;-0.00324852090816002
2.86400e-06;-0.0033011022165695026
2.86425e-06;-0.0033525827075718516
2.86450e-06;-0.0034039234943120354
2.86475e-06;-0.0034532001451086564
2.86500e-06;-0.0035022148373034163
2.86525e-06;-0.003548232343364947
2.86550e-06;-0.003593869477827542
2.86575e-06;-0.0036339594126603156
2.86600e-06;-0.0036733453547816626
2.86625e-06;-0.0037127312969030095
2.86650e-06;-0.003744178048016463
2.86675e-06;-0.003774617239824766
2.86700e-06;-0.0038050564316330694
2.86725e-06;-0.0038261698047010136
2.86750e-06;-0.0038460996421364707
2.86775e-06;-0.003866029479571961
2.86800e-06;-0.003885959317007452
2.86825e-06;-0.003905889154442909
2.86850e-06;-0.003913812230964557
2.86875e-06;-0.003920211534639257
2.86900e-06;-0.0039266108383139466
2.86925e-06;-0.003933010141988647
2.86950e-06;-0.003939409445663347
2.86975e-06;-0.003934214782237456
2.87000e-06;-0.003927548733449358
2.87025e-06;-0.0039208826846612475
2.87050e-06;-0.003914216635873138
2.87075e-06;-0.003907550587085039
2.87100e-06;-0.003900884538296929
2.87125e-06;-0.0038900705253234807
2.87150e-06;-0.0038726968101543235
2.87175e-06;-0.0038553230949851963
2.87200e-06;-0.003837949379816039
2.87225e-06;-0.0038205756646468823
2.87250e-06;-0.0038032019494777546
2.87275e-06;-0.003785828234308598
2.87300e-06;-0.003764526976691389
2.87325e-06;-0.003742727276356758
2.87350e-06;-0.00372092757602209
2.87375e-06;-0.003698346959234698
2.87400e-06;-0.003675667236677233
2.87425e-06;-0.003652987514119806
2.87450e-06;-0.003630442225720178
2.87475e-06;-0.003607913998301517
2.87500e-06;-0.0035863349366427838
2.87525e-06;-0.0035648763332010685
2.87550e-06;-0.003544980526844205
2.87575e-06;-0.0035252830543910877
2.87600e-06;-0.0035076756474205963
2.87625e-06;-0.0034903334897586815
2.87650e-06;-0.003476363893935522
2.87675e-06;-0.003462822308480207
2.87700e-06;-0.0034492807230248686
2.87725e-06;-0.003440374843306268
2.87750e-06;-0.0034320572790026063
2.87775e-06;-0.0034237397146989297
2.87800e-06;-0.0034231601298743827
2.87825e-06;-0.0034235625686869138
2.87850e-06;-0.0034239650074994444
2.87875e-06;-0.0034243674463119754
2.87900e-06;-0.003424769885124507
2.87925e-06;-0.003425172323937037
2.87950e-06;-0.00342988294021112
2.87975e-06;-0.00344140662426803
2.88000e-06;-0.00345293030832494
2.88025e-06;-0.0034644539923818305
2.88050e-06;-0.003475977676438741
2.88075e-06;-0.0034875013604956507
2.88100e-06;-0.0034990250445525416
2.88125e-06;-0.003517977418405302
2.88150e-06;-0.0035378725640748815
2.88175e-06;-0.003557767709744427
2.88200e-06;-0.0035776628554140067
2.88225e-06;-0.003597558001083586
2.88250e-06;-0.0036174531467531657
2.88275e-06;-0.0036373482924227114
2.88300e-06;-0.0036601843820662492
2.88325e-06;-0.003683393705640639
2.88350e-06;-0.003706603029214989
2.88375e-06;-0.0037298123527893788
2.88400e-06;-0.003753021676363769
2.88425e-06;-0.0037762309999381585
2.88450e-06;-0.0037994403235125087
2.88475e-06;-0.003821375769314054
2.88500e-06;-0.003843149547837062
2.88525e-06;-0.0038649233263600333
2.88550e-06;-0.0038847286981811193
2.88575e-06;-0.0039042842603569296
2.88600e-06;-0.003921603167344741
2.88625e-06;-0.003938638221387677
2.88650e-06;-0.003952403880788853
2.88675e-06;-0.003965754622726609
2.88700e-06;-0.003972604247247815
2.88725e-06;-0.003978628817762577
2.88750e-06;-0.0039846533882773386
2.88775e-06;-0.003982578576262411
2.88800e-06;-0.0039794758751050775
2.88825e-06;-0.003976373173947744
2.88850e-06;-0.003964990237751252
2.88875e-06;-0.003952556460498433
2.88900e-06;-0.003940122683245593
2.88925e-06;-0.003916797627196126
2.88950e-06;-0.003892090363653617
2.88975e-06;-0.0038673831001110664
2.89000e-06;-0.0038426758365685157
2.89025e-06;-0.0038131470528870643
2.89050e-06;-0.003775993387496792
2.89075e-06;-0.0037388397221065194
2.89100e-06;-0.0037016860567162468
2.89125e-06;-0.003664532391326037
2.89150e-06;-0.0036198772953373115
2.89175e-06;-0.003574270196027748
2.89200e-06;-0.0035286630967182615
2.89225e-06;-0.0034797197644728154
2.89250e-06;-0.003430353032344851
2.89275e-06;-0.0033795145147814468
2.89300e-06;-0.003327687360643597
2.89325e-06;-0.003275189440105322
2.89350e-06;-0.0032223244752768486
2.89375e-06;-0.003169401432422396
2.89400e-06;-0.0031167288645861657
2.89425e-06;-0.0030646156855908355
2.89450e-06;-0.003013346068515775
2.89475e-06;-0.0029631568254347234
