Time(s);Current(A)
1.12500e-05;0.0023364233840783444
1.12503e-05;0.002319713545427604
1.12505e-05;0.002303003706776977
1.12508e-05;0.0022862938681262363
1.12510e-05;0.0022695840294754957
1.12513e-05;0.0022528741908248687
1.12515e-05;0.002236164352174128
1.12518e-05;0.002219454513523388
1.12520e-05;0.0022027446748727605
1.12523e-05;0.002201827834937094
1.12525e-05;0.002207051545647909
1.12527e-05;0.002212275256358689
1.12530e-05;0.002228190476561448
1.12533e-05;0.0022482627132185905
1.12535e-05;0.0022683349498755973
1.12538e-05;0.00228840718653274
1.12540e-05;0.0023084794231898824
1.12542e-05;0.0023285516598468893
1.12545e-05;0.002348623896504032
1.12548e-05;0.0023715065466810206
1.12550e-05;0.0024043511584350705
1.12553e-05;0.0024371957701888975
1.12555e-05;0.0024700403819429475
1.12558e-05;0.002502884993696997
1.12560e-05;0.002535729605450824
1.12563e-05;0.002568574217204874
1.12565e-05;0.0026014188289589235
1.12568e-05;0.002634413428907882
1.12570e-05;0.002667466346477758
1.12573e-05;0.0027005192640476333
1.12575e-05;0.002733572181617285
1.12578e-05;0.0027666250991871606
1.12580e-05;0.0027996780167570366
1.12583e-05;0.0028327309343266884
1.12585e-05;0.0028640369741511386
1.12588e-05;0.002889150925565962
1.12590e-05;0.0029142648769806155
1.12593e-05;0.002939378828395439
1.12595e-05;0.0029644927798102624
1.12598e-05;0.002989606731224916
1.12600e-05;0.0030147206826397393
1.12603e-05;0.003039834634054563
1.12605e-05;0.003068167434960538
1.12608e-05;0.003097751771986419
1.12610e-05;0.0031273361090123
1.12612e-05;0.00315692044603798
1.12615e-05;0.0031865047830638613
1.12618e-05;0.003216089120089742
1.12620e-05;0.0032456734571154225
1.12623e-05;0.0032752577941413032
1.12625e-05;0.003304842131167184
1.12627e-05;0.0033344264681928644
1.12630e-05;0.003364010805218745
1.12633e-05;0.003393595142244626
1.12635e-05;0.0034251092910432828
1.12638e-05;0.0034634639672598633
1.12640e-05;0.003501818643476704
1.12643e-05;0.003540173319693545
1.12645e-05;0.003578527995910126
1.12648e-05;0.0036168826721269666
1.12650e-05;0.0036552373483438073
1.12653e-05;0.0036935920245603883
1.12655e-05;0.0037319467007772287
1.12658e-05;0.0037703013769940694
1.12660e-05;0.0038086560532106504
1.12663e-05;0.003847010729427491
1.12665e-05;0.003885365405644332
1.12668e-05;0.003921482629048259
1.12670e-05;0.0039567298978243895
1.12673e-05;0.0039919771666005206
1.12675e-05;0.004027224435376412
1.12678e-05;0.004062471704152543
1.12680e-05;0.004097718972928674
1.12683e-05;0.004132966241704566
1.12685e-05;0.0041646939752036614
1.12688e-05;0.00418394615128977
1.12690e-05;0.004203198327375747
1.12693e-05;0.004222450503461855
1.12695e-05;0.004241702679547963
1.12697e-05;0.00426095485563394
1.12700e-05;0.004280207031720048
1.12703e-05;0.004299459207806156
1.12705e-05;0.0042940543740244835
1.12708e-05;0.004279062531422033
1.12710e-05;0.004264070688819584
1.12712e-05;0.004249078846217235
1.12715e-05;0.004234087003614785
1.12718e-05;0.004219095161012335
1.12720e-05;0.004204103318409885
1.12723e-05;0.004189111475807536
1.12725e-05;0.004174119633205087
1.12728e-05;0.004151336291512226
1.12730e-05;0.004100934731334603
1.12733e-05;0.004050533171156639
1.12735e-05;0.0040001316109786736
1.12738e-05;0.003949730050801051
1.12740e-05;0.0038993284906230865
1.12743e-05;0.003848926930445122
1.12745e-05;0.003798525370267499
1.12748e-05;0.0037481238100895344
1.12750e-05;0.0036977222499115702
1.12753e-05;0.0036361707406839575
1.12755e-05;0.0035702839669417953
1.12758e-05;0.003504397193199633
1.12760e-05;0.0034385104194579173
1.12763e-05;0.003372623645715755
1.12765e-05;0.003306736871973593
1.12768e-05;0.0032415875823804717
1.12770e-05;0.0031790524236637563
1.12773e-05;0.003116517264947041
1.12775e-05;0.0030539821062307497
1.12778e-05;0.0029914469475140343
1.12780e-05;0.002928911788797319
1.12782e-05;0.002866376630081027
1.12785e-05;0.002812582943457228
1.12788e-05;0.002762188070011995
1.12790e-05;0.002711793196567104
1.12793e-05;0.002671697921227996
1.12795e-05;0.0026356072814246565
1.12797e-05;0.0025995166416215615
1.12800e-05;0.002563426001818222
1.12803e-05;0.002527335362014883
1.12805e-05;0.0024912447222115433
1.12808e-05;0.0024551540824084483
1.12810e-05;0.0024190634426051088
1.12813e-05;0.002385802341210209
1.12815e-05;0.0023625709926397113
1.12818e-05;0.002339339644069056
1.12820e-05;0.002316108295498401
1.12823e-05;0.0022928769469279025
1.12825e-05;0.0022696455983572473
1.12828e-05;0.002246414249786592
1.12830e-05;0.002223182901216094
1.12833e-05;0.002199951552645439
1.12835e-05;0.0021829176981992228
1.12838e-05;0.0021682935208057336
1.12840e-05;0.0021536693434121455
1.12843e-05;0.0021390451660185574
1.12845e-05;0.0021244209886250682
1.12848e-05;0.00210979681123148
1.12850e-05;0.002095172633837892
1.12853e-05;0.002080548456444403
1.12855e-05;0.002065924279050815
1.12858e-05;0.0020513001016572267
1.12860e-05;0.0020366759242637375
1.12863e-05;0.0020262637028271085
1.12865e-05;0.002017489151941469
1.12867e-05;0.002008714601055889
1.12870e-05;0.0019999400501702494
1.12873e-05;0.0019911654992846102
1.12875e-05;0.00198239094839903
1.12878e-05;0.0019736163975133908
1.12880e-05;0.0019648418466277516
1.12882e-05;0.0019560672957421713
1.12885e-05;0.0019472927448565321
1.12888e-05;0.0019385181939708927
1.12890e-05;0.001932942975516651
1.12893e-05;0.0019286117046629823
1.12895e-05;0.0019242804338092843
1.12898e-05;0.0019270585559034443
1.12900e-05;0.001932600914752623
1.12903e-05;0.001946635894120196
1.12905e-05;0.0019639729295079897
1.12908e-05;0.0019813099648956656
1.12910e-05;0.0020063134982290323
1.12913e-05;0.002034297878951078
1.12915e-05;0.00206975546061144
1.12918e-05;0.0021081187329356444
1.12920e-05;0.0021566269407764993
1.12923e-05;0.002209079649060204
1.12925e-05;0.002261532357344264
1.12928e-05;0.0023239412864895703
1.12930e-05;0.0023902213410384975
1.12933e-05;0.0024565013955878735
1.12935e-05;0.0025320001917842816
1.12938e-05;0.0026110833705970046
1.12940e-05;0.0026901665494102633
1.12943e-05;0.0027794172681455927
1.12945e-05;0.0028726212762498616
1.12948e-05;0.002965825284354762
1.12950e-05;0.003059029292459663
1.12952e-05;0.0031522333005639318
1.12955e-05;0.003245437308668832
1.12958e-05;0.003343251386126343
1.12960e-05;0.0034428579264901915
1.12963e-05;0.0035424644668547154
1.12965e-05;0.003642071007219239
1.12967e-05;0.003741677547583088
1.12970e-05;0.0038412840879476114
1.12973e-05;0.003930404547887596
1.12975e-05;0.004015447865215492
1.12978e-05;0.004100491182542813
1.12980e-05;0.004185534499870709
1.12983e-05;0.004270577817198607
1.12985e-05;0.004355621134525927
1.12988e-05;0.004440664451853824
1.12990e-05;0.004518032421511939
1.12993e-05;0.00456819388999759
1.12995e-05;0.0046183553584835816
1.12998e-05;0.004668516826969573
1.13000e-05;0.004718678295455224
1.13003e-05;0.004768839763941215
1.13005e-05;0.004819001232427207
1.13008e-05;0.004869162700912858
1.13010e-05;0.0048908006405752385
1.13013e-05;0.004901348211851618
1.13015e-05;0.004911895783127925
1.13018e-05;0.004922443354404303
1.13020e-05;0.004932990925680681
1.13023e-05;0.0049435384969569885
1.13025e-05;0.004954086068233368
1.13028e-05;0.004964633639509746
1.13030e-05;0.004975181210786053
1.13033e-05;0.004978762134793176
1.13035e-05;0.004957648659890792
1.13037e-05;0.004936535184988551
1.13040e-05;0.004915421710086167
1.13043e-05;0.004894308235183783
1.13045e-05;0.0048731947602815425
1.13048e-05;0.004852081285379158
1.13050e-05;0.0048309678104767745
1.13052e-05;0.004809854335574534
1.13055e-05;0.0047887408606721495
1.13058e-05;0.0047586426165524155
1.13060e-05;0.004725050961743333
1.13063e-05;0.004691459306934479
1.13065e-05;0.004657867652125397
1.13068e-05;0.004624275997316314
1.13070e-05;0.004590684342507459
1.13073e-05;0.004557092687698377
1.13075e-05;0.004523501032889295
1.13078e-05;0.004491520162750872
1.13080e-05;0.004465248977296671
1.13083e-05;0.004438977791842471
1.13085e-05;0.004412706606388449
1.13088e-05;0.0043864354209342486
1.13090e-05;0.004360164235480048
1.13093e-05;0.004333893050026026
1.13095e-05;0.004307621864571826
1.13098e-05;0.004281350679117626
1.13100e-05;0.004271540594526067
1.13103e-05;0.0042681308285548595
1.13105e-05;0.004264721062583652
1.13108e-05;0.0042613112966124675
1.13110e-05;0.00425790153064126
1.13113e-05;0.004254491764670053
1.13115e-05;0.004251081998698868
1.13118e-05;0.004247672232727661
1.13120e-05;0.004244262466756453
1.13122e-05;0.004240852700785269
1.13125e-05;0.004237442934814061
1.13128e-05;0.004234033168842854
1.13130e-05;0.004246851410284246
1.13133e-05;0.0042659793401779
1.13135e-05;0.004285107270071555
1.13137e-05;0.004304235199965079
1.13140e-05;0.004323363129858734
1.13143e-05;0.004342491059752388
1.13145e-05;0.0043616189896460425
1.13148e-05;0.004380746919539567
1.13150e-05;0.0043998748494332215
1.13153e-05;0.004419002779326876
1.13155e-05;0.0044381307092204005
1.13158e-05;0.004457258639114055
1.13160e-05;0.004481011972921455
1.13163e-05;0.004506563731940153
1.13165e-05;0.004532115490959023
1.13168e-05;0.004557667249977894
1.13170e-05;0.004583219008996591
1.13173e-05;0.004608770768015462
1.13175e-05;0.004634322527034333
1.13178e-05;0.00465987428605303
1.13180e-05;0.0046854260450719006
1.13183e-05;0.004704249474067501
1.13185e-05;0.004718815455869558
1.13188e-05;0.004733381437671713
1.13190e-05;0.004747947419473869
1.13193e-05;0.004762513401275925
1.13195e-05;0.004777079383078081
1.13198e-05;0.004791645364880236
1.13200e-05;0.004806211346682293
1.13203e-05;0.004820777328484448
1.13205e-05;0.004822902975535401
1.13207e-05;0.004812828682429354
1.13210e-05;0.00480275438932324
1.13213e-05;0.004792680096217124
1.13215e-05;0.004782605803111077
1.13218e-05;0.004772531510004962
1.13220e-05;0.004762457216898846
1.13222e-05;0.0047523829237927995
1.13225e-05;0.004742308630686684
1.13228e-05;0.0047322343375805695
1.13230e-05;0.0047170598000873185
1.13233e-05;0.004683284482389028
1.13235e-05;0.00464950916469051
1.13238e-05;0.004615733846991991
1.13240e-05;0.004581958529293701
1.13243e-05;0.004548183211595181
1.13245e-05;0.004514407893896662
1.13248e-05;0.004480632576198372
1.13250e-05;0.004446857258499853
1.13253e-05;0.004413081940801334
1.13255e-05;0.0043793066231030435
1.13258e-05;0.004338416807448959
1.13260e-05;0.004296954326427078
1.13263e-05;0.0042554918454054775
1.13265e-05;0.004214029364383596
1.13268e-05;0.004172566883361715
1.13270e-05;0.004131104402340115
1.13273e-05;0.004089641921318234
1.13275e-05;0.004048179440296353
1.13278e-05;0.0040148338176564415
1.13280e-05;0.003982141543112053
1.13283e-05;0.003949449268567665
1.13285e-05;0.003916756994023499
1.13288e-05;0.003884064719479111
1.13290e-05;0.003851372444934723
1.13292e-05;0.0038186801703905563
1.13295e-05;0.0037859878958461683
1.13298e-05;0.003781825011085343
1.13300e-05;0.003779958534813713
1.13303e-05;0.0037780920585420708
1.13305e-05;0.0037762255822704283
1.13307e-05;0.0037743591059987984
1.13310e-05;0.003772492629727156
1.13313e-05;0.0037706261534555135
1.13315e-05;0.003768759677183871
1.13318e-05;0.003766893200912241
1.13320e-05;0.0037650267246405987
1.13323e-05;0.0037631602483689562
1.13325e-05;0.0037956565191697004
1.13328e-05;0.0038309187413175442
1.13330e-05;0.0038661809634653885
1.13333e-05;0.003901443185612994
1.13335e-05;0.003936705407760838
1.13338e-05;0.003971967629908682
1.13340e-05;0.004007229852056288
1.13343e-05;0.0040424920742041315
1.13345e-05;0.004077754296351975
1.13348e-05;0.004113016518499581
1.13350e-05;0.004148278740647425
1.13353e-05;0.004198821890309131
1.13355e-05;0.00425059504355423
1.13358e-05;0.004302368196799679
1.13360e-05;0.004354141350045128
1.13363e-05;0.004405914503290226
1.13365e-05;0.004457687656535675
1.13368e-05;0.004509460809781124
1.13370e-05;0.004561233963026223
1.13373e-05;0.004607249448305923
1.13375e-05;0.004652801483168262
1.13377e-05;0.004698353518030293
1.13380e-05;0.004743905552892632
1.13383e-05;0.004789457587754972
1.13385e-05;0.004835009622617003
1.13388e-05;0.004880561657479342
1.13390e-05;0.004926113692341682
1.13392e-05;0.004942439695040924
1.13395e-05;0.004956413214601779
1.13398e-05;0.004970386734162634
1.13400e-05;0.004984360253723488
1.13403e-05;0.004998333773284248
1.13405e-05;0.005012307292845103
1.13408e-05;0.005026280812405957
1.13410e-05;0.005040254331966717
1.13413e-05;0.005054227851527572
1.13415e-05;0.005068201371088426
1.13418e-05;0.0050640305527823145
1.13420e-05;0.005035362049106136
1.13423e-05;0.005006693545429956
1.13425e-05;0.0049780250417539714
1.13428e-05;0.004949356538077793
1.13430e-05;0.004920688034401614
1.13433e-05;0.004892019530725628
1.13435e-05;0.00486335102704945
1.13438e-05;0.004834682523373271
1.13440e-05;0.004806014019697286
1.13443e-05;0.004777345516021107
1.13445e-05;0.004725970147642353
1.13448e-05;0.0046727670417161995
1.13450e-05;0.004619563935789686
1.13453e-05;0.004566360829863172
1.13455e-05;0.004513157723937019
1.13458e-05;0.004459954618010506
1.13460e-05;0.004406751512083992
1.13462e-05;0.004352342945214909
1.13465e-05;0.004296306818104586
1.13468e-05;0.004240270690994264
1.13470e-05;0.004184234563884321
1.13473e-05;0.004128198436773999
1.13475e-05;0.004072162309663677
1.13477e-05;0.004016126182553734
1.13480e-05;0.003960090055443412
1.13483e-05;0.003925719484439772
1.13485e-05;0.0038930928332122625
1.13488e-05;0.003860466181984974
1.13490e-05;0.0038278395307574644
1.13493e-05;0.003795212879529955
1.13495e-05;0.0037625862283026663
1.13498e-05;0.003729959577075157
1.13500e-05;0.003697332925847647
1.13503e-05;0.003664706274620359
1.13505e-05;0.003632079623392849
1.13508e-05;0.0035994529721653395
1.13510e-05;0.003566826320938051
1.13513e-05;0.0035494524611504696
1.13515e-05;0.0035526722481818854
1.13518e-05;0.003555892035213279
1.13520e-05;0.003559111822244695
1.13523e-05;0.00356233160927611
1.13525e-05;0.0035655513963075043
1.13528e-05;0.0035687711833389197
1.13530e-05;0.0035719909703703354
1.13533e-05;0.003575210757401729
1.13535e-05;0.003578430544433145
1.13538e-05;0.0035816503314645603
1.13540e-05;0.0035848701184959544
1.13543e-05;0.0035880899055273697
1.13545e-05;0.0036093967192338218
1.13548e-05;0.003632159407110488
1.13550e-05;0.0036549220949873085
1.13553e-05;0.003677684782864129
1.13555e-05;0.0037004474707407952
1.13558e-05;0.003723210158617616
1.13560e-05;0.0037459728464944364
1.13562e-05;0.0037687355343711025
1.13565e-05;0.003791498222247923
1.13568e-05;0.003815445913422765
1.13570e-05;0.0038394889887491813
1.13573e-05;0.003863532064075435
1.13575e-05;0.003887575139401851
1.13578e-05;0.003911618214728268
1.13580e-05;0.00393566129005452
1.13583e-05;0.003959704365380937
1.13585e-05;0.003983747440707353
1.13588e-05;0.004007790516033606
1.13590e-05;0.004015861813330317
1.13593e-05;0.004022647498595829
1.13595e-05;0.004029433183861296
1.13598e-05;0.004036218869126808
1.13600e-05;0.004043004554392321
1.13603e-05;0.004049790239657788
1.13605e-05;0.0040565759249233
1.13608e-05;0.004063361610188813
1.13610e-05;0.00407014729545428
1.13613e-05;0.004076932980719792
1.13615e-05;0.004083718665985304
1.13618e-05;0.0040905043512507715
1.13620e-05;0.004097290036516284
1.13623e-05;0.004094292522715853
1.13625e-05;0.0040780861646739185
1.13628e-05;0.004061879806631873
1.13630e-05;0.004045673448589829
1.13633e-05;0.004029467090547895
1.13635e-05;0.00401326073250585
1.13638e-05;0.003997054374463805
1.13640e-05;0.003980848016421871
1.13643e-05;0.003964641658379826
1.13645e-05;0.003948435300337782
1.13647e-05;0.0039322289422958475
1.13650e-05;0.003916022584253802
1.13653e-05;0.0038998162262117585
1.13655e-05;0.0038836098681697137
1.13658e-05;0.003860052005607878
1.13660e-05;0.0038359024003704924
1.13663e-05;0.0038117527951331063
1.13665e-05;0.0037876031898958842
1.13668e-05;0.0037634535846584986
1.13670e-05;0.0037393039794211126
1.13673e-05;0.0037151543741838905
1.13675e-05;0.003691004768946505
1.13678e-05;0.0036689705476345654
1.13680e-05;0.0036497924244761285
1.13683e-05;0.0036306143013175615
1.13685e-05;0.0036114361781589945
1.13688e-05;0.003592258055000557
1.13690e-05;0.00357307993184199
1.13693e-05;0.003553901808683423
1.13695e-05;0.0035347236855249858
1.13698e-05;0.0035155455623664188
1.13700e-05;0.00349398104068212
1.13703e-05;0.00347222443126339
1.13705e-05;0.0034504678218445117
1.13708e-05;0.003428711212425634
1.13710e-05;0.0034069546030069038
1.13713e-05;0.0033851979935880256
1.13715e-05;0.003363441384169148
1.13718e-05;0.0033416847747504176
1.13720e-05;0.0033199281653315395
1.13723e-05;0.0032981715559126617
1.13725e-05;0.0032764149464939315
1.13728e-05;0.0032546583370750533
1.13730e-05;0.0032329017276561756
1.13732e-05;0.0032074314792014543
1.13735e-05;0.0031769472389752825
1.13738e-05;0.003146462998749111
1.13740e-05;0.0031159787585229395
1.13743e-05;0.003085494518296974
1.13745e-05;0.003055010278070803
1.13748e-05;0.003024526037844631
1.13750e-05;0.002994041797618666
1.13753e-05;0.0029635575573924945
1.13755e-05;0.0029330733171663227
1.13758e-05;0.0029025890769403574
1.13760e-05;0.002872104836714186
1.13763e-05;0.0028416205964880144
1.13765e-05;0.0028111363562620495
1.13768e-05;0.0027852497720856
1.13770e-05;0.0027597332658010967
1.13773e-05;0.0027342167595167666
1.13775e-05;0.002708700253232264
1.13778e-05;0.0026831837469477606
1.13780e-05;0.002657667240663431
1.13783e-05;0.0026321507343789277
1.13785e-05;0.002606634228094425
1.13788e-05;0.0025811177218100947
1.13790e-05;0.0025556012155255915
1.13793e-05;0.0025300847092410888
1.13795e-05;0.0025045682029567586
1.13798e-05;0.002487180366900698
1.13800e-05;0.0024807675031693105
1.13803e-05;0.0024743546394379663
1.13805e-05;0.0024679417757065784
1.13808e-05;0.002461528911975191
1.13810e-05;0.0024551160482438462
1.13813e-05;0.0024487031845124587
1.13815e-05;0.0024422903207810707
1.13817e-05;0.0024358774570497265
1.13820e-05;0.002429464593318339
1.13823e-05;0.002423051729586951
1.13825e-05;0.002416638865855607
1.13828e-05;0.002410226002124219
1.13830e-05;0.0024183781000483547
1.13833e-05;0.0024277025715145977
1.13835e-05;0.002437027042980778
1.13838e-05;0.0024463515144470213
1.13840e-05;0.0024556759859132643
1.13843e-05;0.0024650004573794444
1.13845e-05;0.002474324928845688
1.13848e-05;0.002483649400311931
1.13850e-05;0.002492973871778111
1.13853e-05;0.0025022983432443544
1.13855e-05;0.0025167714987700198
1.13858e-05;0.0025316590859372516
1.13860e-05;0.0025465466731045844
1.13863e-05;0.0025614342602719173
1.13865e-05;0.002576321847439149
1.13868e-05;0.0025912094346064816
1.13870e-05;0.0026060970217738144
1.13873e-05;0.0026209846089410463
1.13875e-05;0.002635872196108379
1.13878e-05;0.0026507597832757116
1.13880e-05;0.002663497702680189
1.13883e-05;0.002676062589455471
1.13885e-05;0.0026886274762307526
1.13888e-05;0.0027011923630059493
1.13890e-05;0.002714351319306857
1.13893e-05;0.002728312362101773
1.13895e-05;0.002742273404896595
1.13898e-05;0.0027562344476915112
1.13900e-05;0.002770195490486428
1.13902e-05;0.002794822161531791
1.13905e-05;0.0028203073381248564
1.13908e-05;0.0028457925147179217
1.13910e-05;0.002889555789838353
1.13913e-05;0.00293479031903031
1.13915e-05;0.0029800248482222667
1.13918e-05;0.0030252593774142233
1.13920e-05;0.003070493906605874
1.13923e-05;0.0031157284357978304
1.13925e-05;0.0031609629649897875
1.13928e-05;0.0032061974941814376
1.13930e-05;0.003263674442878776
1.13933e-05;0.0033376805668948926
1.13935e-05;0.0034116866909105078
1.13938e-05;0.0034856928149266243
1.13940e-05;0.0035596989389427413
1.13943e-05;0.003633705062958356
1.13945e-05;0.003707711186974473
1.13948e-05;0.0037817173109905896
1.13950e-05;0.003855723435006205
1.13953e-05;0.003940927602336139
1.13955e-05;0.0040270331307567745
1.13958e-05;0.0041131386591768265
1.13960e-05;0.004199244187597462
1.13963e-05;0.004285349716018098
1.13965e-05;0.00437145524443815
1.13968e-05;0.004457560772858786
1.13970e-05;0.00453616109113187
1.13973e-05;0.004614157294541115
1.13975e-05;0.00469215349795089
1.13978e-05;0.0047701497013606636
1.13980e-05;0.004848145904769909
1.13983e-05;0.004926142108179683
1.13985e-05;0.0050041383115894565
1.13987e-05;0.005048874015746506
1.13990e-05;0.005090932491476061
1.13993e-05;0.005132990967205616
1.13995e-05;0.005175049442934887
