Time(s);Current(A)
1.45000e-05;-0.007804805337928453
1.45003e-05;-0.007783034839257212
1.45005e-05;-0.007759696611939328
1.45008e-05;-0.0077363583846214445
1.45010e-05;-0.00771302015730372
1.45013e-05;-0.007689681929985836
1.45015e-05;-0.007666343702667952
1.45018e-05;-0.007642807956877943
1.45020e-05;-0.0076183984578585585
1.45023e-05;-0.007593988958839174
1.45025e-05;-0.007569744277593542
1.45028e-05;-0.00754622869302536
1.45030e-05;-0.007522713108457177
1.45033e-05;-0.007499479937813393
1.45035e-05;-0.007477496068439594
1.45038e-05;-0.0074559688750882
1.45040e-05;-0.0074364618581017235
1.45043e-05;-0.007416954841115115
1.45045e-05;-0.007398184138016079
1.45048e-05;-0.007382670632229527
1.45050e-05;-0.007367157126442869
1.45053e-05;-0.007352407523419207
1.45055e-05;-0.007341037161326233
1.45058e-05;-0.007329666799233182
1.45060e-05;-0.007319651362464761
1.45063e-05;-0.007315629645495427
1.45065e-05;-0.007311607928526065
1.45068e-05;-0.007307586211556704
1.45070e-05;-0.0073035644945873696
1.45073e-05;-0.007299542777618008
1.45075e-05;-0.007295521060648646
1.45078e-05;-0.00729321342726435
1.45080e-05;-0.0072984883052809
1.45083e-05;-0.007303763183297451
1.45085e-05;-0.007309038061313965
1.45088e-05;-0.007314312939330515
1.45090e-05;-0.007319587817347066
1.45093e-05;-0.007324862695363615
1.45095e-05;-0.00733136906915047
1.45098e-05;-0.007343323153189204
1.45100e-05;-0.007355277237227939
1.45103e-05;-0.0073672313212665924
1.45105e-05;-0.0073791854053053265
1.45108e-05;-0.0073911394893440615
1.45110e-05;-0.007403093573382715
1.45113e-05;-0.007415047657421449
1.45115e-05;-0.007428588850888422
1.45118e-05;-0.007442861990226025
1.45120e-05;-0.007457135129563723
1.45123e-05;-0.007471408268901422
1.45125e-05;-0.007485681408239023
1.45128e-05;-0.007499954547576722
1.45130e-05;-0.00751422768691442
1.45133e-05;-0.0075282242792567835
1.45135e-05;-0.007540997523588063
1.45138e-05;-0.007553770767919344
1.45140e-05;-0.00756620282887026
1.45143e-05;-0.007577125612855994
1.45145e-05;-0.007587510027411867
1.45148e-05;-0.007595512882295484
1.45150e-05;-0.0076035157371791545
1.45153e-05;-0.007610470930275185
1.45155e-05;-0.007612791630910693
1.45158e-05;-0.007615112331546216
1.45160e-05;-0.007616335458569604
1.45163e-05;-0.00761270330052862
1.45165e-05;-0.007609071142487611
1.45168e-05;-0.007603789880491142
1.45170e-05;-0.007591213554440686
1.45173e-05;-0.0075786372283901445
1.45175e-05;-0.007566060902339603
1.45178e-05;-0.007553484576289061
1.45180e-05;-0.007540908250238605
1.45183e-05;-0.007521022493012741
1.45185e-05;-0.007497765759676509
1.45188e-05;-0.007474509026340435
1.45190e-05;-0.007451252293004204
1.45193e-05;-0.007427995559667971
1.45195e-05;-0.007403354642185489
1.45198e-05;-0.0073725905740190745
1.45200e-05;-0.007341826505852659
1.45203e-05;-0.007311062437686453
1.45205e-05;-0.007280298369520038
1.45208e-05;-0.007246964046096114
1.45210e-05;-0.007212444367907652
1.45213e-05;-0.007177924689718958
1.45215e-05;-0.007143405011530263
1.45218e-05;-0.007108706186906186
1.45220e-05;-0.007073226299618442
1.45223e-05;-0.007037845607435248
1.45225e-05;-0.007002765348780567
1.45228e-05;-0.006968177984304966
1.45230e-05;-0.006934249481450039
1.45233e-05;-0.0069011322395999405
1.45235e-05;-0.00686901244332334
1.45238e-05;-0.006838106050336352
1.45240e-05;-0.0068086348871269214
1.45243e-05;-0.006780821368074992
1.45245e-05;-0.0067548876630985025
1.45248e-05;-0.006731059766373014
1.45250e-05;-0.0067095640692296545
1.45253e-05;-0.006690580619356494
1.45255e-05;-0.006674199132063482
1.45258e-05;-0.006660457385552409
1.45260e-05;-0.00664963695925324
1.45263e-05;-0.006642127472503446
1.45265e-05;-0.006635635955156839
1.45268e-05;-0.006633647581460028
1.45270e-05;-0.006632940974323328
1.45273e-05;-0.006637904457984719
1.45275e-05;-0.006642867941646143
1.45278e-05;-0.006649704887388182
1.45280e-05;-0.006664829379735341
1.45283e-05;-0.006679953872082602
1.45285e-05;-0.006695078364429862
1.45288e-05;-0.006710202856777021
1.45290e-05;-0.006727260808423134
1.45293e-05;-0.006752871713563772
1.45295e-05;-0.006778482618704237
1.45298e-05;-0.006804093523844875
1.45300e-05;-0.006829704428985514
1.45303e-05;-0.006856402490361346
1.45305e-05;-0.006887909753942305
1.45308e-05;-0.006919417017523263
1.45310e-05;-0.006951397155573597
1.45313e-05;-0.006985469126304617
1.45315e-05;-0.007019541097035637
1.45318e-05;-0.007053754618158396
1.45320e-05;-0.007088594309131757
1.45323e-05;-0.007123434000105119
1.45325e-05;-0.007158066516940066
1.45328e-05;-0.007191782567227154
1.45330e-05;-0.0072254986175142415
1.45333e-05;-0.007258775063111314
1.45335e-05;-0.007290106849997172
1.45338e-05;-0.007320883997458007
1.45340e-05;-0.007349207612427664
1.45343e-05;-0.007376799292243002
1.45345e-05;-0.007401153144738553
1.45348e-05;-0.007424575400472342
1.45350e-05;-0.0074438765951698295
1.45353e-05;-0.007461809851000823
1.45355e-05;-0.007473691819628224
1.45358e-05;-0.007485573788255544
1.45360e-05;-0.00749575912690197
1.45363e-05;-0.007498439162830862
1.45365e-05;-0.007501119198759734
1.45368e-05;-0.007502045509472724
1.45370e-05;-0.0074952139479470305
1.45373e-05;-0.007488382386421384
1.45375e-05;-0.007479448880754875
1.45378e-05;-0.00746121710307363
1.45380e-05;-0.007442985325392509
1.45383e-05;-0.0074247535477112644
1.45385e-05;-0.00740652177003002
1.45388e-05;-0.0073802494905823015
1.45390e-05;-0.007350269078622282
1.45393e-05;-0.007320288666662263
1.45395e-05;-0.007290308254702447
1.45398e-05;-0.007258918959389972
1.45400e-05;-0.007221297252665805
1.45403e-05;-0.007183675545941893
1.45405e-05;-0.007145396342512456
1.45408e-05;-0.007104208601650086
1.45410e-05;-0.007062729460446183
1.45413e-05;-0.0070198182265861645
1.45415e-05;-0.006976176619636935
1.45418e-05;-0.006932051661279751
1.45420e-05;-0.006887693411625296
1.45423e-05;-0.006843351930785152
1.45425e-05;-0.006799277021298412
1.45428e-05;-0.006755715972571963
1.45430e-05;-0.006712909997152929
1.45433e-05;-0.00667110442874795
1.45435e-05;-0.006630565664943279
1.45438e-05;-0.006591573667139423
1.45440e-05;-0.006554412610953217
1.45443e-05;-0.006519365238643779
1.45445e-05;-0.006486707717816142
1.45448e-05;-0.006456614361962184
1.45450e-05;-0.006428867563573117
1.45453e-05;-0.006402949975010503
1.45455e-05;-0.006378605719309995
1.45458e-05;-0.006356086382076886
1.45460e-05;-0.006335779591829327
1.45463e-05;-0.006316222423380178
1.45465e-05;-0.006299981321832212
1.45468e-05;-0.006284599124365463
1.45470e-05;-0.0062730164207254
1.45473e-05;-0.006261433717085415
1.45475e-05;-0.006250933218564389
1.45478e-05;-0.006245220020230395
1.45480e-05;-0.0062395068218964395
1.45483e-05;-0.006233793623562445
1.45485e-05;-0.006228080425228451
1.45488e-05;-0.00622356856215128
1.45490e-05;-0.00622437098968157
1.45493e-05;-0.00622517341721186
1.45495e-05;-0.006225975844742144
1.45498e-05;-0.006226778272272434
1.45500e-05;-0.006228471425533988
1.45503e-05;-0.006234104840567375
1.45505e-05;-0.006239738255600802
1.45508e-05;-0.006245371670634228
1.45510e-05;-0.006251005085667616
1.45513e-05;-0.006256638500701042
1.45515e-05;-0.006262731110242702
1.45518e-05;-0.006270855037061073
1.45520e-05;-0.006278978963879389
1.45523e-05;-0.00628710289069776
1.45525e-05;-0.00629522681751613
1.45528e-05;-0.006303350744334446
1.45530e-05;-0.006311456870031963
1.45533e-05;-0.006319484249743432
1.45535e-05;-0.006327511629454847
1.45538e-05;-0.006335128266905085
1.45540e-05;-0.006340927923018073
1.45543e-05;-0.006346727579131023
1.45545e-05;-0.006352527235244011
1.45548e-05;-0.0063583268913570004
1.45550e-05;-0.00636412654746995
1.45553e-05;-0.006369926203582938
1.45555e-05;-0.006375725859695927
1.45558e-05;-0.006381525515808876
1.45560e-05;-0.00638722821018964
1.45563e-05;-0.0063925019794888295
1.45565e-05;-0.006397775748787983
1.45568e-05;-0.006403049518087172
1.45570e-05;-0.006408323287386362
1.45573e-05;-0.006413597056685515
1.45575e-05;-0.006418870825984704
1.45578e-05;-0.006424144595283894
1.45580e-05;-0.006429418364583047
1.45583e-05;-0.0064348582108987775
1.45585e-05;-0.006441032724348049
1.45588e-05;-0.006447207237797278
1.45590e-05;-0.00645338175124655
1.45593e-05;-0.006459556264695822
1.45595e-05;-0.006465730778145051
1.45598e-05;-0.0064719052915943225
1.45600e-05;-0.006478079805043595
1.45603e-05;-0.006484254318492866
1.45605e-05;-0.006490466876352567
1.45608e-05;-0.006496847729492258
1.45610e-05;-0.00650322858263195
1.45613e-05;-0.006509609435771599
1.45615e-05;-0.006515990288911291
1.45618e-05;-0.006522371142050983
1.45620e-05;-0.0065287519951906315
1.45623e-05;-0.0065351328483303234
1.45625e-05;-0.006541513701470015
1.45628e-05;-0.00654766981307406
1.45630e-05;-0.006552831746054082
1.45633e-05;-0.006557993679034102
1.45635e-05;-0.006563155612014088
1.45638e-05;-0.006568317544994109
1.45640e-05;-0.00657347947797413
1.45643e-05;-0.006578399020933233
1.45645e-05;-0.0065822463144889695
1.45648e-05;-0.006586105027091679
1.45650e-05;-0.0065900142535986
1.45653e-05;-0.006594355400548907
1.45655e-05;-0.006600607213771872
1.45658e-05;-0.006606859026994794
1.45660e-05;-0.006613567916907437
1.45663e-05;-0.006622298755603599
1.45665e-05;-0.0066310295942997016
1.45668e-05;-0.006640613454397502
1.45670e-05;-0.006653970785390635
1.45673e-05;-0.006667328116383676
1.45675e-05;-0.006680685447376809
1.45678e-05;-0.006694042778369941
1.45680e-05;-0.006707400109362983
1.45683e-05;-0.006721598591372306
1.45685e-05;-0.006739542402855728
1.45688e-05;-0.006757486214339029
1.45690e-05;-0.006775430025822452
1.45693e-05;-0.006793373837305874
1.45695e-05;-0.0068113176487892965
1.45698e-05;-0.006829652825153107
1.45700e-05;-0.0068475948182454005
1.45703e-05;-0.006882300039257345
1.45705e-05;-0.006900364393876195
1.45708e-05;-0.006925234788826499
1.45710e-05;-0.006950105183776802
1.45713e-05;-0.006974975578726936
1.45715e-05;-0.00699984597367724
1.45718e-05;-0.007024716368627543
1.45720e-05;-0.007049586763577677
1.45723e-05;-0.007072690702420477
1.45725e-05;-0.007095561561331652
1.45728e-05;-0.007118432420242673
1.45730e-05;-0.007141303279153848
1.45733e-05;-0.007164174138065024
1.45735e-05;-0.007187044996976044
1.45738e-05;-0.00720991585588722
1.45740e-05;-0.007229313697804532
1.45743e-05;-0.007248287998278332
1.45745e-05;-0.007265112154849065
1.45748e-05;-0.0072816740970240955
1.45750e-05;-0.007292958664797653
1.45753e-05;-0.007303599646094352
1.45755e-05;-0.007314240627391049
1.45758e-05;-0.007318134073479047
1.45760e-05;-0.007321204644007568
1.45763e-05;-0.007324275214536089
1.45765e-05;-0.007320678630360187
1.45768e-05;-0.007316268973189802
1.45770e-05;-0.007311859316019418
1.45773e-05;-0.0072976274655890795
1.45775e-05;-0.007282197778834138
1.45778e-05;-0.007266768092079196
1.45780e-05;-0.007251338405324254
1.45783e-05;-0.007235908718569416
1.45785e-05;-0.007210009173678692
1.45788e-05;-0.007182832808422382
1.45790e-05;-0.007155656443166257
1.45793e-05;-0.007128480077909947
1.45795e-05;-0.007101303712653637
1.45798e-05;-0.0070673192708659354
1.45800e-05;-0.00703250457038166
1.45803e-05;-0.006997689869897384
1.45805e-05;-0.006960053689198427
1.45808e-05;-0.0069220734232830336
1.45810e-05;-0.006882297462435331
1.45813e-05;-0.006842302512960672
1.45815e-05;-0.006801406706938753
1.45818e-05;-0.006760074813771978
1.45820e-05;-0.006718588169060991
1.45823e-05;-0.006677224883918158
1.45825e-05;-0.006636236536938317
1.45828e-05;-0.006595756307331809
1.45830e-05;-0.006555956945274323
1.45833e-05;-0.006517086212891238
1.45835e-05;-0.00647939192297816
1.45838e-05;-0.00644313540261401
1.45840e-05;-0.00640858141060891
1.45843e-05;-0.006376018150791021
1.45845e-05;-0.006345718814502225
1.45848e-05;-0.006317792548815004
1.45850e-05;-0.006292723884139538
1.45853e-05;-0.006267972124073982
1.45855e-05;-0.006245906746869593
1.45858e-05;-0.006224168979486284
1.45860e-05;-0.0062054226535044055
1.45863e-05;-0.00618704113984922
1.45865e-05;-0.006172909555129868
1.45868e-05;-0.006159296257836376
1.45870e-05;-0.006145682960542793
1.45873e-05;-0.006137660239888919
1.45875e-05;-0.006130319301358775
1.45878e-05;-0.006122978362828581
1.45880e-05;-0.006115637424298387
1.45883e-05;-0.0061082964857682425
1.45885e-05;-0.006103688970861739
1.45888e-05;-0.0061033334596353
1.45890e-05;-0.006102977948408864
1.45893e-05;-0.006102622437182426
1.45895e-05;-0.006102266925955988
1.45898e-05;-0.006101911414729553
1.45900e-05;-0.006106029869040852
1.45903e-05;-0.006110693932494532
1.45905e-05;-0.00611535799594818
1.45908e-05;-0.0061200220594018594
1.45910e-05;-0.006124686122855539
1.45913e-05;-0.006129350186309186
1.45915e-05;-0.006136378695561104
1.45918e-05;-0.006143695553758356
1.45920e-05;-0.006151012411955558
1.45923e-05;-0.00615832927015281
1.45925e-05;-0.006165646128350063
1.45928e-05;-0.006172962986547265
1.45930e-05;-0.006180474293623682
1.45933e-05;-0.006188009314134038
1.45935e-05;-0.0061955443346443425
1.45938e-05;-0.006201277896913467
1.45940e-05;-0.006206791767707989
1.45943e-05;-0.0062123056385024735
1.45945e-05;-0.006217819509296996
1.45948e-05;-0.006223333380091518
1.45950e-05;-0.00622884725088604
1.45953e-05;-0.006234361121680525
1.45955e-05;-0.006239874992475047
1.45958e-05;-0.00624538886326957
1.45960e-05;-0.006250839131442436
1.45963e-05;-0.006256190461939199
1.45965e-05;-0.006261541792435961
1.45968e-05;-0.006266893122932688
1.45970e-05;-0.006272244453429452
1.45973e-05;-0.006277595783926214
1.45975e-05;-0.006282947114422941
1.45978e-05;-0.006288298444919704
1.45980e-05;-0.006293649775416466
1.45983e-05;-0.006299001105913193
1.45985e-05;-0.006305582214193967
1.45988e-05;-0.006312313296361857
1.45990e-05;-0.006319044378529702
1.45993e-05;-0.0063257754606975925
1.45995e-05;-0.0063325065428654825
1.45998e-05;-0.006339237625033327
1.46000e-05;-0.006345968707201218
1.46003e-05;-0.006352699789369108
1.46005e-05;-0.006359430871536953
1.46008e-05;-0.006366493298468675
1.46010e-05;-0.006373596133564266
1.46013e-05;-0.006380698968659809
1.46015e-05;-0.0063878018037554
1.46018e-05;-0.006394904638850991
1.46020e-05;-0.006402007473946534
1.46023e-05;-0.006409110309042125
1.46025e-05;-0.006416213144137716
1.46028e-05;-0.006423315979233259
1.46030e-05;-0.0064287505560389315
1.46033e-05;-0.006433981685373189
1.46035e-05;-0.006439212814707446
1.46038e-05;-0.006444443944041669
1.46040e-05;-0.006449675073375926
1.46043e-05;-0.0064549062027101835
1.46045e-05;-0.006460137332044406
1.46048e-05;-0.0064653684613786636
1.46050e-05;-0.006468459036201253
1.46053e-05;-0.006468219850650621
1.46055e-05;-0.006467980665099987
1.46058e-05;-0.006467741479549353
1.46060e-05;-0.00646750229399872
1.46063e-05;-0.0064672631084480865
1.46065e-05;-0.006467023922897453
1.46068e-05;-0.0064667847373468205
1.46070e-05;-0.006466545551796187
1.46073e-05;-0.0064604082936050656
1.46075e-05;-0.006453551753530397
1.46078e-05;-0.006446695213455682
1.46080e-05;-0.006439838673380966
1.46083e-05;-0.006432982133306298
1.46085e-05;-0.006426125593231582
1.46088e-05;-0.0064173944253447185
1.46090e-05;-0.00640574716194626
1.46093e-05;-0.0063940998985477235
1.46095e-05;-0.006382452635149186
1.46098e-05;-0.006370805371750728
1.46100e-05;-0.00635915810835219
1.46103e-05;-0.006347510844953653
1.46105e-05;-0.0063334730464145355
1.46108e-05;-0.006319143717281502
1.46110e-05;-0.006304814388148468
1.46113e-05;-0.006290485059015531
1.46115e-05;-0.006276155729882498
1.46118e-05;-0.00626166969585849
1.46120e-05;-0.0062469398980183714
1.46123e-05;-0.006232210100178353
1.46125e-05;-0.006217480302338234
1.46128e-05;-0.006202750504498116
1.46130e-05;-0.006188020706658097
1.46133e-05;-0.00617412660320033
1.46135e-05;-0.006160334414362206
1.46138e-05;-0.0061474324984072785
1.46140e-05;-0.006134639153030429
1.46143e-05;-0.006123414887669698
1.46145e-05;-0.006112381974789591
1.46148e-05;-0.006101349061909409
1.46150e-05;-0.006093539421085942
1.46153e-05;-0.006086122864807128
1.46155e-05;-0.006078706308528263
1.46158e-05;-0.006071289752249399
1.46160e-05;-0.006063873195970584
1.46163e-05;-0.00605645663969172
1.46165e-05;-0.006049040083412855
1.46168e-05;-0.006043451799452507
1.46170e-05;-0.006040707502265971
1.46173e-05;-0.006037963205079435
1.46175e-05;-0.006035218907892917
1.46178e-05;-0.006032474610706382
1.46180e-05;-0.006029730313519845
1.46183e-05;-0.006026986016333328
1.46185e-05;-0.006024241719146792
1.46188e-05;-0.00602486358039351
1.46190e-05;-0.006025895951467466
1.46193e-05;-0.006026928322541429
1.46195e-05;-0.006027960693615392
1.46198e-05;-0.006028993064689348
1.46200e-05;-0.006030025435763311
1.46203e-05;-0.006031057806837274
1.46205e-05;-0.006032090177911237
1.46208e-05;-0.006034949009174485
1.46210e-05;-0.006038030580950908
1.46213e-05;-0.00604111215272733
1.46215e-05;-0.006044193724503732
1.46218e-05;-0.0060472752962801544
1.46220e-05;-0.006050356868056577
1.46223e-05;-0.006053438439832979
1.46225e-05;-0.006056520011609401
1.46228e-05;-0.00605982906545042
1.46230e-05;-0.006063165861189163
1.46233e-05;-0.0060665026569279275
1.46235e-05;-0.006069630790473038
1.46238e-05;-0.0060724343375147755
1.46240e-05;-0.006075237884556532
1.46243e-05;-0.006078041431598289
1.46245e-05;-0.006080225631735028
1.46248e-05;-0.006082334301264386
1.46250e-05;-0.006084442970793745
1.46253e-05;-0.006087420884227373
1.46255e-05;-0.006090504803712784
1.46258e-05;-0.006093588723198194
1.46260e-05;-0.006097988890734721
1.46263e-05;-0.006102549577382613
1.46265e-05;-0.006107110264030505
1.46268e-05;-0.006114042877179342
1.46270e-05;-0.006121264751561157
1.46273e-05;-0.006128486625942972
1.46275e-05;-0.0061357085003247375
1.46278e-05;-0.006142930374706552
1.46280e-05;-0.006150152249088367
1.46283e-05;-0.006157374123470133
1.46285e-05;-0.006168090563498193
1.46288e-05;-0.006179233172873056
1.46290e-05;-0.006190375782247921
1.46293e-05;-0.006201518391622709
1.46295e-05;-0.006212661000997572
1.46298e-05;-0.006223803610372436
1.46300e-05;-0.006234946219747225
1.46303e-05;-0.006248169484270798
1.46305e-05;-0.006261646488897017
1.46308e-05;-0.006275123493523143
1.46310e-05;-0.006288600498149361
1.46313e-05;-0.0063020775027755795
1.46315e-05;-0.006315554507401706
1.46318e-05;-0.006329031512027924
1.46320e-05;-0.006342508516654142
1.46323e-05;-0.006355432209387067
1.46325e-05;-0.0063674951924266145
1.46328e-05;-0.006379558175466161
1.46330e-05;-0.006391621158505627
1.46333e-05;-0.006403684141545175
1.46335e-05;-0.006415747124584722
1.46338e-05;-0.006427810107624187
1.46340e-05;-0.006439873090663735
1.46343e-05;-0.006451936073703282
1.46345e-05;-0.006460875122196681
1.46348e-05;-0.006469433200555251
1.46350e-05;-0.006477991278913822
1.46353e-05;-0.006487346881291139
1.46355e-05;-0.0064967997433353145
1.46358e-05;-0.00650625260537949
1.46360e-05;-0.006515705467423601
1.46363e-05;-0.0065251583294677765
1.46365e-05;-0.006534611191511952
1.46368e-05;-0.006544064053556064
1.46370e-05;-0.006554754616989658
1.46373e-05;-0.006567370498849913
1.46375e-05;-0.0065799863807101695
1.46378e-05;-0.00659260226257034
1.46380e-05;-0.006605218144430596
1.46383e-05;-0.006617834026290853
1.46385e-05;-0.006630449908151023
1.46388e-05;-0.0066430657900112796
1.46390e-05;-0.006658727577635015
1.46393e-05;-0.00667476081962586
1.46395e-05;-0.006690794061616814
1.46398e-05;-0.006706827303607768
1.46400e-05;-0.006722860545598613
1.46403e-05;-0.006738893787589567
1.46405e-05;-0.00675492702958052
1.46408e-05;-0.006770960271571366
1.46410e-05;-0.006787816808456179
1.46413e-05;-0.006804773747818169
1.46415e-05;-0.006821730687180044
1.46418e-05;-0.006838687626542033
1.46420e-05;-0.006855644565904023
1.46423e-05;-0.006872601505265897
1.46425e-05;-0.006889558444627886
1.46428e-05;-0.006906515383989876
1.46430e-05;-0.006920601971515046
1.46433e-05;-0.006934338513829337
1.46435e-05;-0.006948075056143628
1.46438e-05;-0.006961811598457825
1.46440e-05;-0.006975548140772116
1.46443e-05;-0.006989284683086407
1.46445e-05;-0.007003021225400605
1.46448e-05;-0.007011727118181346
1.46450e-05;-0.007019819513078262
1.46453e-05;-0.0070279119079751234
1.46455e-05;-0.007036004302872039
1.46458e-05;-0.007044096697768955
1.46460e-05;-0.007052189092665871
1.46463e-05;-0.007060281487562732
1.46465e-05;-0.007062409558128562
