Time(s);Current(A)
7.75000e-06;-0.0006382066316311656
7.75025e-06;-0.0006114604185607727
7.75050e-06;-0.0005860177913269353
7.75075e-06;-0.0005620790906383622
7.75100e-06;-0.0005398485244765916
7.75125e-06;-0.0005195941460807983
7.75150e-06;-0.0005018266409032951
7.75175e-06;-0.0004871524875379157
7.75200e-06;-0.00047584769357773225
7.75225e-06;-0.0004679138488150169
7.75250e-06;-0.0004633219658347866
7.75275e-06;-0.00046204305722186996
7.75300e-06;-0.00046405062285091747
7.75325e-06;-0.0004693581328018262
7.75350e-06;-0.00047813100729472225
7.75375e-06;-0.0004905946931621807
7.75400e-06;-0.0005067675611767114
7.75425e-06;-0.0005264960848179817
7.75450e-06;-0.0005496076151336372
7.75475e-06;-0.0005760546771144256
7.75500e-06;-0.0006066144266897574
7.75525e-06;-0.0006376677611992529
7.75550e-06;-0.0006739394285400233
7.75575e-06;-0.0007106740260369872
7.75600e-06;-0.0007523028645534769
7.75625e-06;-0.0007943871244111324
7.75650e-06;-0.0008412862397674387
7.75675e-06;-0.0008881853551234271
7.75700e-06;-0.0009354608518363003
7.75725e-06;-0.0009867155688485468
7.75750e-06;-0.001037970285860446
7.75775e-06;-0.0010894309541583478
7.75800e-06;-0.0011430690032492499
7.75825e-06;-0.0011967070523397883
7.75850e-06;-0.0012503440166470618
7.75875e-06;-0.0013039695122857601
7.75900e-06;-0.0013574685057219696
7.75925e-06;-0.0014096300786886943
7.75950e-06;-0.0014615706223803497
7.75975e-06;-0.0015111743761032177
7.76000e-06;-0.0015603380966528607
7.76025e-06;-0.0016048496501738184
7.76050e-06;-0.0016493612036944743
7.76075e-06;-0.0016932611773313603
7.76100e-06;-0.001730695338972064
7.76125e-06;-0.001767736066189448
7.76150e-06;-0.0018006172828009385
7.76175e-06;-0.0018333797281801234
7.76200e-06;-0.0018648864872946869
7.76225e-06;-0.001896393246409037
7.76250e-06;-0.0019276435170693836
7.76275e-06;-0.0019561821123335404
7.76300e-06;-0.0019847207075975037
7.76325e-06;-0.0020130503604571183
7.76350e-06;-0.0020391710094869297
7.76375e-06;-0.0020652916585165637
7.76400e-06;-0.002091403019939848
7.76425e-06;-0.002117416189909679
7.76450e-06;-0.0021434293598793343
7.76475e-06;-0.002169442529849165
7.76500e-06;-0.002194617960336828
7.76525e-06;-0.0022192025480000737
7.76550e-06;-0.0022437871356634858
7.76575e-06;-0.002268312122262904
7.76600e-06;-0.002292206987949437
7.76625e-06;-0.0023161018536361315
7.76650e-06;-0.0023399967193228266
7.76675e-06;-0.0023638915850093594
7.76700e-06;-0.002387786450696054
7.76725e-06;-0.0024116813163827487
7.76750e-06;-0.0024355761820692816
7.76775e-06;-0.0024594710477559767
7.76800e-06;-0.002483047117833773
7.76825e-06;-0.0025032527819716355
7.76850e-06;-0.0025234584461096346
7.76875e-06;-0.002543664110247634
7.76900e-06;-0.002563869774385496
7.76925e-06;-0.0025840754385234956
7.76950e-06;-0.0026042811026614947
7.76975e-06;-0.002624486766799494
7.77000e-06;-0.0026446924309373562
7.77025e-06;-0.0026645530198705887
7.77050e-06;-0.002680765366834173
7.77075e-06;-0.002696776587871277
7.77100e-06;-0.0027106614433055755
7.77125e-06;-0.002724175483816055
7.77150e-06;-0.0027337691540724584
7.77175e-06;-0.002742767886736488
7.77200e-06;-0.0027454767548600882
7.77225e-06;-0.0027474474235337086
7.77250e-06;-0.0027416136189263043
7.77275e-06;-0.0027357798143188995
7.77300e-06;-0.002729067693773579
7.77325e-06;-0.002713069745027656
7.77350e-06;-0.002697071796281734
7.77375e-06;-0.0026800643381678793
7.77400e-06;-0.0026523840342664454
7.77425e-06;-0.0026247037303650115
7.77450e-06;-0.0025962689099902777
7.77475e-06;-0.002559857107705858
7.77500e-06;-0.0025230504072951405
7.77525e-06;-0.0024818121962127304
7.77550e-06;-0.002437595576041817
7.77575e-06;-0.002390305153817437
7.77600e-06;-0.002340055736711381
7.77625e-06;-0.0022871490299640525
7.77650e-06;-0.0022319083951005568
7.77675e-06;-0.002174656788343675
7.77700e-06;-0.00211571558797854
7.77725e-06;-0.0020553769397587797
7.77750e-06;-0.001993817321204181
7.77775e-06;-0.001931153227245491
7.77800e-06;-0.001867633495523205
7.77825e-06;-0.0018036233481095968
7.77850e-06;-0.001739501793053699
7.77875e-06;-0.0016756474331008572
7.77900e-06;-0.0016124379570091987
7.77925e-06;-0.001550232683317643
7.77950e-06;-0.0014893184453263094
7.77975e-06;-0.0014299447622059109
7.78000e-06;-0.0013724435062110931
7.78025e-06;-0.0013172196962434844
7.78050e-06;-0.0012646870421777966
7.78075e-06;-0.0012154237850473854
7.78100e-06;-0.0011710846814231607
7.78125e-06;-0.0011273556805654534
7.78150e-06;-0.0010900768751719804
7.78175e-06;-0.0010532867354608308
7.78200e-06;-0.0010216629207401703
7.78225e-06;-0.0009905615827480252
7.78250e-06;-0.0009649840305970903
7.78275e-06;-0.0009399877045071727
7.78300e-06;-0.0009211362804055603
7.78325e-06;-0.0009028448460905874
7.78350e-06;-0.0008904737972936655
7.78375e-06;-0.0008785580910346644
7.78400e-06;-0.0008714564071572318
7.78425e-06;-0.0008648026592772289
7.78450e-06;-0.0008628846295386452
7.78475e-06;-0.0008614227596980762
7.78500e-06;-0.0008647835536239093
7.78525e-06;-0.0008686404859997968
7.78550e-06;-0.0008777427477802681
7.78575e-06;-0.0008868450095607394
7.78600e-06;-0.0008964017152020148
7.78625e-06;-0.0009107629421332291
7.78650e-06;-0.0009251241690644435
7.78675e-06;-0.0009398761427703655
7.78700e-06;-0.0009587592124369609
7.78725e-06;-0.0009776422821036843
7.78750e-06;-0.0009967717099881768
7.78775e-06;-0.00101850571327608
7.78800e-06;-0.0010402397165641304
7.78825e-06;-0.001062081966838994
7.78850e-06;-0.0010850686377948538
7.78875e-06;-0.0011080553087508694
7.78900e-06;-0.001131039357447857
7.78925e-06;-0.0011539956828098274
7.78950e-06;-0.0011769520081719536
7.78975e-06;-0.0011997790363797048
7.79000e-06;-0.0012212390950127974
7.79025e-06;-0.0012425223121187527
7.79050e-06;-0.0012619359058095951
7.79075e-06;-0.0012811155634802891
7.79100e-06;-0.001297821977069707
7.79125e-06;-0.0013141782184808042
7.79150e-06;-0.0013268323311326625
7.79175e-06;-0.0013388832370232865
7.79200e-06;-0.0013445568541478568
7.79225e-06;-0.0013502304712723887
7.79250e-06;-0.0013551809317281435
7.79275e-06;-0.0013524859558329513
7.79300e-06;-0.0013497909799377772
7.79325e-06;-0.0013463365683195308
7.79350e-06;-0.0013348531669489596
7.79375e-06;-0.0013233697655784663
7.79400e-06;-0.0013111064902894866
7.79425e-06;-0.0012905981463147375
7.79450e-06;-0.0012700898023401271
7.79475e-06;-0.0012490128104295916
7.79500e-06;-0.0012219238963630385
7.79525e-06;-0.0011944176155689729
7.79550e-06;-0.0011624988044230192
7.79575e-06;-0.0011301858194580116
7.79600e-06;-0.0010937055067566969
7.79625e-06;-0.0010569737338340587
7.79650e-06;-0.0010174421252281485
7.79675e-06;-0.0009762948012435465
7.79700e-06;-0.0009337587164911731
7.79725e-06;-0.000890046455083861
7.79750e-06;-0.0008453129969393233
7.79775e-06;-0.0007996887949893445
7.79800e-06;-0.0007533792118803346
7.79825e-06;-0.0007066525122973932
7.79850e-06;-0.0006597841729803065
7.79875e-06;-0.0006130494680167147
7.79900e-06;-0.0005667231843215008
7.79925e-06;-0.000521070617208201
7.79950e-06;-0.00047632121890019494
7.79975e-06;-0.0004326891009382696
7.80000e-06;-0.00039043510019248296
7.80025e-06;-0.0003498596288841698
7.80050e-06;-0.0003112674307073755
7.80075e-06;-0.00027496321773730375
7.80100e-06;-0.00024124274090253634
7.80125e-06;-0.00021025322517046564
7.80150e-06;-0.00018152230478750707
7.80175e-06;-0.0001541451601006728
7.80200e-06;-0.00012772425663626764
7.80225e-06;-0.00010238538931638168
7.80250e-06;-7.831774067443697e-05
7.80275e-06;-5.571041886747901e-05
7.80300e-06;-3.474693335892581e-05
7.80325e-06;-1.5517704235211705e-05
7.80350e-06;2.2749093154404017e-06
7.80375e-06;1.91994350801404e-05
7.80400e-06;3.550657718462727e-05
7.80425e-06;5.111921351024225e-05
7.80450e-06;6.592054957659634e-05
7.80475e-06;7.979382427387172e-05
7.80500e-06;9.262581166803635e-05
7.80525e-06;0.00010436159542899157
7.80550e-06;0.00011518933056563111
7.80575e-06;0.0001254668370344037
7.80600e-06;0.00013535283691164504
7.80625e-06;0.000144775831073152
7.80650e-06;0.0001534762392892522
7.80675e-06;0.00016206603352755594
7.80700e-06;0.00016948638252054253
7.80725e-06;0.00017681133866799347
7.80750e-06;0.00018312777209584884
7.80775e-06;0.00018939768389890252
7.80800e-06;0.00019517575467096923
7.80825e-06;0.00020088513323858942
7.80850e-06;0.00020586827653744236
7.80875e-06;0.00021085141983632908
7.80900e-06;0.00021574130737206645
7.80925e-06;0.0002196452660856758
7.80950e-06;0.0002235492247993116
7.80975e-06;0.0002274063232076826
7.81000e-06;0.00023076799994967213
7.81025e-06;0.00023412967669168442
7.81050e-06;0.00023746226840630968
7.81075e-06;0.00024046870826867074
7.81100e-06;0.00024324762928298302
7.81125e-06;0.0002456094107141289
7.81150e-06;0.0002467430602383478
7.81175e-06;0.0002454798191102952
7.81200e-06;0.00024129638722316917
7.81225e-06;0.00023426635850174222
7.81250e-06;0.00022453276623574063
7.81275e-06;0.00021223866904628063
7.81300e-06;0.00019752119960248933
7.81325e-06;0.0001804204887849612
7.81350e-06;0.00016058750987466567
7.81375e-06;0.00013744910958453973
7.81400e-06;0.00011083653181011384
7.81425e-06;8.095493017176535e-05
7.81450e-06;4.8052927779328075e-05
7.81475e-06;1.237914522776069e-05
7.81500e-06;-2.582152492883648e-05
7.81525e-06;-6.636495770473636e-05
7.81550e-06;-0.00010931081049418577
7.81575e-06;-0.00015485908983385683
7.81600e-06;-0.00020295646812548064
7.81625e-06;-0.00025331547050403325
7.81650e-06;-0.00030567940843720013
7.81675e-06;-0.00036017358065545583
7.81700e-06;-0.00041489660239778226
7.81725e-06;-0.00047203909222036367
7.81750e-06;-0.0005291815820429451
7.81775e-06;-0.0005864891911900063
7.81800e-06;-0.0006455424930012245
7.81825e-06;-0.0007045957948124428
7.81850e-06;-0.0007636051352220203
7.81875e-06;-0.0008221497020768549
7.81900e-06;-0.0008805227113238163
7.81925e-06;-0.0009370819603836615
7.81950e-06;-0.00099338988251541
7.81975e-06;-0.0010470406984866057
7.82000e-06;-0.0011002163188716086
7.82025e-06;-0.0011483680242856654
7.82050e-06;-0.0011965197296997221
7.82075e-06;-0.00124400989650375
7.82100e-06;-0.0012845060721465324
7.82125e-06;-0.0013245222335513509
7.82150e-06;-0.0013594635356981135
7.82175e-06;-0.001394100231609297
7.82200e-06;-0.001425516536018801
7.82225e-06;-0.0014569328404283048
7.82250e-06;-0.0014878774098289998
7.82275e-06;-0.0015138346505520733
7.82300e-06;-0.0015397918912751468
7.82325e-06;-0.001565310225526323
7.82350e-06;-0.0015861883045631946
7.82375e-06;-0.0016070663836000663
7.82400e-06;-0.0016276383289859457
7.82425e-06;-0.0016449737345591946
7.82450e-06;-0.0016623091401324435
7.82475e-06;-0.0016796445457055748
7.82500e-06;-0.0016965910890445245
7.82525e-06;-0.0017094264603525532
7.82550e-06;-0.001722261831660495
7.82575e-06;-0.0017350972029685236
7.82600e-06;-0.0017475532062742154
7.82625e-06;-0.0017559984135106998
7.82650e-06;-0.0017644436207472415
7.82675e-06;-0.0017728888279837831
7.82700e-06;-0.0017813340352202675
7.82725e-06;-0.001789779242456809
7.82750e-06;-0.0017982244496933507
7.82775e-06;-0.001806669656929835
7.82800e-06;-0.0018151148641663767
7.82825e-06;-0.001823204122655131
7.82850e-06;-0.0018275301806893695
7.82875e-06;-0.0018318562387236372
7.82900e-06;-0.0018361822967579047
7.82925e-06;-0.0018405083547921725
7.82950e-06;-0.001844834412826411
7.82975e-06;-0.0018491604708606787
7.83000e-06;-0.0018534865288949462
7.83025e-06;-0.0018578125869291846
7.83050e-06;-0.0018620231074039663
7.83075e-06;-0.0018650121289995338
7.83100e-06;-0.0018679233882080877
7.83125e-06;-0.0018700125193659401
7.83150e-06;-0.0018718299952199691
7.83175e-06;-0.0018707754470272035
7.83200e-06;-0.0018692928418758744
7.83225e-06;-0.00186328468592148
7.83250e-06;-0.0018572765299671263
7.83275e-06;-0.0018508031611193286
7.83300e-06;-0.0018394114174121686
7.83325e-06;-0.0018280196737050856
7.83350e-06;-0.001816061656180917
7.83375e-06;-0.0017981168163979041
7.83400e-06;-0.001780171976615013
7.83425e-06;-0.0017616734947921721
7.83450e-06;-0.001737321737772414
7.83475e-06;-0.0017129699807528207
7.83500e-06;-0.0016881640363994221
7.83525e-06;-0.001658556282819607
7.83550e-06;-0.0016289485292399924
7.83575e-06;-0.0015989621358771273
7.83600e-06;-0.0015649726454016217
7.83625e-06;-0.0015307433490038913
7.83650e-06;-0.0014939787500866753
7.83675e-06;-0.001457080873681262
7.83700e-06;-0.0014187084167238343
7.83725e-06;-0.0013795858190509681
7.83750e-06;-0.0013398016056482252
7.83775e-06;-0.0012993874652226071
7.83800e-06;-0.0012584804222280132
7.83825e-06;-0.0012173146064788061
7.83850e-06;-0.0011761354013540399
7.83875e-06;-0.0011351879875815742
7.83900e-06;-0.001094716686501493
7.83925e-06;-0.0010549500563071738
7.83950e-06;-0.0010160539833854432
7.83975e-06;-0.000978158204268962
7.84000e-06;-0.0009415321371720731
7.84025e-06;-0.0009069866762235866
7.84050e-06;-0.0008726836090852012
7.84075e-06;-0.0008411351809412252
7.84100e-06;-0.0008118188469210378
7.84125e-06;-0.0007847819570434738
7.84150e-06;-0.000758731072158224
7.84175e-06;-0.0007378396060162244
7.84200e-06;-0.0007150652516495627
7.84225e-06;-0.000687033601830408
7.84250e-06;-0.0006622882180136031
7.84275e-06;-0.0006333241891519655
7.84300e-06;-0.00060906508140171
7.84325e-06;-0.000582085114711978
7.84350e-06;-0.0005584576759964738
7.84375e-06;-0.0005306319458595895
7.84400e-06;-0.0005054652048052543
7.84425e-06;-0.00047590944341480666
7.84450e-06;-0.0004488770039483292
7.84475e-06;-0.00041800300021177457
7.84500e-06;-0.00039013832467637145
7.84525e-06;-0.00035922537556244076
7.84550e-06;-0.00033892100855121903
7.84575e-06;-0.00031204851288348876
7.84600e-06;-0.0002812585876560602
7.84625e-06;-0.00024816640858124395
7.84650e-06;-0.00021420846734588727
7.84675e-06;-0.0001812794087140459
7.84700e-06;-0.00014909537907619667
7.84725e-06;-0.0001171948976067223
7.84750e-06;-8.542131298449693e-05
7.84775e-06;-5.37596433913828e-05
7.84800e-06;-2.1772714693263566e-05
7.84825e-06;1.1191536452816907e-05
7.84850e-06;4.415962692504021e-05
7.84875e-06;7.587457400523619e-05
7.84900e-06;0.00010644404304580277
7.84925e-06;0.0001360869504407192
7.84950e-06;0.00016483125727141928
7.84975e-06;0.0001926161809953359
7.85000e-06;0.00021964538421520393
7.85025e-06;0.0002462571144394041
7.85050e-06;0.00027177140042662726
7.85075e-06;0.0002953307275489663
7.85100e-06;0.00031693245643709257
7.85125e-06;0.0003367659495592129
7.85150e-06;0.0003549980368433058
7.85175e-06;0.0003726698099369386
7.85200e-06;0.00038994196009840907
7.85225e-06;0.0004066424772125101
7.85250e-06;0.00042314568785756733
7.85275e-06;0.00043855830020683484
7.85300e-06;0.0004520984462276947
7.85325e-06;0.0004649183537003872
7.85350e-06;0.00047773826117316655
7.85375e-06;0.0004897734888696936
7.85400e-06;0.0005013521955836294
7.85425e-06;0.0005129309022976436
7.85450e-06;0.000524160918323701
7.85475e-06;0.000534311380255906
7.85500e-06;0.0005439517912639901
7.85525e-06;0.0005535922022721395
7.85550e-06;0.0005620035750077422
7.85575e-06;0.0005696999022218683
7.85600e-06;0.0005773962294360466
7.85625e-06;0.0005850925566502249
7.85650e-06;0.0005927888838643511
7.85675e-06;0.0006004852110785293
7.85700e-06;0.0006081815382927076
7.85725e-06;0.0006158778655068338
7.85750e-06;0.000623574192721012
7.85775e-06;0.0006309581285439924
7.85800e-06;0.0006362913288861252
7.85825e-06;0.0006416245292282941
7.85850e-06;0.000646957729570463
7.85875e-06;0.0006522909299125959
7.85900e-06;0.0006576241302547648
7.85925e-06;0.0006629573305969338
7.85950e-06;0.0006682905309390666
7.85975e-06;0.0006736237312812355
7.86000e-06;0.0006789569316234044
7.86025e-06;0.0006836307137700046
7.86050e-06;0.0006877637582476364
7.86075e-06;0.000691601101695489
7.86100e-06;0.0006951284500868337
7.86125e-06;0.0006982178652717848
7.86150e-06;0.0007004309697094881
7.86175e-06;0.000701218709583147
7.86200e-06;0.0007003256655218628
7.86225e-06;0.0006977817301123122
7.86250e-06;0.00069313354574792
7.86275e-06;0.000687606495513524
7.86300e-06;0.0006801872828109177
7.86325e-06;0.0006716672237562002
7.86350e-06;0.0006609171916467306
7.86375e-06;0.0006488697774444875
7.86400e-06;0.0006343559963738867
7.86425e-06;0.0006184073010105179
7.86450e-06;0.0006002760843080967
7.86475e-06;0.0005808750925758421
7.86500e-06;0.0005596019383814202
7.86525e-06;0.000537239573692532
7.86550e-06;0.000513023280217343
7.86575e-06;0.00048772838446797524
7.86600e-06;0.0004606612802872952
7.86625e-06;0.0004325631181400787
7.86650e-06;0.000403100346577443
7.86675e-06;0.00037284365518865716
7.86700e-06;0.0003414664789575018
7.86725e-06;0.00030943741280050203
7.86750e-06;0.00027740834664328524
7.86775e-06;0.0002445279064248236
7.86800e-06;0.00021115214297430057
7.86825e-06;0.00017777637952355135
7.86850e-06;0.00014438067586456613
7.86875e-06;0.00011097337113778581
7.86900e-06;7.792992116322823e-05
7.86925e-06;4.549387692268886e-05
7.86950e-06;1.3758414976271142e-05
7.86975e-06;-1.7155364535109442e-05
7.87000e-06;-4.708113624763018e-05
7.87025e-06;-7.580871036224222e-05
7.87050e-06;-0.00010312620300212863
7.87075e-06;-0.00012882341549848032
7.87100e-06;-0.00015268220417762212
7.87125e-06;-0.00017463854682795988
7.87150e-06;-0.000195036576416644
7.87175e-06;-0.00021442616266487567
7.87200e-06;-0.00023307684832582636
7.87225e-06;-0.0002506336126316315
7.87250e-06;-0.00026770425338325785
7.87275e-06;-0.0002833863794684811
7.87300e-06;-0.0002982606778268172
7.87325e-06;-0.0003116993823882356
7.87350e-06;-0.00032430286892701487
7.87375e-06;-0.00033614924392849405
7.87400e-06;-0.0003475551369478946
7.87425e-06;-0.00035805978775283625
7.87450e-06;-0.00036804010239688983
7.87475e-06;-0.0003780204170409434
7.87500e-06;-0.0003866331875860082
7.87525e-06;-0.0003944503309275346
7.87550e-06;-0.00040226747426906097
7.87575e-06;-0.000409276380636545
7.87600e-06;-0.0004158150606150448
7.87625e-06;-0.00042235374059354465
7.87650e-06;-0.0004274905781905466
7.87675e-06;-0.0004318118340927889
7.87700e-06;-0.00043613308999503124
7.87725e-06;-0.0004404543458972443
7.87750e-06;-0.00044477560179948666
7.87775e-06;-0.000449096857701729
7.87800e-06;-0.00045341811360394204
7.87825e-06;-0.00045773936950618436
7.87850e-06;-0.0004620606254084267
7.87875e-06;-0.0004650804662304475
7.87900e-06;-0.0004673431532305831
7.87925e-06;-0.0004696058402307187
7.87950e-06;-0.0004718685272308389
7.87975e-06;-0.0004741312142309745
7.88000e-06;-0.0004763939012311101
7.88025e-06;-0.00047865658823124566
7.88050e-06;-0.0004809192752313659
7.88075e-06;-0.0004831819622315015
7.88100e-06;-0.00048531017714890847
7.88125e-06;-0.00048736015718725767
7.88150e-06;-0.0004894101372256208
7.88175e-06;-0.0004914601172639838
7.88200e-06;-0.000493510097302333
7.88225e-06;-0.0004955600773406961
7.88250e-06;-0.0004976100573790591
7.88275e-06;-0.0004996600374174083
7.88300e-06;-0.0005017100174557714
7.88325e-06;-0.0005049478645495876
7.88350e-06;-0.0005088768040510055
7.88375e-06;-0.0005128057435524499
7.88400e-06;-0.0005167346830538945
7.88425e-06;-0.0005206636225553123
7.88450e-06;-0.0005245925620567569
7.88475e-06;-0.0005285215015582013
7.88500e-06;-0.0005324504410596192
7.88525e-06;-0.0005363793805610637
7.88550e-06;-0.0005414735425667812
7.88575e-06;-0.0005472456225450764
7.88600e-06;-0.0005530177025234106
7.88625e-06;-0.0005587897825017449
7.88650e-06;-0.0005645618624800401
7.88675e-06;-0.0005703339424583744
7.88700e-06;-0.0005761060224367086
7.88725e-06;-0.0005818781024150038
7.88750e-06;-0.0005876501823933381
7.88775e-06;-0.0005934508656276337
7.88800e-06;-0.0005994393187993483
7.88825e-06;-0.0006054277719711034
7.88850e-06;-0.0006114162251428586
7.88875e-06;-0.0006174046783145731
7.88900e-06;-0.0006233931314863283
7.88925e-06;-0.0006293815846580834
7.88950e-06;-0.0006353700378298386
7.88975e-06;-0.0006413584910015531
7.89000e-06;-0.0006473469441733083
7.89025e-06;-0.0006527353293826129
7.89050e-06;-0.0006577745994185012
7.89075e-06;-0.0006624094351133864
7.89100e-06;-0.0006668089738520394
7.89125e-06;-0.0006703223485777864
7.89150e-06;-0.000673320159530162
7.89175e-06;-0.0006741648879754473
7.89200e-06;-0.0006737569686877671
7.89225e-06;-0.0006709803642539742
7.89250e-06;-0.0006668256760409395
7.89275e-06;-0.0006604947590399172
7.89300e-06;-0.0006528977279681092
7.89325e-06;-0.0006430793714989463
