Time(s);Current(A)
1.50000e-06;-0.012674640437336755
1.50025e-06;-0.012666482170820397
1.50050e-06;-0.012651146702865922
1.50075e-06;-0.012635811234911445
1.50100e-06;-0.012620475766956955
1.50125e-06;-0.012605140299002478
1.50150e-06;-0.012589804831047989
1.50175e-06;-0.012573245418772321
1.50200e-06;-0.012552732107743823
1.50225e-06;-0.012532218796715342
1.50250e-06;-0.012511705485686862
1.50275e-06;-0.012491192174658364
1.50300e-06;-0.012470678863629884
1.50325e-06;-0.01244989323067705
1.50350e-06;-0.01242822787362377
1.50375e-06;-0.01240661149929334
1.50400e-06;-0.012385153361512895
1.50425e-06;-0.012363902272050848
1.50450e-06;-0.012343320043151829
1.50475e-06;-0.012324114499871941
1.50500e-06;-0.012309356279446581
1.50525e-06;-0.01229459805902121
1.50550e-06;-0.012279839838595851
1.50575e-06;-0.012265081618170479
1.50600e-06;-0.01225032339774512
1.50625e-06;-0.01223556517731975
1.50650e-06;-0.01222080695689439
1.50675e-06;-0.01220604873646903
1.50700e-06;-0.01219129051604366
1.50725e-06;-0.012176532295618301
1.50750e-06;-0.012161774075192928
1.50775e-06;-0.01214701585476757
1.50800e-06;-0.012132257634342211
1.50825e-06;-0.01212136000695662
1.50850e-06;-0.012111844442757773
1.50875e-06;-0.012102328878558917
1.50900e-06;-0.012092813314360072
1.50925e-06;-0.012083297750161225
1.50950e-06;-0.012073782185962369
1.50975e-06;-0.012064266621763523
1.51000e-06;-0.012054751057564667
1.51025e-06;-0.01204523549336582
1.51050e-06;-0.012035719929166966
1.51075e-06;-0.012026204364968119
1.51100e-06;-0.012016688800769271
1.51125e-06;-0.012007173236570417
1.51150e-06;-0.011998080984201588
1.51175e-06;-0.011990356222238692
1.51200e-06;-0.0119826314602758
1.51225e-06;-0.01197490669831291
1.51250e-06;-0.011967181936350013
1.51275e-06;-0.011959457174387124
1.51300e-06;-0.011951732412424226
1.51325e-06;-0.011944007650461337
1.51350e-06;-0.011937157248432178
1.51375e-06;-0.011930619860663745
1.51400e-06;-0.011924082472895317
1.51425e-06;-0.011917545085126883
1.51450e-06;-0.011911007697358455
1.51475e-06;-0.011904470309590022
1.51500e-06;-0.011897932921821595
1.51525e-06;-0.011891581661061771
1.51550e-06;-0.011885937346079211
1.51575e-06;-0.01188063439533935
1.51600e-06;-0.011875770638002145
1.51625e-06;-0.011872325675798642
1.51650e-06;-0.011869660804734148
1.51675e-06;-0.011869515984073795
1.51700e-06;-0.011870119003006847
1.51725e-06;-0.011873137885132464
1.51750e-06;-0.01187703306266625
1.51775e-06;-0.011883759074300122
1.51800e-06;-0.011890485085934002
1.51825e-06;-0.011899020146100735
1.51850e-06;-0.01191339925865868
1.51875e-06;-0.011927778371216611
1.51900e-06;-0.011942157483774557
1.51925e-06;-0.011956536596332489
1.51950e-06;-0.011970915708890422
1.51975e-06;-0.01199153256018012
1.52000e-06;-0.012014382474882622
1.52025e-06;-0.01203723238958514
1.52050e-06;-0.012060082304287642
1.52075e-06;-0.012082932218990141
1.52100e-06;-0.012107250856409728
1.52125e-06;-0.012136314138514369
1.52150e-06;-0.012165377420619034
1.52175e-06;-0.012194440702723675
1.52200e-06;-0.012223503984828315
1.52225e-06;-0.01225256726693298
1.52250e-06;-0.012281630549037621
1.52275e-06;-0.012311591079490305
1.52300e-06;-0.01234187281808333
1.52325e-06;-0.012372154556676384
1.52350e-06;-0.012402436295269409
1.52375e-06;-0.012432718033862436
1.52400e-06;-0.012462999772455487
1.52425e-06;-0.01249252425593428
1.52450e-06;-0.012519602459791248
1.52475e-06;-0.012546680663648193
1.52500e-06;-0.012572952799011947
1.52525e-06;-0.012596620965261958
1.52550e-06;-0.01261940336977977
1.52575e-06;-0.012639324359650811
1.52600e-06;-0.01265778393989536
1.52625e-06;-0.01267152250007523
1.52650e-06;-0.012685261060255111
1.52675e-06;-0.012697021085343381
1.52700e-06;-0.012702389539104327
1.52725e-06;-0.01270775799286527
1.52750e-06;-0.012711096837414589
1.52775e-06;-0.012707879117919292
1.52800e-06;-0.012704661398423996
1.52825e-06;-0.012699185190147642
1.52850e-06;-0.012686413032359364
1.52875e-06;-0.012673640874571075
1.52900e-06;-0.012660868716782797
1.52925e-06;-0.012641185570215194
1.52950e-06;-0.012619028341796418
1.52975e-06;-0.012596871113377662
1.53000e-06;-0.012573428917966596
1.53025e-06;-0.012544494850310842
1.53050e-06;-0.012511229249709014
1.53075e-06;-0.012477963649107157
1.53100e-06;-0.012444698048505327
1.53125e-06;-0.012411432447903471
1.53150e-06;-0.012373319401437245
1.53175e-06;-0.012333471005917421
1.53200e-06;-0.01229362261039763
1.53225e-06;-0.01225377421487784
1.53250e-06;-0.012213368162371395
1.53275e-06;-0.012171066620491349
1.53300e-06;-0.012128423321227438
1.53325e-06;-0.012085673719778341
1.53350e-06;-0.012043051256494585
1.53375e-06;-0.012000791928337477
1.53400e-06;-0.011959122148161316
1.53425e-06;-0.011918264840886908
1.53450e-06;-0.011878454446131632
1.53475e-06;-0.011839944250111324
1.53500e-06;-0.01180300115284503
1.53525e-06;-0.0117678888880342
1.53550e-06;-0.01173487430496355
1.53575e-06;-0.011704217326890176
1.53600e-06;-0.011676138743417731
1.53625e-06;-0.011650765483507124
1.53650e-06;-0.011628141031228096
1.53675e-06;-0.011608303977575904
1.53700e-06;-0.011591309710876624
1.53725e-06;-0.011577569368514881
1.53750e-06;-0.011567220977727041
1.53775e-06;-0.011558303873108498
1.53800e-06;-0.011554010476039517
1.53825e-06;-0.01155144061037398
1.53850e-06;-0.011554438537741669
1.53875e-06;-0.011557436465109356
1.53900e-06;-0.01156294635859352
1.53925e-06;-0.011576571049066611
1.53950e-06;-0.011590195739539691
1.53975e-06;-0.011603820430012781
1.54000e-06;-0.011617445120485861
1.54025e-06;-0.01163363342357783
1.54050e-06;-0.011658103365432328
1.54075e-06;-0.011682573307286805
1.54100e-06;-0.011707043249141302
1.54125e-06;-0.011731513190995779
1.54150e-06;-0.011757408423681096
1.54175e-06;-0.011787907996236321
1.54200e-06;-0.011818407568791545
1.54225e-06;-0.011849506088139285
1.54250e-06;-0.01188253947897918
1.54275e-06;-0.011915572869819103
1.54300e-06;-0.011948761537725025
1.54325e-06;-0.01198245182142088
1.54350e-06;-0.012016142105116766
1.54375e-06;-0.012049537905416607
1.54400e-06;-0.012081982389948514
1.54425e-06;-0.012114426874480394
1.54450e-06;-0.012146080443975575
1.54475e-06;-0.012175178996937742
1.54500e-06;-0.012204277549899887
1.54525e-06;-0.012229628561639548
1.54550e-06;-0.012242873304896013
1.54575e-06;-0.01225611804815249
1.54600e-06;-0.012269362791408955
1.54625e-06;-0.01228260753466542
1.54650e-06;-0.012295852277921897
1.54675e-06;-0.012309097021178363
1.54700e-06;-0.012322341764434839
1.54725e-06;-0.012335586507691303
1.54750e-06;-0.012348831250947769
1.54775e-06;-0.012362075994204245
1.54800e-06;-0.012375320737460711
1.54825e-06;-0.012388565480717187
1.54850e-06;-0.012401810223973653
1.54875e-06;-0.012415054967230117
1.54900e-06;-0.012428299710486593
1.54925e-06;-0.01244154445374306
1.54950e-06;-0.012454789196999536
1.54975e-06;-0.012468033940256001
1.55000e-06;-0.012481278683512478
1.55025e-06;-0.012494523426768944
1.55050e-06;-0.012507768170025408
1.55075e-06;-0.012521012913281884
1.55100e-06;-0.012531464392239833
1.55125e-06;-0.012532892352700435
1.55150e-06;-0.012534320313161035
1.55175e-06;-0.012535748273621637
1.55200e-06;-0.012537176234082239
1.55225e-06;-0.012538604194542839
1.55250e-06;-0.01254003215500344
1.55275e-06;-0.012541460115464042
1.55300e-06;-0.012542888075924642
1.55325e-06;-0.012544316036385244
1.55350e-06;-0.012545743996845844
1.55375e-06;-0.012547171957306445
1.55400e-06;-0.012548599917767047
1.55425e-06;-0.012550027878227649
1.55450e-06;-0.012551455838688249
1.55475e-06;-0.01255288379914885
1.55500e-06;-0.012554311759609452
1.55525e-06;-0.012555739720070052
1.55550e-06;-0.012557167680530654
1.55575e-06;-0.012558595640991255
1.55600e-06;-0.012560023601451855
1.55625e-06;-0.012561451561912457
1.55650e-06;-0.012562879522373059
1.55675e-06;-0.01256347221332365
1.55700e-06;-0.012561366602549806
1.55725e-06;-0.012559260991775963
1.55750e-06;-0.012557155381002117
1.55775e-06;-0.012555049770228272
1.55800e-06;-0.012552944159454427
1.55825e-06;-0.012550838548680584
1.55850e-06;-0.012548732937906738
1.55875e-06;-0.012546627327132893
1.55900e-06;-0.01254452171635905
1.55925e-06;-0.012542416105585204
1.55950e-06;-0.012540310494811361
1.55975e-06;-0.012538204884037514
1.56000e-06;-0.01253609927326367
1.56025e-06;-0.012533993662489827
1.56050e-06;-0.012531888051715982
1.56075e-06;-0.012529782440942137
1.56100e-06;-0.01252733940946056
1.56125e-06;-0.012523806355098234
1.56150e-06;-0.01252027330073591
1.56175e-06;-0.012516740246373581
1.56200e-06;-0.012513207192011256
1.56225e-06;-0.012509674137648929
1.56250e-06;-0.012506141083286603
1.56275e-06;-0.012502608028924275
1.56300e-06;-0.01249907497456195
1.56325e-06;-0.012495541920199625
1.56350e-06;-0.012492008865837297
1.56375e-06;-0.012488475811474971
1.56400e-06;-0.012484942757112644
1.56425e-06;-0.012481409702750319
1.56450e-06;-0.012477876648387993
1.56475e-06;-0.012474343594025666
1.56500e-06;-0.01247081053966334
1.56525e-06;-0.012467310416712578
1.56550e-06;-0.01246391667725068
1.56575e-06;-0.012460410442636488
1.56600e-06;-0.012456540797338957
1.56625e-06;-0.012451704706408226
1.56650e-06;-0.012443746555008132
1.56675e-06;-0.012435788403608043
1.56700e-06;-0.012426565874207929
1.56725e-06;-0.012413258826820966
1.56750e-06;-0.012399951779434001
1.56775e-06;-0.012385424016549037
1.56800e-06;-0.01236695278548583
1.56825e-06;-0.012348481554422606
1.56850e-06;-0.012327975401264686
1.56875e-06;-0.012300895521027108
1.56900e-06;-0.012273815640789505
1.56925e-06;-0.012246735760551925
1.56950e-06;-0.012219655880314324
1.56975e-06;-0.012190506221362746
1.57000e-06;-0.012154670232543147
1.57025e-06;-0.012118834243723519
1.57050e-06;-0.012082998254903918
1.57075e-06;-0.01204716226608429
1.57100e-06;-0.012010009783115162
1.57125e-06;-0.011968604423211154
1.57150e-06;-0.011927199063307184
1.57175e-06;-0.011885351134412017
1.57200e-06;-0.011842073505692174
1.57225e-06;-0.01179858365519778
1.57250e-06;-0.011754303441511125
1.57275e-06;-0.011709639798281782
1.57300e-06;-0.011664846705691212
1.57325e-06;-0.011620180057300328
1.57350e-06;-0.011575895035494652
1.57375e-06;-0.01153224021824748
1.57400e-06;-0.011489423475325016
1.57425e-06;-0.011447583268489719
1.57450e-06;-0.011406857807623221
1.57475e-06;-0.011367470458835936
1.57500e-06;-0.011329692236997006
1.57525e-06;-0.01129379459726985
1.57550e-06;-0.011260050197021728
1.57575e-06;-0.011228706546119733
1.57600e-06;-0.011199850759534365
1.57625e-06;-0.011173263668473434
1.57650e-06;-0.011148647694483892
1.57675e-06;-0.01112619901297676
1.57700e-06;-0.011106078720074767
1.57725e-06;-0.011087007207809876
1.57750e-06;-0.011071323735653338
1.57775e-06;-0.011056975455470795
1.57800e-06;-0.011046940454729304
1.57825e-06;-0.011036905453987823
1.57850e-06;-0.011028717568848158
1.57875e-06;-0.011026496710103048
1.57900e-06;-0.011024275851357939
1.57925e-06;-0.011022054992612829
1.57950e-06;-0.01101983413386772
1.57975e-06;-0.011017613275122611
1.58000e-06;-0.011022790381678334
1.58025e-06;-0.011028976376545123
1.58050e-06;-0.011035162371411916
1.58075e-06;-0.011041348366278705
1.58100e-06;-0.011047534361145498
1.58125e-06;-0.011056963173627048
1.58150e-06;-0.011069342441452506
1.58175e-06;-0.011081721709277972
1.58200e-06;-0.01109410097710343
1.58225e-06;-0.011106480244928897
1.58250e-06;-0.011118859512754355
1.58275e-06;-0.011132348263274073
1.58300e-06;-0.011147634778796966
1.58325e-06;-0.011162921294319847
1.58350e-06;-0.01117820780984274
1.58375e-06;-0.011193494325365622
1.58400e-06;-0.011208780840888501
1.58425e-06;-0.011223671611347285
1.58450e-06;-0.011237306779100693
1.58475e-06;-0.011250941946854115
1.58500e-06;-0.011263155449391667
1.58525e-06;-0.011275135759325188
1.58550e-06;-0.011286464623389149
1.58575e-06;-0.011297083563384915
1.58600e-06;-0.011307514583996947
1.58625e-06;-0.011317740816307084
1.58650e-06;-0.011327967048617228
1.58675e-06;-0.011339156794858547
1.58700e-06;-0.011351396546575002
1.58725e-06;-0.011363636298291468
1.58750e-06;-0.011377466834156908
1.58775e-06;-0.0113930309537435
1.58800e-06;-0.011408595073330077
1.58825e-06;-0.011424159192916656
1.58850e-06;-0.011439723312503248
1.58875e-06;-0.011455287432089827
1.58900e-06;-0.011470851551676419
1.58925e-06;-0.011492160351537231
1.58950e-06;-0.01151359524207341
1.58975e-06;-0.011535030132609569
1.59000e-06;-0.01155646502314573
1.59025e-06;-0.011577899913681909
1.59050e-06;-0.011599334804218068
1.59075e-06;-0.011622931344738073
1.59100e-06;-0.011648883579602308
1.59125e-06;-0.011674835814466543
1.59150e-06;-0.0117007880493308
1.59175e-06;-0.011726740284195035
1.59200e-06;-0.01175269251905929
1.59225e-06;-0.011778644753923526
1.59250e-06;-0.011804740554528138
1.59275e-06;-0.011830992808307503
1.59300e-06;-0.011857245062086845
1.59325e-06;-0.011883497315866211
1.59350e-06;-0.011909749569645554
1.59375e-06;-0.01193600182342492
1.59400e-06;-0.011962254077204262
1.59425e-06;-0.01198703069163529
1.59450e-06;-0.012010199203324018
1.59475e-06;-0.012033367715012728
1.59500e-06;-0.012051171069935454
1.59525e-06;-0.012063127655240532
1.59550e-06;-0.01207508424054561
1.59575e-06;-0.012087040825850697
1.59600e-06;-0.012098997411155773
1.59625e-06;-0.01211095399646086
1.59650e-06;-0.012122910581765938
1.59675e-06;-0.012134867167071016
1.59700e-06;-0.012146823752376103
1.59725e-06;-0.012158780337681181
1.59750e-06;-0.012170736922986269
1.59775e-06;-0.012182693508291346
1.59800e-06;-0.012194650093596434
1.59825e-06;-0.012206606678901511
1.59850e-06;-0.012218563264206589
1.59875e-06;-0.012230519849511675
1.59900e-06;-0.012242476434816752
1.59925e-06;-0.01225443302012184
1.59950e-06;-0.012255821054527596
1.59975e-06;-0.012256977118544074
1.60000e-06;-0.012258133182560554
1.60025e-06;-0.012259289246577033
1.60050e-06;-0.012260445310593513
1.60075e-06;-0.012261601374609991
1.60100e-06;-0.01226275743862647
1.60125e-06;-0.012263913502642948
1.60150e-06;-0.012265069566659426
1.60175e-06;-0.012266225630675906
1.60200e-06;-0.012267381694692384
1.60225e-06;-0.012268537758708864
1.60250e-06;-0.012269693822725343
1.60275e-06;-0.012270849886741821
1.60300e-06;-0.012272005950758301
1.60325e-06;-0.01227316201477478
1.60350e-06;-0.012274318078791258
1.60375e-06;-0.012274176690507795
1.60400e-06;-0.012272621381808187
1.60425e-06;-0.012271066073108577
1.60450e-06;-0.01226951076440897
1.60475e-06;-0.01226795545570936
1.60500e-06;-0.012266400147009752
1.60525e-06;-0.012264458155182947
1.60550e-06;-0.01226209476892943
1.60575e-06;-0.012259731382675913
1.60600e-06;-0.012257367996422396
1.60625e-06;-0.012255004610168879
1.60650e-06;-0.012252641223915362
1.60675e-06;-0.012248140834683247
1.60700e-06;-0.012241311610594635
1.60725e-06;-0.012234482386506018
1.60750e-06;-0.012227653162417404
1.60775e-06;-0.012220823938328787
1.60800e-06;-0.012213994714240175
1.60825e-06;-0.012207165490151562
1.60850e-06;-0.012200336266062943
1.60875e-06;-0.012193507041974331
1.60900e-06;-0.012180757454927025
1.60925e-06;-0.012167877921124262
1.60950e-06;-0.0121549983873215
1.60975e-06;-0.012142118853518727
1.61000e-06;-0.012129239319715966
1.61025e-06;-0.01211635978591319
1.61050e-06;-0.01210348025211043
1.61075e-06;-0.012090600718307656
1.61100e-06;-0.012075819913088969
1.61125e-06;-0.012058967165440014
1.61150e-06;-0.012042114417791046
1.61175e-06;-0.012025261670142092
1.61200e-06;-0.012008408922493122
1.61225e-06;-0.011991556174844167
1.61250e-06;-0.011974703427195213
1.61275e-06;-0.011957850679546245
1.61300e-06;-0.011941063722250714
1.61325e-06;-0.011924348461096823
1.61350e-06;-0.011907633199942947
1.61375e-06;-0.01189091793878907
1.61400e-06;-0.01187420267763518
1.61425e-06;-0.011857487416481302
1.61450e-06;-0.01184077215532741
1.61475e-06;-0.011824056894173533
1.61500e-06;-0.01180980895314109
1.61525e-06;-0.0117982498156144
1.61550e-06;-0.011786690678087719
1.61575e-06;-0.011775131540561028
1.61600e-06;-0.011763572403034347
1.61625e-06;-0.011752013265507656
1.61650e-06;-0.011740454127980976
1.61675e-06;-0.011728894990454293
1.61700e-06;-0.011717335852927602
1.61725e-06;-0.011713537837353506
1.61750e-06;-0.011709910171574332
1.61775e-06;-0.011706282505795163
1.61800e-06;-0.011702654840015992
1.61825e-06;-0.01169902717423682
1.61850e-06;-0.01169539950845765
1.61875e-06;-0.011691771842678477
1.61900e-06;-0.011688144176899309
1.61925e-06;-0.011687995004793847
1.61950e-06;-0.011691636579540882
1.61975e-06;-0.011695278154287916
1.62000e-06;-0.01169891972903495
1.62025e-06;-0.011702561303781982
1.62050e-06;-0.01170620287852902
1.62075e-06;-0.011709844453276051
1.62100e-06;-0.011713486028023084
1.62125e-06;-0.01171712760277012
1.62150e-06;-0.01172269878029617
1.62175e-06;-0.011730372774830721
1.62200e-06;-0.011738046769365266
1.62225e-06;-0.011745720763899813
1.62250e-06;-0.011753394758434364
1.62275e-06;-0.011761068752968909
1.62300e-06;-0.01176874274750346
1.62325e-06;-0.011776416742038007
1.62350e-06;-0.011784090736572552
1.62375e-06;-0.011791251381897235
1.62400e-06;-0.01179785259630611
1.62425e-06;-0.01180445381071499
1.62450e-06;-0.011811055025123864
1.62475e-06;-0.011817656239532745
1.62500e-06;-0.01182425745394162
1.62525e-06;-0.011830858668350494
1.62550e-06;-0.011837459882759376
1.62575e-06;-0.01184406109716825
1.62600e-06;-0.01185066231157713
1.62625e-06;-0.011850356968175997
1.62650e-06;-0.011849900031910705
1.62675e-06;-0.011849443095645411
1.62700e-06;-0.011848986159380117
1.62725e-06;-0.011848529223114825
1.62750e-06;-0.011848072286849531
1.62775e-06;-0.01184761535058424
1.62800e-06;-0.011847158414318945
1.62825e-06;-0.011846701478053653
1.62850e-06;-0.011842189719787885
1.62875e-06;-0.011833259151204575
1.62900e-06;-0.011824328582621257
1.62925e-06;-0.011815398014037947
1.62950e-06;-0.011806467445454638
1.62975e-06;-0.011797536876871321
1.63000e-06;-0.011788606308288012
1.63025e-06;-0.011779675739704695
1.63050e-06;-0.011768072166440198
1.63075e-06;-0.011753555641469666
1.63100e-06;-0.011739039116499123
1.63125e-06;-0.011724522591528591
1.63150e-06;-0.011710006066558048
1.63175e-06;-0.011695489541587516
1.63200e-06;-0.011680973016616985
1.63225e-06;-0.011666456491646441
1.63250e-06;-0.01165115988058857
1.63275e-06;-0.011635013157626682
1.63300e-06;-0.011618866434664806
1.63325e-06;-0.011602719711702918
1.63350e-06;-0.011586572988741042
1.63375e-06;-0.011570426265779166
1.63400e-06;-0.011554279542817278
1.63425e-06;-0.011538132819855402
1.63450e-06;-0.011521986096893514
1.63475e-06;-0.011509558202428428
1.63500e-06;-0.011497211932975156
1.63525e-06;-0.011484865663521871
1.63550e-06;-0.0114725193940686
1.63575e-06;-0.011460173124615317
1.63600e-06;-0.011447826855162045
1.63625e-06;-0.011435480585708771
1.63650e-06;-0.011423134316255489
1.63675e-06;-0.011414066626176077
1.63700e-06;-0.011408571822985842
1.63725e-06;-0.01140307701979561
1.63750e-06;-0.011397582216605374
1.63775e-06;-0.011392087413415143
1.63800e-06;-0.011386592610224911
1.63825e-06;-0.011381097807034675
1.63850e-06;-0.011375603003844444
1.63875e-06;-0.011370108200654207
1.63900e-06;-0.011364613397463976
1.63925e-06;-0.011362065556448725
1.63950e-06;-0.011362729216915397
1.63975e-06;-0.011363392877382068
1.64000e-06;-0.011364056537848739
1.64025e-06;-0.011364720198315411
1.64050e-06;-0.011365383858782082
1.64075e-06;-0.011366047519248752
1.64100e-06;-0.011366711179715425
1.64125e-06;-0.011367374840182095
1.64150e-06;-0.011368038500648766
1.64175e-06;-0.011370133087047998
1.64200e-06;-0.01137378704899398
1.64225e-06;-0.011377441010939963
1.64250e-06;-0.011381094972885948
1.64275e-06;-0.01138474893483193
1.64300e-06;-0.011388402896777916
1.64325e-06;-0.011392056858723899
1.64350e-06;-0.011395710820669881
1.64375e-06;-0.011399364782615867
1.64400e-06;-0.011402537246009717
1.64425e-06;-0.011405699140934221
1.64450e-06;-0.011408861035858722
1.64475e-06;-0.01141202293078322
1.64500e-06;-0.011415184825707725
1.64525e-06;-0.011418346720632225
1.64550e-06;-0.01142150861555673
1.64575e-06;-0.011424670510481228
1.64600e-06;-0.011427522849023354
1.64625e-06;-0.01143003784330326
1.64650e-06;-0.011432552837583165
1.64675e-06;-0.011435067831863072
1.64700e-06;-0.011437582826142975
1.64725e-06;-0.011440097820422882
