Time(s);Current(A)
6.75000e-06;-1.1296792650597431e-05
6.75025e-06;5.446735728562356e-05
6.75050e-06;0.00011998929895132293
6.75075e-06;0.00018487143135984178
6.75100e-06;0.0002487193696625916
6.75125e-06;0.0003112123970045993
6.75150e-06;0.00037217472400861865
6.75175e-06;0.0004314292289553472
6.75200e-06;0.0004886398959409175
6.75225e-06;0.0005433874445853173
6.75250e-06;0.0005952523802250908
6.75275e-06;0.0006438153748711699
6.75300e-06;0.0006886630089586339
6.75325e-06;0.0007295209790618331
6.75350e-06;0.0007664409142587137
6.75375e-06;0.0007996074981740606
6.75400e-06;0.0008289300594574653
6.75425e-06;0.0008526487208533785
6.75450e-06;0.000875992038314766
6.75475e-06;0.0008914647114272925
6.75500e-06;0.0009065514147143933
6.75525e-06;0.00091354465771952
6.75550e-06;0.0009201831011509366
6.75575e-06;0.00091938169807548
6.75600e-06;0.0009182464054205089
6.75625e-06;0.0009101097311243704
6.75650e-06;0.0009016499030947141
6.75675e-06;0.0008864138150199703
6.75700e-06;0.0008708729383440119
6.75725e-06;0.000848940902892257
6.75750e-06;0.0008267486225320492
6.75775e-06;0.0007990992268984667
6.75800e-06;0.0007712276970200786
6.75825e-06;0.000738698200199435
6.75850e-06;0.0007059783050575914
6.75875e-06;0.0006692659184122147
6.75900e-06;0.0006323721908222383
6.75925e-06;0.0005916758972408233
6.75950e-06;0.0005509796036595461
6.75975e-06;0.0005101688085182493
6.76000e-06;0.0004669570126629358
6.76025e-06;0.0004237452168076222
6.76050e-06;0.0003805228352455039
6.76075e-06;0.00033707848038228743
6.76100e-06;0.00029363412551907097
6.76125e-06;0.00025023961294238866
6.76150e-06;0.000207939930015545
6.76175e-06;0.00016674584477515517
6.76200e-06;0.0001269681683040667
6.76225e-06;8.889841448365875e-05
6.76250e-06;5.2827999636969786e-05
6.76275e-06;1.9048329667361336e-05
6.76300e-06;-1.2153673870956825e-05
6.76325e-06;-4.0595860443390746e-05
6.76350e-06;-6.633827115940545e-05
6.76375e-06;-8.953296713239597e-05
6.76400e-06;-0.00011018594243346317
6.76425e-06;-0.00012820680385654097
6.76450e-06;-0.00014350492339841638
6.76475e-06;-0.00015598970348442825
6.76500e-06;-0.00016557339204016137
6.76525e-06;-0.00017223383379987822
6.76550e-06;-0.00017610058265124528
6.76575e-06;-0.0001773608695125437
6.76600e-06;-0.00017611037580457154
6.76625e-06;-0.0001723844124017731
6.76650e-06;-0.00016621815327042658
6.76675e-06;-0.00015764681272061352
6.76700e-06;-0.00014670732861455767
6.76725e-06;-0.00013347780267663033
6.76750e-06;-0.00011813128854642945
6.76775e-06;-0.00010087699175754177
6.76800e-06;-8.186677555092047e-05
6.76825e-06;-6.121465020797003e-05
6.76850e-06;-3.903454333553783e-05
6.76875e-06;-1.5440395933007667e-05
6.76900e-06;9.452764766719086e-06
6.76925e-06;3.5504156079036276e-05
6.76950e-06;6.25134896906725e-05
6.76975e-06;9.02668042083173e-05
6.77000e-06;0.00011873758269687136
6.77025e-06;0.00014722824404995324
6.77050e-06;0.00017613583222865354
6.77075e-06;0.0002050434204072559
6.77100e-06;0.00023392532526454786
6.77125e-06;0.00026226867263154315
6.77150e-06;0.00029054659810562566
6.77175e-06;0.0003174526819092496
6.77200e-06;0.0003442560889507536
6.77225e-06;0.0003689064512709979
6.77250e-06;0.00039341883068003613
6.77275e-06;0.00041503782533139843
6.77300e-06;0.0004365277765444338
6.77325e-06;0.0004552030228722796
6.77350e-06;0.0004714728750781122
6.77375e-06;0.0004850024161429926
6.77400e-06;0.0004956884404374587
6.77425e-06;0.0005035344774734854
6.77450e-06;0.0005085442274118541
6.77475e-06;0.0005107214764000401
6.77500e-06;0.0005100678749924597
6.77525e-06;0.0005065351740786489
6.77550e-06;0.0004999940414191761
6.77575e-06;0.000490359864478647
6.77600e-06;0.0004776932577834471
6.77625e-06;0.00046212178607192437
6.77650e-06;0.00044377306964074614
6.77675e-06;0.0004227747301110924
6.77700e-06;0.00039925304443329035
6.77725e-06;0.0003733030357896991
6.77750e-06;0.0003449689700505591
6.77775e-06;0.0003143231338496326
6.77800e-06;0.00028152875881919657
6.77825e-06;0.000246790943626633
6.77850e-06;0.0002103148716016621
6.77875e-06;0.00017230574987844025
6.77900e-06;0.0001329678454660795
6.77925e-06;9.248590564857715e-05
6.77950e-06;5.1012811861244816e-05
6.77975e-06;8.719033097513858e-06
6.78000e-06;-3.4168602677503296e-05
6.78025e-06;-7.740383681761133e-05
6.78050e-06;-0.00012063907095786584
6.78075e-06;-0.00016383757438637598
6.78100e-06;-0.0002062657859865738
6.78125e-06;-0.0002486144037543575
6.78150e-06;-0.0002892940062888677
6.78175e-06;-0.0003298486118610852
6.78200e-06;-0.00036778213702476554
6.78225e-06;-0.0004055899028272757
6.78250e-06;-0.0004406595355102988
6.78275e-06;-0.00047349591791898875
6.78300e-06;-0.0005038113771000061
6.78325e-06;-0.0005312309142509469
6.78350e-06;-0.0005552465941743909
6.78375e-06;-0.0005754533174796572
6.78400e-06;-0.0005917209135965514
6.78425e-06;-0.0006040421198149501
6.78450e-06;-0.0006124099538651173
6.78475e-06;-0.0006168174890354063
6.78500e-06;-0.0006172553849034575
6.78525e-06;-0.0006136595940735569
6.78550e-06;-0.0006058829131308777
6.78575e-06;-0.0005938424047878496
6.78600e-06;-0.000577627428251942
6.78625e-06;-0.0005574044574334898
6.78650e-06;-0.0005333399715416871
6.78675e-06;-0.0005056005556029271
6.78700e-06;-0.0004743511786015251
6.78725e-06;-0.00043972267981444077
6.78750e-06;-0.00040179364062918415
6.78775e-06;-0.00036068309350893734
6.78800e-06;-0.0003166179007412884
6.78825e-06;-0.00026987310081006115
6.78850e-06;-0.00022072388167256716
6.78875e-06;-0.0001694453638250942
6.78900e-06;-0.00011631176090514635
6.78925e-06;-6.157578715348637e-05
6.78950e-06;-5.457462558815508e-06
6.78975e-06;5.180922091545524e-05
6.79000e-06;0.00011011457247382949
6.79025e-06;0.00016843822739798895
6.79050e-06;0.00022713707216007924
6.79075e-06;0.00028563101067586054
6.79100e-06;0.00034357759488695043
6.79125e-06;0.0004006479370419683
6.79150e-06;0.0004565335528202376
6.79175e-06;0.0005109102796547245
6.79200e-06;0.0005634114781449829
6.79225e-06;0.0006136518082769148
6.79250e-06;0.0006612458242191382
6.79275e-06;0.0007058081939056093
6.79300e-06;0.0007469440893173154
6.79325e-06;0.0007840402461324108
6.79350e-06;0.0008161084887677107
6.79375e-06;0.0008423070330074631
6.79400e-06;0.0008623875758194445
6.79425e-06;0.0008763828034957305
6.79450e-06;0.0008843260716755497
6.79475e-06;0.0008862507915562313
6.79500e-06;0.0008821843996725776
6.79525e-06;0.000872017669267681
6.79550e-06;0.0008554063123119042
6.79575e-06;0.000832098033467097
6.79600e-06;0.0008022121728566787
6.79625e-06;0.0007660441449580789
6.79650e-06;0.0007238896023780834
6.79675e-06;0.0006760445151751512
6.79700e-06;0.0006228007842393356
6.79725e-06;0.0005643648515745776
6.79750e-06;0.0005007960365423824
6.79775e-06;0.00043221101839459536
6.79800e-06;0.0003589594129454952
6.79825e-06;0.00028150112422350575
6.79850e-06;0.00020029616902852719
6.79875e-06;0.0001158045978906821
6.79900e-06;2.848409270272554e-05
6.79925e-06;-6.126135921574017e-05
6.79950e-06;-0.00015311996425971172
6.79975e-06;-0.00024676880410611917
6.80000e-06;-0.000342178087054941
6.80025e-06;-0.000437587370004086
6.80050e-06;-0.0005329437981438743
6.80075e-06;-0.000627191586024275
6.80100e-06;-0.0007214393739049952
6.80125e-06;-0.0008154832438573976
6.80150e-06;-0.0009052511276219775
6.80175e-06;-0.0009947428614219544
6.80200e-06;-0.0010784439644163368
6.80225e-06;-0.0011617558267539
6.80250e-06;-0.0012369056422834848
6.80275e-06;-0.0013115524760071765
6.80300e-06;-0.001375652207396827
6.80325e-06;-0.0014391528801665733
6.80350e-06;-0.0014900918012158105
6.80375e-06;-0.0015403896820362542
6.80400e-06;-0.0015772454923581216
6.80425e-06;-0.0016134401552605853
6.80450e-06;-0.0016357711169164863
6.80475e-06;-0.0016574217274479828
6.80500e-06;-0.0016648059513114653
6.80525e-06;-0.0016715016953300407
6.80550e-06;-0.0016637606002974977
6.80575e-06;-0.0016553567893309261
6.80600e-06;-0.0016330563866970048
6.80625e-06;-0.001610132722098362
6.80650e-06;-0.0015741397821417537
6.80675e-06;-0.0015375636064855489
6.80700e-06;-0.001488757472339842
6.80725e-06;-0.0014394150598978524
6.80750e-06;-0.0013788273459372942
6.80775e-06;-0.0013178789928638835
6.80800e-06;-0.0012491534248534623
6.80825e-06;-0.0011757255250187484
6.80850e-06;-0.0010980180132901698
6.80875e-06;-0.0010164539429469584
6.80900e-06;-0.0009314565315393002
6.80925e-06;-0.0008434537500831996
6.80950e-06;-0.0007529034316775473
6.80975e-06;-0.0006603156655098565
6.81000e-06;-0.0005662341473098943
6.81025e-06;-0.0004712094289390516
6.81050e-06;-0.0003757919537929216
6.81075e-06;-0.0002805322161872948
6.81100e-06;-0.00018598071886202061
6.81125e-06;-9.269099797555302e-05
6.81150e-06;-1.2352529047813922e-06
6.81175e-06;8.778173032431507e-05
6.81200e-06;0.0001737340055131729
6.81225e-06;0.00025599148077305
6.81250e-06;0.0003339241322583467
6.81275e-06;0.0004069019698647759
6.81300e-06;0.0004742963936385426
6.81325e-06;0.0005355118623751254
6.81350e-06;0.0005900996406157481
6.81375e-06;0.0006378234602225594
6.81400e-06;0.0006785574532857356
6.81425e-06;0.0007121886969432674
6.81450e-06;0.000738604273632084
6.81475e-06;0.0007576913822042138
6.81500e-06;0.0007693381195350158
6.81525e-06;0.0007734531873712441
6.81550e-06;0.0007700375230494111
6.81575e-06;0.0007592248606386516
6.81600e-06;0.0007412183136535484
6.81625e-06;0.0007162288928134311
6.81650e-06;0.0006844677808110001
6.81675e-06;0.0006461462608575364
6.81700e-06;0.0006014759052883382
6.81725e-06;0.0005506815606458689
6.81750e-06;0.0004940454561837755
6.81775e-06;0.0004319332420815832
6.81800e-06;0.0003647539200944149
6.81825e-06;0.00029292149022385025
6.81850e-06;0.00021684991411406095
6.81875e-06;0.00013695322086970435
6.81900e-06;5.364571288398417e-05
6.81925e-06;-3.265018914386847e-05
6.81950e-06;-0.00012147601032665831
6.81975e-06;-0.00021234307194872794
6.82000e-06;-0.0003051083955921492
6.82025e-06;-0.00039790150969611565
6.82050e-06;-0.0004912773662185864
6.82075e-06;-0.0005846532227413735
6.82100e-06;-0.0006779123958253331
6.82125e-06;-0.0007687248160650052
6.82150e-06;-0.0008593211270620421
6.82175e-06;-0.0009453858103354768
6.82200e-06;-0.0010311220832298663
6.82225e-06;-0.001109971868725683
6.82250e-06;-0.0011883803690854514
6.82275e-06;-0.00125753549403288
6.82300e-06;-0.0013262138223578434
6.82325e-06;-0.0013848941294779282
6.82350e-06;-0.0014432766943874688
6.82375e-06;-0.0014954158574047418
6.82400e-06;-0.0015471955426805076
6.82425e-06;-0.0015914372842907277
6.82450e-06;-0.0016356790259007977
6.82475e-06;-0.0016793971150492171
6.82500e-06;-0.001712134655751353
6.82525e-06;-0.0017448721964533783
6.82550e-06;-0.0017772384266674078
6.82575e-06;-0.0018018185905486737
6.82600e-06;-0.0018263987544298564
6.82625e-06;-0.0018506385877513245
6.82650e-06;-0.0018677419775882302
6.82675e-06;-0.001884845367425078
6.82700e-06;-0.0019014336934770166
6.82725e-06;-0.0019072215683594547
6.82750e-06;-0.0019130094432418733
6.82775e-06;-0.0019187973181243115
6.82800e-06;-0.00192458519300673
6.82825e-06;-0.0019303730678891487
6.82850e-06;-0.0019361609427715868
6.82875e-06;-0.0019419488176540055
6.82900e-06;-0.0019424273972290375
6.82925e-06;-0.0019384827028540248
6.82950e-06;-0.0019345380084790254
6.82975e-06;-0.0019305933141040262
6.83000e-06;-0.0019266486197290135
6.83025e-06;-0.0019227039253540141
6.83050e-06;-0.001918759230979015
6.83075e-06;-0.0019146611027765533
6.83100e-06;-0.0019073455972144658
6.83125e-06;-0.0019000300916523782
6.83150e-06;-0.001892714586090266
6.83175e-06;-0.0018855330978025473
6.83200e-06;-0.001878463261831018
6.83225e-06;-0.0018713934258595126
6.83250e-06;-0.0018643710344245447
6.83275e-06;-0.001858343514721613
6.83300e-06;-0.0018523011179763177
6.83325e-06;-0.0018459467622573772
6.83350e-06;-0.0018393174404654484
6.83375e-06;-0.0018269223130994619
6.83400e-06;-0.0018145271857334753
6.83425e-06;-0.001801789297316443
6.83450e-06;-0.0017818640000785103
6.83475e-06;-0.0017619387028405776
6.83500e-06;-0.0017416770069269328
6.83525e-06;-0.0017143613158134609
6.83550e-06;-0.0016870456246999889
6.83575e-06;-0.001659277807506397
6.83600e-06;-0.0016220292894989002
6.83625e-06;-0.001584780771491277
6.83650e-06;-0.0015471690116601847
6.83675e-06;-0.0015019403785618804
6.83700e-06;-0.0014567117454634228
6.83725e-06;-0.0014111478953743332
6.83750e-06;-0.001358554829017257
6.83775e-06;-0.0013059617626600027
6.83800e-06;-0.0012531079546076798
6.83825e-06;-0.0011947866141324484
6.83850e-06;-0.0011363296845840981
6.83875e-06;-0.00107502956706162
6.83900e-06;-0.0010136438489183712
6.83925e-06;-0.0009504631582868868
6.83950e-06;-0.0008872109916141808
6.83975e-06;-0.0008224600329144478
6.84000e-06;-0.000757691453596428
6.84025e-06;-0.00069255338484779
6.84050e-06;-0.0006274692152393523
6.84075e-06;-0.000563515264936677
6.84100e-06;-0.0004996774588958854
6.84125e-06;-0.00043827509961680473
6.84150e-06;-0.0003769829722008736
6.84175e-06;-0.0003180936742229494
6.84200e-06;-0.0002612304136773846
6.84225e-06;-0.0002068088759587484
6.84250e-06;-0.0001552449491738492
6.84275e-06;-0.00010695440303729282
6.84300e-06;-6.23533480685964e-05
6.84325e-06;-2.1863423704584917e-05
6.84350e-06;1.413717998869749e-05
6.84375e-06;4.541239607630004e-05
6.84400e-06;7.18594582977795e-05
6.84425e-06;9.341556638288743e-05
6.84450e-06;0.0001100180434161689
6.84475e-06;0.00012160425332813781
6.84500e-06;0.00012811139867802227
6.84525e-06;0.00012947323606396643
6.84550e-06;0.0001256507092095149
6.84575e-06;0.00011669384185562405
6.84600e-06;0.00010273612105852657
6.84625e-06;8.39361058112308e-05
6.84650e-06;6.045238503877103e-05
6.84675e-06;3.244359429732131e-05
6.84700e-06;6.826125528352777e-08
6.84725e-06;-3.651727680496573e-05
6.84750e-06;-7.713961400330239e-05
6.84775e-06;-0.00012156959073293485
6.84800e-06;-0.00016952576694312344
6.84825e-06;-0.0002207110136905483
6.84850e-06;-0.0002748281891359649
6.84875e-06;-0.0003315801722738645
6.84900e-06;-0.00039070978291785884
6.84925e-06;-0.0004526375099922212
6.84950e-06;-0.0005147107682343824
6.84975e-06;-0.0005798356917531514
6.85000e-06;-0.0006449606152716999
6.85025e-06;-0.0007101224792504979
6.85050e-06;-0.000776058953380279
6.85075e-06;-0.0008419954275098366
6.85100e-06;-0.0009078111428005653
6.85125e-06;-0.0009710946475637769
6.85150e-06;-0.001034378152326774
6.85175e-06;-0.0010973728852622417
6.85200e-06;-0.0011543123176599192
6.85225e-06;-0.001211251750057404
6.85250e-06;-0.0012678182840215118
6.85275e-06;-0.0013165654538068786
6.85300e-06;-0.0013649341320266116
6.85325e-06;-0.0014053661628274786
6.85350e-06;-0.0014454046448530858
6.85375e-06;-0.001477190742532373
6.85400e-06;-0.0015085717819313157
6.85425e-06;-0.001531459092410152
6.85450e-06;-0.001553921923643101
6.85475e-06;-0.0015674837847670367
6.85500e-06;-0.0015806097578213827
6.85525e-06;-0.0015845955274024323
6.85550e-06;-0.0015881664884774972
6.85575e-06;-0.0015830392666659344
6.85600e-06;-0.001577520525609792
6.85625e-06;-0.0015637919577449995
6.85650e-06;-0.0015496901999997527
6.85675e-06;-0.0015277629666800231
6.85700e-06;-0.0015054073602062189
6.85725e-06;-0.0014740691316725537
6.85750e-06;-0.001442730903138782
6.85775e-06;-0.0014109675400450035
6.85800e-06;-0.0013702894654615922
6.85825e-06;-0.0013296113908780431
6.85850e-06;-0.001288650708128453
6.85875e-06;-0.0012417639716013676
6.85900e-06;-0.00119470325978708
6.85925e-06;-0.0011439944336214336
6.85950e-06;-0.0010931694737917501
6.85975e-06;-0.001039909289432764
6.86000e-06;-0.0009865916714766891
6.86025e-06;-0.0009320697196522625
6.86050e-06;-0.0008775470842520595
6.86075e-06;-0.0008230101148511172
6.86100e-06;-0.0007685311659156409
6.86125e-06;-0.0007152688569770316
6.86150e-06;-0.0006621312449441849
6.86175e-06;-0.0006116084213588164
6.86200e-06;-0.0005612774977109895
6.86225e-06;-0.000514970553142348
6.86250e-06;-0.00046884876416338183
6.86275e-06;-0.000426754955093768
6.86300e-06;-0.0003878657586808294
6.86325e-06;-0.00035237918071745125
6.86350e-06;-0.000320139113209224
6.86375e-06;-0.00029087684823314667
6.86400e-06;-0.0002645653862034496
6.86425e-06;-0.0002413286724265293
6.86450e-06;-0.00022129109269939144
6.86475e-06;-0.00020457694683235348
6.86500e-06;-0.00019130627230585508
6.86525e-06;-0.0001815004875149138
6.86550e-06;-0.00017495909893015877
6.86575e-06;-0.0001714111696334405
6.86600e-06;-0.00017073715468909271
6.86625e-06;-0.00017291209427103
6.86650e-06;-0.00017791126136337931
6.86675e-06;-0.0001857098601650064
6.86700e-06;-0.0001962804731563861
6.86725e-06;-0.0002095338958919153
6.86750e-06;-0.0002252418856186781
6.86775e-06;-0.00024313215304903874
6.86800e-06;-0.0002630272117745669
6.86825e-06;-0.00028480884865982135
6.86850e-06;-0.00030839398694508784
6.86875e-06;-0.00033429342746087425
6.86900e-06;-0.000360316762740919
6.86925e-06;-0.0003889380662405953
6.86950e-06;-0.000417660978416667
6.86975e-06;-0.0004485145384365217
6.87000e-06;-0.00047936809845627187
6.87025e-06;-0.0005102216584761265
6.87050e-06;-0.0005410948093616739
6.87075e-06;-0.0005723787641021759
6.87100e-06;-0.0006036627188427837
6.87125e-06;-0.0006349466735832857
6.87150e-06;-0.0006661210780489554
6.87175e-06;-0.0006949983060818509
6.87200e-06;-0.0007238755341146485
6.87225e-06;-0.0007525546709491575
6.87250e-06;-0.0007770800032138427
6.87275e-06;-0.0008016053354784449
6.87300e-06;-0.0008258690384583862
6.87325e-06;-0.0008446465970384908
6.87350e-06;-0.0008634241556185317
6.87375e-06;-0.0008819447286354232
6.87400e-06;-0.0008950765321579751
6.87425e-06;-0.0009082083356804824
6.87450e-06;-0.0009210627214417424
6.87475e-06;-0.0009280998918283052
6.87500e-06;-0.000935137062214868
6.87525e-06;-0.0009419007414255225
6.87550e-06;-0.0009429295424296145
6.87575e-06;-0.0009439583434337063
6.87600e-06;-0.0009447420649244
6.87625e-06;-0.0009403866766965498
6.87650e-06;-0.0009360312884686996
6.87675e-06;-0.0009314442785114986
6.87700e-06;-0.0009220003571640394
6.87725e-06;-0.0009125564358165802
6.87750e-06;-0.0009029210744435362
6.87775e-06;-0.0008892713779593281
6.87800e-06;-0.00087562168147512
6.87825e-06;-0.00086177272198298
6.87850e-06;-0.0008437453860696306
6.87875e-06;-0.0008257180501562201
6.87900e-06;-0.0008076907142428707
6.87925e-06;-0.0007896633783295213
6.87950e-06;-0.0007716360424161108
6.87975e-06;-0.0007521398197056682
6.88000e-06;-0.000731419839731318
6.88025e-06;-0.0007106998597568977
6.88050e-06;-0.0006899798797825474
6.88075e-06;-0.0006692598998081973
6.88100e-06;-0.0006485803446776849
6.88125e-06;-0.0006287484642679929
6.88150e-06;-0.000608916583858301
6.88175e-06;-0.000589084703448542
6.88200e-06;-0.00056925282303885
6.88225e-06;-0.0005515849897634277
6.88250e-06;-0.0005357200649252344
6.88275e-06;-0.0005198551400870948
6.88300e-06;-0.0005039902152489014
6.88325e-06;-0.0004883678566359166
6.88350e-06;-0.0004778319062126983
6.88375e-06;-0.0004674587176552193
6.88400e-06;-0.000460607700750116
6.88425e-06;-0.0004561544820928686
6.88450e-06;-0.0004540752256463338
6.88475e-06;-0.00045434609404861514
6.88500e-06;-0.00045694612603024306
6.88525e-06;-0.00046192096175749515
6.88550e-06;-0.00046943470934927004
6.88575e-06;-0.00047961703496280755
6.88600e-06;-0.0004924795433585212
6.88625e-06;-0.0005088697438300268
6.88650e-06;-0.0005254651335583116
6.88675e-06;-0.0005463631681216705
6.88700e-06;-0.0005674488759795524
6.88725e-06;-0.0005924699337884089
6.88750e-06;-0.0006176714224348713
6.88775e-06;-0.0006466563928480197
6.88800e-06;-0.0006758258412374163
6.88825e-06;-0.0007088636364569867
6.88850e-06;-0.0007419014316765571
6.88875e-06;-0.0007751276235092358
6.88900e-06;-0.0008123043326657192
6.88925e-06;-0.0008494810418222026
6.88950e-06;-0.000886657750978812
6.88975e-06;-0.0009238344601352954
6.89000e-06;-0.0009610687226474328
6.89025e-06;-0.000999509830255941
6.89050e-06;-0.001037950937864319
6.89075e-06;-0.001076392045472697
6.89100e-06;-0.001114833153081205
6.89125e-06;-0.0011531222136061659
6.89150e-06;-0.00118822297564012
6.89175e-06;-0.001223323737673955
6.89200e-06;-0.00125842449970779
6.89225e-06;-0.0012932136572516937
6.89250e-06;-0.0013214687327008177
6.89275e-06;-0.0013497238081499417
6.89300e-06;-0.0013779788835991613
6.89325e-06;-0.0014060094358183403
6.89350e-06;-0.0014293319261727245
