Time(s);Current(A)
9.30000e-06;-0.01006471194715204
9.30025e-06;-0.009973625088120623
9.30050e-06;-0.009887934592488804
9.30075e-06;-0.009808348133261322
9.30100e-06;-0.009735169134663654
9.30125e-06;-0.009667547278979394
9.30150e-06;-0.00960409849033177
9.30175e-06;-0.009544307988515384
9.30200e-06;-0.009488428184315641
9.30225e-06;-0.009436819373684532
9.30250e-06;-0.00938984290978141
9.30275e-06;-0.009350053472776225
9.30300e-06;-0.009311342584301045
9.30325e-06;-0.009280045213047549
9.30350e-06;-0.009249973738435995
9.30375e-06;-0.009226823624411105
9.30400e-06;-0.009204818024177231
9.30425e-06;-0.009182812423943509
9.30450e-06;-0.009172438236507019
9.30475e-06;-0.009163987415464935
9.30500e-06;-0.009155536594422909
9.30525e-06;-0.009147085773380824
9.30550e-06;-0.00913863495233874
9.30575e-06;-0.009140912533235967
9.30600e-06;-0.009144964158964587
9.30625e-06;-0.009149015784693204
9.30650e-06;-0.009153067410421795
9.30675e-06;-0.009157119036150413
9.30700e-06;-0.009167722751815228
9.30725e-06;-0.009179409918804077
9.30750e-06;-0.009191097085792849
9.30775e-06;-0.00920522518985571
9.30800e-06;-0.009219756926428294
9.30825e-06;-0.00923428866300078
9.30850e-06;-0.009250367063400886
9.30875e-06;-0.00926670121959621
9.30900e-06;-0.00928303537579142
9.30925e-06;-0.009299616342878268
9.30950e-06;-0.009316238122528717
9.30975e-06;-0.009331506771122943
9.31000e-06;-0.00934655166643414
9.31025e-06;-0.009361596561745338
9.31050e-06;-0.009375074014762091
9.31075e-06;-0.009387323679839575
9.31100e-06;-0.009398839372826815
9.31125e-06;-0.00941135504692799
9.31150e-06;-0.009427046264329827
9.31175e-06;-0.009446772182587713
9.31200e-06;-0.009471840466768746
9.31225e-06;-0.009497695378423933
9.31250e-06;-0.009528946697672099
9.31275e-06;-0.00956109036501216
9.31300e-06;-0.009600493176220512
9.31325e-06;-0.009641096356946882
9.31350e-06;-0.009681699537672976
9.31375e-06;-0.009737718635903364
9.31400e-06;-0.009796286904917724
9.31425e-06;-0.009854855173931684
9.31450e-06;-0.009913423442946044
9.31475e-06;-0.009971991711960402
9.31500e-06;-0.010045980480396472
9.31525e-06;-0.01012251917728158
9.31550e-06;-0.01019905787416669
9.31575e-06;-0.0102755965710518
9.31600e-06;-0.010352135267936389
9.31625e-06;-0.010440421816949437
9.31650e-06;-0.010530650986725478
9.31675e-06;-0.010620880156500909
9.31700e-06;-0.010711109326276952
9.31725e-06;-0.010801338496052994
9.31750e-06;-0.010891567665828425
9.31775e-06;-0.010984048502156467
9.31800e-06;-0.011076901673286487
9.31825e-06;-0.01116975484441588
9.31850e-06;-0.011262608015545902
9.31875e-06;-0.011355461186675924
9.31900e-06;-0.011448314357805316
9.31925e-06;-0.011534413994427749
9.31950e-06;-0.011619396868920552
9.31975e-06;-0.011704379743412782
9.32000e-06;-0.01176857709871469
9.32025e-06;-0.011829337367754246
9.32050e-06;-0.01189009763679339
9.32075e-06;-0.011950857905832946
9.32100e-06;-0.012011618174872502
9.32125e-06;-0.012072378443911645
9.32150e-06;-0.012133138712951201
9.32175e-06;-0.012193898981990756
9.32200e-06;-0.0122546592510299
9.32225e-06;-0.012305938764011188
9.32250e-06;-0.012340224179171216
9.32275e-06;-0.012374509594331014
9.32300e-06;-0.012408795009491042
9.32325e-06;-0.01244308042465107
9.32350e-06;-0.012477365839810866
9.32375e-06;-0.012511651254970895
9.32400e-06;-0.012545936670130924
9.32425e-06;-0.012580222085290952
9.32450e-06;-0.012614507500450749
9.32475e-06;-0.01263426605130077
9.32500e-06;-0.012651622444893469
9.32525e-06;-0.01266897883848605
9.32550e-06;-0.012686335232078749
9.32575e-06;-0.012703691625671447
9.32600e-06;-0.012721048019264027
9.32625e-06;-0.012738404412856725
9.32650e-06;-0.012755760806449424
9.32675e-06;-0.012773117200042004
9.32700e-06;-0.012790473593634702
9.32725e-06;-0.0128078299872274
9.32750e-06;-0.012825186380819982
9.32775e-06;-0.01284254277441268
9.32800e-06;-0.012859899168005378
9.32825e-06;-0.012868410156843833
9.32850e-06;-0.012875458472611564
9.32875e-06;-0.012882506788379294
9.32900e-06;-0.012889555104146978
9.32925e-06;-0.012896603419914708
9.32950e-06;-0.012903651735682439
9.32975e-06;-0.012910700051450123
9.33000e-06;-0.012917748367217853
9.33025e-06;-0.012924796682985585
9.33050e-06;-0.012931844998753267
9.33075e-06;-0.012938893314521
9.33100e-06;-0.01294594163028873
9.33125e-06;-0.012952989946056414
9.33150e-06;-0.012960038261824144
9.33175e-06;-0.012966724434207188
9.33200e-06;-0.012973350722685335
9.33225e-06;-0.012979977011163525
9.33250e-06;-0.012986603299641717
9.33275e-06;-0.012993229588119907
9.33300e-06;-0.012999855876598054
9.33325e-06;-0.013006482165076246
9.33350e-06;-0.013013108453554436
9.33375e-06;-0.013019734742032583
9.33400e-06;-0.013026361030510773
9.33425e-06;-0.013032987318988965
9.33450e-06;-0.01303961360746711
9.33475e-06;-0.013046239895945302
9.33500e-06;-0.013056087830380864
9.33525e-06;-0.013066468495077853
9.33550e-06;-0.013076849159774914
9.33575e-06;-0.013087229824471974
9.33600e-06;-0.013097610489168963
9.33625e-06;-0.013107991153866023
9.33650e-06;-0.013118371818563084
9.33675e-06;-0.013128752483260073
9.33700e-06;-0.013139133147957133
9.33725e-06;-0.013149513812654194
9.33750e-06;-0.013159894477351185
9.33775e-06;-0.013170275142048243
9.33800e-06;-0.013180655806745304
9.33825e-06;-0.013190815277593125
9.33850e-06;-0.013200938171902595
9.33875e-06;-0.013211061066212065
9.33900e-06;-0.013221183960521467
9.33925e-06;-0.013231306854830935
9.33950e-06;-0.013241429749140405
9.33975e-06;-0.013251552643449807
9.34000e-06;-0.013261675537759277
9.34025e-06;-0.013266556564324423
9.34050e-06;-0.013270570797451635
9.34075e-06;-0.013274585030578875
9.34100e-06;-0.013278599263706115
9.34125e-06;-0.013282613496833354
9.34150e-06;-0.013286627729960568
9.34175e-06;-0.013290641963087808
9.34200e-06;-0.013294656196215048
9.34225e-06;-0.013285340796057594
9.34250e-06;-0.013273821212348486
9.34275e-06;-0.013262301628639377
9.34300e-06;-0.013250782044930347
9.34325e-06;-0.013239262461221236
9.34350e-06;-0.013227742877512128
9.34375e-06;-0.013216223293803097
9.34400e-06;-0.013204703710093989
9.34425e-06;-0.013187229825842575
9.34450e-06;-0.01315908295672329
9.34475e-06;-0.013130936087603814
9.34500e-06;-0.013102789218484338
9.34525e-06;-0.013074642349365053
9.34550e-06;-0.013046495480245578
9.34575e-06;-0.013018348611126102
9.34600e-06;-0.012990201742006817
9.34625e-06;-0.01296205487288734
9.34650e-06;-0.012925676722250394
9.34675e-06;-0.012887937449747358
9.34700e-06;-0.012850198177244067
9.34725e-06;-0.012812458904740774
9.34750e-06;-0.012774719632237738
9.34775e-06;-0.012736980359734446
9.34800e-06;-0.012699241087231155
9.34825e-06;-0.012661501814728119
9.34850e-06;-0.012624661215733303
9.34875e-06;-0.012589431474082835
9.34900e-06;-0.012554201732432605
9.34925e-06;-0.012518971990782135
9.34950e-06;-0.012483742249131666
9.34975e-06;-0.012448512507481198
9.35000e-06;-0.012413282765830966
9.35025e-06;-0.012378053024180498
9.35050e-06;-0.012342823282530028
9.35075e-06;-0.01231482949309295
9.35100e-06;-0.012288032238212681
9.35125e-06;-0.012261234983332411
9.35150e-06;-0.012232192055689565
9.35175e-06;-0.012202777784374627
9.35200e-06;-0.012173363513059688
9.35225e-06;-0.012138067296301364
9.35250e-06;-0.012101798443077124
9.35275e-06;-0.012065529589852882
9.35300e-06;-0.012029260736628888
9.35325e-06;-0.011992991883404646
9.35350e-06;-0.011956723030180406
9.35375e-06;-0.011916066871794575
9.35400e-06;-0.011867546541741466
9.35425e-06;-0.011819026211688356
9.35450e-06;-0.011770505881635576
9.35475e-06;-0.011721985551582466
9.35500e-06;-0.011673465221529357
9.35525e-06;-0.011624944891476576
9.35550e-06;-0.011567347148022709
9.35575e-06;-0.011508248366625763
9.35600e-06;-0.011449149585229218
9.35625e-06;-0.011390050803832274
9.35650e-06;-0.011330952022435328
9.35675e-06;-0.011271853241038783
9.35700e-06;-0.011209189487429981
9.35725e-06;-0.011145936231248106
9.35750e-06;-0.01108268297506666
9.35775e-06;-0.011019429718884784
9.35800e-06;-0.010956176462702907
9.35825e-06;-0.010892923206521032
9.35850e-06;-0.010830678238762648
9.35875e-06;-0.010768600001229079
9.35900e-06;-0.01070885574494219
9.35925e-06;-0.010649497434988187
9.35950e-06;-0.010592934228409982
9.35975e-06;-0.010536833219160295
9.36000e-06;-0.010490122478580067
9.36025e-06;-0.010444964509582112
9.36050e-06;-0.010399806540584157
9.36075e-06;-0.010354648571586507
9.36100e-06;-0.010309490602588551
9.36125e-06;-0.010264332633590596
9.36150e-06;-0.010219174664592948
9.36175e-06;-0.010180155590872767
9.36200e-06;-0.010142151642754761
9.36225e-06;-0.010104147694637014
9.36250e-06;-0.01006614374651901
9.36275e-06;-0.010028139798401003
9.36300e-06;-0.009990135850283256
9.36325e-06;-0.00995213190216525
9.36350e-06;-0.009912543466214892
9.36375e-06;-0.009872693019904254
9.36400e-06;-0.009832842573593343
9.36425e-06;-0.009792992127282431
9.36450e-06;-0.009753141680971793
9.36475e-06;-0.009712372686066284
9.36500e-06;-0.009669957208053507
9.36525e-06;-0.009627541730041015
9.36550e-06;-0.009585126252028236
9.36575e-06;-0.009542710774015457
9.36600e-06;-0.009500295296002966
9.36625e-06;-0.009456230278957086
9.36650e-06;-0.009411892494706508
9.36675e-06;-0.009367554710455932
9.36700e-06;-0.00932358640996858
9.36725e-06;-0.009279679207188333
9.36750e-06;-0.009235772004408086
9.36775e-06;-0.009191873592517955
9.36800e-06;-0.009147976634286029
9.36825e-06;-0.009104884442058273
9.36850e-06;-0.009061925325659276
9.36875e-06;-0.009020136196777464
9.36900e-06;-0.008979554685643584
9.36925e-06;-0.008940138240249326
9.36950e-06;-0.0089018249467146
9.36975e-06;-0.008864714512419283
9.37000e-06;-0.008829044015093154
9.37025e-06;-0.008795070235464763
9.37050e-06;-0.008763047021877753
9.37075e-06;-0.008733231689931623
9.37100e-06;-0.008706156331907054
9.37125e-06;-0.008683059282880391
9.37150e-06;-0.008665321731832784
9.37175e-06;-0.008653508070294007
9.37200e-06;-0.008647573596941892
9.37225e-06;-0.008647392180509458
9.37250e-06;-0.0086528339644393
9.37275e-06;-0.008663772559429975
9.37300e-06;-0.0086828709469353
9.37325e-06;-0.008703190077207042
9.37350e-06;-0.008734726382885164
9.37375e-06;-0.008768117556813913
9.37400e-06;-0.008818205072419
9.37425e-06;-0.008871053489316985
9.37450e-06;-0.008923901906214613
9.37475e-06;-0.0089767503231126
9.37500e-06;-0.009037795242634983
9.37525e-06;-0.009113532257047863
9.37550e-06;-0.00918926927146023
9.37575e-06;-0.00926500628587311
9.37600e-06;-0.009340743300285989
9.37625e-06;-0.009429232965525754
9.37650e-06;-0.009519831404702632
9.37675e-06;-0.009610429843879508
9.37700e-06;-0.009707099324841244
9.37725e-06;-0.009804772711176617
9.37750e-06;-0.00990244609751199
9.37775e-06;-0.01000322746298275
9.37800e-06;-0.010104522762810802
9.37825e-06;-0.010205818062638854
9.37850e-06;-0.010305718807672608
9.37875e-06;-0.010405388949607956
9.37900e-06;-0.010505059091543305
9.37925e-06;-0.01060042649249875
9.37950e-06;-0.010695082393692368
9.37975e-06;-0.010784212421464576
9.38000e-06;-0.010872428692715418
9.38025e-06;-0.010937575629097621
9.38050e-06;-0.010998907828231945
9.38075e-06;-0.011060240027365855
9.38100e-06;-0.01112157222650018
9.38125e-06;-0.011182904425634504
9.38150e-06;-0.011244236624768414
9.38175e-06;-0.011305568823902738
9.38200e-06;-0.011366901023037062
9.38225e-06;-0.011428233222170972
9.38250e-06;-0.011477497325797297
9.38275e-06;-0.011505129568552184
9.38300e-06;-0.011532761811306882
9.38325e-06;-0.011560394054061769
9.38350e-06;-0.011588026296816654
9.38375e-06;-0.01161565853957154
9.38400e-06;-0.011643290782326239
9.38425e-06;-0.011670923025081124
9.38450e-06;-0.011698555267836011
9.38475e-06;-0.01172618751059071
9.38500e-06;-0.011733619623549572
9.38525e-06;-0.011737711450019579
9.38550e-06;-0.011741803276489557
9.38575e-06;-0.011745895102959564
9.38600e-06;-0.011749986929429572
9.38625e-06;-0.01175407875589955
9.38650e-06;-0.011758170582369557
9.38675e-06;-0.011762262408839564
9.38700e-06;-0.011766354235309542
9.38725e-06;-0.011770446061779549
9.38750e-06;-0.011774537888249555
9.38775e-06;-0.011774925572944154
9.38800e-06;-0.011768673644993038
9.38825e-06;-0.011762421717041924
9.38850e-06;-0.01175616978909085
9.38875e-06;-0.011749917861139736
9.38900e-06;-0.01174366593318862
9.38925e-06;-0.011737414005237548
9.38950e-06;-0.011731162077286432
9.38975e-06;-0.011724910149335317
9.39000e-06;-0.011718658221384244
9.39025e-06;-0.01171240629343313
9.39050e-06;-0.011706154365482014
9.39075e-06;-0.011699716994926418
9.39100e-06;-0.011693248959645713
9.39125e-06;-0.011686780924365009
9.39150e-06;-0.011675274910048225
9.39175e-06;-0.011662935817257145
9.39200e-06;-0.011650596724466064
9.39225e-06;-0.011628247881912747
9.39250e-06;-0.011604243830594375
9.39275e-06;-0.01158023977927584
9.39300e-06;-0.011556235727957304
9.39325e-06;-0.011532231676638931
9.39350e-06;-0.011508227625320396
9.39375e-06;-0.011477947778384857
9.39400e-06;-0.011436418671979073
9.39425e-06;-0.011394889565573009
9.39450e-06;-0.011353360459166944
9.39475e-06;-0.01131183135276116
9.39500e-06;-0.011270302246355095
9.39525e-06;-0.011228773139949029
9.39550e-06;-0.011175477385610965
9.39575e-06;-0.01112023590243196
9.39600e-06;-0.011064994419252953
9.39625e-06;-0.011009752936074322
9.39650e-06;-0.010954511452895317
9.39675e-06;-0.010896955649301767
9.39700e-06;-0.010835251464780857
9.39725e-06;-0.010773547280259529
9.39750e-06;-0.0107118430957382
9.39775e-06;-0.01065013891121729
9.39800e-06;-0.010588434726695961
9.39825e-06;-0.010526095491200475
9.39850e-06;-0.010463651243895505
9.39875e-06;-0.010402695853656043
9.39900e-06;-0.010341986660307159
9.39925e-06;-0.010283638620045782
9.39950e-06;-0.010225681019243598
9.39975e-06;-0.010170932892395646
9.40000e-06;-0.010116715483053486
9.40025e-06;-0.010065709545594667
9.40050e-06;-0.01001782077596739
9.40075e-06;-0.009973278221660924
9.40100e-06;-0.00993438932311931
9.40125e-06;-0.009896355506155875
9.40150e-06;-0.009866415301610509
9.40175e-06;-0.009837813454021686
9.40200e-06;-0.009817743964169606
9.40225e-06;-0.009799085382048472
9.40250e-06;-0.009791275690325757
9.40275e-06;-0.00978525996737543
9.40300e-06;-0.009779244244425105
9.40325e-06;-0.00978666579614248
9.40350e-06;-0.009796309330961787
9.40375e-06;-0.009805952865781094
9.40400e-06;-0.00983427411115988
9.40425e-06;-0.009865683896311362
9.40450e-06;-0.009897093681462844
9.40475e-06;-0.009928503466614112
9.40500e-06;-0.009959913251765594
9.40525e-06;-0.009991323036917075
9.40550e-06;-0.010042419220636234
9.40575e-06;-0.010096770740429566
9.40600e-06;-0.010151122260222899
9.40625e-06;-0.010205473780015864
9.40650e-06;-0.010259825299809198
9.40675e-06;-0.010314176819602531
9.40700e-06;-0.010379369811839945
9.40725e-06;-0.010446355546220153
9.40750e-06;-0.010513341280600363
9.40775e-06;-0.010580327014980117
9.40800e-06;-0.010647312749360326
9.40825e-06;-0.010714298483740534
9.40850e-06;-0.010780450031360824
9.40875e-06;-0.010845106313061325
9.40900e-06;-0.010909762594761827
9.40925e-06;-0.010974418876461889
9.40950e-06;-0.01103907515816239
9.40975e-06;-0.011103731439862891
9.41000e-06;-0.011168387721563392
9.41025e-06;-0.011222349896050296
9.41050e-06;-0.011274543696658614
9.41075e-06;-0.01132673749726693
9.41100e-06;-0.011367482096259113
9.41125e-06;-0.011406333459222632
9.41150e-06;-0.01144518482218615
9.41175e-06;-0.011470986775196958
9.41200e-06;-0.011494630882280437
9.41225e-06;-0.011518274989363917
9.41250e-06;-0.011521162606838742
9.41275e-06;-0.01152061793835302
9.41300e-06;-0.011520073269867297
9.41325e-06;-0.01151952860138158
9.41350e-06;-0.011518983932895858
9.41375e-06;-0.011518439264410135
9.41400e-06;-0.01149186264006038
9.41425e-06;-0.011460981380469921
9.41450e-06;-0.011430100120879465
9.41475e-06;-0.011399218861289218
9.41500e-06;-0.01136833760169876
9.41525e-06;-0.011337456342108303
9.41550e-06;-0.01128692239447114
9.41575e-06;-0.011233138685118474
9.41600e-06;-0.011179354975765807
9.41625e-06;-0.011125571266413505
9.41650e-06;-0.011071787557060838
9.41675e-06;-0.011013422626011918
9.41700e-06;-0.01094684593111203
9.41725e-06;-0.01088026923621169
9.41750e-06;-0.010813692541311351
9.41775e-06;-0.010747115846411463
9.41800e-06;-0.010680539151511124
9.41825e-06;-0.010611382076168508
9.41850e-06;-0.010541798310006113
9.41875e-06;-0.010472957374033445
9.41900e-06;-0.010404239272204154
9.41925e-06;-0.010337654959084189
9.41950e-06;-0.010271423488529571
9.41975e-06;-0.010207730587201138
9.42000e-06;-0.010147955038192458
9.42025e-06;-0.010088757847043864
9.42050e-06;-0.010035502098651129
9.42075e-06;-0.009983228825183111
9.42100e-06;-0.009938156089644497
9.42125e-06;-0.009894274032573765
9.42150e-06;-0.00985771718423307
9.42175e-06;-0.009822371629881503
9.42200e-06;-0.009796478679594526
9.42225e-06;-0.00977214880865527
9.42250e-06;-0.00974781893771618
9.42275e-06;-0.00973553072108699
9.42300e-06;-0.00972523370826116
9.42325e-06;-0.009714936695435399
9.42350e-06;-0.009721493683115999
9.42375e-06;-0.009730837642507137
9.42400e-06;-0.009740181601898212
9.42425e-06;-0.00974952556128935
9.42450e-06;-0.009758869520680488
9.42475e-06;-0.009768213480071564
9.42500e-06;-0.009796378068576592
9.42525e-06;-0.009827654829820369
9.42550e-06;-0.009858931591063934
9.42575e-06;-0.009890208352307708
9.42600e-06;-0.009921485113551485
9.42625e-06;-0.009952761874795048
9.42650e-06;-0.009996445768006745
9.42675e-06;-0.010042181300281358
9.42700e-06;-0.010087916832555971
9.42725e-06;-0.010133652364830274
9.42750e-06;-0.010179387897104887
9.42775e-06;-0.0102251234293795
9.42800e-06;-0.010272043898854987
9.42825e-06;-0.010321088348597011
9.42850e-06;-0.010370132798339034
9.42875e-06;-0.010419177248080726
9.42900e-06;-0.01046822169782275
9.42925e-06;-0.010517266147564774
9.42950e-06;-0.010566310597306465
9.42975e-06;-0.010610371083830963
9.43000e-06;-0.01065360742391663
9.43025e-06;-0.010696843764002002
9.43050e-06;-0.010734574875939968
9.43075e-06;-0.010771395645249966
9.43100e-06;-0.01080014877522691
9.43125e-06;-0.010827567843146164
9.43150e-06;-0.010854986911065418
9.43175e-06;-0.010869814494475988
9.43200e-06;-0.010882559954350488
9.43225e-06;-0.010895305414224987
9.43250e-06;-0.010895099229499118
9.43275e-06;-0.010892751365288502
9.43300e-06;-0.010890403501077886
9.43325e-06;-0.010868935451524292
9.43350e-06;-0.010844305694715981
9.43375e-06;-0.010819675937907669
9.43400e-06;-0.010795046181099525
9.43425e-06;-0.010770416424291215
9.43450e-06;-0.01073660876133282
9.43475e-06;-0.010686349853928346
9.43500e-06;-0.010636090946523534
9.43525e-06;-0.01058583203911872
9.43550e-06;-0.010535573131713908
9.43575e-06;-0.010485314224309436
9.43600e-06;-0.010421643421998993
9.43625e-06;-0.010355754833371813
9.43650e-06;-0.01028986624474508
9.43675e-06;-0.010218567929000614
9.43700e-06;-0.010146375062645433
9.43725e-06;-0.010071121368292359
9.43750e-06;-0.009995361536476401
9.43775e-06;-0.009917733640575268
9.43800e-06;-0.009839796842241675
9.43825e-06;-0.009761402118465502
9.43850e-06;-0.009683137858620818
9.43875e-06;-0.00960549828163726
9.43900e-06;-0.009528916169407934
9.43925e-06;-0.009453789826090799
9.43950e-06;-0.00938052265904625
9.43975e-06;-0.009309570940588516
9.44000e-06;-0.00924143216672668
9.44025e-06;-0.00917660765330787
9.44050e-06;-0.00911559845187633
9.44075e-06;-0.009058905613977663
9.44100e-06;-0.009006875950999743
9.44125e-06;-0.008961148603530117
9.44150e-06;-0.008916352919013687
9.44175e-06;-0.008878553184444445
9.44200e-06;-0.008841910297746199
9.44225e-06;-0.00881275005662171
9.44250e-06;-0.008784827143189778
9.44275e-06;-0.008766913323785201
9.44300e-06;-0.008750654604718385
9.44325e-06;-0.00873439588565168
9.44350e-06;-0.008733165398565963
9.44375e-06;-0.00873441997473966
9.44400e-06;-0.008735674550913357
9.44425e-06;-0.008736929127087047
9.44450e-06;-0.008738183703260743
9.44475e-06;-0.008746404828961375
9.44500e-06;-0.00876711337906768
9.44525e-06;-0.008787821929174128
9.44550e-06;-0.008808530479280574
9.44575e-06;-0.00882923902938688
9.44600e-06;-0.008849947579493327
9.44625e-06;-0.008882571672176156
9.44650e-06;-0.0089171661148713
9.44675e-06;-0.00895176055756668
9.44700e-06;-0.00898635500026206
9.44725e-06;-0.009020949442957204
