Time(s);Current(A)
1.00000e-06;0.008177679787980296
1.00025e-06;0.00818937347422717
1.00050e-06;0.008199429808560636
1.00075e-06;0.008209427914600132
1.00100e-06;0.008219426020639619
1.00125e-06;0.008229424126679112
1.00150e-06;0.0082394222327186
1.00175e-06;0.008249420338758086
1.00200e-06;0.008257440494041817
1.00225e-06;0.008263190960300112
1.00250e-06;0.008268941426558412
1.00275e-06;0.008274691892816707
1.00300e-06;0.008280442359075003
1.00325e-06;0.008286192825333303
1.00350e-06;0.008291943291591598
1.00375e-06;0.008297693757849898
1.00400e-06;0.008303444224108194
1.00425e-06;0.008309194690366494
1.00450e-06;0.008314945156624788
1.00475e-06;0.008320695622883085
1.00500e-06;0.008326446089141385
1.00525e-06;0.00833219655539968
1.00550e-06;0.00833794702165798
1.00575e-06;0.008343697487916276
1.00600e-06;0.008345782187043802
1.00625e-06;0.008347736522402638
1.00650e-06;0.008349690857761473
1.00675e-06;0.00835164519312031
1.00700e-06;0.008353599528479144
1.00725e-06;0.00835555386383798
1.00750e-06;0.008357508199196817
1.00775e-06;0.008359462534555651
1.00800e-06;0.008361416869914488
1.00825e-06;0.008363371205273322
1.00850e-06;0.008365325540632157
1.00875e-06;0.008367279875990995
1.00900e-06;0.00836923421134983
1.00925e-06;0.008371188546708666
1.00950e-06;0.0083731428820675
1.00975e-06;0.008374886579063224
1.01000e-06;0.008376388569545435
1.01025e-06;0.008377890560027646
1.01050e-06;0.00837939255050986
1.01075e-06;0.008381145857702128
1.01100e-06;0.00838318754961633
1.01125e-06;0.008385229241530531
1.01150e-06;0.008387270933444732
1.01175e-06;0.00839053144273695
1.01200e-06;0.008395190539136893
1.01225e-06;0.00839984963553684
1.01250e-06;0.008407208886764989
1.01275e-06;0.008417666552734918
1.01300e-06;0.008428124218704853
1.01325e-06;0.008438581884674782
1.01350e-06;0.00844903955064472
1.01375e-06;0.008459497216614646
1.01400e-06;0.008473825608053997
1.01425e-06;0.008492595638443227
1.01450e-06;0.008511365668832456
1.01475e-06;0.0085301356992217
1.01500e-06;0.008548905729610931
1.01525e-06;0.008567675760000176
1.01550e-06;0.008589720542990743
1.01575e-06;0.008615523088917533
1.01600e-06;0.008641325634844346
1.01625e-06;0.008667128180771134
1.01650e-06;0.008692930726697946
1.01675e-06;0.008718733272624736
1.01700e-06;0.00874875650208792
1.01725e-06;0.00877892982952309
1.01750e-06;0.008809103156958235
1.01775e-06;0.008839276484393404
1.01800e-06;0.008869449811828549
1.01825e-06;0.008900211917010695
1.01850e-06;0.008931633017495636
1.01875e-06;0.008963035041625664
1.01900e-06;0.008994437065755716
1.01925e-06;0.009025299882909303
1.01950e-06;0.009055543962638251
1.01975e-06;0.009085788042367173
1.02000e-06;0.00911496888689188
1.02025e-06;0.009142929674108726
1.02050e-06;0.00917089046132555
1.02075e-06;0.009197108005397915
1.02100e-06;0.009221325186305642
1.02125e-06;0.009245542367213368
1.02150e-06;0.009267086353641657
1.02175e-06;0.009285562862199453
1.02200e-06;0.009304039370757265
1.02225e-06;0.009317501412135422
1.02250e-06;0.0093252093764257
1.02275e-06;0.009332917340715972
1.02300e-06;0.009340625305006242
1.02325e-06;0.009348333269296521
1.02350e-06;0.009356041233586793
1.02375e-06;0.00934971279250548
1.02400e-06;0.009342885182045284
1.02425e-06;0.009336057571585088
1.02450e-06;0.009329229961124888
1.02475e-06;0.009322402350664692
1.02500e-06;0.009310678115309909
1.02525e-06;0.009293335026325419
1.02550e-06;0.00927599193734093
1.02575e-06;0.009255676993926976
1.02600e-06;0.009231951861779506
1.02625e-06;0.009208226729632014
1.02650e-06;0.00918242044648281
1.02675e-06;0.009154226052520163
1.02700e-06;0.009124760546776325
1.02725e-06;0.009093836446347505
1.02750e-06;0.009061956301591912
1.02775e-06;0.009028979100547353
1.02800e-06;0.008995341190257222
1.02825e-06;0.008960945119270236
1.02850e-06;0.008926297731573178
1.02875e-06;0.008891335504763639
1.02900e-06;0.008856421417482146
1.02925e-06;0.008821781717148765
1.02950e-06;0.008787637574972293
1.02975e-06;0.008754195388931263
1.03000e-06;0.008721660405625067
1.03025e-06;0.008690259839601921
1.03050e-06;0.00866024190623064
1.03075e-06;0.008631861787896718
1.03100e-06;0.008605373799628486
1.03125e-06;0.008581032128523352
1.03150e-06;0.008559985985263228
1.03175e-06;0.00854132181520663
1.03200e-06;0.008526267151583082
1.03225e-06;0.008515354379315014
1.03250e-06;0.008510579290676641
1.03275e-06;0.008512847164626115
1.03300e-06;0.008515115038575593
1.03325e-06;0.008517382912525066
1.03350e-06;0.008519650786474544
1.03375e-06;0.008540239011983936
1.03400e-06;0.008561478754620619
1.03425e-06;0.008582718497257318
1.03450e-06;0.008603958239894
1.03475e-06;0.008632318694929272
1.03500e-06;0.008668850133359423
1.03525e-06;0.008705381571789603
1.03550e-06;0.008746819938265099
1.03575e-06;0.008793888981186165
1.03600e-06;0.008840958024107271
1.03625e-06;0.008892295620272597
1.03650e-06;0.008948531360854793
1.03675e-06;0.00900476710143694
1.03700e-06;0.009064036423359883
1.03725e-06;0.00912678676535152
1.03750e-06;0.009189537107343104
1.03775e-06;0.009254203151976073
1.03800e-06;0.009321067456220591
1.03825e-06;0.00938793176046511
1.03850e-06;0.009455389481502824
1.03875e-06;0.009523528145470273
1.03900e-06;0.009591666809437781
1.03925e-06;0.009659133994476089
1.03950e-06;0.009725830660657232
1.03975e-06;0.009791247107807854
1.04000e-06;0.009855194509748677
1.04025e-06;0.009916523360705148
1.04050e-06;0.009974847436940442
1.04075e-06;0.010033171513175787
1.04100e-06;0.010084317197767444
1.04125e-06;0.010127225712306844
1.04150e-06;0.01017013422684628
1.04175e-06;0.010213042741385682
1.04200e-06;0.010255951255925119
1.04225e-06;0.010298859770464519
1.04250e-06;0.010331603004741504
1.04275e-06;0.010352681628572795
1.04300e-06;0.010373760252404067
1.04325e-06;0.010394838876235357
1.04350e-06;0.010415917500066629
1.04375e-06;0.010436996123897901
1.04400e-06;0.010448412462285664
1.04425e-06;0.010448741374374931
1.04450e-06;0.0104490702864642
1.04475e-06;0.010449399198553469
1.04500e-06;0.010449728110642736
1.04525e-06;0.010450057022732006
1.04550e-06;0.010442569818894236
1.04575e-06;0.010426113659441624
1.04600e-06;0.010409657499989027
1.04625e-06;0.010393201340536416
1.04650e-06;0.010376745181083818
1.04675e-06;0.010360289021631221
1.04700e-06;0.010340029356881488
1.04725e-06;0.010315405188008655
1.04750e-06;0.010289376551205496
1.04775e-06;0.01026173629417477
1.04800e-06;0.010233213284489378
1.04825e-06;0.010203677320357998
1.04850e-06;0.01017366561087554
1.04875e-06;0.010143107985879805
1.04900e-06;0.010112428714055488
1.04925e-06;0.010081609853077574
1.04950e-06;0.010051077003092442
1.04975e-06;0.010020872349352512
1.05000e-06;0.009991490166951092
1.05025e-06;0.009963051766473921
1.05050e-06;0.0099359003070445
1.05075e-06;0.0099102256063075
1.05100e-06;0.009886773652613532
1.05125e-06;0.009865872290512277
1.05150e-06;0.00984497092841104
1.05175e-06;0.009828887356736819
1.05200e-06;0.009818332176517315
1.05225e-06;0.00980777699629781
1.05250e-06;0.009797221816078297
1.05275e-06;0.009786666635858792
1.05300e-06;0.00977611145563928
1.05325e-06;0.009765556275419775
1.05350e-06;0.009769050443518982
1.05375e-06;0.009773044241279723
1.05400e-06;0.009777038039040467
1.05425e-06;0.009781031836801214
1.05450e-06;0.009785025634561956
1.05475e-06;0.009789019432322703
1.05500e-06;0.009799796744449456
1.05525e-06;0.00981835810684183
1.05550e-06;0.009836919469234217
1.05575e-06;0.00985548083162659
1.05600e-06;0.009874042194018978
1.05625e-06;0.00989260355641135
1.05650e-06;0.009911164918803724
1.05675e-06;0.009929726281196111
1.05700e-06;0.009948287643588485
1.05725e-06;0.009970980372249347
1.05750e-06;0.009998413823928364
1.05775e-06;0.010025847275607404
1.05800e-06;0.010053280727286423
1.05825e-06;0.01008071417896544
1.05850e-06;0.010108147630644482
1.05875e-06;0.0101355810823235
1.05900e-06;0.01016301453400254
1.05925e-06;0.010190447985681559
1.05950e-06;0.010217903217660253
1.05975e-06;0.010245383442428596
1.06000e-06;0.010272863667196918
1.06025e-06;0.010299195655768376
1.06050e-06;0.010324210048799973
1.06075e-06;0.01034922444183157
1.06100e-06;0.010372759991064353
1.06125e-06;0.010394598574116511
1.06150e-06;0.010413863419632565
1.06175e-06;0.010430174913645238
1.06200e-06;0.010446486407657926
1.06225e-06;0.010456750543641573
1.06250e-06;0.01046007536523295
1.06275e-06;0.01046340018682433
1.06300e-06;0.010466725008415707
1.06325e-06;0.010470049830007088
1.06350e-06;0.01046541682398224
1.06375e-06;0.010451652248858453
1.06400e-06;0.010437887673734655
1.06425e-06;0.010424123098610868
1.06450e-06;0.01041035852348707
1.06475e-06;0.010390253105614717
1.06500e-06;0.010362871601039304
1.06525e-06;0.010335490096463871
1.06550e-06;0.010304731609428717
1.06575e-06;0.010270098051185174
1.06600e-06;0.010232863505937658
1.06625e-06;0.010192644340552856
1.06650e-06;0.010150244422662933
1.06675e-06;0.01010534210171171
1.06700e-06;0.010058787031869696
1.06725e-06;0.010010335440586613
1.06750e-06;0.009960945585796495
1.06775e-06;0.009909950857669561
1.06800e-06;0.009857905044925156
1.06825e-06;0.009805040737635702
1.06850e-06;0.009751672616625935
1.06875e-06;0.009698138751990356
1.06900e-06;0.00964477764750217
1.06925e-06;0.009591927003542894
1.06950e-06;0.009539906114099115
1.06975e-06;0.00948898927800648
1.07000e-06;0.009439434877136563
1.07025e-06;0.009391549246216387
1.07050e-06;0.009345689053631909
1.07075e-06;0.00930291783119051
1.07100e-06;0.009262327533759756
1.07125e-06;0.009225623068267956
1.07150e-06;0.009193377576326186
1.07175e-06;0.009161132084384389
1.07200e-06;0.009135712482289912
1.07225e-06;0.009118125556122248
1.07250e-06;0.009100538629954571
1.07275e-06;0.00908295170378691
1.07300e-06;0.00906536477761923
1.07325e-06;0.009047777851451569
1.07350e-06;0.009049169121213127
1.07375e-06;0.009051235302677759
1.07400e-06;0.009053301484142387
1.07425e-06;0.009055367665607017
1.07450e-06;0.009057433847071646
1.07475e-06;0.009068907435849911
1.07500e-06;0.009091175979490681
1.07525e-06;0.009113444523131453
1.07550e-06;0.009135713066772242
1.07575e-06;0.009157981610413014
1.07600e-06;0.009180250154053804
1.07625e-06;0.009202518697694576
1.07650e-06;0.009224787241335347
1.07675e-06;0.009261983267144253
1.07700e-06;0.009299710151231181
1.07725e-06;0.009337437035318143
1.07750e-06;0.009375163919405072
1.07775e-06;0.009412890803492
1.07800e-06;0.009450617687578962
1.07825e-06;0.009488344571665891
1.07850e-06;0.009528107605379093
1.07875e-06;0.009570207111042011
1.07900e-06;0.009612306616704966
1.07925e-06;0.009654130013701615
1.07950e-06;0.00969563657732536
1.07975e-06;0.009737143140949141
1.08000e-06;0.009777254416171405
1.08025e-06;0.009815764604631788
1.08050e-06;0.009854274793092139
1.08075e-06;0.009888377473257572
1.08100e-06;0.009917422558751934
1.08125e-06;0.009946467644246271
1.08150e-06;0.009975512729740631
1.08175e-06;0.010004557815234969
1.08200e-06;0.010033602900729306
1.08225e-06;0.010062647986223666
1.08250e-06;0.010076605193445732
1.08275e-06;0.010090025838306744
1.08300e-06;0.010103446483167744
1.08325e-06;0.010116867128028744
1.08350e-06;0.010130287772889756
1.08375e-06;0.010143708417750757
1.08400e-06;0.010149253543844704
1.08425e-06;0.010145761549851185
1.08450e-06;0.010142269555857661
1.08475e-06;0.01013877756186414
1.08500e-06;0.01013528556787062
1.08525e-06;0.010131793573877095
1.08550e-06;0.010128301579883574
1.08575e-06;0.01012480958589005
1.08600e-06;0.010114968267118244
1.08625e-06;0.010097841128555744
1.08650e-06;0.01008071398999323
1.08675e-06;0.010063586851430729
1.08700e-06;0.010046459712868213
1.08725e-06;0.010029332574305713
1.08750e-06;0.010012205435743212
1.08775e-06;0.009995078297180698
1.08800e-06;0.009975627852364983
1.08825e-06;0.009953511424744713
1.08850e-06;0.00993139499712446
1.08875e-06;0.009909029782585519
1.08900e-06;0.009886379086248296
1.08925e-06;0.009863728389911073
1.08950e-06;0.009841498217191737
1.08975e-06;0.009819750593311033
1.09000e-06;0.00979800296943031
1.09025e-06;0.009777466320574428
1.09050e-06;0.009758319259762909
1.09075e-06;0.009739172198951372
1.09100e-06;0.009721989701896253
1.09125e-06;0.00970706153234773
1.09150e-06;0.009692133362799218
1.09175e-06;0.009681693838351385
1.09200e-06;0.009676405012670568
1.09225e-06;0.009671116186989756
1.09250e-06;0.00966582736130894
1.09275e-06;0.009660538535628128
1.09300e-06;0.00965524970994731
1.09325e-06;0.00965668051630265
1.09350e-06;0.009665822068254218
1.09375e-06;0.009674963620205793
1.09400e-06;0.009684105172157361
1.09425e-06;0.009693246724108935
1.09450e-06;0.009702388276060504
1.09475e-06;0.009718913017966643
1.09500e-06;0.009743909935004067
1.09525e-06;0.009768906852041473
1.09550e-06;0.009793903769078897
1.09575e-06;0.009818900686116301
1.09600e-06;0.009843897603153705
1.09625e-06;0.009868894520191131
1.09650e-06;0.009893891437228535
1.09675e-06;0.009918888354265961
1.09700e-06;0.0099545723909049
1.09725e-06;0.009990636488014893
1.09750e-06;0.010026700585124853
1.09775e-06;0.010062764682234814
1.09800e-06;0.010098828779344806
1.09825e-06;0.010134892876454768
1.09850e-06;0.010170956973564758
1.09875e-06;0.01020702107067472
1.09900e-06;0.01024367315084101
1.09925e-06;0.010280999938749914
1.09950e-06;0.010318326726658784
1.09975e-06;0.010354653596429102
1.10000e-06;0.010389833064921769
1.10025e-06;0.010425012533414435
1.10050e-06;0.010458037259788085
1.10075e-06;0.010488589429894432
1.10100e-06;0.010519141600000805
1.10125e-06;0.01054969377010715
1.10150e-06;0.010575411089337197
1.10175e-06;0.010600956469282405
1.10200e-06;0.01062650184922761
1.10225e-06;0.01065177845332747
1.10250e-06;0.01067674663843133
1.10275e-06;0.010701714823535208
1.10300e-06;0.010726683008639066
1.10325e-06;0.010751651193742925
1.10350e-06;0.010776619378846804
1.10375e-06;0.010801587563950662
1.10400e-06;0.010827570757812231
1.10425e-06;0.010853590047901837
1.10450e-06;0.010879609337991442
1.10475e-06;0.01090562862808107
1.10500e-06;0.010931647918170676
1.10525e-06;0.010957667208260302
1.10550e-06;0.010984785613225061
1.10575e-06;0.011013165247247799
1.10600e-06;0.01104154488127051
1.10625e-06;0.011069924515293223
1.10650e-06;0.01109830414931596
1.10675e-06;0.011126683783338674
1.10700e-06;0.011155063417361409
1.10725e-06;0.011183443051384122
1.10750e-06;0.011211822685406835
1.10775e-06;0.011240202319429573
1.10800e-06;0.011268008847270338
1.10825e-06;0.01129515773851072
1.10850e-06;0.011322306629751078
1.10875e-06;0.011349455520991437
1.10900e-06;0.011376604412231818
1.10925e-06;0.011403753303472177
1.10950e-06;0.011430902194712558
1.10975e-06;0.011458051085952915
1.11000e-06;0.011485199977193297
1.11025e-06;0.011512348868433655
1.11050e-06;0.011536040084094694
1.11075e-06;0.011555763633579916
1.11100e-06;0.011575487183065121
1.11125e-06;0.011595210732550343
1.11150e-06;0.011614934282035548
1.11175e-06;0.011634657831520753
1.11200e-06;0.011654381381005975
1.11225e-06;0.01166222423637907
1.11250e-06;0.011669644584812424
1.11275e-06;0.011677064933245771
1.11300e-06;0.01168448528167912
1.11325e-06;0.011691905630112475
1.11350e-06;0.011699325978545824
1.11375e-06;0.011699696301955883
1.11400e-06;0.011691976755399411
1.11425e-06;0.011684257208842933
1.11450e-06;0.011676537662286459
1.11475e-06;0.011668818115729987
1.11500e-06;0.011661098569173509
1.11525e-06;0.011653379022617035
1.11550e-06;0.011645659476060556
1.11575e-06;0.011625351929988873
1.11600e-06;0.011604596723443678
1.11625e-06;0.011583841516898466
1.11650e-06;0.011563086310353271
1.11675e-06;0.011542331103808057
1.11700e-06;0.011521575897262862
1.11725e-06;0.011500820690717667
1.11750e-06;0.011477467923228464
1.11775e-06;0.011451134466990353
1.11800e-06;0.01142480101075222
1.11825e-06;0.011397891484862166
1.11850e-06;0.011370320921804084
1.11875e-06;0.011342750358746026
1.11900e-06;0.011315348496637484
1.11925e-06;0.011288140218060927
1.11950e-06;0.011260931939484395
1.11975e-06;0.011234625856816945
1.12000e-06;0.01120935503963647
1.12025e-06;0.011184084222455997
1.12050e-06;0.011162396276619562
1.12075e-06;0.011144819658499488
1.12100e-06;0.011127243040379398
1.12125e-06;0.011109666422259324
1.12150e-06;0.01109208980413925
1.12175e-06;0.01107451318601916
1.12200e-06;0.011056936567899085
1.12225e-06;0.011039359949778997
1.12250e-06;0.011027282754931948
1.12275e-06;0.01102151612196525
1.12300e-06;0.011015749488998548
1.12325e-06;0.011009982856031851
1.12350e-06;0.011004216223065149
1.12375e-06;0.010998449590098451
1.12400e-06;0.010992682957131749
1.12425e-06;0.010986916324165052
1.12450e-06;0.010986692982723064
1.12475e-06;0.010992830541770181
1.12500e-06;0.010998968100817293
1.12525e-06;0.01100510565986441
1.12550e-06;0.011011243218911523
1.12575e-06;0.011017380777958635
1.12600e-06;0.011023518337005753
1.12625e-06;0.011029655896052865
1.12650e-06;0.011035793455099982
1.12675e-06;0.011041931014147095
1.12700e-06;0.011048068573194205
1.12725e-06;0.011054206132241323
1.12750e-06;0.011060343691288435
1.12775e-06;0.011069233841347373
1.12800e-06;0.011081282576415767
1.12825e-06;0.011093331311484173
1.12850e-06;0.011105380046552567
1.12875e-06;0.011117428781620961
1.12900e-06;0.011129477516689367
1.12925e-06;0.011141526251757761
1.12950e-06;0.011153574986826165
1.12975e-06;0.011165623721894561
1.13000e-06;0.011177672456962955
1.13025e-06;0.01118972119203136
1.13050e-06;0.011201769927099755
1.13075e-06;0.01121381866216816
1.13100e-06;0.011224885159838086
1.13125e-06;0.01123482454479524
1.13150e-06;0.011244763929752403
1.13175e-06;0.011252545764005521
1.13200e-06;0.011257851819153968
1.13225e-06;0.011263157874302411
1.13250e-06;0.011263897222213598
1.13275e-06;0.01125939629543091
1.13300e-06;0.011254895368648222
1.13325e-06;0.011250394441865532
1.13350e-06;0.011245893515082844
1.13375e-06;0.011241392588300153
1.13400e-06;0.011230451390735809
1.13425e-06;0.011212120013279224
1.13450e-06;0.011193788635822623
1.13475e-06;0.011175457258366037
1.13500e-06;0.011157125880909436
1.13525e-06;0.011138794503452851
1.13550e-06;0.011114528121683127
1.13575e-06;0.011083451350875085
1.13600e-06;0.01105237458006707
1.13625e-06;0.011021297809259027
1.13650e-06;0.010990221038451013
1.13675e-06;0.01095914426764297
1.13700e-06;0.010928067496834955
1.13725e-06;0.010893537405818901
1.13750e-06;0.010855044646395272
1.13775e-06;0.010816551886971676
1.13800e-06;0.010778059127548046
1.13825e-06;0.010739566368124448
1.13850e-06;0.010701073608700852
1.13875e-06;0.010662580849277223
1.13900e-06;0.010624127389389304
1.13925e-06;0.010585719025530413
1.13950e-06;0.010547310661671553
1.13975e-06;0.010510250459813788
1.14000e-06;0.010474737267398521
1.14025e-06;0.010439224074983284
1.14050e-06;0.010405537319711795
1.14075e-06;0.01037394639231955
1.14100e-06;0.01034441565480061
1.14125e-06;0.010317248975299077
1.14150e-06;0.010293978128041364
1.14175e-06;0.01027517772963381
1.14200e-06;0.01025637733122627
1.14225e-06;0.010240291602690054
1.14250e-06;0.010230236904870326
1.14275e-06;0.010226066507906374
1.14300e-06;0.010231710721383345
1.14325e-06;0.01023735493486031
1.14350e-06;0.01024299914833728
1.14375e-06;0.010248643361814245
1.14400e-06;0.010254287575291211
1.14425e-06;0.010259931788768181
1.14450e-06;0.010275676288489962
1.14475e-06;0.010306291754693555
1.14500e-06;0.010336907220897123
1.14525e-06;0.010367522687100717
1.14550e-06;0.010398138153304284
1.14575e-06;0.010428753619507852
1.14600e-06;0.010459369085711444
1.14625e-06;0.010496755987453914
1.14650e-06;0.010546808693802224
1.14675e-06;0.01059686140015049
1.14700e-06;0.010646914106498756
1.14725e-06;0.010696966812847064
1.14750e-06;0.01074701951919533
1.14775e-06;0.010797072225543639
1.14800e-06;0.010847124931891905
1.14825e-06;0.010897177638240172
1.14850e-06;0.010947230344588482
1.14875e-06;0.01099870782749072
1.14900e-06;0.011050439953525955
1.14925e-06;0.011102172079561146
1.14950e-06;0.01115390420559638
1.14975e-06;0.011205636331631571
1.15000e-06;0.01125736845766676
1.15025e-06;0.011309100583701995
1.15050e-06;0.011360832709737187
1.15075e-06;0.011412564835772422
1.15100e-06;0.011458109089859406
1.15125e-06;0.011492079080768505
1.15150e-06;0.011526049071677634
1.15175e-06;0.011560019062586734
