Time(s);Current(A)
1.28000e-05;0.00016869649493900498
1.28002e-05;0.00013835307171034447
1.28005e-05;0.00010800964848147837
1.28008e-05;7.852185877565985e-05
1.28010e-05;5.019847981011744e-05
1.28013e-05;2.3027559507340474e-05
1.28015e-05;-2.7853303484404476e-06
1.28018e-05;-2.7034644681545112e-05
1.28020e-05;-4.951555567937875e-05
1.28023e-05;-7.00878491987947e-05
1.28025e-05;-8.877037121490311e-05
1.28028e-05;-0.00010566964489416289
1.28030e-05;-0.00012082354134863082
1.28033e-05;-0.00013418697491626515
1.28035e-05;-0.0001456931002825117
1.28038e-05;-0.00015527510742095702
1.28040e-05;-0.0001628666427351122
1.28043e-05;-0.00016844183559082282
1.28045e-05;-0.00017207444428373988
1.28048e-05;-0.0001738931486670623
1.28050e-05;-0.00017398361566997586
1.28053e-05;-0.0001723795374064332
1.28055e-05;-0.00016910098436232995
1.28058e-05;-0.00016416805612742353
1.28060e-05;-0.00015760113264922163
1.28063e-05;-0.00014944594047193327
1.28065e-05;-0.00013981062871095524
1.28068e-05;-0.00012883773415413134
1.28070e-05;-0.00011664283344931176
1.28073e-05;-0.00010330895134726783
1.28075e-05;-8.891057182591647e-05
1.28078e-05;-7.352218783679685e-05
1.28080e-05;-5.721846840381718e-05
1.28083e-05;-4.0089959218161235e-05
1.28085e-05;-2.226629371639043e-05
1.28087e-05;-3.898636012857701e-06
1.28090e-05;1.4878744505179842e-05
1.28093e-05;3.399691220835314e-05
1.28095e-05;5.3240484959646095e-05
1.28098e-05;7.248226859728829e-05
1.28100e-05;9.17229370288336e-05
1.28103e-05;0.00011096360546037888
1.28105e-05;0.00012973605159910905
1.28108e-05;0.0001482174132206342
1.28110e-05;0.00016590369054140074
1.28113e-05;0.00018309567971399994
1.28115e-05;0.0001994892958506097
1.28118e-05;0.00021474765832944537
1.28120e-05;0.0002285482238326396
1.28123e-05;0.00024168944001898052
1.28125e-05;0.0002538759493428317
1.28128e-05;0.0002654689363362448
1.28130e-05;0.00027650022707231706
1.28133e-05;0.00028718232238017386
1.28135e-05;0.00029691717815410817
1.28138e-05;0.00030606315388790494
1.28140e-05;0.00031520912962170166
1.28143e-05;0.00032320661735209467
1.28145e-05;0.0003304901128583664
1.28148e-05;0.0003377736083646381
1.28150e-05;0.0003438463624552727
1.28153e-05;0.000349166422609463
1.28155e-05;0.00035448648276365327
1.28158e-05;0.0003598065429178075
1.28160e-05;0.0003651266030719978
1.28163e-05;0.0003704466632261881
1.28165e-05;0.0003757667233803423
1.28168e-05;0.0003810867835345326
1.28170e-05;0.0003849864487592371
1.28172e-05;0.00038800308261392996
1.28175e-05;0.00039101971646864325
1.28178e-05;0.00039403635032335654
1.28180e-05;0.00039705298417806983
1.28183e-05;0.00040006961803276263
1.28185e-05;0.0004030862518874759
1.28188e-05;0.0004061028857421892
1.28190e-05;0.0004083901606498701
1.28193e-05;0.0004102240075588641
1.28195e-05;0.00041205785446785814
1.28198e-05;0.00041389170137683974
1.28200e-05;0.00041572554828583376
1.28203e-05;0.0004175593951948278
1.28205e-05;0.0004189966137403464
1.28208e-05;0.0004201872562949711
1.28210e-05;0.00042137789884959584
1.28213e-05;0.00042256854140421254
1.28215e-05;0.00042375918395883726
1.28218e-05;0.000424949826513462
1.28220e-05;0.00042567811684653015
1.28223e-05;0.00042611897196901294
1.28225e-05;0.00042655982709149574
1.28228e-05;0.00042535656279904695
1.28230e-05;0.00042313118205891095
1.28233e-05;0.00041929997420944243
1.28235e-05;0.0004144704554796379
1.28238e-05;0.00040820498426263267
1.28240e-05;0.00040104680985030765
1.28243e-05;0.00039239310883347223
1.28245e-05;0.0003828096685734419
1.28248e-05;0.00037128661026888325
1.28250e-05;0.000358557729876582
1.28253e-05;0.00034400260083254484
1.28255e-05;0.00032831212920479534
1.28257e-05;0.0003110870250826414
1.28260e-05;0.0002929078703606214
1.28263e-05;0.0002733419371480553
1.28265e-05;0.00025291387123898255
1.28268e-05;0.00023135793511021887
1.28270e-05;0.0002080911467766125
1.28273e-05;0.00018419666186503286
1.28275e-05;0.00015947652491225426
1.28278e-05;0.0001338153275491471
1.28280e-05;0.00010755204381057519
1.28283e-05;8.080313310635347e-05
1.28285e-05;5.3615670665436334e-05
1.28288e-05;2.602297221255686e-05
1.28290e-05;-1.8753281815905913e-06
1.28293e-05;-2.9898290200913963e-05
1.28295e-05;-5.793819011753489e-05
1.28298e-05;-8.566826287309916e-05
1.28300e-05;-0.00011320572517465146
1.28303e-05;-0.00014007443458272358
1.28305e-05;-0.00016652739357382975
1.28308e-05;-0.00019232519430755857
1.28310e-05;-0.00021682613136330312
1.28313e-05;-0.00024077404363148143
1.28315e-05;-0.0002636098339216728
1.28318e-05;-0.0002848644239934382
1.28320e-05;-0.0003040994250172213
1.28323e-05;-0.00032242278921915444
1.28325e-05;-0.00033955322636280337
1.28328e-05;-0.0003559420444022511
1.28330e-05;-0.0003717772242591484
1.28333e-05;-0.00038726821823294747
1.28335e-05;-0.00040169595613984995
1.28338e-05;-0.0004154626888276014
1.28340e-05;-0.00042922942151535283
1.28342e-05;-0.0004417169363523512
1.28345e-05;-0.00045340918681025395
1.28348e-05;-0.0004651014372681567
1.28350e-05;-0.0004754791757114318
1.28353e-05;-0.00048503970809336805
1.28355e-05;-0.0004946002404753691
1.28358e-05;-0.0005041607728573701
1.28360e-05;-0.0005137213052393065
1.28363e-05;-0.0005232818376213075
1.28365e-05;-0.0005328423700033085
1.28368e-05;-0.0005424029023852447
1.28370e-05;-0.0005519634347672458
1.28373e-05;-0.0005615239671492469
1.28375e-05;-0.0005710844995311832
1.28378e-05;-0.0005803246071816634
1.28380e-05;-0.0005871381175837286
1.28383e-05;-0.0005939516279857477
1.28385e-05;-0.000600765138387813
1.28388e-05;-0.0006075786487898783
1.28390e-05;-0.0006143921591918974
1.28393e-05;-0.0006212056695939626
1.28395e-05;-0.0006280191799960278
1.28398e-05;-0.0006348326903980469
1.28400e-05;-0.0006416462008001122
1.28403e-05;-0.0006484597112021774
1.28405e-05;-0.0006552732216041965
1.28408e-05;-0.0006610220732781611
1.28410e-05;-0.0006661090477259689
1.28413e-05;-0.0006711960221737421
1.28415e-05;-0.0006762829966215498
1.28418e-05;-0.0006810534490773885
1.28420e-05;-0.0006834268599836047
1.28423e-05;-0.0006858002708898371
1.28425e-05;-0.0006881736817960694
1.28427e-05;-0.0006905470927022856
1.28430e-05;-0.0006892417721982285
1.28433e-05;-0.0006856494573011111
1.28435e-05;-0.0006795364187314071
1.28438e-05;-0.000671856296223697
1.28440e-05;-0.0006618255131059785
1.28443e-05;-0.0006503333708850194
1.28445e-05;-0.0006359914878823943
1.28448e-05;-0.000619877977527041
1.28450e-05;-0.0006006440899416463
1.28453e-05;-0.0005794703256887545
1.28455e-05;-0.0005555735244553965
1.28458e-05;-0.0005299838651109917
1.28460e-05;-0.0005020688051569295
1.28463e-05;-0.00047270808974066934
1.28465e-05;-0.0004410004645777565
1.28468e-05;-0.0004078338121490637
1.28470e-05;-0.0003724417940946089
1.28473e-05;-0.00033566631034480203
1.28475e-05;-0.0002972054731096387
1.28478e-05;-0.000257696885021428
1.28480e-05;-0.00021704301391433956
1.28483e-05;-0.0001756771430579399
1.28485e-05;-0.00013363793392248002
1.28488e-05;-9.079119151272978e-05
1.28490e-05;-4.744480599781105e-05
1.28493e-05;-3.8412944525893585e-06
1.28495e-05;3.975821755287747e-05
1.28498e-05;8.309263415788107e-05
1.28500e-05;0.00012590122759383406
1.28503e-05;0.00016795187402132472
1.28505e-05;0.00020907341612930725
1.28508e-05;0.00024910576499126945
1.28510e-05;0.0002878290141103446
1.28512e-05;0.0003249734288933329
1.28515e-05;0.0003602576402974843
1.28518e-05;0.00039340031954022893
1.28520e-05;0.0004241216385736403
1.28523e-05;0.00045156068345278085
1.28525e-05;0.0004775617545445222
1.28528e-05;0.0005016119639760485
1.28530e-05;0.0005225603082085808
1.28533e-05;0.0005423342655281384
1.28535e-05;0.0005593565788054354
1.28538e-05;0.0005746682495277717
1.28540e-05;0.0005869908232340454
1.28543e-05;0.0005974551345785945
1.28545e-05;0.0006052181962540094
1.28548e-05;0.0006113019445573838
1.28550e-05;0.000615048187192531
1.28553e-05;0.0006173412488903789
1.28555e-05;0.0006173001250621191
1.28558e-05;0.000615807884363106
1.28560e-05;0.0006119878830616189
1.28563e-05;0.0006067207591370328
1.28565e-05;0.0005994613525361769
1.28568e-05;0.0005909633832888337
1.28570e-05;0.000580487075962011
1.28573e-05;0.0005687808750680426
1.28575e-05;0.0005570746741741536
1.28578e-05;0.0005433080708595558
1.28580e-05;0.000528260556203618
1.28583e-05;0.0005132130415477822
1.28585e-05;0.0004965995644203299
1.28588e-05;0.0004790125594665415
1.28590e-05;0.0004614255545128723
1.28593e-05;0.00044383854955908395
1.28595e-05;0.00042616336281925177
1.28597e-05;0.00040782036970067934
1.28600e-05;0.0003894773765819826
1.28603e-05;0.0003711343834632858
1.28605e-05;0.0003527913903445891
1.28608e-05;0.00033531265912979257
1.28610e-05;0.00031837122240815967
1.28613e-05;0.0003014297856865268
1.28615e-05;0.00028576649300356355
1.28618e-05;0.0002708977971325904
1.28620e-05;0.00025737121038025266
1.28623e-05;0.0002446789862624114
1.28625e-05;0.000233117526271487
1.28628e-05;0.00022225903992318955
1.28630e-05;0.00021229788030531534
1.28633e-05;0.00020289457092793935
1.28635e-05;0.0001945146145938201
1.28638e-05;0.00018677085656084282
1.28640e-05;0.0001798868986790243
1.28643e-05;0.00017435411775800841
1.28645e-05;0.00016932903583946762
1.28648e-05;0.000165136376359775
1.28650e-05;0.0001614612174092748
1.28653e-05;0.00015857660672705554
1.28655e-05;0.00015618346423220872
1.28658e-05;0.0001546295729009521
1.28660e-05;0.00015359742738168037
1.28663e-05;0.0001533678813491746
1.28665e-05;0.0001536372955077135
1.28668e-05;0.00015449167832480757
1.28670e-05;0.0001557097245611293
1.28673e-05;0.00015744237039012603
1.28675e-05;0.0001594949325849885
1.28678e-05;0.00016216458356993336
1.28680e-05;0.0001652178664231493
1.28682e-05;0.00016827114927634452
1.28685e-05;0.00017183970322844492
1.28688e-05;0.00017572859100854256
1.28690e-05;0.0001796174787886402
1.28693e-05;0.00018380368858431697
1.28695e-05;0.00018817473758333592
1.28698e-05;0.00019254578658235488
1.28700e-05;0.00019691683558134424
1.28703e-05;0.0002012878845803632
1.28705e-05;0.0002055226498220535
1.28708e-05;0.00020967269015332202
1.28710e-05;0.00021382273048461864
1.28713e-05;0.00021797277081591525
1.28715e-05;0.00022212281114718376
1.28718e-05;0.0002257607485728762
1.28720e-05;0.0002290803217734944
1.28723e-05;0.00023239989497409014
1.28725e-05;0.00023632429038566757
1.28728e-05;0.0002406246917765082
1.28730e-05;0.0002449250931673197
1.28733e-05;0.00025040321775796873
1.28735e-05;0.0002566135095161484
1.28738e-05;0.00026357854136123366
1.28740e-05;0.00027101278015735603
1.28743e-05;0.0002792434672039298
1.28745e-05;0.00028796929033991726
1.28748e-05;0.0002979152208321463
1.28750e-05;0.00030861966788179386
1.28753e-05;0.0003204708022802704
1.28755e-05;0.0003330348094731205
1.28758e-05;0.0003467028446755235
1.28760e-05;0.00036105723220648323
1.28763e-05;0.00037541161973754023
1.28765e-05;0.0003910858863905148
1.28767e-05;0.0004075806957298469
1.28770e-05;0.0004240755050692907
1.28773e-05;0.0004419816755460169
1.28775e-05;0.0004607652612647651
1.28778e-05;0.0004795488469833861
1.28780e-05;0.0004983324327021343
1.28783e-05;0.0005171160184208826
1.28785e-05;0.0005360195559618084
1.28788e-05;0.0005558314964259148
1.28790e-05;0.0005756434368900214
1.28793e-05;0.0005954553773539936
1.28795e-05;0.0006152673178181
1.28798e-05;0.0006350792582822065
1.28800e-05;0.0006537977277552907
1.28803e-05;0.0006718364079889729
1.28805e-05;0.000689875088222655
1.28808e-05;0.000707913768456215
1.28810e-05;0.0007259524486898972
1.28813e-05;0.0007439911289235794
1.28815e-05;0.0007586345780024846
1.28818e-05;0.0007711672791750401
1.28820e-05;0.0007836999803475956
1.28823e-05;0.0007962326815200662
1.28825e-05;0.0008087653826926217
1.28828e-05;0.0008212980838651772
1.28830e-05;0.0008296519225776941
1.28833e-05;0.0008354078453347962
1.28835e-05;0.0008411637680918984
1.28838e-05;0.0008438424395742631
1.28840e-05;0.0008446080449382597
1.28843e-05;0.0008453736503022562
1.28845e-05;0.0008429568246826177
1.28848e-05;0.0008385615448044683
1.28850e-05;0.0008341662649263188
1.28853e-05;0.0008267483635711153
1.28855e-05;0.0008174513583598016
1.28858e-05;0.0008081543531484882
1.28860e-05;0.0007961632949012717
1.28863e-05;0.0007824973972848687
1.28865e-05;0.000768831499668373
1.28868e-05;0.0007528130869492283
1.28870e-05;0.0007353321622238142
1.28873e-05;0.0007178512374982817
1.28875e-05;0.0006981296798785311
1.28878e-05;0.0006770151652036829
1.28880e-05;0.0006559006505286915
1.28883e-05;0.0006347861358537001
1.28885e-05;0.0006136716211788518
1.28888e-05;0.0005912330840840621
1.28890e-05;0.0005679714284963592
1.28893e-05;0.0005447097729088138
1.28895e-05;0.0005214481173211108
1.28898e-05;0.0004981864617334079
1.28900e-05;0.00047539302514788926
1.28903e-05;0.0004528906710345042
1.28905e-05;0.0004303883169211191
1.28908e-05;0.00040788596280788645
1.28910e-05;0.00038729138926678
1.28913e-05;0.00036788284509052185
1.28915e-05;0.0003484743009143952
1.28918e-05;0.00032906575673813707
1.28920e-05;0.00031154876930461874
1.28923e-05;0.0002961804550520768
1.28925e-05;0.00028253530688552946
1.28928e-05;0.0002708017010780034
1.28930e-05;0.0002610687885649883
1.28933e-05;0.00025336044304673846
1.28935e-05;0.0002476868106030209
1.28938e-05;0.0002440580305240123
1.28940e-05;0.00024248445527657277
1.28943e-05;0.00024299265704742613
1.28945e-05;0.0002456347825473538
1.28948e-05;0.00025044274569176384
1.28950e-05;0.0002573862599413374
1.28953e-05;0.00026639416741267816
1.28955e-05;0.00027738673476734914
1.28958e-05;0.00029028418161663745
1.28960e-05;0.0003050069026712191
1.28963e-05;0.0003214854116897366
1.28965e-05;0.00034016161002594166
1.28968e-05;0.0003597914015213319
1.28970e-05;0.0003812475942138433
1.28973e-05;0.0004038392243271544
1.28975e-05;0.0004282299856056937
1.28978e-05;0.0004537392310663738
1.28980e-05;0.0004792484765272268
1.28983e-05;0.0005065497121557607
1.28985e-05;0.0005349649925498242
1.28988e-05;0.0005633802729440804
1.28990e-05;0.0005917955533383364
1.28993e-05;0.0006202108337324
1.28995e-05;0.0006488049782577358
1.28998e-05;0.0006775103190678559
1.29000e-05;0.0007062156598777815
1.29003e-05;0.0007349210006879016
1.29005e-05;0.0007636263414980217
1.29008e-05;0.0007906712044645793
1.29010e-05;0.000816683781270628
1.29013e-05;0.0008426963580766765
1.29015e-05;0.0008662113864017028
1.29018e-05;0.0008881737383435169
1.29020e-05;0.0009101360902853309
1.29023e-05;0.0009291709263705739
1.29025e-05;0.000946385783878071
1.29028e-05;0.000963600641385568
1.29030e-05;0.0009785854521675529
1.29033e-05;0.0009921838871050498
1.29035e-05;0.0010057823220425467
1.29038e-05;0.0010168121514760266
1.29040e-05;0.00102624512978317
1.29043e-05;0.0010356781080903775
1.29045e-05;0.0010410337815782275
1.29048e-05;0.0010438546754812019
1.29050e-05;0.0010466755693841953
1.29053e-05;0.0010494964632871888
1.29055e-05;0.0010523173571901632
1.29058e-05;0.0010551382510931566
1.29060e-05;0.00105795914499615
1.29063e-05;0.0010607800388991245
1.29065e-05;0.001062763904810537
1.29068e-05;0.0010584089034924259
1.29070e-05;0.0010540539021743445
1.29073e-05;0.0010496989008562333
1.29075e-05;0.0010453438995381224
1.29078e-05;0.0010409888982200407
1.29080e-05;0.0010366338969019296
1.29083e-05;0.0010322788955838187
1.29085e-05;0.001027923894265737
1.29088e-05;0.0010217079411589532
1.29090e-05;0.001014335071213329
1.29093e-05;0.0010069622012677546
1.29095e-05;0.0009995893313221303
1.29098e-05;0.000992216461376506
1.29100e-05;0.0009848435914309316
1.29103e-05;0.0009774707214853073
1.29105e-05;0.0009700978515396831
1.29108e-05;0.0009628226591425667
1.29110e-05;0.0009562871851507239
1.29113e-05;0.0009497517111588811
1.29115e-05;0.0009432162371670825
1.29118e-05;0.0009366807631752396
1.29120e-05;0.0009301452891833969
1.29123e-05;0.0009236098151915541
1.29125e-05;0.0009170743411997554
1.29128e-05;0.0009105388672079127
1.29130e-05;0.000900220550105079
1.29133e-05;0.0008875505144242019
1.29135e-05;0.0008748804787432389
1.29138e-05;0.000862210443062276
1.29140e-05;0.0008495404073813989
1.29143e-05;0.000836870371700436
1.29145e-05;0.0008242003360194731
1.29148e-05;0.000811530300338596
1.29150e-05;0.000798860264657633
1.29153e-05;0.0007797221215595341
1.29155e-05;0.0007565628842916206
1.29158e-05;0.0007334036470235503
1.29160e-05;0.0007102444097554799
1.29163e-05;0.0006870851724875665
1.29165e-05;0.0006639259352194961
1.29168e-05;0.0006407666979514257
1.29170e-05;0.0006176074606835122
1.29173e-05;0.0005944482234154419
1.29175e-05;0.000567604940518641
1.29178e-05;0.00053847135947986
1.29180e-05;0.0005093377784408817
1.29183e-05;0.00048020419740190333
1.29185e-05;0.00045091940523342617
1.29188e-05;0.0004204894813782439
1.29190e-05;0.00039005955752306173
1.29193e-05;0.00035962963366808576
1.29195e-05;0.00032919970981290357
1.29198e-05;0.00029931892350277644
1.29200e-05;0.0002697795251196274
1.29203e-05;0.00024024012673627823
1.29205e-05;0.00021177406748087668
1.29208e-05;0.00018397528188565337
1.29210e-05;0.0001570233927538707
1.29213e-05;0.0001313159472020201
1.29215e-05;0.0001068924651958011
1.29218e-05;8.394703120732408e-05
1.29220e-05;6.267382956662012e-05
1.29223e-05;4.327207914871188e-05
1.29225e-05;2.5933061942721626e-05
1.29228e-05;1.079480293315809e-05
1.29230e-05;-2.0739049101803545e-06
1.29233e-05;-1.2639251219805462e-05
1.29235e-05;-2.087358235410196e-05
1.29238e-05;-2.6749269712748833e-05
1.29240e-05;-3.0238635433759668e-05
1.29243e-05;-3.131085051808553e-05
1.29245e-05;-2.994006348115451e-05
1.29248e-05;-2.6133792550993982e-05
1.29250e-05;-1.994292161794753e-05
1.29253e-05;-1.1440247248169274e-05
1.29255e-05;-7.024196389605308e-07
1.29258e-05;1.219389685494109e-05
1.29260e-05;2.7172075135703872e-05
1.29263e-05;4.415745877529572e-05
1.29265e-05;6.307227828109173e-05
1.29268e-05;8.381786692893237e-05
1.29270e-05;0.00010626840197356603
1.29273e-05;0.0001302843394193839
1.29275e-05;0.00015572371635983096
1.29278e-05;0.00018244459122982617
1.29280e-05;0.00021059650281022438
1.29283e-05;0.0002393456157813514
1.29285e-05;0.0002692368576351457
1.29288e-05;0.00029983813837653926
1.29290e-05;0.0003304394191179328
1.29293e-05;0.00036150627351550505
1.29295e-05;0.0003928625658263947
1.29298e-05;0.00042421885813749685
1.29300e-05;0.000455575150448599
1.29303e-05;0.00048579960631716567
1.29305e-05;0.0005153204219047682
1.29308e-05;0.0005448412374923707
1.29310e-05;0.0005743620530797732
1.29313e-05;0.0006013389189581494
1.29315e-05;0.0006267342617278715
1.29318e-05;0.0006521296044974215
1.29320e-05;0.0006745132732872187
1.29323e-05;0.0006950246440603355
1.29325e-05;0.0007155360148333132
1.29328e-05;0.0007350966045889418
1.29330e-05;0.0007540661126321218
1.29333e-05;0.0007730356206751731
1.29335e-05;0.000790502352158881
1.29338e-05;0.0008070348372431681
1.29340e-05;0.0008235673223273431
1.29343e-05;0.0008400998074116301
1.29345e-05;0.0008566322924959172
1.29348e-05;0.0008731647775800923
1.29350e-05;0.0008896972626643793
1.29353e-05;0.0009062297477486663
1.29355e-05;0.0009227622328328414
1.29358e-05;0.0009392947179171284
1.29360e-05;0.0009558272030014155
1.29363e-05;0.0009723596880855906
1.29365e-05;0.0009888921731698776
1.29368e-05;0.0010054246582541647
1.29370e-05;0.0010217682614138762
1.29373e-05;0.001036681449514765
1.29375e-05;0.001051594637615654
1.29378e-05;0.0010665078257165426
1.29380e-05;0.0010814210138173305
1.29383e-05;0.0010963342019182191
1.29385e-05;0.001111247390019108
1.29388e-05;0.0011261605781198959
1.29390e-05;0.0011410737662207846
1.29393e-05;0.0011559869543216735
1.29395e-05;0.0011709001424224613
1.29398e-05;0.00118581333052335
1.29400e-05;0.0012007265186242389
1.29403e-05;0.0012156397067250265
1.29405e-05;0.0012305528948259154
1.29408e-05;0.0012412367281115016
1.29410e-05;0.0012492912553407308
1.29413e-05;0.0012573457825700146
1.29415e-05;0.0012654003097992983
1.29418e-05;0.0012734548370285275
1.29420e-05;0.001281509364257811
1.29423e-05;0.001289563891487095
1.29425e-05;0.001297618418716324
1.29428e-05;0.0013056729459456078
1.29430e-05;0.0013137274731748914
1.29433e-05;0.0013217820004041206
1.29435e-05;0.0013298365276334042
1.29438e-05;0.001337891054862688
1.29440e-05;0.0013459455820919173
1.29443e-05;0.001352888447091781
1.29445e-05;0.0013514126219567294
1.29448e-05;0.0013499367968216878
