Time(s);Current(A)
6.75000e-06;-0.0050718980401094306
6.75025e-06;-0.00510108783702332
6.75050e-06;-0.005126556183235238
6.75075e-06;-0.00514848069629032
6.75100e-06;-0.00516675491001114
6.75125e-06;-0.005181235040955378
6.75150e-06;-0.005191778279082775
6.75175e-06;-0.005198264437523712
6.75200e-06;-0.005200890013108163
6.75225e-06;-0.0052003147824261995
6.75250e-06;-0.005197133531475197
6.75275e-06;-0.005190637521850192
6.75300e-06;-0.005183331994744265
6.75325e-06;-0.005172374484243269
6.75350e-06;-0.00516034202940984
6.75375e-06;-0.0051448013176483495
6.75400e-06;-0.00512822796677178
6.75425e-06;-0.0051093127199331395
6.75450e-06;-0.00508970814690684
6.75475e-06;-0.005068716856316121
6.75500e-06;-0.005047317391857822
6.75525e-06;-0.005024861474908239
6.75550e-06;-0.005002094596079755
6.75575e-06;-0.004978656394128965
6.75600e-06;-0.004955020591338443
6.75625e-06;-0.004931738438402773
6.75650e-06;-0.004908560380657674
6.75675e-06;-0.004887045820356695
6.75700e-06;-0.004866020902793822
6.75725e-06;-0.0048449959852310195
6.75750e-06;-0.004826346841583483
6.75775e-06;-0.004808396995941571
6.75800e-06;-0.004792074371351478
6.75825e-06;-0.004776230711712119
6.75850e-06;-0.0047606939323639194
6.75875e-06;-0.004745247481802634
6.75900e-06;-0.004729801031241349
6.75925e-06;-0.004715250217825356
6.75950e-06;-0.004700963031038823
6.75975e-06;-0.004686675844252242
6.76000e-06;-0.00467238865746571
6.76025e-06;-0.004658440100308846
6.76050e-06;-0.004644591217208945
6.76075e-06;-0.004630742334109091
6.76100e-06;-0.004616893451009237
6.76125e-06;-0.004603024590909791
6.76150e-06;-0.004589149850673461
6.76175e-06;-0.004575275110437131
6.76200e-06;-0.004561400370200754
6.76225e-06;-0.0045474855748470315
6.76250e-06;-0.004533463892604474
6.76275e-06;-0.004519442210361869
6.76300e-06;-0.004505420528119311
6.76325e-06;-0.004491398845876753
6.76350e-06;-0.00447765451913925
6.76375e-06;-0.004463991830705129
6.76400e-06;-0.004450329142270962
6.76425e-06;-0.004436666453836841
6.76450e-06;-0.0044230037654027195
6.76475e-06;-0.004409341076968553
6.76500e-06;-0.004395678388534432
6.76525e-06;-0.004382500524984587
6.76550e-06;-0.004370616414315249
6.76575e-06;-0.004358732303645952
6.76600e-06;-0.004346848192976654
6.76625e-06;-0.004334964082307316
6.76650e-06;-0.004323079971638018
6.76675e-06;-0.00431119586096872
6.76700e-06;-0.004299311750299383
6.76725e-06;-0.004288848331085395
6.76750e-06;-0.004279284812301988
6.76775e-06;-0.004270421084347721
6.76800e-06;-0.00426257676366271
6.76825e-06;-0.004257200314162097
6.76850e-06;-0.00425247618040236
6.76875e-06;-0.004251115497806429
6.76900e-06;-0.00425074483142173
6.76925e-06;-0.004254337465836159
6.76950e-06;-0.004259096679412874
6.76975e-06;-0.004263855892989604
6.77000e-06;-0.00427552515370867
6.77025e-06;-0.00428922835467479
6.77050e-06;-0.004302931555640956
6.77075e-06;-0.004316634756607076
6.77100e-06;-0.004330337957573196
6.77125e-06;-0.004349399007806981
6.77150e-06;-0.004371574755409519
6.77175e-06;-0.0043956324498256845
6.77200e-06;-0.004421517551286298
6.77225e-06;-0.004449288865769422
6.77250e-06;-0.00447894695841482
6.77275e-06;-0.004510353928818904
6.77300e-06;-0.004543312150719177
6.77325e-06;-0.004577617346785677
6.77350e-06;-0.0046130651976084595
6.77375e-06;-0.004649455235307132
6.77400e-06;-0.004686643201029703
6.77425e-06;-0.00472455500280314
6.77450e-06;-0.004763080626680675
6.77475e-06;-0.004802023216367061
6.77500e-06;-0.0048411490126810805
6.77525e-06;-0.004880218877512013
6.77550e-06;-0.0049189949000218135
6.77575e-06;-0.004957240672251314
6.77600e-06;-0.004994756080515469
6.77625e-06;-0.005031383979599202
6.77650e-06;-0.005066945095477199
6.77675e-06;-0.005101205864593987
6.77700e-06;-0.0051339094130225605
6.77725e-06;-0.0051647955419988475
6.77750e-06;-0.005193605026160964
6.77775e-06;-0.0052200526949241
6.77800e-06;-0.005243535529154522
6.77825e-06;-0.005263069976109534
6.77850e-06;-0.005277930200013358
6.77875e-06;-0.005287931636849325
6.77900e-06;-0.00529311215818126
6.77925e-06;-0.005291731471546377
6.77950e-06;-0.00528874122758993
6.77975e-06;-0.0052784986432451615
6.78000e-06;-0.005266121366228522
6.78025e-06;-0.005243642702899596
6.78050e-06;-0.005218190743478272
6.78075e-06;-0.005192738784057035
6.78100e-06;-0.005155765442415262
6.78125e-06;-0.005115400835488424
6.78150e-06;-0.005075036228561585
6.78175e-06;-0.005026358991252005
6.78200e-06;-0.004975234969841063
6.78225e-06;-0.004917788962594107
6.78250e-06;-0.0048584821082117485
6.78275e-06;-0.004793538621985166
6.78300e-06;-0.004726936019384114
6.78325e-06;-0.004655903619565621
6.78350e-06;-0.00458356732953395
6.78375e-06;-0.0045079762376323725
6.78400e-06;-0.0044314271099341685
6.78425e-06;-0.004352456578015433
6.78450e-06;-0.004272773317023263
6.78475e-06;-0.004191801914315858
6.78500e-06;-0.004110451353084483
6.78525e-06;-0.004029273119706895
6.78550e-06;-0.003948145610232141
6.78575e-06;-0.003868630301584148
6.78600e-06;-0.0037895895367528734
6.78625e-06;-0.0037125216380381938
6.78650e-06;-0.003637764377500781
6.78675e-06;-0.003566902971116934
6.78700e-06;-0.003497038411198292
6.78725e-06;-0.0034348278103065962
6.78750e-06;-0.0033748701166650087
6.78775e-06;-0.003314912423023624
6.78800e-06;-0.003261698061018933
6.78825e-06;-0.0032121627048310344
6.78850e-06;-0.0031643214222011945
6.78875e-06;-0.003116832003553011
6.78900e-06;-0.0030715807783537508
6.78925e-06;-0.0030269883549892307
6.78950e-06;-0.00298574373297325
6.78975e-06;-0.0029454845207177722
6.79000e-06;-0.002907823717493611
6.79025e-06;-0.0028716638248655947
6.79050e-06;-0.002836234040115963
6.79075e-06;-0.0028009553857690993
6.79100e-06;-0.0027656767314221163
6.79125e-06;-0.002732167165804026
6.79150e-06;-0.0026991783232273065
6.79175e-06;-0.0026669261619584267
6.79200e-06;-0.002636639831228683
6.79225e-06;-0.0026063535004989397
6.79250e-06;-0.002576656490256564
6.79275e-06;-0.002547132943759537
6.79300e-06;-0.00251760939726251
6.79325e-06;-0.002489683690937716
6.79350e-06;-0.0024622283014380515
6.79375e-06;-0.002434772911938294
6.79400e-06;-0.0024073175224386296
6.79425e-06;-0.0023815999819976163
6.79450e-06;-0.0023563939693462066
6.79475e-06;-0.0023311879566948824
6.79500e-06;-0.002305981944043558
6.79525e-06;-0.002282893813136665
6.79550e-06;-0.0022604290708735154
6.79575e-06;-0.0022379643286103658
6.79600e-06;-0.00221549958634714
6.79625e-06;-0.0021940301432321306
6.79650e-06;-0.0021752166511227453
6.79675e-06;-0.0021564031590132968
6.79700e-06;-0.002137589666903911
6.79725e-06;-0.0021187761747945262
6.79750e-06;-0.002102506916971863
6.79775e-06;-0.002086986542681218
6.79800e-06;-0.0020726182286634133
6.79825e-06;-0.0020585596973112454
6.79850e-06;-0.002043812937745283
6.79875e-06;-0.0020288661417452282
6.79900e-06;-0.002013182245428534
6.79925e-06;-0.001997281387061051
6.79950e-06;-0.0019813805286935143
6.79975e-06;-0.0019652457175756317
6.80000e-06;-0.0019490420435535236
6.80025e-06;-0.0019310016698017684
6.80050e-06;-0.0019124206720251215
6.80075e-06;-0.0018938396742484744
6.80100e-06;-0.0018752586764717643
6.80125e-06;-0.0018559293743510225
6.80150e-06;-0.0018346032256754668
6.80175e-06;-0.0018132770769998389
6.80200e-06;-0.001791950928324283
6.80225e-06;-0.001770624779648655
6.80250e-06;-0.0017475575340279927
6.80275e-06;-0.0017239778046174833
6.80300e-06;-0.0017003980752068942
6.80325e-06;-0.0016759604241066842
6.80350e-06;-0.001651270247746375
6.80375e-06;-0.0016265800713859823
6.80400e-06;-0.001601635840357007
6.80425e-06;-0.001576616829517644
6.80450e-06;-0.0015515978186781962
6.80475e-06;-0.0015264543888070926
6.80500e-06;-0.0015012743367725358
6.80525e-06;-0.0014764946142152044
6.80550e-06;-0.0014518327267780992
6.80575e-06;-0.0014277637335028525
6.80600e-06;-0.0014043603362864094
6.80625e-06;-0.0013815869004146926
6.80650e-06;-0.0013594783642125738
6.80675e-06;-0.0013381498346421415
6.80700e-06;-0.0013177515535848531
6.80725e-06;-0.0012984384168862897
6.80750e-06;-0.0012803652833984673
6.80775e-06;-0.0012637146874717167
6.80800e-06;-0.0012490205340478146
6.80825e-06;-0.0012372578209853791
6.80850e-06;-0.0012291621147369708
6.80875e-06;-0.0012249061142201993
6.80900e-06;-0.0012244266022834788
6.80925e-06;-0.0012276312985703389
6.80950e-06;-0.0012344277323215122
6.80975e-06;-0.001246173749480861
6.81000e-06;-0.0012591376433041866
6.81025e-06;-0.0012784743398945122
6.81050e-06;-0.0012996868413458853
6.81075e-06;-0.001325871666954693
6.81100e-06;-0.0013566011080108193
6.81125e-06;-0.0013911271668274566
6.81150e-06;-0.0014292025877810858
6.81175e-06;-0.0014705908342365263
6.81200e-06;-0.0015151933157352645
6.81225e-06;-0.0015630846892056877
6.81250e-06;-0.0016142452722250102
6.81275e-06;-0.001668434540341317
6.81300e-06;-0.0017253198700356348
6.81325e-06;-0.0017845567143827711
6.81350e-06;-0.0018458009072637946
6.81375e-06;-0.0019087148272472008
6.81400e-06;-0.0019730473674664946
6.81425e-06;-0.0020386559785174974
6.81450e-06;-0.0021053390861135025
6.81475e-06;-0.0021727565394428646
6.81500e-06;-0.0022405107208922893
6.81525e-06;-0.00230819661103677
6.81550e-06;-0.002375409264439517
6.81575e-06;-0.002441748105801938
6.81600e-06;-0.002506866896036268
6.81625e-06;-0.002570486642031799
6.81650e-06;-0.0026322922800323012
6.81675e-06;-0.0026918817030096615
6.81700e-06;-0.002748816514687184
6.81725e-06;-0.0028026540510637573
6.81750e-06;-0.0028529517010854218
6.81775e-06;-0.0028993492400841447
6.81800e-06;-0.0029425788383239775
6.81825e-06;-0.002984878794008596
6.81850e-06;-0.0030280627085521473
6.81875e-06;-0.0030724473913323743
6.81900e-06;-0.0031176902506319898
6.81925e-06;-0.003163364327998541
6.81950e-06;-0.003209042791914194
6.81975e-06;-0.0032543508499782146
6.82000e-06;-0.003299597456672604
6.82025e-06;-0.003346035014228526
6.82050e-06;-0.003394650026874779
6.82075e-06;-0.003445491317215736
6.82100e-06;-0.0034981946214836268
6.82125e-06;-0.003552342580229959
6.82150e-06;-0.003607518087876724
6.82175e-06;-0.003663337063318321
6.82200e-06;-0.0037198435225925075
6.82225e-06;-0.003777672333739059
6.82250e-06;-0.0038372914870200866
6.82275e-06;-0.00389858177602666
6.82300e-06;-0.003961165294041599
6.82325e-06;-0.004024631094978431
6.82350e-06;-0.004088566074156283
6.82375e-06;-0.004152586352088569
6.82400e-06;-0.004216674266005347
6.82425e-06;-0.004280782088259864
6.82450e-06;-0.0043452851133278046
6.82475e-06;-0.004409947276645332
6.82500e-06;-0.00447434933898393
6.82525e-06;-0.004538084714223566
6.82550e-06;-0.004600745906658427
6.82575e-06;-0.004661939387636036
6.82600e-06;-0.004721439198027016
6.82625e-06;-0.004779251295581931
6.82650e-06;-0.004835315588804798
6.82675e-06;-0.004889342343558854
6.82700e-06;-0.004940940031216755
6.82725e-06;-0.004989704351885868
6.82750e-06;-0.005035385091362958
6.82775e-06;-0.005078422062789808
6.82800e-06;-0.005109353624186993
6.82825e-06;-0.005145779071005951
6.82850e-06;-0.005173724503151242
6.82875e-06;-0.005199939263295895
6.82900e-06;-0.005218902858321827
6.82925e-06;-0.005234483736049507
6.82950e-06;-0.005245844697955762
6.82975e-06;-0.005250905487100911
6.83000e-06;-0.005254322889097442
6.83025e-06;-0.005250296783386301
6.83050e-06;-0.0052409410719688795
6.83075e-06;-0.005226499675700538
6.83100e-06;-0.005212058279432246
6.83125e-06;-0.0051880676908487786
6.83150e-06;-0.005163117488525102
6.83175e-06;-0.005136485011703742
6.83200e-06;-0.005107592363374223
6.83225e-06;-0.005067480121427399
6.83250e-06;-0.00502355372048746
6.83275e-06;-0.004978359197078298
6.83300e-06;-0.004932086626460177
6.83325e-06;-0.004881674601157528
6.83350e-06;-0.004830366809018438
6.83375e-06;-0.004775619477130955
6.83400e-06;-0.004720197145002885
6.83425e-06;-0.004662182966354097
6.83450e-06;-0.004603711282731657
6.83475e-06;-0.004543482884661917
6.83500e-06;-0.004483168710422848
6.83525e-06;-0.004422525175315474
6.83550e-06;-0.004362058628725326
6.83575e-06;-0.004302271677555752
6.83600e-06;-0.004242948485371454
6.83625e-06;-0.00418540602160671
6.83650e-06;-0.004128612066768395
6.83675e-06;-0.004074692214988457
6.83700e-06;-0.00402190217438726
6.83725e-06;-0.003973450350273533
6.83750e-06;-0.003926404235448634
6.83775e-06;-0.003884755722742333
6.83800e-06;-0.0038440253950973295
6.83825e-06;-0.003807449617080687
6.83850e-06;-0.00377328878265389
6.83875e-06;-0.003739127948227209
6.83900e-06;-0.00370637019720649
6.83925e-06;-0.0036789999655146496
6.83950e-06;-0.0036516297338229017
6.83975e-06;-0.003624259502131154
6.84000e-06;-0.0035979822430868935
6.84025e-06;-0.003576345126318924
6.84050e-06;-0.00355641047705007
6.84075e-06;-0.003536475827781284
6.84100e-06;-0.003517254206348536
6.84125e-06;-0.003500770448703577
6.84150e-06;-0.0034842866910586743
6.84175e-06;-0.0034703568584054222
6.84200e-06;-0.003457487377408063
6.84225e-06;-0.0034451059818959044
6.84250e-06;-0.003434598722998878
6.84275e-06;-0.003424091464101816
6.84300e-06;-0.0034142159725885357
6.84325e-06;-0.0034067663233141835
6.84350e-06;-0.0033993166740398065
6.84375e-06;-0.0033918670247654542
6.84400e-06;-0.0033844173754911024
6.84425e-06;-0.0033789115483672722
6.84450e-06;-0.0033742127672776235
6.84475e-06;-0.003369513986187959
6.84500e-06;-0.003364815205098311
6.84525e-06;-0.0033604425680206526
6.84550e-06;-0.0033573222493446073
6.84575e-06;-0.003354201930668573
6.84600e-06;-0.003351259594737231
6.84625e-06;-0.0033490006718324937
6.84650e-06;-0.003346741748927764
6.84675e-06;-0.003344508900439006
6.84700e-06;-0.003342393779190078
6.84725e-06;-0.0033403654134056475
6.84750e-06;-0.0033384306282651837
6.84775e-06;-0.0033366616314108844
6.84800e-06;-0.0033355444650310247
6.84825e-06;-0.003336166112027238
6.84850e-06;-0.0033394863749917516
6.84875e-06;-0.0033457163152844677
6.84900e-06;-0.00335470811627971
6.84925e-06;-0.0033663149136656124
6.84950e-06;-0.0033803791696037574
6.84975e-06;-0.0033967850788245114
6.85000e-06;-0.0034156754711213693
6.85025e-06;-0.003437928040995821
6.85050e-06;-0.0034642833057043102
6.85075e-06;-0.003491660523952473
6.85100e-06;-0.003523573452320512
6.85125e-06;-0.0035583929493190067
6.85150e-06;-0.0035960976384994308
6.85175e-06;-0.0036366537098255674
6.85200e-06;-0.0036782315182066344
6.85225e-06;-0.0037237325631580137
6.85250e-06;-0.003770024764581583
6.85275e-06;-0.0038198061730617284
6.85300e-06;-0.0038717058504449562
6.85325e-06;-0.003925402981087696
6.85350e-06;-0.003980573826471094
6.85375e-06;-0.004036910096523729
6.85400e-06;-0.004094205308798517
6.85425e-06;-0.004152400239795957
6.85450e-06;-0.004211405715312208
6.85475e-06;-0.00427094755596435
6.85500e-06;-0.004330663027025664
6.85525e-06;-0.004390190471274232
6.85550e-06;-0.0044491653721378446
6.85575e-06;-0.004507233781338483
6.85600e-06;-0.004564104677088734
6.85625e-06;-0.004619580118792114
6.85650e-06;-0.0046734427260422436
6.85675e-06;-0.0047253592809550545
6.85700e-06;-0.004774941983893937
6.85725e-06;-0.004821802923589733
6.85750e-06;-0.004865552437760834
6.85775e-06;-0.004905737346440831
6.85800e-06;-0.004941522146745578
6.85825e-06;-0.004971560062266865
6.85850e-06;-0.004994747099695013
6.85875e-06;-0.005010791078524069
6.85900e-06;-0.0050197775342492885
6.85925e-06;-0.005021092459174458
6.85950e-06;-0.005014232104259196
6.85975e-06;-0.005005238987196946
6.86000e-06;-0.004984890642593154
6.86025e-06;-0.004952385932534782
6.86050e-06;-0.004919881222476301
6.86075e-06;-0.004883487271131918
6.86100e-06;-0.004832159522907779
6.86125e-06;-0.004778076882744053
6.86150e-06;-0.004713416087711075
6.86175e-06;-0.004646243200696833
6.86200e-06;-0.004569424455113537
6.86225e-06;-0.004490173139707162
6.86250e-06;-0.004401581312627208
6.86275e-06;-0.004310917242985883
6.86300e-06;-0.004212296235930839
6.86325e-06;-0.004112077569549304
6.86350e-06;-0.004005724256818515
6.86375e-06;-0.0038981994475179903
6.86400e-06;-0.0037861763593678844
6.86425e-06;-0.0036734641032363084
6.86450e-06;-0.0035577889061946173
6.86475e-06;-0.0034407238170199167
6.86500e-06;-0.0033229601098940125
6.86525e-06;-0.00320518896278196
6.86550e-06;-0.003088101328526422
6.86575e-06;-0.002972378755829681
6.86600e-06;-0.002858643436444584
6.86625e-06;-0.0027474388260689013
6.86650e-06;-0.0026393459597323266
6.86675e-06;-0.0025350705670738457
6.86700e-06;-0.0024353766135437657
6.86725e-06;-0.0023410282974219805
6.86750e-06;-0.0022527898573879894
6.86775e-06;-0.0021713627264880945
6.86800e-06;-0.0020970454993942574
6.86825e-06;-0.002029442410951844
6.86850e-06;-0.001968018820918966
6.86875e-06;-0.0019127472136731467
6.86900e-06;-0.0018638940793023996
6.86925e-06;-0.001821727731069965
6.86950e-06;-0.0017865163658232726
6.86975e-06;-0.001759194621320537
6.87000e-06;-0.0017403316138942752
6.87025e-06;-0.0017240715499893247
6.87050e-06;-0.0017178061937839209
6.87075e-06;-0.0017133722526010235
6.87100e-06;-0.0017171797392372364
6.87125e-06;-0.0017268307849013019
6.87150e-06;-0.0017422829903621943
6.87175e-06;-0.0017634694012221288
6.87200e-06;-0.0017901648835678989
6.87225e-06;-0.0018218719887081163
6.87250e-06;-0.001858038849481533
6.87275e-06;-0.0018983124104253715
6.87300e-06;-0.001942455260299017
6.87325e-06;-0.0019902306545916985
6.87350e-06;-0.0020414016679234023
6.87375e-06;-0.002095716253655634
6.87400e-06;-0.002152822906823387
6.87425e-06;-0.0022122002611154675
6.87450e-06;-0.0022732919507433666
6.87475e-06;-0.0023356670936596387
6.87500e-06;-0.0023989667612275317
6.87525e-06;-0.0024628324423638147
6.87550e-06;-0.00252690581070747
6.87575e-06;-0.002590818918342415
6.87600e-06;-0.0026541416643035714
6.87625e-06;-0.0027163371464259778
6.87650e-06;-0.00277684731088189
6.87675e-06;-0.002835192157650076
6.87700e-06;-0.002890936951518913
6.87725e-06;-0.002943647551845493
6.87750e-06;-0.0029928894562493862
6.87775e-06;-0.0030382775863130617
6.87800e-06;-0.003079738306089907
6.87825e-06;-0.003117715538894285
6.87850e-06;-0.0031527070623985566
6.87875e-06;-0.003184772043393149
6.87900e-06;-0.0032137273326686036
6.87925e-06;-0.0032390146596831424
6.87950e-06;-0.0032601351930303443
6.87975e-06;-0.003280125049257425
6.88000e-06;-0.003295087539495271
6.88025e-06;-0.003306826145694372
6.88050e-06;-0.0033157407602337897
6.88075e-06;-0.003321955670493644
6.88100e-06;-0.0033251576681653633
6.88125e-06;-0.0033250781565005555
6.88150e-06;-0.0033238497829753567
6.88175e-06;-0.0033182100427094317
6.88200e-06;-0.0033117838605330927
6.88225e-06;-0.003301719135017994
6.88250e-06;-0.0032892784116509166
6.88275e-06;-0.0032760943509430487
6.88300e-06;-0.0032600560448855414
6.88325e-06;-0.0032433326359532235
6.88350e-06;-0.0032239785886994956
6.88375e-06;-0.003204037001145804
6.88400e-06;-0.003181839393241131
6.88425e-06;-0.0031592748673091656
6.88450e-06;-0.003135301460085264
6.88475e-06;-0.0031111132516300427
6.88500e-06;-0.0030861002555823075
6.88525e-06;-0.0030609813983677008
6.88550e-06;-0.003035456058488605
6.88575e-06;-0.0030099583565283096
6.88600e-06;-0.002984566777853907
6.88625e-06;-0.0029594134288991715
6.88650e-06;-0.002935174827572229
6.88675e-06;-0.002911222996713388
6.88700e-06;-0.002888610432357294
6.88725e-06;-0.0028671854502578106
6.88750e-06;-0.002847117880169862
6.88775e-06;-0.002828629059862529
6.88800e-06;-0.0028122502699757354
6.88825e-06;-0.0027989469013072706
6.88850e-06;-0.0027895363040120478
6.88875e-06;-0.0027842207812181084
6.88900e-06;-0.002782908863173804
6.88925e-06;-0.002785507417621652
6.88950e-06;-0.0027919233604120014
6.88975e-06;-0.002802095783790748
6.89000e-06;-0.002816157820221444
6.89025e-06;-0.002834988482555457
6.89050e-06;-0.0028592977479827484
6.89075e-06;-0.002884975655657189
6.89100e-06;-0.002916750193421084
6.89125e-06;-0.002952543451000831
6.89150e-06;-0.0029924484386879037
6.89175e-06;-0.0030365218825477193
6.89200e-06;-0.003082020735833473
6.89225e-06;-0.003132992835249604
6.89250e-06;-0.0031850055299705205
6.89275e-06;-0.003241618346862114
6.89300e-06;-0.0033010819694112644
6.89325e-06;-0.003363034907843525
6.89350e-06;-0.0034271160418307893
6.89375e-06;-0.003492976759067412
6.89400e-06;-0.003560344522026909
6.89425e-06;-0.003629053861212674
6.89450e-06;-0.003698902508669173
6.89475e-06;-0.0037695372613424315
6.89500e-06;-0.0038405325048160867
6.89525e-06;-0.003911462624673778
