Time(s);Current(A)
4.00000e-06;-0.000274765483078515
4.00025e-06;-0.00023302211671686278
4.00050e-06;-0.00019366094242699111
4.00075e-06;-0.00015618210169741288
4.00100e-06;-0.00012069379596413819
4.00125e-06;-8.744716960584698e-05
4.00150e-06;-5.669331785659409e-05
4.00175e-06;-2.8675289579244643e-05
4.00200e-06;-3.4817105696705652e-06
4.00225e-06;1.9258686705800162e-05
4.00250e-06;4.020379766664431e-05
4.00275e-06;5.9693333384700176e-05
4.00300e-06;7.7686084793254e-05
4.00325e-06;9.405131822393909e-05
4.00350e-06;0.0001086583596286795
4.00375e-06;0.00012138156444697857
4.00400e-06;0.00013219203430188024
4.00425e-06;0.00014134894441888401
4.00450e-06;0.00014929097950220512
4.00475e-06;0.00015625747592107174
4.00500e-06;0.0001622491655369881
4.00525e-06;0.00016721069731545038
4.00550e-06;0.00017108676892818676
4.00575e-06;0.00017382523314088869
4.00600e-06;0.00017531742849105603
4.00625e-06;0.00017586198298677436
4.00650e-06;0.00017606307762882328
4.00675e-06;0.0001755555868611916
4.00700e-06;0.0001747601225650097
4.00725e-06;0.00017337054562793303
4.00750e-06;0.0001716194243349133
4.00775e-06;0.0001691224078438553
4.00800e-06;0.00016662539135278888
4.00825e-06;0.00016398367825698487
4.00850e-06;0.00016104344438252975
4.00875e-06;0.00015810321050808458
4.00900e-06;0.00015528456403158538
4.00925e-06;0.00015271676217420952
4.00950e-06;0.00015014896031684236
4.00975e-06;0.00014776803613644906
4.01000e-06;0.0001457726556924558
4.01025e-06;0.00014410767292904068
4.01050e-06;0.00014347102236845355
4.01075e-06;0.0001439014434777541
4.01100e-06;0.00014539519237521012
4.01125e-06;0.00014790849630045392
4.01150e-06;0.00015139763179866368
4.01175e-06;0.00015582098889710058
4.01200e-06;0.00016117675139808334
4.01225e-06;0.00016757604233229057
4.01250e-06;0.00017518243802537342
4.01275e-06;0.0001840490927961464
4.01300e-06;0.00019411649250575562
4.01325e-06;0.00020530007092441226
4.01350e-06;0.00021766124331116778
4.01375e-06;0.00023098002924308282
4.01400e-06;0.00024488700252640774
4.01425e-06;0.0002600074538068405
4.01450e-06;0.0002757344968244031
4.01475e-06;0.0002927129875728458
4.01500e-06;0.0003102780923844135
4.01525e-06;0.0003290534293720629
4.01550e-06;0.0003478287663597123
4.01575e-06;0.00036704702479649305
4.01600e-06;0.00038717906594471353
4.01625e-06;0.00040731110709293407
4.01650e-06;0.0004276830497739022
4.01675e-06;0.0004485499286866864
4.01700e-06;0.00046945284675039824
4.01725e-06;0.0004904301164921047
4.01750e-06;0.0005112790638631551
4.01775e-06;0.000531863271822698
4.01800e-06;0.0005521787301428355
4.01825e-06;0.0005719397362578399
4.01850e-06;0.0005914328478676559
4.01875e-06;0.0006101434494473549
4.01900e-06;0.0006281056966155637
4.01925e-06;0.0006451835592675054
4.01950e-06;0.0006612409656961066
4.01975e-06;0.0006761326895531775
4.02000e-06;0.0006895421563418037
4.02025e-06;0.0007006718256866996
4.02050e-06;0.0007085179241656527
4.02075e-06;0.0007125782189132385
4.02100e-06;0.0007128489709783089
4.02125e-06;0.000709436292926727
4.02150e-06;0.0007024462783213268
4.02175e-06;0.0006919791476055995
4.02200e-06;0.0006780278614548519
4.02225e-06;0.0006602842004659128
4.02250e-06;0.0006383106748448406
4.02275e-06;0.0006119840867830746
4.02300e-06;0.0005814935324063888
4.02325e-06;0.0005470967742402029
4.02350e-06;0.0005090516140145659
4.02375e-06;0.00046761221438932797
4.02400e-06;0.00042296550396252094
4.02425e-06;0.00037510967824658497
4.02450e-06;0.00032396210413446913
4.02475e-06;0.00026963694048412
4.02500e-06;0.00021244395679042145
4.02525e-06;0.0001527359425604444
4.02550e-06;9.086567259892166e-05
4.02575e-06;2.7183624725395256e-05
4.02600e-06;-3.8001862901449734e-05
4.02625e-06;-0.00010450067757581625
4.02650e-06;-0.0001723441284303149
4.02675e-06;-0.00024123541260273807
4.02700e-06;-0.00031012669677539463
4.02725e-06;-0.0003788580122817379
4.02750e-06;-0.00044725929951395306
4.02775e-06;-0.0005156605867464
4.02800e-06;-0.0005830970135238711
4.02825e-06;-0.0006485428552795891
4.02850e-06;-0.0007127322010195996
4.02875e-06;-0.0007743292940280582
4.02900e-06;-0.0008341163057195782
4.02925e-06;-0.0008901689735070667
4.02950e-06;-0.0009438356556768203
4.02975e-06;-0.0009925798568713152
4.03000e-06;-0.0010393645468186976
4.03025e-06;-0.0010821066068504395
4.03050e-06;-0.001124654944173674
4.03075e-06;-0.0011668036159075104
4.03100e-06;-0.0012089522876413466
4.03125e-06;-0.0012502939661737911
4.03150e-06;-0.0012899707525741689
4.03175e-06;-0.0013296475389745466
4.03200e-06;-0.0013693243253750588
4.03225e-06;-0.0014089221163891223
4.03250e-06;-0.0014483569335430827
4.03275e-06;-0.0014877917506971768
4.03300e-06;-0.0015272265678511372
4.03325e-06;-0.0015670433543971177
4.03350e-06;-0.001607648174639407
4.03375e-06;-0.0016482529948815587
4.03400e-06;-0.0016888578151237103
4.03425e-06;-0.0017298287277685476
4.03450e-06;-0.0017715549185981971
4.03475e-06;-0.001813281109427988
4.03500e-06;-0.0018550073002576376
4.03525e-06;-0.0018968933979937018
4.03550e-06;-0.0019391093965888044
4.03575e-06;-0.0019813253951837637
4.03600e-06;-0.0020235413937787234
4.03625e-06;-0.0020657573923738262
4.03650e-06;-0.0021079733909687855
4.03675e-06;-0.0021493756186327507
4.03700e-06;-0.0021890989711619937
4.03725e-06;-0.0022288223236911022
4.03750e-06;-0.0022685456762202108
4.03775e-06;-0.002308269028749454
4.03800e-06;-0.0023479923812785627
4.03825e-06;-0.002386163912485146
4.03850e-06;-0.0024211339110088576
4.03875e-06;-0.0024561039095324505
4.03900e-06;-0.00248953433732114
4.03925e-06;-0.002519788506377953
4.03950e-06;-0.002550042675434766
4.03975e-06;-0.002577977796869513
4.04000e-06;-0.00260112853581909
4.04025e-06;-0.0026242792747686668
4.04050e-06;-0.0026432554492880076
4.04075e-06;-0.0026536191603322
4.04100e-06;-0.0026639828713763926
4.04125e-06;-0.0026743465824206197
4.04150e-06;-0.0026847102934648122
4.04175e-06;-0.0026895140975262597
4.04200e-06;-0.0026828473645742383
4.04225e-06;-0.0026761806316222395
4.04250e-06;-0.0026695138986702407
4.04275e-06;-0.00266284716571822
4.04300e-06;-0.002651814110535184
4.04325e-06;-0.0026317729800519655
4.04350e-06;-0.002611731849568815
4.04375e-06;-0.0025888250190826477
4.04400e-06;-0.0025600060181132198
4.04425e-06;-0.0025311870171438895
4.04450e-06;-0.0025002341082484693
4.04475e-06;-0.0024648787750095095
4.04500e-06;-0.00242811319264624
4.04525e-06;-0.0023884381524756897
4.04550e-06;-0.002347640568292188
4.04575e-06;-0.002304527085176157
4.04600e-06;-0.002260745001224757
4.04625e-06;-0.0022152220270824727
4.04650e-06;-0.002168667038210385
4.04675e-06;-0.002121323387754678
4.04700e-06;-0.002073463197198963
4.04725e-06;-0.0020253643855252823
4.04750e-06;-0.001977305185352478
4.04775e-06;-0.0019295633732285314
4.04800e-06;-0.0018824122502343725
4.04825e-06;-0.0018361157730584208
4.04850e-06;-0.001790941607529472
4.04875e-06;-0.0017471817882840717
4.04900e-06;-0.0017059153234057723
4.04925e-06;-0.001667538818539987
4.04950e-06;-0.0016291623136742014
4.04975e-06;-0.0015933340830397791
4.05000e-06;-0.001562763147892275
4.05025e-06;-0.001532192212744771
4.05050e-06;-0.0015034193141927601
4.05075e-06;-0.0014783559103106738
4.05100e-06;-0.0014532925064285876
4.05125e-06;-0.0014301227874728539
4.05150e-06;-0.0014108598934161165
4.05175e-06;-0.0013915969993593138
4.05200e-06;-0.0013742561300059937
4.05225e-06;-0.0013608805527995807
4.05250e-06;-0.0013475049755931224
4.05275e-06;-0.0013366736629896055
4.05300e-06;-0.0013310913736850213
4.05325e-06;-0.0013255090843804181
4.05350e-06;-0.0013199267950758339
4.05375e-06;-0.0013143445057712496
4.05400e-06;-0.0013087622164666465
4.05425e-06;-0.0013031799271620622
4.05450e-06;-0.001297597637857478
4.05475e-06;-0.0012948088055621235
4.05500e-06;-0.0012977831006194798
4.05525e-06;-0.0013007573956768362
4.05550e-06;-0.0013037316907342027
4.05575e-06;-0.001306705985791559
4.05600e-06;-0.0013096802808489254
4.05625e-06;-0.0013126545759062818
4.05650e-06;-0.0013156288709636381
4.05675e-06;-0.0013197177806088685
4.05700e-06;-0.0013261062301422857
4.05725e-06;-0.001332494679675703
4.05750e-06;-0.0013388831292091418
4.05775e-06;-0.001345271578742559
4.05800e-06;-0.0013516600282759761
4.05825e-06;-0.0013581297170916248
4.05850e-06;-0.0013646164634895123
4.05875e-06;-0.0013711032098873996
4.05900e-06;-0.001377589956285309
4.05925e-06;-0.0013840767026831965
4.05950e-06;-0.001390133555038047
4.05975e-06;-0.0013953035012727378
4.06000e-06;-0.0013995530001827887
4.06025e-06;-0.0014019035419458043
4.06050e-06;-0.0014020400845573737
4.06075e-06;-0.001397608968162675
4.06100e-06;-0.001390895574910667
4.06125e-06;-0.0013794736602326001
4.06150e-06;-0.001365982606116839
4.06175e-06;-0.001348222750280149
4.06200e-06;-0.001328247375053664
4.06225e-06;-0.0013037012044464548
4.06250e-06;-0.0012763876869236153
4.06275e-06;-0.0012433649092805606
4.06300e-06;-0.0012077905635557331
4.06325e-06;-0.001166952126866367
4.06350e-06;-0.0011239540965563093
4.06375e-06;-0.0010765006502425705
4.06400e-06;-0.001027581618127143
4.06425e-06;-0.0009745844888330542
4.06450e-06;-0.0009183439243191368
4.06475e-06;-0.000858930486690631
4.06500e-06;-0.000796673547601586
4.06525e-06;-0.0007319602069998316
4.06550e-06;-0.0006651776040385458
4.06575e-06;-0.0005967097233756274
4.06600e-06;-0.0005268827811542888
4.06625e-06;-0.000455858880740248
4.06650e-06;-0.00038372223758776367
4.06675e-06;-0.00031071487001497816
4.06700e-06;-0.00023724093365574224
4.06725e-06;-0.00016374068512786167
4.06750e-06;-9.065432951807864e-05
4.06775e-06;-1.842011126867617e-05
4.06800e-06;5.255994333066442e-05
4.06825e-06;0.0001219866609874017
4.06850e-06;0.0001896096181594242
4.06875e-06;0.00025507961625751715
4.06900e-06;0.00031794591758139116
4.06925e-06;0.0003777351572310208
4.06950e-06;0.00043397405821719024
4.06975e-06;0.00048619588117448047
4.07000e-06;0.0005340640977521121
4.07025e-06;0.0005776455862452124
4.07050e-06;0.0006173091531534772
4.07075e-06;0.0006532354050403359
4.07100e-06;0.0006853247431440207
4.07125e-06;0.0007134076667557384
4.07150e-06;0.0007373147321759609
4.07175e-06;0.0007568806419508305
4.07200e-06;0.0007720216475022654
4.07225e-06;0.0007829068180440222
4.07250e-06;0.0007898942011740395
4.07275e-06;0.0007932239628176173
4.07300e-06;0.0007923799353781492
4.07325e-06;0.0007879271366297604
4.07350e-06;0.0007811661219564664
4.07375e-06;0.0007696430714675233
4.07400e-06;0.0007559716201124609
4.07425e-06;0.0007378678443113238
4.07450e-06;0.0007180100649848833
4.07475e-06;0.0006945336347699418
4.07500e-06;0.0006695360920467364
4.07525e-06;0.0006414003714062201
4.07550e-06;0.0006119272495631911
4.07575e-06;0.0005796949610591718
4.07600e-06;0.0005462122036499496
4.07625e-06;0.0005101496279284572
4.07650e-06;0.0004740870522069648
4.07675e-06;0.00043727265526750274
4.07700e-06;0.0003989071904547372
4.07725e-06;0.0003605417256418417
4.07750e-06;0.00032203468704717063
4.07775e-06;0.0002832355703099614
4.07800e-06;0.0002447021484832161
4.07825e-06;0.0002067168767089837
4.07850e-06;0.00016920142035116046
4.07875e-06;0.00013309520474174316
4.07900e-06;9.842191594703684e-05
4.07925e-06;6.544268214725962e-05
4.07950e-06;3.441860976970042e-05
4.07975e-06;5.589226481021722e-06
4.08000e-06;-2.121462929917184e-05
4.08025e-06;-4.734815604263837e-05
4.08050e-06;-7.480592387394806e-05
4.08075e-06;-0.00010458192829762306
4.08100e-06;-0.00013658095577795607
4.08125e-06;-0.00017045964867464774
4.08150e-06;-0.00020587469790417915
4.08175e-06;-0.00024249633015385099
4.08200e-06;-0.0002802507723598857
4.08225e-06;-0.0003198071501447128
4.08250e-06;-0.0003622350141149659
4.08275e-06;-0.0004079770792279713
4.08300e-06;-0.00045718772007734114
4.08325e-06;-0.0005091028272558429
4.08350e-06;-0.0005623402330190347
4.08375e-06;-0.0006183056475228136
4.08400e-06;-0.0006754783783320343
4.08425e-06;-0.0007351419001564389
4.08450e-06;-0.0007964051688192923
4.08475e-06;-0.0008609688443700363
4.08500e-06;-0.0009269515325868078
4.08525e-06;-0.0009958617585024533
4.08550e-06;-0.0010647719844178655
4.08575e-06;-0.0011344418101044606
4.08600e-06;-0.001205678751447013
4.08625e-06;-0.0012769156927895657
4.08650e-06;-0.0013486199300704429
4.08675e-06;-0.0014212882365999648
4.08700e-06;-0.0014939565431294868
4.08725e-06;-0.0015660519858349202
4.08750e-06;-0.0016369655642185447
4.08775e-06;-0.0017078791426021693
4.08800e-06;-0.0017771872985911175
4.08825e-06;-0.0018431833385603431
4.08850e-06;-0.001909179378529569
4.08875e-06;-0.0019727943831555905
4.08900e-06;-0.0020314971196276808
4.08925e-06;-0.0020901998560997706
4.08950e-06;-0.00214664706557483
4.08975e-06;-0.002196483063754828
4.09000e-06;-0.0022422798036238027
4.09025e-06;-0.002286515651413289
4.09050e-06;-0.002327531252819784
4.09075e-06;-0.002368546854226418
4.09100e-06;-0.0024082620944044894
4.09125e-06;-0.002445294584379783
4.09150e-06;-0.002482327074355202
4.09175e-06;-0.0025175924899219844
4.09200e-06;-0.002549212288314042
4.09225e-06;-0.0025808320867062064
4.09250e-06;-0.002611702008518495
4.09275e-06;-0.002641024874403246
4.09300e-06;-0.0026703477402880964
4.09325e-06;-0.0026996706061728475
4.09350e-06;-0.002727901408823352
4.09375e-06;-0.002753879196850816
4.09400e-06;-0.002779856984878192
4.09425e-06;-0.002805834772905656
4.09450e-06;-0.002830788403346292
4.09475e-06;-0.0028536291139972295
4.09500e-06;-0.002876469824648244
4.09525e-06;-0.0028993105352991817
4.09550e-06;-0.002922151245950119
4.09575e-06;-0.002944991956601134
4.09600e-06;-0.0029678326672520714
4.09625e-06;-0.002990673377903009
4.09650e-06;-0.003013514088554024
4.09675e-06;-0.0030363547992049615
4.09700e-06;-0.0030547910933888547
4.09725e-06;-0.003072302604708473
4.09750e-06;-0.0030898141160280316
4.09775e-06;-0.0031073256273475907
4.09800e-06;-0.003124837138667209
4.09825e-06;-0.0031423486499867676
4.09850e-06;-0.003159860161306386
4.09875e-06;-0.0031773716726259445
4.09900e-06;-0.0031948831839455037
4.09925e-06;-0.003211039222728477
4.09950e-06;-0.0032243988122306923
4.09975e-06;-0.0032372294347914566
4.10000e-06;-0.003247718511807582
4.10025e-06;-0.0032556282344337914
4.10050e-06;-0.003260625066321814
4.10075e-06;-0.0032596123694372385
4.10100e-06;-0.003254891063713351
4.10125e-06;-0.0032425185985300135
4.10150e-06;-0.0032301461333466342
4.10175e-06;-0.0032135022797473564
4.10200e-06;-0.003188046206984748
4.10225e-06;-0.003162590134222053
4.10250e-06;-0.0031319746257985636
4.10275e-06;-0.003090714785046736
4.10300e-06;-0.0030494549442950485
4.10325e-06;-0.003004277727969519
4.10350e-06;-0.0029510186495560905
4.10375e-06;-0.002895753540599271
4.10400e-06;-0.0028350701680198514
4.10425e-06;-0.0027703867469563376
4.10450e-06;-0.00270153501162347
4.10475e-06;-0.0026286327742873904
4.10500e-06;-0.00255208776779205
4.10525e-06;-0.0024723717830339347
4.10550e-06;-0.0023899567677274744
4.10575e-06;-0.002305311249050728
4.10600e-06;-0.0022188399924487233
4.10625e-06;-0.0021307674586685424
4.10650e-06;-0.0020412362781110087
4.10675e-06;-0.0019505683551231784
4.10700e-06;-0.0018592672036637557
4.10725e-06;-0.001767876407274375
4.10750e-06;-0.001676939506694893
4.10775e-06;-0.0015869980355416634
4.10800e-06;-0.0014985534037135764
4.10825e-06;-0.001411994108542498
4.10850e-06;-0.0013276573447771162
4.10875e-06;-0.0012459926420236526
4.10900e-06;-0.0011675632367138076
4.10925e-06;-0.0010929572566557638
4.10950e-06;-0.0010227630268805782
4.10975e-06;-0.0009575444511922531
4.11000e-06;-0.0008973986288782767
4.11025e-06;-0.0008410490885896378
4.11050e-06;-0.0007864162997202432
4.11075e-06;-0.000732466203118508
4.11100e-06;-0.0006793591176600223
4.11125e-06;-0.000627859958081546
4.11150e-06;-0.0005780978795206572
4.11175e-06;-0.0005297726352541044
4.11200e-06;-0.0004844116961423901
4.11225e-06;-0.0004395201353789408
4.11250e-06;-0.0003955969400438581
4.11275e-06;-0.0003515712711408604
4.11300e-06;-0.0003073341909943018
4.11325e-06;-0.00026339915370780055
4.11350e-06;-0.00022008725522748432
4.11375e-06;-0.00017727130126098773
4.11400e-06;-0.00013580179480632856
4.11425e-06;-9.499922858800043e-05
4.11450e-06;-5.409481352499827e-05
4.11475e-06;-1.289587378168184e-05
4.11500e-06;2.0388573139862896e-05
4.11525e-06;5.705661117381024e-05
4.11550e-06;0.00010280218869425125
4.11575e-06;0.0001327305171000312
4.11600e-06;0.00017788872190202022
4.11625e-06;0.00022190820864685047
4.11650e-06;0.0002607556993174331
4.11675e-06;0.0002988328955401631
4.11700e-06;0.0003366450897099896
4.11725e-06;0.00037354737486413204
4.11750e-06;0.0004103196571925887
4.11775e-06;0.00044638286183820225
4.11800e-06;0.00048152406330289807
4.11825e-06;0.000514803574784051
4.11850e-06;0.0005465166709752714
4.11875e-06;0.0005771319961300991
4.11900e-06;0.0006066074353961429
4.11925e-06;0.0006346797373942367
4.11950e-06;0.0006611028618678914
4.11975e-06;0.0006860367159848355
4.12000e-06;0.0007090596327598162
4.12025e-06;0.0007290840074197626
4.12050e-06;0.0007457175816187603
4.12075e-06;0.000759039032804916
4.12100e-06;0.0007691179308492518
4.12125e-06;0.0007759335501206661
4.12150e-06;0.0007794775220576378
4.12175e-06;0.0007786177937857423
4.12200e-06;0.0007771637955199495
4.12225e-06;0.0007694181160040651
4.12250e-06;0.0007607326307770316
4.12275e-06;0.0007458418865450369
4.12300e-06;0.0007300242457301067
4.12325e-06;0.0007085657112781845
4.12350e-06;0.0006862645810485018
4.12375e-06;0.0006590000083239263
4.12400e-06;0.0006309940325595865
4.12425e-06;0.0005979744524287686
4.12450e-06;0.0005642059764417515
4.12475e-06;0.0005259853494846296
4.12500e-06;0.00048709969250755727
4.12525e-06;0.00044462256200380454
4.12550e-06;0.0004016089632337556
4.12575e-06;0.0003559353039626395
4.12600e-06;0.00030986430414751075
4.12625e-06;0.00026160878774258983
4.12650e-06;0.0002130269640941706
4.12675e-06;0.00016300701697480202
4.12700e-06;0.00011277225340201843
4.12725e-06;6.253748982940502e-05
4.12750e-06;1.2191592347535638e-05
4.12775e-06;-3.774120164638022e-05
4.12800e-06;-8.69624681235676e-05
4.12825e-06;-0.00013530986200015955
4.12850e-06;-0.0001825140001507818
4.12875e-06;-0.00022823298719857916
4.12900e-06;-0.0002721264116498063
4.12925e-06;-0.00031386777202462967
4.12950e-06;-0.00035312877069107647
4.12975e-06;-0.0003895419735182574
4.13000e-06;-0.0004228130332076688
4.13025e-06;-0.00045280356123330207
4.13050e-06;-0.0004794389926041755
4.13075e-06;-0.0005026510535161889
4.13100e-06;-0.0005223653132611335
4.13125e-06;-0.0005385129802879066
4.13150e-06;-0.00055102401438031
4.13175e-06;-0.0005598037844889939
4.13200e-06;-0.0005648035649166907
4.13225e-06;-0.0005660723246572638
4.13250e-06;-0.0005636989055234181
4.13275e-06;-0.0005577762424555966
4.13300e-06;-0.0005483931910069091
4.13325e-06;-0.0005356423999305068
4.13350e-06;-0.0005196155048885756
4.13375e-06;-0.0005003889015866669
4.13400e-06;-0.0004780676388024448
4.13425e-06;-0.000452817998620739
4.13450e-06;-0.0004248312553724818
4.13475e-06;-0.00039430110261393927
4.13500e-06;-0.00036141887143843683
4.13525e-06;-0.00032637807333033047
4.13550e-06;-0.00028937171175584856
4.13575e-06;-0.0002505831369194536
4.13600e-06;-0.0002102136857872568
4.13625e-06;-0.00016850300659303975
4.13650e-06;-0.00012570639999396816
4.13675e-06;-8.208070190874968e-05
4.13700e-06;-3.788119858942877e-05
4.13725e-06;6.6354533237144024e-06
4.13750e-06;5.1212946682009406e-05
4.13775e-06;9.560101282588674e-05
4.13800e-06;0.00013953815877849562
4.13825e-06;0.00018273889423027213
4.13850e-06;0.00022490793862428628
4.13875e-06;0.0002657491073741925
4.13900e-06;0.00030496716224460817
4.13925e-06;0.0003422660680512181
4.13950e-06;0.0003773499915036315
4.13975e-06;0.0004099269232750283
4.14000e-06;0.0004397622896734129
4.14025e-06;0.0004668606655958646
4.14050e-06;0.0004914270110027462
4.14075e-06;0.0005135492711877943
4.14100e-06;0.0005331566640048266
4.14125e-06;0.0005489654979934937
4.14150e-06;0.000564255981127361
4.14175e-06;0.0005746548081898168
4.14200e-06;0.0005843229551483914
4.14225e-06;0.0005892298517087437
4.14250e-06;0.000593425547218892
4.14275e-06;0.0005933883252185877
4.14300e-06;0.000592718820702761
4.14325e-06;0.0005879517673617493
4.14350e-06;0.0005825726518975835
4.14375e-06;0.0005731942856322205
4.14400e-06;0.0005632185402895148
