Time(s);Current(A)
1.17500e-05;-0.0018566367232421088
1.17503e-05;-0.0018318134259612906
1.17505e-05;-0.001806968234014431
1.17508e-05;-0.00178205937147207
1.17510e-05;-0.0017572762766586033
1.17513e-05;-0.001732858919605161
1.17515e-05;-0.0017086961364528096
1.17518e-05;-0.0016852736647395348
1.17520e-05;-0.0016622364646800356
1.17523e-05;-0.0016403196505316096
1.17525e-05;-0.0016189492498012291
1.17528e-05;-0.0015991678419012088
1.17530e-05;-0.0015798987096129979
1.17533e-05;-0.0015624814963375701
1.17535e-05;-0.0015463792402277525
1.17538e-05;-0.0015311891199478848
1.17540e-05;-0.001516438716595803
1.17543e-05;-0.0015018815820796714
1.17545e-05;-0.0014878864813356028
1.17548e-05;-0.0014741977122921298
1.17550e-05;-0.0014613997685101552
1.17553e-05;-0.001448946107183439
1.17555e-05;-0.0014374936334833925
1.17558e-05;-0.0014261672154693558
1.17560e-05;-0.0014152073726061735
1.17563e-05;-0.0014042475297429914
1.17565e-05;-0.0013934312781578842
1.17568e-05;-0.001383032595951015
1.17570e-05;-0.001372633913744146
1.17572e-05;-0.001362893584823136
1.17575e-05;-0.0013533658754880473
1.17578e-05;-0.0013439270759453936
1.17580e-05;-0.001334746829758348
1.17583e-05;-0.00132556658357124
1.17585e-05;-0.001316386337384132
1.17588e-05;-0.001307629655209519
1.17590e-05;-0.0012990097658587033
1.17593e-05;-0.0012903898765078293
1.17595e-05;-0.0012819452423636125
1.17598e-05;-0.0012740102576126206
1.17600e-05;-0.0012660752728615749
1.17603e-05;-0.0012581402881105292
1.17605e-05;-0.0012503851449561754
1.17608e-05;-0.0012431529886068294
1.17610e-05;-0.0012359208322574834
1.17613e-05;-0.0012286886759081863
1.17615e-05;-0.0012216310438793964
1.17618e-05;-0.0012151733104361114
1.17620e-05;-0.0012089842062665463
1.17623e-05;-0.0012027951020969392
1.17625e-05;-0.001197106837795969
1.17628e-05;-0.0011915803230721095
1.17630e-05;-0.0011862105979891368
1.17633e-05;-0.0011813787424892611
1.17635e-05;-0.0011767795994029463
1.17638e-05;-0.0011720455438364071
1.17640e-05;-0.0011667386823019017
1.17643e-05;-0.0011607714657357372
1.17645e-05;-0.0011545095896595713
1.17648e-05;-0.0011473908315349614
1.17650e-05;-0.0011402720734104
1.17653e-05;-0.0011329062381977982
1.17655e-05;-0.0011248218925888486
1.17657e-05;-0.0011162823861618786
1.17660e-05;-0.0011064192532405205
1.17663e-05;-0.0010965561203191627
1.17665e-05;-0.0010861458491226712
1.17668e-05;-0.0010741444771802107
1.17670e-05;-0.0010621431052377501
1.17673e-05;-0.0010501417332952896
1.17675e-05;-0.0010376125137184292
1.17678e-05;-0.0010235482913770258
1.17680e-05;-0.0010094840690356224
1.17683e-05;-0.0009954198466943145
1.17685e-05;-0.0009809703700762278
1.17688e-05;-0.0009654005580789134
1.17690e-05;-0.0009498307460817046
1.17693e-05;-0.0009341168165400974
1.17695e-05;-0.0009179837872157843
1.17698e-05;-0.0009018507578915807
1.17700e-05;-0.0008856362019655463
1.17703e-05;-0.0008691845633079466
1.17705e-05;-0.0008527661836910111
1.17708e-05;-0.0008364445227402312
1.17710e-05;-0.0008202558383743396
1.17713e-05;-0.0008044538554203022
1.17715e-05;-0.0007888485521036357
1.17718e-05;-0.0007738152013118535
1.17720e-05;-0.0007590329093591919
1.17723e-05;-0.0007449807068997671
1.17725e-05;-0.0007312804425814892
1.17728e-05;-0.0007186036289418747
1.17730e-05;-0.0007063824701154438
1.17733e-05;-0.0006954863743422387
1.17735e-05;-0.0006851071937647112
1.17738e-05;-0.0006762312239673384
1.17740e-05;-0.0006678790654407034
1.17742e-05;-0.0006610501717662122
1.17745e-05;-0.0006549099993923793
1.17748e-05;-0.0006507726570623016
1.17750e-05;-0.0006466353147322519
1.17753e-05;-0.0006433553496570479
1.17755e-05;-0.0006425686731198006
1.17758e-05;-0.0006417819965825534
1.17760e-05;-0.0006416701821712643
1.17763e-05;-0.0006435208947500143
1.17765e-05;-0.0006458791018601748
1.17768e-05;-0.0006497131240692101
1.17770e-05;-0.0006539126680490339
1.17773e-05;-0.0006594094522871482
1.17775e-05;-0.0006658092871105672
1.17778e-05;-0.0006730585160073619
1.17780e-05;-0.0006810913632949001
1.17783e-05;-0.0006898476306125836
1.17785e-05;-0.0006992730102129013
1.17788e-05;-0.0007093132837141472
1.17790e-05;-0.0007199144330372572
1.17793e-05;-0.0007310214476618757
1.17795e-05;-0.000742573658081508
1.17798e-05;-0.0007544980657228304
1.17800e-05;-0.0007667142589288994
1.17803e-05;-0.0007791451697308266
1.17805e-05;-0.0007917173712187772
1.17808e-05;-0.0008043576814688235
1.17810e-05;-0.000816992890137782
1.17813e-05;-0.0008295492791055626
1.17815e-05;-0.0008419495169244636
1.17818e-05;-0.0008541086226329345
1.17820e-05;-0.0008657285835483233
1.17823e-05;-0.0008742666538225844
1.17825e-05;-0.0008860598262156186
1.17827e-05;-0.0008945896671942654
1.17830e-05;-0.0009062336429676072
1.17833e-05;-0.0009160381529033549
1.17835e-05;-0.0009212911249320717
1.17838e-05;-0.0009300500243473054
1.17840e-05;-0.0009381042297197114
1.17843e-05;-0.0009460434928752194
1.17845e-05;-0.0009539492139374014
1.17848e-05;-0.0009617617748725069
1.17850e-05;-0.0009693391598090341
1.17853e-05;-0.0009768696304205107
1.17855e-05;-0.000984005677289249
1.17858e-05;-0.0009910563712556973
1.17860e-05;-0.0009982999584107143
1.17863e-05;-0.0010055852874583048
1.17865e-05;-0.0010130527907477862
1.17868e-05;-0.0010205597163604233
1.17870e-05;-0.001028078605083296
1.17873e-05;-0.0010356000826112124
1.17875e-05;-0.0010429970959407193
1.17878e-05;-0.0010503671753425998
1.17880e-05;-0.0010579289994745158
1.17883e-05;-0.001065532316973625
1.17885e-05;-0.0010732688078153574
1.17888e-05;-0.0010810341172348404
1.17890e-05;-0.0010887743041228838
1.17893e-05;-0.0010965090545203872
1.17895e-05;-0.00110408139373403
1.17898e-05;-0.001111618587330342
1.17900e-05;-0.0011191397025066177
1.17903e-05;-0.0011266573383289138
1.17905e-05;-0.0011340705122730322
1.17908e-05;-0.0011414610807715542
1.17910e-05;-0.0011486816295481414
1.17912e-05;-0.0011556944573090817
1.17915e-05;-0.0011624571614525588
1.17918e-05;-0.0011689848220093398
1.17920e-05;-0.0011753089975631962
1.17923e-05;-0.0011814057149720568
1.17925e-05;-0.0011872301763418975
1.17928e-05;-0.0011927377089311765
1.17930e-05;-0.0011978859890151945
1.17933e-05;-0.0012026379880271205
1.17935e-05;-0.0012072861927856769
1.17938e-05;-0.001212663792194263
1.17940e-05;-0.0012194894039599734
1.17943e-05;-0.0012279248495916928
1.17945e-05;-0.001237873529209967
1.17948e-05;-0.0012492081437526473
1.17950e-05;-0.0012618026411523756
1.17953e-05;-0.001275534430412133
1.17955e-05;-0.001290487390185303
1.17958e-05;-0.0013070841233774045
1.17960e-05;-0.0013264905928557537
1.17963e-05;-0.0013464384746661208
1.17965e-05;-0.0013686851877293123
1.17968e-05;-0.0013927652143053062
1.17970e-05;-0.0014188461425703523
1.17973e-05;-0.0014452975081269202
1.17975e-05;-0.0014738994102222657
1.17978e-05;-0.0015029666862679458
1.17980e-05;-0.001534496688175921
1.17983e-05;-0.0015665596214902953
1.17985e-05;-0.0016001955123841902
1.17988e-05;-0.00163498834376932
1.17990e-05;-0.001670836064623696
1.17993e-05;-0.0017068738244790855
1.17995e-05;-0.0017437275641538313
1.17997e-05;-0.0017807578810428665
1.18000e-05;-0.0018184726792443724
1.18003e-05;-0.0018563355985153646
1.18005e-05;-0.0018943359499958795
1.18008e-05;-0.0019322032476656488
1.18010e-05;-0.001969682165863763
1.18013e-05;-0.0020065417287443974
1.18015e-05;-0.0020426019997210635
1.18018e-05;-0.0020777661259380235
1.18020e-05;-0.002111919735611408
1.18023e-05;-0.0021448626217324468
1.18025e-05;-0.0021763547755492773
1.18028e-05;-0.002206151450634308
1.18030e-05;-0.002234008324800398
1.18033e-05;-0.0022596817329320314
1.18035e-05;-0.00228296775599667
1.18038e-05;-0.0023027197425624533
1.18040e-05;-0.002321800213809888
1.18043e-05;-0.002336641628742878
1.18045e-05;-0.002350565716140538
1.18048e-05;-0.0023600831679764737
1.18050e-05;-0.0023686470282960575
1.18053e-05;-0.0023726460528846758
1.18055e-05;-0.0023756572515990617
1.18058e-05;-0.002374149265810958
1.18060e-05;-0.002371663333028674
1.18063e-05;-0.0023649022631916043
1.18065e-05;-0.0023572160579832767
1.18068e-05;-0.002345481823403969
1.18070e-05;-0.0023328715993283537
1.18073e-05;-0.0023164461001533923
1.18075e-05;-0.0022991949792732632
1.18078e-05;-0.0022784892949919166
1.18080e-05;-0.0022570360466550054
1.18082e-05;-0.0022326129801417474
1.18085e-05;-0.0022075472479532246
1.18088e-05;-0.0021799858195709477
1.18090e-05;-0.0021518843250353343
1.18093e-05;-0.0021217647016642635
1.18095e-05;-0.002091208357237095
1.18098e-05;-0.0020591916520237867
1.18100e-05;-0.00202685892620108
1.18103e-05;-0.0019937011285951272
1.18105e-05;-0.0019603647862827317
1.18108e-05;-0.0019268024847454476
1.18110e-05;-0.0018932500486554319
1.18113e-05;-0.0018599256647590775
1.18115e-05;-0.0018270266792745806
1.18118e-05;-0.0017947651368448133
1.18120e-05;-0.0017633637879543723
1.18123e-05;-0.0017330449758365522
1.18125e-05;-0.0017040292482259976
1.18128e-05;-0.0016765367672069355
1.18130e-05;-0.0016516091091506174
1.18133e-05;-0.0016271763270668677
1.18135e-05;-0.0016067964553028583
1.18138e-05;-0.0015872936292679676
1.18140e-05;-0.001567790803232945
1.18143e-05;-0.0015520262577198576
1.18145e-05;-0.001537070672363157
1.18148e-05;-0.001526168108981724
1.18150e-05;-0.0015161426154915248
1.18153e-05;-0.0015061171220013935
1.18155e-05;-0.001500292961151136
1.18158e-05;-0.0014953779644712472
1.18160e-05;-0.0014927077736382533
1.18163e-05;-0.001491940075899593
1.18165e-05;-0.0014928846681085835
1.18167e-05;-0.0014955278753885541
1.18170e-05;-0.0014998564392559462
1.18173e-05;-0.0015058550035671444
1.18175e-05;-0.0015134611275610123
1.18178e-05;-0.0015225289745529657
1.18180e-05;-0.001532903255888009
1.18183e-05;-0.0015444815597369075
1.18185e-05;-0.0015571901304805669
1.18188e-05;-0.0015709591939205
1.18190e-05;-0.0015857189215739708
1.18193e-05;-0.0016013983157891988
1.18195e-05;-0.0016178968446957113
1.18198e-05;-0.0016350618920946375
1.18200e-05;-0.001652734866096726
1.18203e-05;-0.0016707900850764248
1.18205e-05;-0.0016891200985813643
1.18208e-05;-0.0017076198999911312
1.18210e-05;-0.0017261842912759254
1.18213e-05;-0.001744707650165165
1.18215e-05;-0.0017630656090946249
1.18218e-05;-0.0017811012419099092
1.18220e-05;-0.0017986539390719303
1.18223e-05;-0.001815583631833285
1.18225e-05;-0.0018317618534999462
1.18228e-05;-0.0018470614242563595
1.18230e-05;-0.0018604088998944513
1.18233e-05;-0.0018733686415712985
1.18235e-05;-0.0018863283832481457
1.18238e-05;-0.0018975418617564437
1.18240e-05;-0.001907349723796739
1.18243e-05;-0.001916935186772986
1.18245e-05;-0.0019250518190812127
1.18248e-05;-0.0019328505979057209
1.18250e-05;-0.0019390001423607525
1.18252e-05;-0.0019447927941518388
1.18255e-05;-0.0019493025698596642
1.18258e-05;-0.0019527982834066583
1.18260e-05;-0.0019554910147871764
1.18263e-05;-0.001957417601482693
1.18265e-05;-0.0019585728629711377
1.18268e-05;-0.001958620501036244
1.18270e-05;-0.001958458218077618
1.18273e-05;-0.001956996932763163
1.18275e-05;-0.0019552545446413737
1.18278e-05;-0.0019526619143528474
1.18280e-05;-0.0019492127743100456
1.18283e-05;-0.0019456181020026735
1.18285e-05;-0.001941196587372101
1.18288e-05;-0.001936596144891805
1.18290e-05;-0.00193122829281966
1.18293e-05;-0.0019256943740813322
1.18295e-05;-0.0019195225344557155
1.18298e-05;-0.0019132126493897129
1.18300e-05;-0.0019065227680919905
1.18303e-05;-0.001899750655990674
1.18305e-05;-0.001892750000632476
1.18308e-05;-0.0018856998887426847
1.18310e-05;-0.001878538376370849
1.18313e-05;-0.0018713527570464032
1.18315e-05;-0.0018642167607030326
1.18318e-05;-0.0018570915027229541
1.18320e-05;-0.0018502574746970964
1.18323e-05;-0.0018434864685413833
1.18325e-05;-0.0018370457877839104
1.18328e-05;-0.0018309476253356718
1.18330e-05;-0.0018252176244412238
1.18333e-05;-0.0018198941620302948
1.18335e-05;-0.0018147904173207029
1.18337e-05;-0.0018093753118689883
1.18340e-05;-0.0018031969050525344
1.18343e-05;-0.0017961542761911757
1.18345e-05;-0.0017883129964769695
1.18348e-05;-0.0017795085493003625
1.18350e-05;-0.0017705258266528744
1.18352e-05;-0.001760856421481146
1.18355e-05;-0.0017505285989961416
1.18358e-05;-0.0017393214632728375
1.18360e-05;-0.0017265553652836593
1.18363e-05;-0.0017134879200316573
1.18365e-05;-0.0016987883237315755
1.18368e-05;-0.0016837355315810483
1.18370e-05;-0.0016671439803961118
1.18373e-05;-0.0016502194432986975
1.18375e-05;-0.001633294906201283
1.18378e-05;-0.001614472637010042
1.18380e-05;-0.0015952397004961212
1.18383e-05;-0.0015760067639822007
1.18385e-05;-0.001555333006429257
1.18388e-05;-0.0015343474566477855
1.18390e-05;-0.0015126862304034002
1.18393e-05;-0.0014908787884499784
1.18395e-05;-0.0014686607247026257
1.18398e-05;-0.0014463538028107576
1.18400e-05;-0.0014236822453207888
1.18403e-05;-0.00140093178105276
1.18405e-05;-0.0013781802161785949
1.18408e-05;-0.0013554284131345193
1.18410e-05;-0.0013331255138366378
1.18413e-05;-0.0013109197568594373
1.18415e-05;-0.0012895173945095461
1.18418e-05;-0.0012682888859514218
1.18420e-05;-0.0012480809263964198
1.18422e-05;-0.0012280938126227325
1.18425e-05;-0.0012095433726764752
1.18428e-05;-0.0011913038275062574
1.18430e-05;-0.0011749676131655588
1.18433e-05;-0.0011590432777081742
1.18435e-05;-0.0011446050476496006
1.18437e-05;-0.0011310309602824502
1.18440e-05;-0.0011179292976594847
1.18443e-05;-0.0011049044604151826
1.18445e-05;-0.0010925041932270732
1.18448e-05;-0.0010802390823730968
1.18450e-05;-0.00106892365105743
1.18453e-05;-0.0010578137294418592
1.18455e-05;-0.0010474734186303465
1.18458e-05;-0.001037542836928949
1.18460e-05;-0.0010278108623024127
1.18463e-05;-0.0010181104780010344
1.18465e-05;-0.0010084100936995906
1.18468e-05;-0.0009992586406963714
1.18470e-05;-0.0009902259758758807
1.18473e-05;-0.0009811933110553288
1.18475e-05;-0.0009727719133124312
1.18478e-05;-0.0009644827931524441
1.18480e-05;-0.0009563122513404841
1.18483e-05;-0.0009481673697641844
1.18485e-05;-0.0009400224881879399
1.18488e-05;-0.0009323229214248982
1.18490e-05;-0.0009247197203410592
1.18493e-05;-0.0009171165192572718
1.18495e-05;-0.0009095133181734328
1.18498e-05;-0.0009024190636858833
1.18500e-05;-0.000895434944731652
1.18503e-05;-0.0008884508257773735
1.18505e-05;-0.000881466706823095
1.18507e-05;-0.0008750415641919071
1.18510e-05;-0.000868737383476674
1.18513e-05;-0.0008624332027614409
1.18515e-05;-0.0008561290220462505
1.18518e-05;-0.0008505493631726907
1.18520e-05;-0.0008451264900994332
1.18522e-05;-0.0008397036170262125
1.18525e-05;-0.000834280743952955
1.18528e-05;-0.0008293396612158676
1.18530e-05;-0.0008247575081140563
1.18533e-05;-0.0008205097323381794
1.18535e-05;-0.000816449150742824
1.18538e-05;-0.0008121553000288093
1.18540e-05;-0.0008072698523782664
1.18543e-05;-0.0008017129294034146
1.18545e-05;-0.0007953153909691174
1.18548e-05;-0.0007887619650498972
1.18550e-05;-0.000781434597680842
1.18553e-05;-0.0007739397501577935
1.18555e-05;-0.0007658860100535514
1.18558e-05;-0.000756747027695945
1.18560e-05;-0.0007473993721183599
1.18563e-05;-0.0007366586123607498
1.18565e-05;-0.0007256163862548214
1.18568e-05;-0.0007132241311408479
1.18570e-05;-0.000700539731102761
1.18573e-05;-0.0006878553310645883
1.18575e-05;-0.0006737757771667949
1.18578e-05;-0.0006593943133722339
1.18580e-05;-0.0006450128495775753
1.18583e-05;-0.0006293647635790451
1.18585e-05;-0.0006134425818052222
1.18588e-05;-0.0005968326169010239
1.18590e-05;-0.0005800738164167839
1.18592e-05;-0.0005629314786204018
1.18595e-05;-0.0005457061437339403
1.18598e-05;-0.0005282446092001558
1.18600e-05;-0.0005105748138842682
1.18603e-05;-0.0004927834420586074
1.18605e-05;-0.00047497417293366107
1.18607e-05;-0.0004572546874664591
1.18610e-05;-0.0004397326407256196
1.18613e-05;-0.0004225147068050882
1.18615e-05;-0.00040567999984681297
1.18618e-05;-0.00038926556346555066
1.18620e-05;-0.00037331803619527175
1.18623e-05;-0.0003579269691669372
1.18625e-05;-0.00034320213185581714
1.18628e-05;-0.00032925590772210183
1.18630e-05;-0.0003162006239804578
1.18633e-05;-0.0003041548131299894
1.18635e-05;-0.0002933996165733507
1.18638e-05;-0.00028444410955135726
1.18640e-05;-0.00027769053450846617
1.18643e-05;-0.0002732472229020932
1.18645e-05;-0.00027109051946725505
1.18648e-05;-0.00027118046464475604
1.18650e-05;-0.00027347705102292416
1.18653e-05;-0.0002779441847350168
1.18655e-05;-0.0002846475896922214
1.18658e-05;-0.00029379571458562967
1.18660e-05;-0.0003055301402477989
1.18663e-05;-0.0003198083505750615
1.18665e-05;-0.00033650506909056114
1.18668e-05;-0.0003554848601382697
1.18670e-05;-0.0003766122557424855
1.18673e-05;-0.00040054986057875934
1.18675e-05;-0.00042501384196875873
1.18678e-05;-0.00045269115064112
1.18680e-05;-0.0004810638201172044
1.18683e-05;-0.0005116951128313537
1.18685e-05;-0.0005441167318113143
1.18688e-05;-0.0005784513930120435
1.18690e-05;-0.0006131390843802061
1.18692e-05;-0.0006494899112509545
1.18695e-05;-0.0006862006389779952
1.18698e-05;-0.000724154118516289
1.18700e-05;-0.0007623765283010829
1.18703e-05;-0.000801209391671649
1.18705e-05;-0.0008403326046081165
1.18708e-05;-0.0008794569962212994
1.18710e-05;-0.0009183500436923653
1.18713e-05;-0.00095678022267297
1.18715e-05;-0.0009945410034826613
1.18718e-05;-0.00103146103251563
1.18720e-05;-0.001067352294740155
1.18723e-05;-0.0011019817689119664
1.18725e-05;-0.0011350961965320794
1.18728e-05;-0.0011664396217291346
1.18730e-05;-0.001194801965247515
1.18733e-05;-0.0012225891384141977
1.18735e-05;-0.0012465711333490377
1.18738e-05;-0.0012697296915277307
1.18740e-05;-0.0012895499198857332
1.18743e-05;-0.00130864773701612
1.18745e-05;-0.0013243018532515527
1.18748e-05;-0.0013392107560642008
1.18750e-05;-0.00135036979806643
1.18753e-05;-0.001360717373947017
1.18755e-05;-0.0013681628907089075
1.18758e-05;-0.0013732213490656702
1.18760e-05;-0.0013762911161100662
1.18763e-05;-0.0013774478444088672
1.18765e-05;-0.0013767075322915325
1.18768e-05;-0.0013740780417159258
1.18770e-05;-0.0013695672682135416
1.18773e-05;-0.0013631855206482123
1.18775e-05;-0.0013550030583762873
1.18777e-05;-0.0013451949743286359
1.18780e-05;-0.0013339454495175846
1.18783e-05;-0.0013213683742100918
1.18785e-05;-0.001307540156498581
1.18788e-05;-0.00129253246680052
1.18790e-05;-0.0012764170169539551
1.18793e-05;-0.0012592666672558042
1.18795e-05;-0.0012411920428418057
1.18798e-05;-0.0012223693102688196
1.18800e-05;-0.0012029804587215065
1.18803e-05;-0.0011831633639870518
1.18805e-05;-0.0011630324049684785
1.18808e-05;-0.0011426991618282295
1.18810e-05;-0.0011222747983356681
1.18813e-05;-0.0011018716188709982
1.18815e-05;-0.0010816254533367435
1.18818e-05;-0.001061713149307854
1.18820e-05;-0.0010423151304696928
1.18823e-05;-0.001023584207586745
1.18825e-05;-0.0010056587040663918
1.18828e-05;-0.0009886745801411597
1.18830e-05;-0.0009727682667210352
1.18833e-05;-0.0009580767975030263
1.18835e-05;-0.0009447594175636415
1.18838e-05;-0.0009329888652356484
1.18840e-05;-0.0009235862978280989
1.18843e-05;-0.0009146354147711304
1.18845e-05;-0.000908523377758446
1.18848e-05;-0.0009030256641851877
1.18850e-05;-0.0009004108926803028
1.18853e-05;-0.0008984199869502421
1.18855e-05;-0.0009001404925943788
1.18858e-05;-0.0009026641439409489
1.18860e-05;-0.0009051877952875188
1.18862e-05;-0.0009113804846720235
1.18865e-05;-0.0009183671502114907
1.18868e-05;-0.0009280644411804148
1.18870e-05;-0.0009383483087761321
1.18873e-05;-0.0009511384240270206
1.18875e-05;-0.0009644708887592503
1.18878e-05;-0.0009801271637165667
1.18880e-05;-0.0009962863088779667
1.18883e-05;-0.0010144798527032158
1.18885e-05;-0.0010331136383608004
1.18888e-05;-0.0010534168042643573
1.18890e-05;-0.0010740812223805692
1.18893e-05;-0.0010960500980301368
1.18895e-05;-0.001118301256982699
1.18898e-05;-0.0011415059715211408
1.18900e-05;-0.0011649170345328765
1.18903e-05;-0.0011888637577655886
1.18905e-05;-0.0012129263973335897
1.18908e-05;-0.001237059332136971
1.18910e-05;-0.0012612074787586903
1.18913e-05;-0.0012851166502917464
1.18915e-05;-0.0013086626841709898
1.18918e-05;-0.001331718119291391
1.18920e-05;-0.0013541377948887588
1.18923e-05;-0.001375765757147057
1.18925e-05;-0.001396441562857952
1.18928e-05;-0.0014160044010414056
1.18930e-05;-0.0014342934064329475
