Time(s);Current(A)
4.50000e-06;-0.0016453313768992571
4.50025e-06;-0.0016731109248626426
4.50050e-06;-0.0017012412037158797
4.50075e-06;-0.0017296244233305047
4.50100e-06;-0.001757979573652134
4.50125e-06;-0.0017863144809082008
4.50150e-06;-0.0018142004823853487
4.50175e-06;-0.0018417627411505435
4.50200e-06;-0.001868381837849324
4.50225e-06;-0.0018943207431592096
4.50250e-06;-0.0019192648118488268
4.50275e-06;-0.001942679171456066
4.50300e-06;-0.0019645836957490723
4.50325e-06;-0.001984775060667949
4.50350e-06;-0.0020029379280684916
4.50375e-06;-0.00201860432913032
4.50400e-06;-0.002031387697712427
4.50425e-06;-0.0020402737976445403
4.50450e-06;-0.002047256854309031
4.50475e-06;-0.0020498857210647244
4.50500e-06;-0.0020493744249712605
4.50525e-06;-0.002048863128877795
4.50550e-06;-0.002042908915033397
4.50575e-06;-0.0020330293675516614
4.50600e-06;-0.0020231498200698923
4.50625e-06;-0.002009483600949003
4.50650e-06;-0.00199130805951404
4.50675e-06;-0.0019701568513126274
4.50700e-06;-0.001946176486659948
4.50725e-06;-0.0019195089897153987
4.50750e-06;-0.001890252372441537
4.50775e-06;-0.0018584449210123258
4.50800e-06;-0.0018241569376997774
4.50825e-06;-0.0017875562800836863
4.50850e-06;-0.001748863475036845
4.50875e-06;-0.0017083067343065343
4.50900e-06;-0.0016661141942070504
4.50925e-06;-0.0016225110904643629
4.50950e-06;-0.001577695276209671
4.50975e-06;-0.0015318271226407514
4.51000e-06;-0.001485086947436198
4.51025e-06;-0.0014377162708153225
4.51050e-06;-0.0013899894874917415
4.51075e-06;-0.001342185799123796
4.51100e-06;-0.0012945843995731576
4.51125e-06;-0.0012474627130821488
4.51150e-06;-0.0012010808956388062
4.51175e-06;-0.0011556755222324805
4.51200e-06;-0.0011114958396716296
4.51225e-06;-0.0010688292536013399
4.51250e-06;-0.0010279838014961955
4.51275e-06;-0.0009892705450963968
4.51300e-06;-0.0009530005123231785
4.51325e-06;-0.0009194946493261217
4.51350e-06;-0.0008891688315036205
4.51375e-06;-0.000862550922852828
4.51400e-06;-0.0008400532467850576
4.51425e-06;-0.0008218331065219981
4.51450e-06;-0.0008079173244946295
4.51475e-06;-0.0007983146129938056
4.51500e-06;-0.0007930337220269877
4.51525e-06;-0.0007920896541120632
4.51550e-06;-0.0007955569070043632
4.51575e-06;-0.0008035800192621863
4.51600e-06;-0.0008162311208180739
4.51625e-06;-0.0008334226964829899
4.51650e-06;-0.0008561807229183326
4.51675e-06;-0.0008816005905159391
4.51700e-06;-0.0009115939436022768
4.51725e-06;-0.000944885611535034
4.51750e-06;-0.0009824231151418744
4.51775e-06;-0.0010230226384868829
4.51800e-06;-0.0010675215446470678
4.51825e-06;-0.0011148326150222123
4.51850e-06;-0.0011653960033696843
4.51875e-06;-0.0012183049044950562
4.51900e-06;-0.0012737721695030401
4.51925e-06;-0.0013310844801763366
4.51950e-06;-0.0013903177112319456
4.51975e-06;-0.001450936275252788
4.52000e-06;-0.001512826547343016
4.52025e-06;-0.0015756339522450613
4.52050e-06;-0.0016388757548213792
4.52075e-06;-0.001702430837127645
4.52100e-06;-0.0017655536523204394
4.52125e-06;-0.0018283647243049093
4.52150e-06;-0.0018899124075528366
4.52175e-06;-0.0019505489577409012
4.52200e-06;-0.0020097264457827435
4.52225e-06;-0.002065802017520825
4.52250e-06;-0.0021203994064737954
4.52275e-06;-0.0021703749439529836
4.52300e-06;-0.002217017285914605
4.52325e-06;-0.0022636596278760683
4.52350e-06;-0.0023061210204487065
4.52375e-06;-0.0023441653467262385
4.52400e-06;-0.0023796162586517183
4.52425e-06;-0.002413925949469909
4.52450e-06;-0.002445781978250401
4.52475e-06;-0.002475868470438676
4.52500e-06;-0.0025029677811097334
4.52525e-06;-0.002527912790609606
4.52550e-06;-0.0025505772207728584
4.52575e-06;-0.0025705309816821532
4.52600e-06;-0.002588475128223118
4.52625e-06;-0.0026055243849353164
4.52650e-06;-0.002620246167427762
4.52675e-06;-0.002633289417695466
4.52700e-06;-0.0026463326679631704
4.52725e-06;-0.0026567528484273133
4.52750e-06;-0.0026652813184890327
4.52775e-06;-0.002672305883172356
4.52800e-06;-0.0026782458585532733
4.52825e-06;-0.002683066579326487
4.52850e-06;-0.0026870801139617924
4.52875e-06;-0.002689881799140622
4.52900e-06;-0.0026918095204547542
4.52925e-06;-0.0026924843367439376
4.52950e-06;-0.002692255580636547
4.52975e-06;-0.002691226410036319
4.53000e-06;-0.0026896199950104237
4.53025e-06;-0.002687518681146936
4.53050e-06;-0.0026850604552112385
4.53075e-06;-0.0026821136883019114
4.53100e-06;-0.002678814594496658
4.53125e-06;-0.0026750659861807177
4.53150e-06;-0.0026709931961465885
4.53175e-06;-0.0026668186802888084
4.53200e-06;-0.0026625708016106654
4.53225e-06;-0.002658477202589277
4.53250e-06;-0.0026544948672602214
4.53275e-06;-0.0026508043623969294
4.53300e-06;-0.0026473243203764376
4.53325e-06;-0.002643844278355958
4.53350e-06;-0.0026409246752815527
4.53375e-06;-0.0026384092506177223
4.53400e-06;-0.0026358938259539006
4.53425e-06;-0.0026346093885068478
4.53450e-06;-0.0026342127167302597
4.53475e-06;-0.0026338160449536716
4.53500e-06;-0.002633419373177082
4.53525e-06;-0.0026330227014004937
4.53550e-06;-0.002632626029623905
4.53575e-06;-0.002632470684182452
4.53600e-06;-0.0026350534924225533
4.53625e-06;-0.0026376363006626546
4.53650e-06;-0.0026402191089027645
4.53675e-06;-0.0026428019171428657
4.53700e-06;-0.002645384725382967
4.53725e-06;-0.002647967533623077
4.53750e-06;-0.0026521967176199343
4.53775e-06;-0.002657613237973755
4.53800e-06;-0.0026630297583275938
4.53825e-06;-0.0026684462786814144
4.53850e-06;-0.0026738627990352533
4.53875e-06;-0.002679279319389074
4.53900e-06;-0.0026846958397428945
4.53925e-06;-0.0026901123600967334
4.53950e-06;-0.002695528880450554
4.53975e-06;-0.002701632080174979
4.54000e-06;-0.0027082305006161517
4.54025e-06;-0.0027148289210573023
4.54050e-06;-0.002721427341498453
4.54075e-06;-0.0027280257619396262
4.54100e-06;-0.002734624182380777
4.54125e-06;-0.0027412226028219275
4.54150e-06;-0.0027478210232631003
4.54175e-06;-0.002754419443704251
4.54200e-06;-0.0027603123257078093
4.54225e-06;-0.00276569638617737
4.54250e-06;-0.002771080446646912
4.54275e-06;-0.0027764645071164727
4.54300e-06;-0.002781848567586015
4.54325e-06;-0.0027870768098346983
4.54350e-06;-0.0027905370965278487
4.54375e-06;-0.002793997383220987
4.54400e-06;-0.0027974576699141256
4.54425e-06;-0.0028009179566072756
4.54450e-06;-0.0028043782433004143
4.54475e-06;-0.0028061988292108274
4.54500e-06;-0.002806836892634738
4.54525e-06;-0.0028074749560586467
4.54550e-06;-0.0028081130194825554
4.54575e-06;-0.0028087510829064664
4.54600e-06;-0.002809389146330375
4.54625e-06;-0.0028100272097542835
4.54650e-06;-0.0028106652731781944
4.54675e-06;-0.002811303336602103
4.54700e-06;-0.002811941400026014
4.54725e-06;-0.0028125794634499225
4.54750e-06;-0.0028132175268738313
4.54775e-06;-0.002813855590297742
4.54800e-06;-0.0028130332284324274
4.54825e-06;-0.0028111576343173993
4.54850e-06;-0.002809282040202365
4.54875e-06;-0.002807406446087337
4.54900e-06;-0.0028055308519723088
4.54925e-06;-0.0028036552578572745
4.54950e-06;-0.0028017796637422464
4.54975e-06;-0.0027999040696272187
4.55000e-06;-0.002798028475512184
4.55025e-06;-0.0027961528813971563
4.55050e-06;-0.002794277287282128
4.55075e-06;-0.002792401693167094
4.55100e-06;-0.002790526099052066
4.55125e-06;-0.0027883864256976988
4.55150e-06;-0.0027860563031821394
4.55175e-06;-0.0027837261806665805
4.55200e-06;-0.0027813960581510133
4.55225e-06;-0.002779065935635454
4.55250e-06;-0.002776836429699223
4.55275e-06;-0.002774732378633773
4.55300e-06;-0.002772726804403593
4.55325e-06;-0.0027707840847088655
4.55350e-06;-0.0027683504742020623
4.55375e-06;-0.0027640571951418513
4.55400e-06;-0.0027566303837288477
4.55425e-06;-0.002745679763557121
4.55450e-06;-0.002731336814529053
4.55475e-06;-0.0027138115498851895
4.55500e-06;-0.002693313982866032
4.55525e-06;-0.0026700239606768142
4.55550e-06;-0.0026437969680536987
4.55575e-06;-0.0026139779283846556
4.55600e-06;-0.0025799712213618667
4.55625e-06;-0.002541734620756997
4.55650e-06;-0.0024995528747313233
4.55675e-06;-0.0024537598247109647
4.55700e-06;-0.002403865638348944
4.55725e-06;-0.002352062799196429
4.55750e-06;-0.0022968439608914734
4.55775e-06;-0.002239161565909894
4.55800e-06;-0.0021786611491744633
4.55825e-06;-0.0021144365580371806
4.55850e-06;-0.0020475392532178158
4.55875e-06;-0.001978380841578042
4.55900e-06;-0.0019073727348649747
4.55925e-06;-0.001834914373103101
4.55950e-06;-0.0017612779274918835
4.55975e-06;-0.0016865354349663623
4.56000e-06;-0.0016107822210411989
4.56025e-06;-0.0015343306153287677
4.56050e-06;-0.001457621277349223
4.56075e-06;-0.0013811142128180955
4.56100e-06;-0.0013052692433979615
4.56125e-06;-0.00123053865314087
4.56150e-06;-0.0011572950952055815
4.56175e-06;-0.0010857857660165069
4.56200e-06;-0.001016272294597279
4.56225e-06;-0.0009491524127825826
4.56250e-06;-0.0008849041375471243
4.56275e-06;-0.0008240175286171236
4.56300e-06;-0.0007669825254057608
4.56325e-06;-0.0007142729492641814
4.56350e-06;-0.0006661707317723902
4.56375e-06;-0.0006225979405172468
4.56400e-06;-0.000583359718217763
4.56425e-06;-0.0005484441877794481
4.56450e-06;-0.0005179787893022827
4.56475e-06;-0.0004921145716662562
4.56500e-06;-0.00047100256684240476
4.56525e-06;-0.0004547836152608172
4.56550e-06;-0.00044347836410610803
4.56575e-06;-0.0004368820241010743
4.56600e-06;-0.0004347166102409216
4.56625e-06;-0.0004368187472364562
4.56650e-06;-0.00044311234758397545
4.56675e-06;-0.00045353612609655913
4.56700e-06;-0.0004680287440942769
4.56725e-06;-0.0004865225097476617
4.56750e-06;-0.0005088744100997303
4.56775e-06;-0.0005348002161722975
4.56800e-06;-0.0005639699463075853
4.56825e-06;-0.0005969100175213581
4.56850e-06;-0.0006316289664034313
4.56875e-06;-0.000669260527175727
4.56900e-06;-0.0007089926108541071
4.56925e-06;-0.0007511557489536683
4.56950e-06;-0.0007950721194405089
4.56975e-06;-0.0008406902500044057
4.57000e-06;-0.0008875356590922424
4.57025e-06;-0.0009353312644794177
4.57050e-06;-0.0009838121342161045
4.57075e-06;-0.001032594562852198
4.57100e-06;-0.0010815944703010858
4.57125e-06;-0.001130232486779597
4.57150e-06;-0.0011786095140490498
4.57175e-06;-0.0012258061091788152
4.57200e-06;-0.0012721513980442404
4.57225e-06;-0.0013165727905051232
4.57250e-06;-0.0013596067037488309
4.57275e-06;-0.0013981541154742707
4.57300e-06;-0.001430269215199556
4.57325e-06;-0.001469326157256247
4.57350e-06;-0.0014985720587866085
4.57375e-06;-0.0015273922646978568
4.57400e-06;-0.0015515916644242755
4.57425e-06;-0.0015727871886257608
4.57450e-06;-0.0015897630519999815
4.57475e-06;-0.0016031472248943996
4.57500e-06;-0.0016123561386073388
4.57525e-06;-0.001619557620663326
4.57550e-06;-0.001618723034657603
4.57575e-06;-0.0016136709519917463
4.57600e-06;-0.0016073193902405298
4.57625e-06;-0.0015967265038282661
4.57650e-06;-0.0015816397250795265
4.57675e-06;-0.0015627957812970191
4.57700e-06;-0.0015403834545715117
4.57725e-06;-0.0015145399699226228
4.57750e-06;-0.0014853369020826448
4.57775e-06;-0.0014528329105296487
4.57800e-06;-0.0014174101078691396
4.57825e-06;-0.001379244729916007
4.57850e-06;-0.0013384040206692288
4.57875e-06;-0.0012952095858703887
4.57900e-06;-0.0012499364949223259
4.57925e-06;-0.001202827916753925
4.57950e-06;-0.001154085627035758
4.57975e-06;-0.0011039032791370946
4.58000e-06;-0.0010526773080367824
4.58025e-06;-0.0010006749879382705
4.58050e-06;-0.0009480953166263376
4.58075e-06;-0.0008952967502636148
4.58100e-06;-0.0008426084854307045
4.58125e-06;-0.0007903396956756738
4.58150e-06;-0.0007387735875231579
4.58175e-06;-0.000688188403803383
4.58200e-06;-0.0006389891681651779
4.58225e-06;-0.000591500110415826
4.58250e-06;-0.0005460026626261222
4.58275e-06;-0.0005028780545144295
4.58300e-06;-0.00046248926231320264
4.58325e-06;-0.00042519414192204545
4.58350e-06;-0.00039150067217250074
4.58375e-06;-0.0003621287936971092
4.58400e-06;-0.0003377074651585289
4.58425e-06;-0.00031842829092459116
4.58450e-06;-0.0003042680281919572
4.58475e-06;-0.0002952378120252983
4.58500e-06;-0.000291337302357134
4.58525e-06;-0.00029256297923981034
4.58550e-06;-0.00029900538562738156
4.58575e-06;-0.0003108877294089502
4.58600e-06;-0.0003283762412038343
4.58625e-06;-0.0003513631620130911
4.58650e-06;-0.0003796062000672291
4.58675e-06;-0.00041288454441369205
4.58700e-06;-0.00045097025897672714
4.58725e-06;-0.0004936334058270401
4.58750e-06;-0.0005407029604358146
4.58775e-06;-0.0005920910495619088
4.58800e-06;-0.0006476740349130262
4.58825e-06;-0.0007084207294602303
4.58850e-06;-0.0007706049922481535
4.58875e-06;-0.0008373101063869422
4.58900e-06;-0.0009056078615931773
4.58925e-06;-0.0009773482845525593
4.58950e-06;-0.0010503015175824999
4.58975e-06;-0.0011257875361779899
4.59000e-06;-0.0012021658243911535
4.59025e-06;-0.0012799560366066431
4.59050e-06;-0.0013582436525130903
4.59075e-06;-0.0014365831362453557
4.59100e-06;-0.0015149408923834692
4.59125e-06;-0.0015920023833142427
4.59150e-06;-0.0016686072157436815
4.59175e-06;-0.0017426733225577866
4.59200e-06;-0.0018158450671465491
4.59225e-06;-0.0018851036102574409
4.59250e-06;-0.0019529835799774681
4.59275e-06;-0.0020137583462614857
4.59300e-06;-0.002072030035601958
4.59325e-06;-0.0021303017249426274
4.59350e-06;-0.002182102720075836
4.59375e-06;-0.0022297224913660923
4.59400e-06;-0.0022751671680405496
4.59425e-06;-0.002320081596185243
4.59450e-06;-0.0023624940581528303
4.59475e-06;-0.0024040251077992675
4.59500e-06;-0.0024420579846619974
4.59525e-06;-0.002478858497706122
4.59550e-06;-0.002512863399504185
4.59575e-06;-0.0025448421248376036
4.59600e-06;-0.00257540213034984
4.59625e-06;-0.002605591572487717
4.59650e-06;-0.0026357810146255944
4.59675e-06;-0.0026634462512695393
4.59700e-06;-0.0026902222409510216
4.59725e-06;-0.002716998230632504
4.59750e-06;-0.0027412837037979086
4.59775e-06;-0.0027646917982189377
4.59800e-06;-0.0027871895441441445
4.59825e-06;-0.002809366585341961
4.59850e-06;-0.0028315436265397777
4.59875e-06;-0.0028517745409994324
4.59900e-06;-0.002871319858626922
4.59925e-06;-0.0028908651762544115
4.59950e-06;-0.0029104104938819674
4.59975e-06;-0.002928023100100988
4.60000e-06;-0.002944954835545802
4.60025e-06;-0.002961886570990673
4.60050e-06;-0.002978818306435487
4.60075e-06;-0.002994014299078429
4.60100e-06;-0.0030085988105969567
4.60125e-06;-0.003023183322115435
4.60150e-06;-0.0030377678336339134
4.60175e-06;-0.0030505058505531754
4.60200e-06;-0.003062593369833788
4.60225e-06;-0.003074680889114441
4.60250e-06;-0.0030867684083950536
4.60275e-06;-0.003097804366692397
4.60300e-06;-0.0031079152959970976
4.60325e-06;-0.003117186574438375
4.60350e-06;-0.003124980371184639
4.60375e-06;-0.003129838463321673
4.60400e-06;-0.003130480091932094
4.60425e-06;-0.003126528469805655
4.60450e-06;-0.0031180926159915735
4.60475e-06;-0.003105359129565026
4.60500e-06;-0.0030885141126560716
4.60525e-06;-0.003067730106615904
4.60550e-06;-0.0030428514648458797
4.60575e-06;-0.0030132082617592127
4.60600e-06;-0.002978242129470349
4.60625e-06;-0.0029379611236625175
4.60650e-06;-0.002892677343488138
4.60675e-06;-0.002842751605999375
4.60700e-06;-0.0027885441706476184
4.60725e-06;-0.0027290152940557693
4.60750e-06;-0.0026679960867048596
4.60775e-06;-0.002601098898807169
4.60800e-06;-0.002532130969697004
4.60825e-06;-0.0024589011840140383
4.60850e-06;-0.002381763330863499
4.60875e-06;-0.0023017184208429567
4.60900e-06;-0.002219235961841133
4.60925e-06;-0.002134780175174707
4.60950e-06;-0.002048686569264727
4.60975e-06;-0.0019610884952231543
4.61000e-06;-0.0018721634383431214
4.61025e-06;-0.0017823109554379818
4.61050e-06;-0.0016920498493251937
4.61075e-06;-0.0016019181563987346
4.61100e-06;-0.0015124535481659575
4.61125e-06;-0.0014241902428356777
4.61150e-06;-0.0013375819333273928
4.61175e-06;-0.0012529556939949497
4.61200e-06;-0.001170666257277504
4.61225e-06;-0.0010912072502225628
4.61250e-06;-0.001015147145101132
4.61275e-06;-0.0009430661431607258
4.61300e-06;-0.0008755444862451219
4.61325e-06;-0.0008131426463605582
4.61350e-06;-0.0007559257017148798
4.61375e-06;-0.0007030971904162987
4.61400e-06;-0.0006538096459055421
4.61425e-06;-0.0006078811239071045
4.61450e-06;-0.0005655250649540623
4.61475e-06;-0.0005270201218356968
4.61500e-06;-0.0004926448637006799
4.61525e-06;-0.00046266543910305065
4.61550e-06;-0.0004370377244348608
4.61575e-06;-0.0004151779034038427
4.61600e-06;-0.0003964702843532533
4.61625e-06;-0.00038071607536876713
4.61650e-06;-0.0003679641913563996
4.61675e-06;-0.0003583043733655489
4.61700e-06;-0.00035182626999969574
4.61725e-06;-0.0003486117655837328
4.61750e-06;-0.00034854836984400195
4.61775e-06;-0.00035118554506186886
4.61800e-06;-0.00035605286170282003
4.61825e-06;-0.0003629410461703213
4.61850e-06;-0.00037179599656654756
4.61875e-06;-0.00038329247683893203
4.61900e-06;-0.00039553971794109105
4.61925e-06;-0.00041048818591200013
4.61950e-06;-0.000426388263326699
4.61975e-06;-0.0004441501589475101
4.62000e-06;-0.00046256795052742255
4.62025e-06;-0.00048206763823609974
4.62050e-06;-0.0005019484648210946
4.62075e-06;-0.0005225851412165703
4.62100e-06;-0.0005434880943272056
4.62125e-06;-0.0005647998993412699
4.62150e-06;-0.0005862557379191644
4.62175e-06;-0.0006073442618980572
4.62200e-06;-0.000628303385401474
4.62225e-06;-0.000647784813916822
4.62250e-06;-0.0006667456684210794
4.62275e-06;-0.0006857065229253368
4.62300e-06;-0.0007030336915694745
4.62325e-06;-0.0007188038038538425
4.62350e-06;-0.0007336031389637476
4.62375e-06;-0.0007484970319271854
4.62400e-06;-0.0007644724413238108
4.62425e-06;-0.0007822270932531258
4.62450e-06;-0.0008004880879463902
4.62475e-06;-0.0008204212712137164
4.62500e-06;-0.0008409435462220471
4.62525e-06;-0.0008614658212303083
4.62550e-06;-0.0008836005614862166
4.62575e-06;-0.0009063033536800341
4.62600e-06;-0.0009323036769772994
4.62625e-06;-0.0009594656804634063
4.62650e-06;-0.0009866276839496052
4.62675e-06;-0.0010169134792576528
4.62700e-06;-0.0010482997485141254
4.62725e-06;-0.0010796860177707042
4.62750e-06;-0.001113597209919023
4.62775e-06;-0.0011483979017595722
4.62800e-06;-0.0011831985936002394
4.62825e-06;-0.0012207768182749916
4.62850e-06;-0.0012593335340590958
4.62875e-06;-0.0012978902498430693
4.62900e-06;-0.0013378535234975478
4.62925e-06;-0.0013783123104198814
4.62950e-06;-0.0014187710973420779
4.62975e-06;-0.0014599803105510326
4.63000e-06;-0.0015014538898337352
4.63025e-06;-0.0015429274691162972
4.63050e-06;-0.0015844267168747684
4.63075e-06;-0.0016259350073259292
4.63100e-06;-0.0016665892219261981
4.63125e-06;-0.001706942555969373
4.63150e-06;-0.00174587380766427
4.63175e-06;-0.001784304077006186
4.63200e-06;-0.0018210177150103355
4.63225e-06;-0.0018571266046274839
4.63250e-06;-0.0018908398463486405
4.63275e-06;-0.0019237091303899777
4.63300e-06;-0.0019524743565707647
4.63325e-06;-0.001979793772974535
4.63350e-06;-0.0020071131893783984
4.63375e-06;-0.002028884886262059
4.63400e-06;-0.0020487021888864437
4.63425e-06;-0.0020685194915108954
4.63450e-06;-0.002082622294087487
4.63475e-06;-0.0020947119476489996
4.63500e-06;-0.0021068016012105533
4.63525e-06;-0.002112805889008579
4.63550e-06;-0.0021166663763007897
4.63575e-06;-0.002120526863593013
4.63600e-06;-0.002119590688961463
4.63625e-06;-0.002116964708547013
4.63650e-06;-0.0021107532624426804
4.63675e-06;-0.00210327870028946
4.63700e-06;-0.002092359770150129
4.63725e-06;-0.002080227430970613
4.63750e-06;-0.002065634533786141
4.63775e-06;-0.0020486805019680238
4.63800e-06;-0.002029834175808865
4.63825e-06;-0.0020092420432626145
4.63850e-06;-0.001987030161700269
4.63875e-06;-0.001963321283735962
4.63900e-06;-0.0019382380856864385
4.63925e-06;-0.0019119041859376243
4.63950e-06;-0.0018844636252363543
4.63975e-06;-0.0018561015153029784
4.64000e-06;-0.0018270184768720376
4.64025e-06;-0.0017973989844008741
4.64050e-06;-0.0017674151878496332
4.64075e-06;-0.0017372367953250466
4.64100e-06;-0.0017070335100388986
4.64125e-06;-0.0016769755820562758
4.64150e-06;-0.0016472460982971642
4.64175e-06;-0.0016180539535890035
4.64200e-06;-0.001589617544031562
4.64225e-06;-0.0015621452883886732
4.64250e-06;-0.0015358377125874797
4.64275e-06;-0.0015108940590035775
4.64300e-06;-0.0014875133724050731
4.64325e-06;-0.001465874031621902
