Time(s);Current(A)
1.17500e-05;-0.010753402426670463
1.17503e-05;-0.01078298197405426
1.17505e-05;-0.01081113824341194
1.17508e-05;-0.010837790765950641
1.17510e-05;-0.010862741972657998
1.17513e-05;-0.010885313300634494
1.17515e-05;-0.010904022957329704
1.17518e-05;-0.010917585542890062
1.17520e-05;-0.010923295118509821
1.17523e-05;-0.010927993640898774
1.17525e-05;-0.010923547706041212
1.17528e-05;-0.01091781774390091
1.17530e-05;-0.010903332050716275
1.17533e-05;-0.010887616913592161
1.17535e-05;-0.010859065645278186
1.17538e-05;-0.010828711979926318
1.17540e-05;-0.01079835831457445
1.17543e-05;-0.01074849761707614
1.17545e-05;-0.010695897821913462
1.17548e-05;-0.010643298026750785
1.17550e-05;-0.010590698231588463
1.17553e-05;-0.010538098436425785
1.17555e-05;-0.010465453435655985
1.17558e-05;-0.010389993769106338
1.17560e-05;-0.010314534102556177
1.17563e-05;-0.010239074436006019
1.17565e-05;-0.01016361476945637
1.17568e-05;-0.010075555636992837
1.17570e-05;-0.009985727339061177
1.17572e-05;-0.009897733510266347
1.17575e-05;-0.00982459392395306
1.17578e-05;-0.009751454337639772
1.17580e-05;-0.009703249047714487
1.17583e-05;-0.009562677015180075
1.17585e-05;-0.009471378137395353
1.17588e-05;-0.0093694624575803
1.17590e-05;-0.009265942006527764
1.17593e-05;-0.009176327390372536
1.17595e-05;-0.00908671277421731
1.17598e-05;-0.00899709815806269
1.17600e-05;-0.00892081989783407
1.17603e-05;-0.008847504134235427
1.17605e-05;-0.008774188370637282
1.17608e-05;-0.00868526820650426
1.17610e-05;-0.00863810070619639
1.17613e-05;-0.008590933205888841
1.17615e-05;-0.008543765705580974
1.17618e-05;-0.008496598205273105
1.17620e-05;-0.008449430704965556
1.17623e-05;-0.008402263204657687
1.17625e-05;-0.008368793886832484
1.17628e-05;-0.00836198604842887
1.17630e-05;-0.00835517821002521
1.17633e-05;-0.00834837037162155
1.17635e-05;-0.008341562533217937
1.17638e-05;-0.008334754694814277
1.17640e-05;-0.008327946856410617
1.17643e-05;-0.008342304625077897
1.17645e-05;-0.008371253009330396
1.17648e-05;-0.008400201393582893
1.17650e-05;-0.008429149777835194
1.17653e-05;-0.008458098162087691
1.17655e-05;-0.008489355237290323
1.17657e-05;-0.008543413940799202
1.17660e-05;-0.008597472644308445
1.17663e-05;-0.00865153134781769
1.17665e-05;-0.008705590051326567
1.17668e-05;-0.008759648754835812
1.17670e-05;-0.008821299942341812
1.17673e-05;-0.00888818504612383
1.17675e-05;-0.008955070149905396
1.17678e-05;-0.009024787592150918
1.17680e-05;-0.009096457520880452
1.17683e-05;-0.009168876375542666
1.17685e-05;-0.009241811505989815
1.17688e-05;-0.009314291547472792
1.17690e-05;-0.009386457871134107
1.17693e-05;-0.009457933705483229
1.17695e-05;-0.009528933547620327
1.17698e-05;-0.009598456211223363
1.17700e-05;-0.009664653706235243
1.17703e-05;-0.00972926095022018
1.17705e-05;-0.009788535852586502
1.17708e-05;-0.009844134878968472
1.17710e-05;-0.009899733905350441
1.17713e-05;-0.009950773772757432
1.17715e-05;-0.009998670761447332
1.17718e-05;-0.010046567750137231
1.17720e-05;-0.010093895808710514
1.17723e-05;-0.01014083167250341
1.17725e-05;-0.010187767536296306
1.17728e-05;-0.010232843535196467
1.17730e-05;-0.01027663742706347
1.17733e-05;-0.010320431318930472
1.17735e-05;-0.010364225210797176
1.17738e-05;-0.010408019102664178
1.17740e-05;-0.010451812994531181
1.17742e-05;-0.01049603643231093
1.17745e-05;-0.010540555979683987
1.17748e-05;-0.010585075527057043
1.17750e-05;-0.010629595074429798
1.17753e-05;-0.010674114621802854
1.17755e-05;-0.01071863416917591
1.17758e-05;-0.010764002977056823
1.17760e-05;-0.010809957226855764
1.17763e-05;-0.010855911476655015
1.17765e-05;-0.010901865726454267
1.17768e-05;-0.010947819976253206
1.17770e-05;-0.010993391852090605
1.17773e-05;-0.011038700136552103
1.17775e-05;-0.011084008421013293
1.17778e-05;-0.011129316705474792
1.17780e-05;-0.01117462498993629
1.17783e-05;-0.01121931257825613
1.17785e-05;-0.01126357228663087
1.17788e-05;-0.011306702404106214
1.17790e-05;-0.011349053832525277
1.17793e-05;-0.011390365254486999
1.17795e-05;-0.011430333478710385
1.17798e-05;-0.011469227733111449
1.17800e-05;-0.011506912956717083
1.17803e-05;-0.011543161409414944
1.17805e-05;-0.011577723989358598
1.17808e-05;-0.011610340552563218
1.17810e-05;-0.011640750291184311
1.17813e-05;-0.011668432435331607
1.17815e-05;-0.011692424939470206
1.17818e-05;-0.011711882044247859
1.17820e-05;-0.011726517649733249
1.17823e-05;-0.011736362996575472
1.17825e-05;-0.011741491391794215
1.17827e-05;-0.011741968616781931
1.17830e-05;-0.011736447633283204
1.17833e-05;-0.011728092738466301
1.17835e-05;-0.011713608889611635
1.17838e-05;-0.01169490001607141
1.17840e-05;-0.011668617627884952
1.17843e-05;-0.011637114400035151
1.17845e-05;-0.011605611172185563
1.17848e-05;-0.011563806413457594
1.17850e-05;-0.011514900243625842
1.17853e-05;-0.01146599407379442
1.17855e-05;-0.011417087903962668
1.17858e-05;-0.011368181734130916
1.17860e-05;-0.011309040445354378
1.17863e-05;-0.011242843526866829
1.17865e-05;-0.01117664660837928
1.17868e-05;-0.01111044968989218
1.17870e-05;-0.01104425277140463
1.17873e-05;-0.010973235052244531
1.17875e-05;-0.010898894090371503
1.17878e-05;-0.010824553128497972
1.17880e-05;-0.010748824572532924
1.17883e-05;-0.010672139471739606
1.17885e-05;-0.010595454370945768
1.17888e-05;-0.010519461964619935
1.17890e-05;-0.010443947070641613
1.17893e-05;-0.010370205672964846
1.17895e-05;-0.01029768684370855
1.17898e-05;-0.010227891105837253
1.17900e-05;-0.01015997254443827
1.17903e-05;-0.010097224337609218
1.17905e-05;-0.010038040340197098
1.17908e-05;-0.009978856342784575
1.17910e-05;-0.009927914297775143
1.17912e-05;-0.009882653883294287
1.17915e-05;-0.009837393468813124
1.17918e-05;-0.009800187384755436
1.17920e-05;-0.00976853359308962
1.17923e-05;-0.00973687980142359
1.17925e-05;-0.009713772457380868
1.17928e-05;-0.009696556649148204
1.17930e-05;-0.009679340840915656
1.17933e-05;-0.009674065682364098
1.17935e-05;-0.009677021869547308
1.17938e-05;-0.0096799780567305
1.17940e-05;-0.00968293424391371
1.17943e-05;-0.00968589043109692
1.17945e-05;-0.009690912204726888
1.17948e-05;-0.009716334601711918
1.17950e-05;-0.009741756998696947
1.17953e-05;-0.009767179395681806
1.17955e-05;-0.009792601792666835
1.17958e-05;-0.009818024189651865
1.17960e-05;-0.0098529407232193
1.17963e-05;-0.00989440208665409
1.17965e-05;-0.009935863450088882
1.17968e-05;-0.009977324813523394
1.17970e-05;-0.010018786176958184
1.17973e-05;-0.0100655309826866
1.17975e-05;-0.010115917955411651
1.17978e-05;-0.010166304928137042
1.17980e-05;-0.010216691900862433
1.17983e-05;-0.010267078873587484
1.17985e-05;-0.010318692408924659
1.17988e-05;-0.010371151481246312
1.17990e-05;-0.010423483481482566
1.17993e-05;-0.01047539270031647
1.17995e-05;-0.010526495313076726
1.17997e-05;-0.01057639628889791
1.18000e-05;-0.010624740172344254
1.18003e-05;-0.010671200716689038
1.18005e-05;-0.010715456615643725
1.18008e-05;-0.01075718656292068
1.18010e-05;-0.010796040033921124
1.18013e-05;-0.010831377333290731
1.18015e-05;-0.010862143421768491
1.18018e-05;-0.01088744398229711
1.18020e-05;-0.010906975754743316
1.18023e-05;-0.010920759050187053
1.18025e-05;-0.010927207884170542
1.18028e-05;-0.010930210002489825
1.18030e-05;-0.010926557788477355
1.18033e-05;-0.010918318377659731
1.18035e-05;-0.010900874464069092
1.18038e-05;-0.010877085381104937
1.18040e-05;-0.010853296298140623
1.18043e-05;-0.010816002034406243
1.18045e-05;-0.010769397907714742
1.18048e-05;-0.010722793781022923
1.18050e-05;-0.010676189654331106
1.18053e-05;-0.010629585527639603
1.18055e-05;-0.010569072051929512
1.18058e-05;-0.010498970097886601
1.18060e-05;-0.010428868143844165
1.18063e-05;-0.010358766189801253
1.18065e-05;-0.010288664235758341
1.18068e-05;-0.010210857688954127
1.18070e-05;-0.010127739943137419
1.18073e-05;-0.010044622197320711
1.18075e-05;-0.00995827169355825
1.18078e-05;-0.009869692672163997
1.18080e-05;-0.009781113650769745
1.18082e-05;-0.00969179535099854
1.18085e-05;-0.009601967426031728
1.18088e-05;-0.009512139501064916
1.18090e-05;-0.009423867313295899
1.18093e-05;-0.009336667580634651
1.18095e-05;-0.009252040988784129
1.18098e-05;-0.0091691882042399
1.18100e-05;-0.00909019747388998
1.18103e-05;-0.00901386906964222
1.18105e-05;-0.008944490396679564
1.18108e-05;-0.008879902555248701
1.18110e-05;-0.008815314713817402
1.18113e-05;-0.008760746363874104
1.18115e-05;-0.008713084999795905
1.18118e-05;-0.008665423635717383
1.18120e-05;-0.008627672240404153
1.18123e-05;-0.008596752330927129
1.18125e-05;-0.008565832421449895
1.18128e-05;-0.008550793398630257
1.18130e-05;-0.00854670194333956
1.18133e-05;-0.008542610488048835
1.18135e-05;-0.008538519032758112
1.18138e-05;-0.008534427577467415
1.18140e-05;-0.00853033612217669
1.18143e-05;-0.00854516921940657
1.18145e-05;-0.008573048050236698
1.18148e-05;-0.008600926881067018
1.18150e-05;-0.008628805711897338
1.18153e-05;-0.008656684542727467
1.18155e-05;-0.008684563373557786
1.18158e-05;-0.008725855797698509
1.18160e-05;-0.00877639494853225
1.18163e-05;-0.008826934099366333
1.18165e-05;-0.008877473250200416
1.18167e-05;-0.008928012401034158
1.18170e-05;-0.008986046875373374
1.18173e-05;-0.00904924828793193
1.18175e-05;-0.009112449700490058
1.18178e-05;-0.009175651113048614
1.18180e-05;-0.00923885252560717
1.18183e-05;-0.009304270395075996
1.18185e-05;-0.009371216190045339
1.18188e-05;-0.00943813166412717
1.18190e-05;-0.009505026236355364
1.18193e-05;-0.009571335615445386
1.18195e-05;-0.009636477502383913
1.18198e-05;-0.009700046867620389
1.18200e-05;-0.00976082191147485
1.18203e-05;-0.009820167648574497
1.18205e-05;-0.009874842315061017
1.18208e-05;-0.009926296955985599
1.18210e-05;-0.00997775159691053
1.18213e-05;-0.010024609039931243
1.18215e-05;-0.010068297381906158
1.18218e-05;-0.01011198572388137
1.18220e-05;-0.010153285373580755
1.18223e-05;-0.010192938366480086
1.18225e-05;-0.010232591359379688
1.18228e-05;-0.010272244352279289
1.18230e-05;-0.010311897345178622
1.18233e-05;-0.010351550338078223
1.18235e-05;-0.010390883571229434
1.18238e-05;-0.010427058719074383
1.18240e-05;-0.010463233866919577
1.18243e-05;-0.010499409014764772
1.18245e-05;-0.010535584162609721
1.18248e-05;-0.010571759310454917
1.18250e-05;-0.010607934458300113
1.18252e-05;-0.010643441320666813
1.18255e-05;-0.010678487497143726
1.18258e-05;-0.010713533673620637
1.18260e-05;-0.010748579850097311
1.18263e-05;-0.010783626026574223
1.18265e-05;-0.010818581173144251
1.18268e-05;-0.010852637269058659
1.18270e-05;-0.010886693364972836
1.18273e-05;-0.010920749460887242
1.18275e-05;-0.01095480555680165
1.18278e-05;-0.010988861652715827
1.18280e-05;-0.011022292887752388
1.18283e-05;-0.011055293371861313
1.18285e-05;-0.011087618527101802
1.18288e-05;-0.011119478141056823
1.18290e-05;-0.011150288100999536
1.18293e-05;-0.011180374476772286
1.18295e-05;-0.01120948727639728
1.18298e-05;-0.011237928936503463
1.18300e-05;-0.01126415860513945
1.18303e-05;-0.011288863426547245
1.18305e-05;-0.01131356824795504
1.18308e-05;-0.011338273069362668
1.18310e-05;-0.011362977890770462
1.18313e-05;-0.011385066148181423
1.18315e-05;-0.011405350664297268
1.18318e-05;-0.011425635180413252
1.18320e-05;-0.011445481421876008
1.18323e-05;-0.01146502553654504
1.18325e-05;-0.011484569651214204
1.18328e-05;-0.011503219759095976
1.18330e-05;-0.01152125357898985
1.18333e-05;-0.011539287398883845
1.18335e-05;-0.011557053917180118
1.18337e-05;-0.01157463616980165
1.18340e-05;-0.0115922184224233
1.18343e-05;-0.01160980067504495
1.18345e-05;-0.011627382927666482
1.18348e-05;-0.0116447401441706
1.18350e-05;-0.011661942230917292
1.18352e-05;-0.011679144317663868
1.18355e-05;-0.01169634640441056
1.18358e-05;-0.011713548491157253
1.18360e-05;-0.0117308024358105
1.18363e-05;-0.011748092128967262
1.18365e-05;-0.01176538182212414
1.18368e-05;-0.011782493081449465
1.18370e-05;-0.011799481336532911
1.18373e-05;-0.011816278845666781
1.18375e-05;-0.011832898554874282
1.18378e-05;-0.01184947311031772
1.18380e-05;-0.01186599168539829
1.18383e-05;-0.011882385341083648
1.18385e-05;-0.01189857622631112
1.18388e-05;-0.011914485558695785
1.18390e-05;-0.011930038586129666
1.18393e-05;-0.011945200533128836
1.18395e-05;-0.011960002330555403
1.18398e-05;-0.01197447508728787
1.18400e-05;-0.011988589012565344
1.18403e-05;-0.01200227716373274
1.18405e-05;-0.012015468000206883
1.18408e-05;-0.012028088536316532
1.18410e-05;-0.012039863045817641
1.18413e-05;-0.0120512233185828
1.18415e-05;-0.012061786703283547
1.18418e-05;-0.0120718007492671
1.18420e-05;-0.012081023144430603
1.18422e-05;-0.012089699811196949
1.18425e-05;-0.012097536865011456
1.18428e-05;-0.012104795127496721
1.18430e-05;-0.012111174635520146
1.18433e-05;-0.012116948369821474
1.18435e-05;-0.012121695696124821
1.18437e-05;-0.012125735463012618
1.18440e-05;-0.012129775229900441
1.18443e-05;-0.012132494154591975
1.18445e-05;-0.012134302550201242
1.18448e-05;-0.012136110945810494
1.18450e-05;-0.012137919341419761
1.18453e-05;-0.012138404230269833
1.18455e-05;-0.012137976753208086
1.18458e-05;-0.012137549276146336
1.18460e-05;-0.012137121799084587
1.18463e-05;-0.012135806195650236
1.18465e-05;-0.012133878357920782
1.18468e-05;-0.012131950520191328
1.18470e-05;-0.012129535343099148
1.18473e-05;-0.012126784216213734
1.18475e-05;-0.012123818086668289
1.18478e-05;-0.012120603409404114
1.18480e-05;-0.012117245142008317
1.18483e-05;-0.012113788159219669
1.18485e-05;-0.012110276441977734
1.18488e-05;-0.012106753382409768
1.18490e-05;-0.012103263303965675
1.18493e-05;-0.012099854217862287
1.18495e-05;-0.01209658192840731
1.18498e-05;-0.012093504386378923
1.18500e-05;-0.012090771570273542
1.18503e-05;-0.012088215089806223
1.18505e-05;-0.012085975049151347
1.18507e-05;-0.012084205638145174
1.18510e-05;-0.012082877657677705
1.18513e-05;-0.012081864097729832
1.18515e-05;-0.012080777044229754
1.18518e-05;-0.012079245624852802
1.18520e-05;-0.01207716181861901
1.18522e-05;-0.012074574877854813
1.18525e-05;-0.012071558377043568
1.18528e-05;-0.012068184788090946
1.18530e-05;-0.012064518656079855
1.18533e-05;-0.012060520353658172
1.18535e-05;-0.012055987025721231
1.18538e-05;-0.012050727631809628
1.18540e-05;-0.012044524674940382
1.18543e-05;-0.012037891329902684
1.18545e-05;-0.012030410535735666
1.18548e-05;-0.012022345548331715
1.18550e-05;-0.01201428056092771
1.18553e-05;-0.012006057309282512
1.18555e-05;-0.011996270971668518
1.18558e-05;-0.011986484634054459
1.18560e-05;-0.0119766982964404
1.18563e-05;-0.01196607179458578
1.18565e-05;-0.011954866121368007
1.18568e-05;-0.011943660448150234
1.18570e-05;-0.01193216893165251
1.18573e-05;-0.011920480367679799
1.18575e-05;-0.011908611807890447
1.18578e-05;-0.011896619167097205
1.18580e-05;-0.011884551826661753
1.18583e-05;-0.01187243299165957
1.18585e-05;-0.011860472100919233
1.18588e-05;-0.011848620089834677
1.18590e-05;-0.011837146262916163
1.18592e-05;-0.011825933139117869
1.18595e-05;-0.011815072288908563
1.18598e-05;-0.011804720552760441
1.18600e-05;-0.011795066449763783
1.18603e-05;-0.01178576672819496
1.18605e-05;-0.011777102918339723
1.18607e-05;-0.011769383560545054
1.18610e-05;-0.011762540105850955
1.18613e-05;-0.01175620384977231
1.18615e-05;-0.011749317915488043
1.18618e-05;-0.0117408832063698
1.18620e-05;-0.011730607009857936
1.18623e-05;-0.011718613987484198
1.18625e-05;-0.011705092266408751
1.18628e-05;-0.011690229422502616
1.18630e-05;-0.011673774376950332
1.18633e-05;-0.011656577505610173
1.18635e-05;-0.011636981976388938
1.18638e-05;-0.011615732920526511
1.18640e-05;-0.01159118734097419
1.18643e-05;-0.011564369286556419
1.18645e-05;-0.01153755123213865
1.18648e-05;-0.011506789624658606
1.18650e-05;-0.011473309509423754
1.18653e-05;-0.011439829394188902
1.18655e-05;-0.011406349278954276
1.18658e-05;-0.011372869163719424
1.18660e-05;-0.011335171027069223
1.18663e-05;-0.011294565176551748
1.18665e-05;-0.011253959326034
1.18668e-05;-0.01121335347551625
1.18670e-05;-0.011172747624998775
1.18673e-05;-0.011130501065293624
1.18675e-05;-0.011087123474617475
1.18678e-05;-0.01104374588394162
1.18680e-05;-0.011000003156269445
1.18683e-05;-0.010956008719608041
1.18685e-05;-0.010912014282946938
1.18688e-05;-0.010868820960897595
1.18690e-05;-0.010826179891157538
1.18692e-05;-0.010784816157733485
1.18695e-05;-0.010744332962398812
1.18698e-05;-0.010705472761502407
1.18700e-05;-0.010667731379827402
1.18703e-05;-0.010637221558942225
1.18705e-05;-0.010611696850156716
1.18708e-05;-0.010586172141371208
1.18710e-05;-0.010560647432585871
1.18713e-05;-0.010535122723800363
1.18715e-05;-0.010509598015014854
1.18718e-05;-0.010484073306229517
1.18720e-05;-0.010458548597444009
1.18723e-05;-0.0104330238886585
1.18725e-05;-0.010408983241111594
1.18728e-05;-0.010399599823053494
1.18730e-05;-0.010390216404995394
1.18733e-05;-0.010380832986937356
1.18735e-05;-0.010371449568879256
1.18738e-05;-0.010362066150821154
1.18740e-05;-0.010352682732763116
1.18743e-05;-0.010343299314705016
1.18745e-05;-0.010333915896646916
1.18748e-05;-0.010324532478588878
1.18750e-05;-0.010321530954600299
1.18753e-05;-0.01032292882076782
1.18755e-05;-0.010324326686935332
1.18758e-05;-0.010325724553102853
1.18760e-05;-0.010327122419270375
1.18763e-05;-0.010328520285437886
1.18765e-05;-0.010329918151605407
1.18768e-05;-0.010331316017772929
1.18770e-05;-0.01033271388394044
1.18773e-05;-0.0103346009179637
1.18775e-05;-0.01034131918491512
1.18777e-05;-0.010348037451866495
1.18780e-05;-0.010354755718817915
1.18783e-05;-0.010361473985769334
1.18785e-05;-0.010368192252720754
1.18788e-05;-0.01037491051967213
1.18790e-05;-0.010381628786623548
1.18793e-05;-0.010388347053574968
1.18795e-05;-0.010395065320526344
1.18798e-05;-0.010402132506909178
1.18800e-05;-0.010409440222623155
1.18803e-05;-0.010416747938337084
1.18805e-05;-0.010424055654051061
1.18808e-05;-0.010431363369765039
1.18810e-05;-0.010438842867091366
1.18813e-05;-0.010446440782919595
1.18815e-05;-0.010454038698747822
1.18818e-05;-0.010461636614576
1.18820e-05;-0.010469234530404227
1.18823e-05;-0.010478733349631366
1.18825e-05;-0.010489542565993073
1.18828e-05;-0.010500351782354853
1.18830e-05;-0.010511160998716632
1.18833e-05;-0.010521970215078337
1.18835e-05;-0.010532779431440117
1.18838e-05;-0.010543986842415833
1.18840e-05;-0.010559126995310263
1.18843e-05;-0.010574267148204797
1.18845e-05;-0.01058940730109933
1.18848e-05;-0.010604547453993762
1.18850e-05;-0.010619687606888296
1.18853e-05;-0.010634827759782828
1.18855e-05;-0.01065205184629453
1.18858e-05;-0.010670712502725034
1.18860e-05;-0.01068937315915554
1.18862e-05;-0.010708033815585917
1.18865e-05;-0.010726694472016421
1.18868e-05;-0.010745515563402551
1.18870e-05;-0.01076592117967513
1.18873e-05;-0.01078632679594757
1.18875e-05;-0.01080673241222015
1.18878e-05;-0.01082713802849273
1.18880e-05;-0.010847543644765171
1.18883e-05;-0.010868112242075055
1.18885e-05;-0.010888793191166967
1.18888e-05;-0.010909234605244043
1.18890e-05;-0.010929510894677284
1.18893e-05;-0.010949368204568138
1.18895e-05;-0.010968936688844539
1.18898e-05;-0.010987959397138232
1.18900e-05;-0.011006605872065896
1.18903e-05;-0.011024704090210677
1.18905e-05;-0.011041977820851931
1.18908e-05;-0.011058434884565262
1.18910e-05;-0.011074005875676285
1.18913e-05;-0.011089009941356849
1.18915e-05;-0.011104382004255472
1.18918e-05;-0.011121007014319364
1.18920e-05;-0.011139144166095863
1.18923e-05;-0.011158680241387704
1.18925e-05;-0.01117944553070763
1.18928e-05;-0.011201269810803301
1.18930e-05;-0.011224005975031199
1.18933e-05;-0.011247748564090299
1.18935e-05;-0.011272977611179213
1.18938e-05;-0.011300144014078783
1.18940e-05;-0.011329817159069226
1.18943e-05;-0.011360636485708401
1.18945e-05;-0.011395551888662953
1.18947e-05;-0.011433290942031264
1.18950e-05;-0.011471029995399833
1.18953e-05;-0.011508769048768401
1.18955e-05;-0.01154650810213697
1.18958e-05;-0.011584247155505283
1.18960e-05;-0.011621986208873851
1.18963e-05;-0.01165972526224242
1.18965e-05;-0.011701100249481223
1.18968e-05;-0.01174498168567024
1.18970e-05;-0.011788863121859254
1.18973e-05;-0.011833539149074751
1.18975e-05;-0.011878762931534646
