Time(s);Current(A)
8.50000e-06;-0.007790855014771646
8.50025e-06;-0.0077971738832199825
8.50050e-06;-0.007803492751668319
8.50075e-06;-0.007806673068088903
8.50100e-06;-0.007809816902659949
8.50125e-06;-0.007812960737230996
8.50150e-06;-0.00781610457180202
8.50175e-06;-0.007819248406373066
8.50200e-06;-0.007822392240944113
8.50225e-06;-0.007825536075515139
8.50250e-06;-0.007826453607928842
8.50275e-06;-0.007825040108613259
8.50300e-06;-0.007823626609297685
8.50325e-06;-0.007822213109982103
8.50350e-06;-0.007820799610666522
8.50375e-06;-0.007819386111350949
8.50400e-06;-0.007817972612035366
8.50425e-06;-0.007816559112719784
8.50450e-06;-0.007811449861807742
8.50475e-06;-0.007806297652278922
8.50500e-06;-0.007801145442750067
8.50525e-06;-0.0077959932332212125
8.50550e-06;-0.007790841023692392
8.50575e-06;-0.007785688814163538
8.50600e-06;-0.007780536604634682
8.50625e-06;-0.00777322527472436
8.50650e-06;-0.0077658888476658675
8.50675e-06;-0.0077585524206073755
8.50700e-06;-0.007751215993548933
8.50725e-06;-0.00774387956649044
8.50750e-06;-0.007736543139431948
8.50775e-06;-0.007729206712373505
8.50800e-06;-0.00772133426442398
8.50825e-06;-0.007713455585883591
8.50850e-06;-0.007705576907343256
8.50875e-06;-0.007697877749989484
8.50900e-06;-0.007690180679351145
8.50925e-06;-0.007682483608712858
8.50950e-06;-0.00767538448171917
8.50975e-06;-0.007668292305093045
8.51000e-06;-0.007661200128466967
8.51025e-06;-0.007655090868696783
8.51050e-06;-0.007648993034139488
8.51075e-06;-0.007642895199582235
8.51100e-06;-0.007638075954809596
8.51125e-06;-0.007633271572088013
8.51150e-06;-0.0076284671893664625
8.51175e-06;-0.007626019619527135
8.51200e-06;-0.007623599444770909
8.51225e-06;-0.007621179270014701
8.51250e-06;-0.007618759095258476
8.51275e-06;-0.007616338920502251
8.51300e-06;-0.007613918745746026
8.51325e-06;-0.007611498570989817
8.51350e-06;-0.007612281698637785
8.51375e-06;-0.00761310206077994
8.51400e-06;-0.007613922422922091
8.51425e-06;-0.007614742785064246
8.51450e-06;-0.007615563147206402
8.51475e-06;-0.007616383509348552
8.51500e-06;-0.007617203871490708
8.51525e-06;-0.007620577363563669
8.51550e-06;-0.007623980532666612
8.51575e-06;-0.007627383701769579
8.51600e-06;-0.007630786870872546
8.51625e-06;-0.00763419003997549
8.51650e-06;-0.007637593209078457
8.51675e-06;-0.007640996378181423
8.51700e-06;-0.007644399547284367
8.51725e-06;-0.007648816148009043
8.51750e-06;-0.007653244528643678
8.51775e-06;-0.007657672909278284
8.51800e-06;-0.007662101289912919
8.51825e-06;-0.007666529670547555
8.51850e-06;-0.007670958051182161
8.51875e-06;-0.007675386431816797
8.51900e-06;-0.007679814812451433
8.51925e-06;-0.007683622981909624
8.51950e-06;-0.0076874239421672735
8.51975e-06;-0.007691224902424923
8.52000e-06;-0.007695025862682546
8.52025e-06;-0.007697747509344585
8.52050e-06;-0.00770045661029882
8.52075e-06;-0.007703165711253036
8.52100e-06;-0.007705874812207271
8.52125e-06;-0.007709056134436647
8.52150e-06;-0.007712242945663999
8.52175e-06;-0.0077154297568913285
8.52200e-06;-0.00771861656811868
8.52225e-06;-0.007721803379346031
8.52250e-06;-0.007724990190573361
8.52275e-06;-0.0077281770018007125
8.52300e-06;-0.007731363813028064
8.52325e-06;-0.0077362054988860856
8.52350e-06;-0.007741066420648969
8.52375e-06;-0.007745927342411853
8.52400e-06;-0.007750788264174704
8.52425e-06;-0.007755649185937587
8.52450e-06;-0.007760510107700471
8.52475e-06;-0.007765371029463322
8.52500e-06;-0.007770231951226205
8.52525e-06;-0.007776720890519162
8.52550e-06;-0.007783228753535807
8.52575e-06;-0.007789736616552497
8.52600e-06;-0.007796244479569186
8.52625e-06;-0.007802752342585832
8.52650e-06;-0.007809260205602521
8.52675e-06;-0.00781576806861921
8.52700e-06;-0.007822275931635857
8.52725e-06;-0.0078288044551973
8.52750e-06;-0.007835354611215612
8.52775e-06;-0.00784190476723388
8.52800e-06;-0.007848454923252195
8.52825e-06;-0.007855005079270509
8.52850e-06;-0.007861555235288777
8.52875e-06;-0.00786810539130709
8.52900e-06;-0.007874655547325403
8.52925e-06;-0.007881205703343672
8.52950e-06;-0.007885862195153047
8.52975e-06;-0.007890496675419058
8.53000e-06;-0.007895131155685067
8.53025e-06;-0.007899765635951045
8.53050e-06;-0.007904400116217056
8.53075e-06;-0.007909034596483067
8.53100e-06;-0.007913669076749045
8.53125e-06;-0.007918303557015054
8.53150e-06;-0.007923527183954863
8.53175e-06;-0.00792936767217128
8.53200e-06;-0.007935208160387737
8.53225e-06;-0.007941048648604192
8.53250e-06;-0.007946889136820609
8.53275e-06;-0.007952729625037066
8.53300e-06;-0.007958570113253521
8.53325e-06;-0.007964410601469938
8.53350e-06;-0.007970251089686395
8.53375e-06;-0.007979792083592879
8.53400e-06;-0.007989376091377539
8.53425e-06;-0.007998960099162263
8.53450e-06;-0.008008544106946987
8.53475e-06;-0.008018128114731645
8.53500e-06;-0.00802771212251637
8.53525e-06;-0.008037296130301094
8.53550e-06;-0.008046880138085754
8.53575e-06;-0.008058868118683062
8.53600e-06;-0.00807088404254075
8.53625e-06;-0.008082899966398358
8.53650e-06;-0.008094915890256047
8.53675e-06;-0.008106931814113736
8.53700e-06;-0.008118947737971343
8.53725e-06;-0.008130963661829032
8.53750e-06;-0.008142979585686721
8.53775e-06;-0.008154703902693827
8.53800e-06;-0.008166424830126006
8.53825e-06;-0.008178145757558186
8.53850e-06;-0.008189866684990365
8.53875e-06;-0.008201587612422467
8.53900e-06;-0.008213308539854646
8.53925e-06;-0.008225029467286826
8.53950e-06;-0.008236750394718925
8.53975e-06;-0.008244005387402059
8.54000e-06;-0.008251208469024779
8.54025e-06;-0.00825841155064745
8.54050e-06;-0.00826561463227017
8.54075e-06;-0.00827281771389289
8.54100e-06;-0.00828002079551556
8.54125e-06;-0.00828722387713828
8.54150e-06;-0.008294426958761
8.54175e-06;-0.008293536758406541
8.54200e-06;-0.008292552483491254
8.54225e-06;-0.008291568208575966
8.54250e-06;-0.008290583933660686
8.54275e-06;-0.008289599658745398
8.54300e-06;-0.008288615383830111
8.54325e-06;-0.008287631108914829
8.54350e-06;-0.008278627168860679
8.54375e-06;-0.008269530009951818
8.54400e-06;-0.008260432851043017
8.54425e-06;-0.008251335692134156
8.54450e-06;-0.008242238533225294
8.54475e-06;-0.008233141374316496
8.54500e-06;-0.008224044215407633
8.54525e-06;-0.008209062904375982
8.54550e-06;-0.008194013197231585
8.54575e-06;-0.008178963490087086
8.54600e-06;-0.008163913782942588
8.54625e-06;-0.008148864075798191
8.54650e-06;-0.008133814368653692
8.54675e-06;-0.008115918560236031
8.54700e-06;-0.008097989669352108
8.54725e-06;-0.008080060778468307
8.54750e-06;-0.008062131887584385
8.54775e-06;-0.008044202996700462
8.54800e-06;-0.008026274105816661
8.54825e-06;-0.008008108922088888
8.54850e-06;-0.007989940991744146
8.54875e-06;-0.00797177306139953
8.54900e-06;-0.007954340861045867
8.54925e-06;-0.007936917212658674
8.54950e-06;-0.00792054169181467
8.54975e-06;-0.007904178354178676
8.55000e-06;-0.007888872810611184
8.55025e-06;-0.007874429296229906
8.55050e-06;-0.0078609540259183
8.55075e-06;-0.007848706957039807
8.55100e-06;-0.007838270167509364
8.55125e-06;-0.007831483345667719
8.55150e-06;-0.00782473870758233
8.55175e-06;-0.007822945632070859
8.55200e-06;-0.007821210112453058
8.55225e-06;-0.007824212571228227
8.55250e-06;-0.007827270103240679
8.55275e-06;-0.00783651421152843
8.55300e-06;-0.007845830231242329
8.55325e-06;-0.007855146250956166
8.55350e-06;-0.007875588818057968
8.55375e-06;-0.007896160717742962
8.55400e-06;-0.007916732617427815
8.55425e-06;-0.007937304517112807
8.55450e-06;-0.0079578764167978
8.55475e-06;-0.0079842790861779
8.55500e-06;-0.008016786815979164
8.55525e-06;-0.008049294545780428
8.55550e-06;-0.008081802275581694
8.55575e-06;-0.008114310005382737
8.55600e-06;-0.008146817735184003
8.55625e-06;-0.0081871136994364
8.55650e-06;-0.008227500192443468
8.55675e-06;-0.008267886685450811
8.55700e-06;-0.008308273178458152
8.55725e-06;-0.008348659671465222
8.55750e-06;-0.008389046164472563
8.55775e-06;-0.008430739939966599
8.55800e-06;-0.008472448911029612
8.55825e-06;-0.008514157882092907
8.55850e-06;-0.008555866853156204
8.55875e-06;-0.008597575824219217
8.55900e-06;-0.008639284795282512
8.55925e-06;-0.008676863551559855
8.55950e-06;-0.008714394299112313
8.55975e-06;-0.008751925046665027
8.56000e-06;-0.008776510150138347
8.56025e-06;-0.00880094477624063
8.56050e-06;-0.008825379402343077
8.56075e-06;-0.008849814028445525
8.56100e-06;-0.008874248654547808
8.56125e-06;-0.008898683280650254
8.56150e-06;-0.008923117906752702
8.56175e-06;-0.008947552532854983
8.56200e-06;-0.008971987158957431
8.56225e-06;-0.00899642178505988
8.56250e-06;-0.00902085641116216
8.56275e-06;-0.009045291037264609
8.56300e-06;-0.009064502502095083
8.56325e-06;-0.009078245098006017
8.56350e-06;-0.009091987693917043
8.56375e-06;-0.009105730289828069
8.56400e-06;-0.009119472885739095
8.56425e-06;-0.009133215481650027
8.56450e-06;-0.009146958077561053
8.56475e-06;-0.00916070067347208
8.56500e-06;-0.009174443269383012
8.56525e-06;-0.009188185865294038
8.56550e-06;-0.009201928461205064
8.56575e-06;-0.009215671057115998
8.56600e-06;-0.009229413653027024
8.56625e-06;-0.009238811191788767
8.56650e-06;-0.009248158224544317
8.56675e-06;-0.00925750525729993
8.56700e-06;-0.009266852290055545
8.56725e-06;-0.009276199322811094
8.56750e-06;-0.009285546355566707
8.56775e-06;-0.00929489338832232
8.56800e-06;-0.00930424042107787
8.56825e-06;-0.009313587453833483
8.56850e-06;-0.009322934486589097
8.56875e-06;-0.00932867599742186
8.56900e-06;-0.009334375598446248
8.56925e-06;-0.009340075199470638
8.56950e-06;-0.00934577480049499
8.56975e-06;-0.009351474401519377
8.57000e-06;-0.009357174002543767
8.57025e-06;-0.009362873603568118
8.57050e-06;-0.009368573204592508
8.57075e-06;-0.009374272805616896
8.57100e-06;-0.009379972406641247
8.57125e-06;-0.009384972350692591
8.57150e-06;-0.009389964162082317
8.57175e-06;-0.009394955973472008
8.57200e-06;-0.009399947784861732
8.57225e-06;-0.009404939596251456
8.57250e-06;-0.009409931407641181
8.57275e-06;-0.00941492321903087
8.57300e-06;-0.009419915030420596
8.57325e-06;-0.00942490684181032
8.57350e-06;-0.00942989865320001
8.57375e-06;-0.009434890464589734
8.57400e-06;-0.00943988227597946
8.57425e-06;-0.009447174873858
8.57450e-06;-0.009454494215582117
8.57475e-06;-0.009461813557306235
8.57500e-06;-0.009469132899030303
8.57525e-06;-0.009476452240754421
8.57550e-06;-0.009483771582478538
8.57575e-06;-0.009491090924202607
8.57600e-06;-0.009498410265926724
8.57625e-06;-0.009505729607650842
8.57650e-06;-0.00951304894937491
8.57675e-06;-0.009520368291099028
8.57700e-06;-0.009527687632823145
8.57725e-06;-0.009535600273774264
8.57750e-06;-0.009543519811107605
8.57775e-06;-0.009551439348440946
8.57800e-06;-0.009559358885774236
8.57825e-06;-0.009567278423107577
8.57850e-06;-0.009575197960440918
8.57875e-06;-0.009582383821985297
8.57900e-06;-0.009588801494206775
8.57925e-06;-0.009595219166428252
8.57950e-06;-0.009601636838649686
8.57975e-06;-0.009608054510871163
8.58000e-06;-0.00961447218309264
8.58025e-06;-0.009620889855314074
8.58050e-06;-0.009624618463040732
8.58075e-06;-0.009628315813661964
8.58100e-06;-0.009632013164283196
8.58125e-06;-0.009629469621963918
8.58150e-06;-0.009626853536851816
8.58175e-06;-0.009624237451739716
8.58200e-06;-0.009614441132914622
8.58225e-06;-0.009604561352602221
8.58250e-06;-0.009594681572289819
8.58275e-06;-0.009573392836982135
8.58300e-06;-0.009551971486443404
8.58325e-06;-0.009530550135904673
8.58350e-06;-0.009509128785366089
8.58375e-06;-0.009487707434827358
8.58400e-06;-0.009466286084288627
8.58425e-06;-0.00943016962042016
8.58450e-06;-0.009393882343724989
8.58475e-06;-0.009357595067029816
8.58500e-06;-0.00932130779033489
8.58525e-06;-0.009285020513639717
8.58550e-06;-0.009248733236944546
8.58575e-06;-0.00920244779628148
8.58600e-06;-0.009156046139117384
8.58625e-06;-0.009109644481953286
8.58650e-06;-0.009063242824789505
8.58675e-06;-0.009016841167625408
8.58700e-06;-0.008966329856222439
8.58725e-06;-0.008915770775085602
8.58750e-06;-0.008865211693948421
8.58775e-06;-0.00881465261281124
8.58800e-06;-0.008764093531674403
8.58825e-06;-0.008713689483192648
8.58850e-06;-0.008663287236777032
8.58875e-06;-0.008614609774684421
8.58900e-06;-0.008565952361112348
8.58925e-06;-0.008519070366043748
8.58950e-06;-0.008473720668509349
8.58975e-06;-0.008430213213942314
8.59000e-06;-0.008390096443543271
8.59025e-06;-0.008350018839189843
8.59050e-06;-0.008315431821279293
8.59075e-06;-0.008280908624760872
8.59100e-06;-0.008252189486295334
8.59125e-06;-0.00822353781294877
8.59150e-06;-0.008200422757118042
8.59175e-06;-0.008177372057735022
8.59200e-06;-0.008161740800209653
8.59225e-06;-0.008146195784675887
8.59250e-06;-0.008130650769142121
8.59275e-06;-0.008128493431014011
8.59300e-06;-0.0081264917083603
8.59325e-06;-0.00812448998570659
8.59350e-06;-0.00812248826305289
8.59375e-06;-0.00812048654039918
8.59400e-06;-0.008118484817745469
8.59425e-06;-0.00813178566515336
8.59450e-06;-0.008145264386334942
8.59475e-06;-0.008158743107516525
8.59500e-06;-0.008172221828698015
8.59525e-06;-0.008185700549879597
8.59550e-06;-0.00819917927106118
8.59575e-06;-0.008223846470197953
8.59600e-06;-0.008248643721789269
8.59625e-06;-0.008273440973380584
8.59650e-06;-0.008298238224971732
8.59675e-06;-0.008323035476563047
8.59700e-06;-0.008347832728154363
8.59725e-06;-0.008374981213965623
8.59750e-06;-0.008404591540622551
8.59775e-06;-0.008434201867279481
8.59800e-06;-0.00846381219393641
8.59825e-06;-0.008493422520593137
8.59850e-06;-0.008523032847250065
8.59875e-06;-0.008552643173906993
8.59900e-06;-0.008580835885135217
8.59925e-06;-0.008609012118307634
8.59950e-06;-0.00863718835148005
8.59975e-06;-0.008661739177306569
8.60000e-06;-0.00868624786218015
8.60025e-06;-0.00871075654705373
8.60050e-06;-0.008729635324769208
8.60075e-06;-0.008748448661658158
8.60100e-06;-0.008767261998547106
8.60125e-06;-0.008778009156996761
8.60150e-06;-0.008788662555927812
8.60175e-06;-0.008799315954858862
8.60200e-06;-0.008801220074220495
8.60225e-06;-0.008803022493843238
8.60250e-06;-0.008804824913465981
8.60275e-06;-0.008793800844213303
8.60300e-06;-0.008782627682619937
8.60325e-06;-0.008771454521026574
8.60350e-06;-0.008760281359433285
8.60375e-06;-0.00874910819783992
8.60400e-06;-0.00873037359802372
8.60425e-06;-0.008703721855240407
8.60450e-06;-0.008677070112456916
8.60475e-06;-0.008650418369673422
8.60500e-06;-0.00862376662689011
8.60525e-06;-0.008597114884106617
8.60550e-06;-0.008559567056180623
8.60575e-06;-0.008521892574510817
8.60600e-06;-0.008484218092840756
8.60625e-06;-0.008446543611170693
8.60650e-06;-0.008405966989051638
8.60675e-06;-0.008362351704158685
8.60700e-06;-0.008318736419265439
8.60725e-06;-0.00827512113437219
8.60750e-06;-0.008231505849479237
8.60775e-06;-0.008186058118697262
8.60800e-06;-0.008140589087959385
8.60825e-06;-0.008095194627560818
8.60850e-06;-0.00805018769496853
8.60875e-06;-0.008005816803168374
8.60900e-06;-0.007962311271536114
8.60925e-06;-0.007919912173503603
8.60950e-06;-0.007878890181504982
8.60975e-06;-0.007839533802217644
8.61000e-06;-0.007802131285328438
8.61025e-06;-0.007766969954553018
8.61050e-06;-0.007734337583216606
8.61075e-06;-0.007704501696321978
8.61100e-06;-0.00767764534658386
8.61125e-06;-0.007653849339204146
8.61150e-06;-0.0076347298194946
8.61175e-06;-0.007615664249408359
8.61200e-06;-0.007602971911597622
8.61225e-06;-0.007590353654864801
8.61250e-06;-0.007584323365365007
8.61275e-06;-0.007578369652976154
8.61300e-06;-0.007580640082326339
8.61325e-06;-0.007583006107327161
8.61350e-06;-0.007585372132327965
8.61375e-06;-0.00760051157098082
8.61400e-06;-0.0076157994850402175
8.61425e-06;-0.007631087399099511
8.61450e-06;-0.007646375313158909
8.61475e-06;-0.007661663227218307
8.61500e-06;-0.007683608408178232
8.61525e-06;-0.007712524026809009
8.61550e-06;-0.007741439645439982
8.61575e-06;-0.007770355264070955
8.61600e-06;-0.007799270882701732
8.61625e-06;-0.007828186501332704
8.61650e-06;-0.007865564863074487
8.61675e-06;-0.007903041593917618
8.61700e-06;-0.007940518324761002
8.61725e-06;-0.007977995055604387
8.61750e-06;-0.008015471786447518
8.61775e-06;-0.008052948517290904
8.61800e-06;-0.008091613156703257
8.61825e-06;-0.008130291604108492
8.61850e-06;-0.008168970051513989
8.61875e-06;-0.008207648498919487
8.61900e-06;-0.008246326946324722
8.61925e-06;-0.008285005393730218
8.61950e-06;-0.008316381360052397
8.61975e-06;-0.008347672443908247
8.62000e-06;-0.00837896352776431
8.62025e-06;-0.008410254611620373
8.62050e-06;-0.008441545695476223
8.62075e-06;-0.008468463288464931
8.62100e-06;-0.008490801653076904
8.62125e-06;-0.008513140017688724
8.62150e-06;-0.008535478382300697
8.62175e-06;-0.00855781674691267
8.62200e-06;-0.008580155111524492
8.62225e-06;-0.008593419762936892
8.62250e-06;-0.008606578943462583
8.62275e-06;-0.008619738123988184
8.62300e-06;-0.008632897304513875
8.62325e-06;-0.008646056485039565
8.62350e-06;-0.008659215665565255
8.62375e-06;-0.008672374846090855
8.62400e-06;-0.008685534026616546
8.62425e-06;-0.008698693207142236
8.62450e-06;-0.008711852387667838
8.62475e-06;-0.008725011568193528
8.62500e-06;-0.008738170748719219
8.62525e-06;-0.008751329929244819
8.62550e-06;-0.008764489109770509
8.62575e-06;-0.0087776482902962
8.62600e-06;-0.008790807470821801
8.62625e-06;-0.008797082819390465
8.62650e-06;-0.00880327815177979
8.62675e-06;-0.008809473484169073
8.62700e-06;-0.008815668816558398
8.62725e-06;-0.008821864148947723
8.62750e-06;-0.008828059481337006
8.62775e-06;-0.00883425481372633
8.62800e-06;-0.008840450146115656
8.62825e-06;-0.008846645478504937
8.62850e-06;-0.008852840810894262
8.62875e-06;-0.008859036143283587
8.62900e-06;-0.00886523147567287
8.62925e-06;-0.008871426808062195
8.62950e-06;-0.00887762214045152
8.62975e-06;-0.008883817472840803
8.63000e-06;-0.008890012805230128
8.63025e-06;-0.008890971253470421
8.63050e-06;-0.00889186882929762
8.63075e-06;-0.00889276640512483
8.63100e-06;-0.008893663980952036
8.63125e-06;-0.008894561556779238
8.63150e-06;-0.008895459132606445
8.63175e-06;-0.008896356708433651
8.63200e-06;-0.00889725428426086
8.63225e-06;-0.008894065568310303
8.63250e-06;-0.008886598333474391
8.63275e-06;-0.008879131098638481
8.63300e-06;-0.00887166386380262
8.63325e-06;-0.008864196628966708
8.63350e-06;-0.008856729394130798
8.63375e-06;-0.008849262159294937
8.63400e-06;-0.008841794924459027
8.63425e-06;-0.008834327689623115
8.63450e-06;-0.008819220569218482
8.63475e-06;-0.008804024644429769
8.63500e-06;-0.008788828719641055
8.63525e-06;-0.008773632794852446
8.63550e-06;-0.008758436870063733
8.63575e-06;-0.008743240945275019
8.63600e-06;-0.008728045020486408
8.63625e-06;-0.008712849095697695
8.63650e-06;-0.008693798183585344
8.63675e-06;-0.00867470246193088
8.63700e-06;-0.008655606740276286
8.63725e-06;-0.008636511018621692
8.63750e-06;-0.008617415296967227
8.63775e-06;-0.008598319575312633
8.63800e-06;-0.008579223853658039
8.63825e-06;-0.008560128132003575
8.63850e-06;-0.008541298223358472
8.63875e-06;-0.008522471404466539
8.63900e-06;-0.008503644585574732
8.63925e-06;-0.008485705848957357
8.63950e-06;-0.008468696971731072
8.63975e-06;-0.008451688094504903
8.64000e-06;-0.00843467921727862
8.64025e-06;-0.00841996604120249
8.64050e-06;-0.008405279549862091
8.64075e-06;-0.008391736930696942
8.64100e-06;-0.008378207607655503
8.64125e-06;-0.00836149477557449
8.64150e-06;-0.008344744939070144
8.64175e-06;-0.008327995102565685
8.64200e-06;-0.008307238721428451
8.64225e-06;-0.008286435769079406
8.64250e-06;-0.00826563281673022
8.64275e-06;-0.008241067591311374
8.64300e-06;-0.00821645863404076
8.64325e-06;-0.00819184967676998
8.64350e-06;-0.008159654675845807
8.64375e-06;-0.008127371496384069
8.64400e-06;-0.008095088316922114
8.64425e-06;-0.008062805137460157
8.64450e-06;-0.00803052195799842
8.64475e-06;-0.007990798315824794
8.64500e-06;-0.007950988187314795
8.64525e-06;-0.007911178058805066
8.64550e-06;-0.007871367930295067
8.64575e-06;-0.00783155780178507
8.64600e-06;-0.007786930030441257
8.64625e-06;-0.00774224625985421
8.64650e-06;-0.007697562489267163
8.64675e-06;-0.00765156575902888
8.64700e-06;-0.007605553767230002
8.64725e-06;-0.007558825992239067
