Time(s);Current(A)
6.25000e-06;0.004399179286646624
6.25025e-06;0.004385477102036877
6.25050e-06;0.004371774917427084
6.25075e-06;0.0043580104745939464
6.25100e-06;0.00434406464790018
6.25125e-06;0.0043301188212064605
6.25150e-06;0.004316172994512741
6.25175e-06;0.0043022271678189745
6.25200e-06;0.004288281341125255
6.25225e-06;0.004274335514431535
6.25250e-06;0.004260389687737769
6.25275e-06;0.004246443861044049
6.25300e-06;0.00423249803435033
6.25325e-06;0.004218552207656563
6.25350e-06;0.004204606380962844
6.25375e-06;0.00420148726810776
6.25400e-06;0.004201871372146749
6.25425e-06;0.004202255476185737
6.25450e-06;0.004202639580224725
6.25475e-06;0.0042030236842637144
6.25500e-06;0.004203407788302702
6.25525e-06;0.004203791892341691
6.25550e-06;0.0042041759963806795
6.25575e-06;0.004204560100419667
6.25600e-06;0.004204944204458656
6.25625e-06;0.004205328308497644
6.25650e-06;0.004205712412536632
6.25675e-06;0.004206096516575621
6.25700e-06;0.004206480620614609
6.25725e-06;0.004219107946118126
6.25750e-06;0.004235696830124836
6.25775e-06;0.004252285714131489
6.25800e-06;0.004268874598138143
6.25825e-06;0.0042854634821448525
6.25850e-06;0.0043020523661515065
6.25875e-06;0.00431864125015816
6.25900e-06;0.004335230134164869
6.25925e-06;0.004351819018171523
6.25950e-06;0.004368407902178233
6.25975e-06;0.004384996786184886
6.26000e-06;0.00440158567019154
6.26025e-06;0.004418174554198249
6.26050e-06;0.0044347634382049025
6.26075e-06;0.00445331127343694
6.26100e-06;0.004472492969610455
6.26125e-06;0.004491674665783906
6.26150e-06;0.004510856361957355
6.26175e-06;0.004530038058130871
6.26200e-06;0.0045492197543043214
6.26225e-06;0.004568401450477771
6.26250e-06;0.004587583146651287
6.26275e-06;0.004606460606586876
6.26300e-06;0.004612869579894651
6.26325e-06;0.004619278553202448
6.26350e-06;0.004625687526510223
6.26375e-06;0.00463209649981802
6.26400e-06;0.004638505473125795
6.26425e-06;0.004644914446433571
6.26450e-06;0.004651323419741367
6.26475e-06;0.004657732393049142
6.26500e-06;0.0046568146962481585
6.26525e-06;0.004638141520025891
6.26550e-06;0.004619468343803688
6.26575e-06;0.004600795167581485
6.26600e-06;0.004582121991359218
6.26625e-06;0.004563448815137014
6.26650e-06;0.00454477563891481
6.26675e-06;0.004526102462692543
6.26700e-06;0.004507429286470339
6.26725e-06;0.004488756110248135
6.26750e-06;0.00445525181459597
6.26775e-06;0.004412165310201834
6.26800e-06;0.004369078805807552
6.26825e-06;0.004325992301413416
6.26850e-06;0.0042829057970192805
6.26875e-06;0.004239819292624999
6.26900e-06;0.004196732788230862
6.26925e-06;0.004153646283836726
6.26950e-06;0.004110559779442444
6.26975e-06;0.004067473275048309
6.27000e-06;0.0040177852557888374
6.27025e-06;0.0039675456997853055
6.27050e-06;0.0039173061437819436
6.27075e-06;0.0038670665877785816
6.27100e-06;0.0038168270317750492
6.27125e-06;0.0037665874757716873
6.27150e-06;0.0037163479197683254
6.27175e-06;0.0036661083637647934
6.27200e-06;0.0036260260472227015
6.27225e-06;0.003586792337537064
6.27250e-06;0.0035475586278515595
6.27275e-06;0.003508324918166055
6.27300e-06;0.003469091208480418
6.27325e-06;0.0034298574987949135
6.27350e-06;0.003390623789109409
6.27375e-06;0.0033513900794237715
6.27400e-06;0.003326457077868149
6.27425e-06;0.0033027188575340993
6.27450e-06;0.0032789806371999694
6.27475e-06;0.0032552424168659196
6.27500e-06;0.0032315041965318694
6.27525e-06;0.0032077659761977394
6.27550e-06;0.0031840277558636896
6.27575e-06;0.00316028953552964
6.27600e-06;0.0031365513151955095
6.27625e-06;0.0031128130948614597
6.27650e-06;0.0030890748745273293
6.27675e-06;0.0030653366541932795
6.27700e-06;0.0030454071360734346
6.27725e-06;0.003030675177564891
6.27750e-06;0.0030159432190563977
6.27775e-06;0.003001211260547904
6.27800e-06;0.0029864793020393608
6.27825e-06;0.0029717473435308672
6.27850e-06;0.0029570153850223737
6.27875e-06;0.0029422834265138303
6.27900e-06;0.0029275514680053368
6.27925e-06;0.0029128195094968432
6.27950e-06;0.0028980875509883
6.27975e-06;0.0028833555924798063
6.28000e-06;0.0028686236339713128
6.28025e-06;0.002860598789291893
6.28050e-06;0.002853134303832344
6.28075e-06;0.0028456698183727696
6.28100e-06;0.0028382053329132208
6.28125e-06;0.002830740847453672
6.28150e-06;0.002823276361994098
6.28175e-06;0.002815811876534549
6.28200e-06;0.002808347391075
6.28225e-06;0.0028008829056154257
6.28250e-06;0.002793418420155877
6.28275e-06;0.002785953934696328
6.28300e-06;0.002778489449236754
6.28325e-06;0.002771024963777205
6.28350e-06;0.0027635604783176563
6.28375e-06;0.002756095992858082
6.28400e-06;0.002748631507398533
6.28425e-06;0.002741167021938984
6.28450e-06;0.00273370253647941
6.28475e-06;0.0027262380510198613
6.28500e-06;0.002718773565560287
6.28525e-06;0.002711309080100738
6.28550e-06;0.0027078654253109213
6.28575e-06;0.0027099088120156284
6.28600e-06;0.0027119521987203285
6.28625e-06;0.0027139955854250286
6.28650e-06;0.0027160389721297357
6.28675e-06;0.002718082358834436
6.28700e-06;0.0027201257455391355
6.28725e-06;0.0027221691322438426
6.28750e-06;0.0027242125189485427
6.28775e-06;0.002726255905653243
6.28800e-06;0.00272829929235795
6.28825e-06;0.00273034267906265
6.28850e-06;0.00273238606576735
6.28875e-06;0.0027344294524720572
6.28900e-06;0.0027364728391767574
6.28925e-06;0.0027385162258814644
6.28950e-06;0.0027405596125861646
6.28975e-06;0.0027426029992908647
6.29000e-06;0.0027446463859955713
6.29025e-06;0.0027466897727002715
6.29050e-06;0.0027487331594049716
6.29075e-06;0.0027507765461096787
6.29100e-06;0.0027546471971813093
6.29125e-06;0.0027586705107036477
6.29150e-06;0.002762693824225999
6.29175e-06;0.0027667171377483376
6.29200e-06;0.002770740451270676
6.29225e-06;0.0027747637647930275
6.29250e-06;0.002778787078315366
6.29275e-06;0.002782810391837704
6.29300e-06;0.002786833705360056
6.29325e-06;0.0027908570188823942
6.29350e-06;0.0027960032313608346
6.29375e-06;0.002802681812066444
6.29400e-06;0.002809360392772054
6.29425e-06;0.0028160389734776864
6.29450e-06;0.002822717554183296
6.29475e-06;0.0028293961348889057
6.29500e-06;0.002836074715594538
6.29525e-06;0.002842753296300148
6.29550e-06;0.0028494318770057574
6.29575e-06;0.00285611045771139
6.29600e-06;0.0028627890384169997
6.29625e-06;0.002877833476637408
6.29650e-06;0.0028935768571309033
6.29675e-06;0.002909320237624345
6.29700e-06;0.0029250636181177864
6.29725e-06;0.0029408069986112816
6.29750e-06;0.002956550379104723
6.29775e-06;0.0029722937595981647
6.29800e-06;0.00298803714009166
6.29825e-06;0.0030037805205851012
6.29850e-06;0.0030195239010785964
6.29875e-06;0.003035267281572038
6.29900e-06;0.0030528867312055907
6.29925e-06;0.0030730663655525723
6.29950e-06;0.0030932459998994854
6.29975e-06;0.003113425634246399
6.30000e-06;0.00313360526859338
6.30025e-06;0.003153784902940293
6.30050e-06;0.0031739645372872065
6.30075e-06;0.0031941441716341877
6.30100e-06;0.003214323805981101
6.30125e-06;0.003234503440328014
6.30150e-06;0.0032546830746749958
6.30175e-06;0.003274862709021909
6.30200e-06;0.0032894331131383472
6.30225e-06;0.003303534882913545
6.30250e-06;0.0033176366526886957
6.30275e-06;0.0033317384224638936
6.30300e-06;0.003345840192239044
6.30325e-06;0.0033599419620141944
6.30350e-06;0.0033740437317893923
6.30375e-06;0.0033881455015645425
6.30400e-06;0.003402247271339693
6.30425e-06;0.003416349041114891
6.30450e-06;0.003430450810890041
6.30475e-06;0.0034445525806651917
6.30500e-06;0.003456858261252037
6.30525e-06;0.00346671290206372
6.30550e-06;0.003476567542875403
6.30575e-06;0.0034864221836871196
6.30600e-06;0.0034962768244988025
6.30625e-06;0.003506131465310486
6.30650e-06;0.003515986106122202
6.30675e-06;0.003525840746933885
6.30700e-06;0.003535695387745602
6.30725e-06;0.0035455500285572848
6.30750e-06;0.003555404669368968
6.30775e-06;0.0035652593101806844
6.30800e-06;0.0035751139509923673
6.30825e-06;0.0035844708955726943
6.30850e-06;0.0035937862591275175
6.30875e-06;0.00360310162268231
6.30900e-06;0.0036124169862371018
6.30925e-06;0.0036217323497919254
6.30950e-06;0.0036310477133467173
6.30975e-06;0.0036403630769015092
6.31000e-06;0.003649678440456333
6.31025e-06;0.0036589938040111247
6.31050e-06;0.0036683091675659167
6.31075e-06;0.0036776245311207403
6.31100e-06;0.0036847866391603004
6.31125e-06;0.0036917688491679046
6.31150e-06;0.003698751059175486
6.31175e-06;0.0037057332691830666
6.31200e-06;0.0037127154791906708
6.31225e-06;0.003719697689198252
6.31250e-06;0.0037266798992058327
6.31275e-06;0.0037336621092134373
6.31300e-06;0.003740644319221018
6.31325e-06;0.003747626529228599
6.31350e-06;0.0037546087392362035
6.31375e-06;0.003771063439511435
6.31400e-06;0.003788309537902085
6.31425e-06;0.0038055556362927936
6.31450e-06;0.0038228017346834437
6.31475e-06;0.0038400478330740937
6.31500e-06;0.0038572939314648023
6.31525e-06;0.0038745400298554524
6.31550e-06;0.003891786128246161
6.31575e-06;0.0039090322266368115
6.31600e-06;0.003926278325027462
6.31625e-06;0.003953709631303969
6.31650e-06;0.0039950402193098
6.31675e-06;0.004036370807315632
6.31700e-06;0.004077701395321603
6.31725e-06;0.004119031983327434
6.31750e-06;0.004160362571333265
6.31775e-06;0.0042016931593392365
6.31800e-06;0.004243023747345068
6.31825e-06;0.0042843543353509
6.31850e-06;0.004325684923356871
6.31875e-06;0.004367015511362702
6.31900e-06;0.004420538416842646
6.31925e-06;0.004475079953833155
6.31950e-06;0.0045296214908234775
6.31975e-06;0.004584163027813986
6.32000e-06;0.004638704564804309
6.32025e-06;0.004693246101794632
6.32050e-06;0.00474778763878514
6.32075e-06;0.004802329175775463
6.32100e-06;0.004854441737466747
6.32125e-06;0.004903239589004879
6.32150e-06;0.0049520374405428455
6.32175e-06;0.005000835292080812
6.32200e-06;0.005049633143618944
6.32225e-06;0.005098430995156911
6.32250e-06;0.005147228846694878
6.32275e-06;0.00519602669823301
6.32300e-06;0.0052448245497709765
6.32325e-06;0.00526612886301453
6.32350e-06;0.005285136173699778
6.32375e-06;0.005304143484384963
6.32400e-06;0.0053231507950702115
6.32425e-06;0.005342158105755395
6.32450e-06;0.005361165416440579
6.32475e-06;0.005380172727125828
6.32500e-06;0.005399180037811013
6.32525e-06;0.005418187348496197
6.32550e-06;0.005395646141945182
6.32575e-06;0.005369633681554455
6.32600e-06;0.005343621221163729
6.32625e-06;0.005317608760772913
6.32650e-06;0.005291596300382187
6.32675e-06;0.00526558383999146
6.32700e-06;0.005239571379600645
6.32725e-06;0.005213558919209918
6.32750e-06;0.005187546458819191
6.32775e-06;0.005129987756456665
6.32800e-06;0.0050697934603152126
6.32825e-06;0.005009599164173557
6.32850e-06;0.004949404868032105
6.32875e-06;0.004889210571890653
6.32900e-06;0.004829016275748997
6.32925e-06;0.004768821979607545
6.32950e-06;0.004702894307400403
6.32975e-06;0.004629142562275478
6.33000e-06;0.004555390817150804
6.33025e-06;0.004481639072026129
6.33050e-06;0.004407887326901204
6.33075e-06;0.00433413558177653
6.33100e-06;0.004260383836651855
6.33125e-06;0.004186632091526931
6.33150e-06;0.004120414662155002
6.33175e-06;0.004054826702237473
6.33200e-06;0.003989238742319723
6.33225e-06;0.003923650782402195
6.33250e-06;0.003858062822484444
6.33275e-06;0.003792474862566916
6.33300e-06;0.0037268869026493875
6.33325e-06;0.003681477848855965
6.33350e-06;0.003637754682068766
6.33375e-06;0.0035940315152815676
6.33400e-06;0.0035503083484942207
6.33425e-06;0.0035065851817070223
6.33450e-06;0.0034628620149198238
6.33475e-06;0.003419138848132477
6.33500e-06;0.0033957338797140236
6.33525e-06;0.0033740264357501135
6.33550e-06;0.0033523189917861297
6.33575e-06;0.0033306115478222197
6.33600e-06;0.003308904103858309
6.33625e-06;0.0032871966598943254
6.33650e-06;0.0032654892159304154
6.33675e-06;0.0032437817719664316
6.33700e-06;0.0032220743280025215
6.33725e-06;0.003200366884038611
6.33750e-06;0.003185815713713404
6.33775e-06;0.0031810303787559056
6.33800e-06;0.0031762450437984075
6.33825e-06;0.0031714597088408933
6.33850e-06;0.0031666743738833947
6.33875e-06;0.0031618890389258966
6.33900e-06;0.0031571037039683824
6.33925e-06;0.003152318369010884
6.33950e-06;0.0031475330340533856
6.33975e-06;0.0031427476990958715
6.34000e-06;0.003137962364138373
6.34025e-06;0.003140339604161646
6.34050e-06;0.003143315255813885
6.34075e-06;0.0031462909074661143
6.34100e-06;0.0031492665591183536
6.34125e-06;0.003152242210770583
6.34150e-06;0.003155217862422812
6.34175e-06;0.0031581935140750517
6.34200e-06;0.003161169165727281
6.34225e-06;0.0031641448173795102
6.34250e-06;0.0031671204690317495
6.34275e-06;0.0031700961206839787
6.34300e-06;0.003173071772336208
6.34325e-06;0.0031760474239884476
6.34350e-06;0.003179023075640677
6.34375e-06;0.003181998727292906
6.34400e-06;0.0031849743789451454
6.34425e-06;0.0031879500305973746
6.34450e-06;0.003190925682249604
6.34475e-06;0.0031939013339018435
6.34500e-06;0.003196876985554073
6.34525e-06;0.003199852637206312
6.34550e-06;0.0032028282888585413
6.34575e-06;0.0032058039405107705
6.34600e-06;0.0032087795921630097
6.34625e-06;0.0032135068785759087
6.34650e-06;0.0032206245398622817
6.34675e-06;0.003227742201148679
6.34700e-06;0.003234859862435052
6.34725e-06;0.003241977523721425
6.34750e-06;0.003249095185007822
6.34775e-06;0.003256212846294195
6.34800e-06;0.003263330507580568
6.34825e-06;0.003270448168866965
6.34850e-06;0.003277565830153338
6.34875e-06;0.0032846834914397115
6.34900e-06;0.0032918011527261083
6.34925e-06;0.0032989188140124816
6.34950e-06;0.003306036475298879
6.34975e-06;0.003313154136585252
6.35000e-06;0.0033202717978716247
6.35025e-06;0.003327389459158022
6.35050e-06;0.003334507120444395
6.35075e-06;0.003341624781730768
6.35100e-06;0.003348742443017165
6.35125e-06;0.003355860104303538
6.35150e-06;0.003362977765589911
6.35175e-06;0.003370095426876308
6.35200e-06;0.0033772130881626816
6.35225e-06;0.0033843307494490545
6.35250e-06;0.003386868702467219
6.35275e-06;0.003389024034613683
6.35300e-06;0.003391179366760147
6.35325e-06;0.003393334698906618
6.35350e-06;0.003395490031053082
6.35375e-06;0.0033976453631995533
6.35400e-06;0.0033998006953460174
6.35425e-06;0.003401956027492481
6.35450e-06;0.0034041113596389528
6.35475e-06;0.0034062666917854165
6.35500e-06;0.0034084220239318807
6.35525e-06;0.003410577356078352
6.35550e-06;0.0034127326882248156
6.35575e-06;0.00341488802037128
6.35600e-06;0.003417043352517751
6.35625e-06;0.003419198684664215
6.35650e-06;0.003421354016810679
6.35675e-06;0.0034235093489571504
6.35700e-06;0.003422440681345859
6.35725e-06;0.0034169723705072433
6.35750e-06;0.0034115040596686087
6.35775e-06;0.0034060357488299928
6.35800e-06;0.003400567437991358
6.35825e-06;0.003395099127152742
6.35850e-06;0.003389630816314126
6.35875e-06;0.0033841625054754913
6.35900e-06;0.003378694194636875
6.35925e-06;0.003373225883798259
6.35950e-06;0.0033677575729596245
6.35975e-06;0.0033622892621210086
6.36000e-06;0.003356820951282392
6.36025e-06;0.0033513526404437576
6.36050e-06;0.0033458843296051417
6.36075e-06;0.003340416018766526
6.36100e-06;0.0033349477079278912
6.36125e-06;0.003329479397089275
6.36150e-06;0.003324011086250659
6.36175e-06;0.003319439424577285
6.36200e-06;0.0033149426752487545
6.36225e-06;0.003310445925920209
6.36250e-06;0.0033059491765916786
6.36275e-06;0.0033014524272631483
6.36300e-06;0.003296955677934603
6.36325e-06;0.0032924589286060725
6.36350e-06;0.003287962179277542
6.36375e-06;0.0032834654299489963
6.36400e-06;0.003278968680620466
6.36425e-06;0.0032744719312919356
6.36450e-06;0.00326997518196339
6.36475e-06;0.00326547843263486
6.36500e-06;0.0032609816833063295
6.36525e-06;0.003256484933977784
6.36550e-06;0.0032519881846492537
6.36575e-06;0.003247491435320723
6.36600e-06;0.0032429946859921775
6.36625e-06;0.003238497936663647
6.36650e-06;0.0032340011873351017
6.36675e-06;0.0032295044380065713
6.36700e-06;0.003225007688678041
6.36725e-06;0.0032205109393494955
6.36750e-06;0.003217619629242131
6.36775e-06;0.003214862448759982
6.36800e-06;0.003212105268277824
6.36825e-06;0.0032093480877956747
6.36850e-06;0.0032065909073135256
6.36875e-06;0.003203833726831367
6.36900e-06;0.003201076546349218
6.36925e-06;0.0031983193658670687
6.36950e-06;0.0031955621853849104
6.36975e-06;0.0031928050049027613
6.37000e-06;0.003190047824420612
6.37025e-06;0.0031872906439384535
6.37050e-06;0.0031845334634563044
6.37075e-06;0.0031817762829741457
6.37100e-06;0.0031790191024919966
6.37125e-06;0.0031762619220098475
6.37150e-06;0.0031735047415276892
6.37175e-06;0.00317074756104554
6.37200e-06;0.003167990380563391
6.37225e-06;0.0031652332000812323
6.37250e-06;0.003162476019599083
6.37275e-06;0.003159718839116934
6.37300e-06;0.003156961658634776
6.37325e-06;0.003163892381817499
6.37350e-06;0.003171632500254842
6.37375e-06;0.0031793726186922114
6.37400e-06;0.0031871127371295546
6.37425e-06;0.0031948528555668975
6.37450e-06;0.003202592974004267
6.37475e-06;0.00321033309244161
6.37500e-06;0.0032180732108789798
6.37525e-06;0.0032258133293163226
6.37550e-06;0.003260528064999223
6.37575e-06;0.0032974964489374224
6.37600e-06;0.0033344648328754965
6.37625e-06;0.0033714332168135706
6.37650e-06;0.00340840160075177
6.37675e-06;0.003445369984689844
6.37700e-06;0.0034823383686279183
6.37725e-06;0.0035193067525661173
6.37750e-06;0.0035562751365041914
6.37775e-06;0.003615581772535719
6.37800e-06;0.003676754702438784
6.37825e-06;0.0037379276323416416
6.37850e-06;0.0037991005622444994
6.37875e-06;0.003860273492147564
6.37900e-06;0.003921446422050422
6.37925e-06;0.003982619351953487
6.37950e-06;0.004047443548474235
6.37975e-06;0.004117250459525525
6.38000e-06;0.00418705737057705
6.38025e-06;0.004256864281628339
6.38050e-06;0.004326671192679628
6.38075e-06;0.0043964781037311535
6.38100e-06;0.004466285014782443
6.38125e-06;0.004536091925833732
6.38150e-06;0.004597971034098179
6.38175e-06;0.004659187798250213
6.38200e-06;0.004720404562402247
6.38225e-06;0.004781621326554488
6.38250e-06;0.0048428380907065225
6.38275e-06;0.004904054854858557
6.38300e-06;0.00495671698114117
6.38325e-06;0.004997704989131394
6.38350e-06;0.0050386929971217576
6.38375e-06;0.005079681005111982
6.38400e-06;0.0051206690131022055
6.38425e-06;0.005161657021092569
6.38450e-06;0.005202645029082793
6.38475e-06;0.0052336785558623035
6.38500e-06;0.005247876572742829
6.38525e-06;0.005260737516616552
6.38550e-06;0.005273598460490276
6.38575e-06;0.0052864594043640425
6.38600e-06;0.005299320348237766
6.38625e-06;0.0053121812921114895
6.38650e-06;0.005325042235985256
6.38675e-06;0.00533790317985898
6.38700e-06;0.005350764123732703
6.38725e-06;0.00536362506760647
6.38750e-06;0.005376486011480193
6.38775e-06;0.005389346955353961
6.38800e-06;0.005383273189119558
6.38825e-06;0.005375617484725575
6.38850e-06;0.005367961780331566
6.38875e-06;0.005360306075937583
6.38900e-06;0.0053526503715436
6.38925e-06;0.005344994667149591
6.38950e-06;0.005337338962755608
6.38975e-06;0.0053296832583616255
6.39000e-06;0.0053220275539676174
6.39025e-06;0.0053143718495736346
6.39050e-06;0.005306716145179652
6.39075e-06;0.005299060440785643
6.39100e-06;0.005287146236966221
6.39125e-06;0.005274876248310174
6.39150e-06;0.005262606259654086
6.39175e-06;0.0052503362709980395
6.39200e-06;0.005238066282341951
6.39225e-06;0.005225796293685904
6.39250e-06;0.005213526305029858
6.39275e-06;0.00520096581145599
6.39300e-06;0.005188008879268913
6.39325e-06;0.005175051947081835
6.39350e-06;0.005162095014894714
6.39375e-06;0.005149138082707636
6.39400e-06;0.005136181150520559
6.39425e-06;0.005123224218333437
6.39450e-06;0.00511026728614636
6.39475e-06;0.005079633465197714
6.39500e-06;0.005047522793285679
6.39525e-06;0.0050154121213737525
6.39550e-06;0.004983301449461827
6.39575e-06;0.004951190777549792
6.39600e-06;0.004919080105637866
6.39625e-06;0.004886969433725831
6.39650e-06;0.0048548587618139055
6.39675e-06;0.004822748089901979
6.39700e-06;0.004790637417989944
6.39725e-06;0.0047484952715789504
6.39750e-06;0.004692663636296806
6.39775e-06;0.004636832001014473
6.39800e-06;0.004581000365732328
6.39825e-06;0.004525168730450184
6.39850e-06;0.004469337095167851
6.39875e-06;0.004413505459885707
6.39900e-06;0.004357673824603563
6.39925e-06;0.004301842189321229
6.39950e-06;0.004246010554039085
