Time(s);Current(A)
1.05000e-05;-0.007552925218749967
1.05002e-05;-0.007517504838100262
1.05005e-05;-0.007483354715535944
1.05008e-05;-0.00745138442183509
1.05010e-05;-0.00742186491106942
1.05013e-05;-0.00739234540030355
1.05015e-05;-0.007364572568229218
1.05017e-05;-0.007340297334881171
1.05020e-05;-0.007316022101532961
1.05023e-05;-0.007292416671331826
1.05025e-05;-0.00727015247386322
1.05028e-05;-0.007247888276394462
1.05030e-05;-0.00722687238602581
1.05033e-05;-0.007208356141038163
1.05035e-05;-0.007189839896050642
1.05038e-05;-0.007171323651062995
1.05040e-05;-0.0071528074060753484
1.05043e-05;-0.007134291161087827
1.05045e-05;-0.007116708070376499
1.05048e-05;-0.007100993554134153
1.05050e-05;-0.007085279037891915
1.05053e-05;-0.007069564521649569
1.05055e-05;-0.0070538500054072245
1.05058e-05;-0.007038135489164986
1.05060e-05;-0.0070229512216844195
1.05063e-05;-0.0070088287392952075
1.05065e-05;-0.006994706256906092
1.05068e-05;-0.00698058377451688
1.05070e-05;-0.006966461292127669
1.05073e-05;-0.006952812779733267
1.05075e-05;-0.006940113358238067
1.05078e-05;-0.0069274139367428685
1.05080e-05;-0.006914714515247755
1.05083e-05;-0.006902015093752556
1.05085e-05;-0.0068895703070535955
1.05087e-05;-0.006877635408259979
1.05090e-05;-0.006865932143689801
1.05093e-05;-0.006854692710028698
1.05095e-05;-0.006843670021481406
1.05098e-05;-0.006833202168391389
1.05100e-05;-0.0068230705442173896
1.05102e-05;-0.006813227160237625
1.05105e-05;-0.006803702427479118
1.05108e-05;-0.006794636833326909
1.05110e-05;-0.006786011156471523
1.05113e-05;-0.006777737157287186
1.05115e-05;-0.006770167367400711
1.05118e-05;-0.006762903347096855
1.05120e-05;-0.006756251608438353
1.05123e-05;-0.006749905484267525
1.05125e-05;-0.0067441713311756175
1.05128e-05;-0.006738437178083749
1.05130e-05;-0.006733134654080553
1.05133e-05;-0.006728696436351223
1.05135e-05;-0.006724258218621923
1.05138e-05;-0.006720377179297609
1.05140e-05;-0.00671761184974293
1.05143e-05;-0.006714846520188268
1.05145e-05;-0.006712081190633588
1.05148e-05;-0.006709315861078907
1.05150e-05;-0.006706550531524246
1.05153e-05;-0.006704391700550716
1.05155e-05;-0.006703447339460054
1.05158e-05;-0.0067025029783694
1.05160e-05;-0.006701558617278738
1.05163e-05;-0.006700614256188077
1.05165e-05;-0.0066996698950974225
1.05168e-05;-0.0066991620596628
1.05170e-05;-0.006699528335526788
1.05172e-05;-0.0066998946113907745
1.05175e-05;-0.006700260887254762
1.05178e-05;-0.006700627163118751
1.05180e-05;-0.006700993438982737
1.05183e-05;-0.006701359714846726
1.05185e-05;-0.006701909689533886
1.05187e-05;-0.006702827507931164
1.05190e-05;-0.006703745326328448
1.05193e-05;-0.006704663144725734
1.05195e-05;-0.006705580963123011
1.05198e-05;-0.0067064987815202955
1.05200e-05;-0.00670741659991758
1.05203e-05;-0.006708269226761288
1.05205e-05;-0.0067089913121974685
1.05208e-05;-0.006709713397633653
1.05210e-05;-0.006710359538270313
1.05213e-05;-0.0067107956769534155
1.05215e-05;-0.00671111581908844
1.05218e-05;-0.006711548482568709
1.05220e-05;-0.0067122064619676725
1.05223e-05;-0.006713145163123903
1.05225e-05;-0.006714645989452901
1.05228e-05;-0.006716391555523852
1.05230e-05;-0.006718627195364217
1.05233e-05;-0.0067211330622073805
1.05235e-05;-0.006724180039230643
1.05238e-05;-0.006727227016253927
1.05240e-05;-0.006730948844057794
1.05243e-05;-0.006736022012118755
1.05245e-05;-0.006741095180179752
1.05248e-05;-0.006746168348240748
1.05250e-05;-0.00675124151630171
1.05253e-05;-0.0067563146843627065
1.05255e-05;-0.006763213147873907
1.05257e-05;-0.006770477379290171
1.05260e-05;-0.006777741610706482
1.05263e-05;-0.0067850058421227944
1.05265e-05;-0.006792270073539058
1.05268e-05;-0.006800058243704679
1.05270e-05;-0.006808895563615205
1.05272e-05;-0.006817732883525672
1.05275e-05;-0.006826570203436198
1.05278e-05;-0.006835407523346724
1.05280e-05;-0.006844244843257191
1.05283e-05;-0.006853082163167717
1.05285e-05;-0.0068620026185048965
1.05288e-05;-0.006870939733211302
1.05290e-05;-0.006879876847917648
1.05293e-05;-0.006888813962624054
1.05295e-05;-0.00689775107733046
1.05298e-05;-0.006906688192036806
1.05300e-05;-0.0069152504980607475
1.05303e-05;-0.006923062276596193
1.05305e-05;-0.006930874055131585
1.05308e-05;-0.006938220548986583
1.05310e-05;-0.006944635343660105
1.05313e-05;-0.0069510501383335845
1.05315e-05;-0.006957102786430832
1.05318e-05;-0.006962430261998491
1.05320e-05;-0.006967757737566113
1.05323e-05;-0.006973309118461654
1.05325e-05;-0.0069793088537077564
1.05328e-05;-0.006985308588953817
1.05330e-05;-0.006991628499143817
1.05333e-05;-0.006998589536681699
1.05335e-05;-0.007005550574219532
1.05338e-05;-0.007012511611757414
1.05340e-05;-0.007019472649295295
1.05342e-05;-0.007026433686833129
1.05345e-05;-0.00703339472437101
1.05348e-05;-0.007041089249972923
1.05350e-05;-0.007050252532784503
1.05353e-05;-0.007059415815596145
1.05355e-05;-0.0070685790984077864
1.05357e-05;-0.007077742381219366
1.05360e-05;-0.007086905664031007
1.05363e-05;-0.007096068946842649
1.05365e-05;-0.0071058136206796785
1.05368e-05;-0.007116722488322033
1.05370e-05;-0.007127631355964387
1.05373e-05;-0.007138540223606742
1.05375e-05;-0.007149449091249022
1.05378e-05;-0.007160357958891377
1.05380e-05;-0.007171266826533731
1.05383e-05;-0.007182175694176012
1.05385e-05;-0.007192325346000359
1.05388e-05;-0.007201734117172214
1.05390e-05;-0.007211142888344005
1.05393e-05;-0.00722055165951586
1.05395e-05;-0.007229960430687714
1.05398e-05;-0.0072393692018595055
1.05400e-05;-0.007248777973031361
1.05403e-05;-0.007258186744203215
1.05405e-05;-0.007266059616140392
1.05408e-05;-0.007273206914758467
1.05410e-05;-0.007280354213376541
1.05413e-05;-0.0072875015119945675
1.05415e-05;-0.007294648810612642
1.05418e-05;-0.007301796109230716
1.05420e-05;-0.007308943407848742
1.05423e-05;-0.007316090706466816
1.05425e-05;-0.007320848083330851
1.05427e-05;-0.007321804152225799
1.05430e-05;-0.007322760221120753
1.05433e-05;-0.007323716290015708
1.05435e-05;-0.0073246723589106555
1.05438e-05;-0.00732562842780561
1.05440e-05;-0.007326584496700565
1.05442e-05;-0.007327540565595513
1.05445e-05;-0.00732805214742599
1.05448e-05;-0.007324222388007584
1.05450e-05;-0.007320392628589204
1.05453e-05;-0.007316562869170799
1.05455e-05;-0.007312733109752393
1.05458e-05;-0.007308903350333988
1.05460e-05;-0.007305073590915608
1.05463e-05;-0.0073012438314972025
1.05465e-05;-0.007294855123888538
1.05468e-05;-0.007287613072989895
1.05470e-05;-0.007280371022091202
1.05473e-05;-0.00727312897119251
1.05475e-05;-0.007265886920293867
1.05478e-05;-0.0072586448693951755
1.05480e-05;-0.007251402818496483
1.05483e-05;-0.007243744883947289
1.05485e-05;-0.007235480920079972
1.05488e-05;-0.007227216956212654
1.05490e-05;-0.007218952992345392
1.05493e-05;-0.007210689028478075
1.05495e-05;-0.007202425064610758
1.05498e-05;-0.007194590734559521
1.05500e-05;-0.007186800475219928
1.05503e-05;-0.007179010215880335
1.05505e-05;-0.007171219956540796
1.05508e-05;-0.007163429697201203
1.05510e-05;-0.007156045450626555
1.05512e-05;-0.007149429092080882
1.05515e-05;-0.007143311747395777
1.05518e-05;-0.007138284513327941
1.05520e-05;-0.0071343315146599985
1.05523e-05;-0.007131826453609703
1.05525e-05;-0.007131431340007421
1.05527e-05;-0.007132381261054894
1.05530e-05;-0.00713529117843929
1.05533e-05;-0.007139807241227237
1.05535e-05;-0.007146663793241954
1.05538e-05;-0.007153520345256717
1.05540e-05;-0.00716359744030051
1.05543e-05;-0.007178367539008403
1.05545e-05;-0.0071931376377161954
1.05548e-05;-0.007207907736424088
1.05550e-05;-0.00722267783513198
1.05553e-05;-0.007237447933839773
1.05555e-05;-0.007260097263330057
1.05558e-05;-0.007283554823679652
1.05560e-05;-0.007307012384029087
1.05563e-05;-0.007330469944378681
1.05565e-05;-0.007353927504728276
1.05568e-05;-0.007379951714161681
1.05570e-05;-0.007409716067244412
1.05573e-05;-0.007439480420327142
1.05575e-05;-0.00746924477340967
1.05578e-05;-0.007499009126492401
1.05580e-05;-0.007528773479575131
1.05583e-05;-0.0075585378326576596
1.05585e-05;-0.007589400331782416
1.05588e-05;-0.007620375475852344
1.05590e-05;-0.007651350619922063
1.05593e-05;-0.0076823257639919915
1.05595e-05;-0.007713300908061919
1.05597e-05;-0.007744276052131638
1.05600e-05;-0.007773920731819212
1.05603e-05;-0.007801626647091448
1.05605e-05;-0.007829332562363496
1.05608e-05;-0.007855255205208477
1.05610e-05;-0.007878579247767147
1.05612e-05;-0.00790190329032566
1.05615e-05;-0.00792271874929843
1.05618e-05;-0.007939878678176578
1.05620e-05;-0.00795703860705461
1.05623e-05;-0.007971365008904977
1.05625e-05;-0.007981562370215299
1.05628e-05;-0.007991759731525622
1.05630e-05;-0.007998970064143322
1.05633e-05;-0.008001827672243113
1.05635e-05;-0.008004685280342904
1.05638e-05;-0.008003316590791218
1.05640e-05;-0.007995789303080413
1.05643e-05;-0.007988262015369606
1.05645e-05;-0.007980734727658851
1.05648e-05;-0.007973207439948045
1.05650e-05;-0.00796568015223724
1.05653e-05;-0.007947507314134163
1.05655e-05;-0.007928242483349775
1.05658e-05;-0.007908977652565386
1.05660e-05;-0.00788971282178113
1.05663e-05;-0.007870447990996742
1.05665e-05;-0.007847825777312275
1.05668e-05;-0.007820311155697052
1.05670e-05;-0.007792796534081642
1.05673e-05;-0.0077652819124662325
1.05675e-05;-0.007737767290851009
1.05678e-05;-0.007708572299776391
1.05680e-05;-0.007676928659526423
1.05682e-05;-0.00764528501927667
1.05685e-05;-0.007613641379026702
1.05688e-05;-0.007581997738776734
1.05690e-05;-0.007550142455737765
1.05693e-05;-0.0075179787649621325
1.05695e-05;-0.007486015194875443
1.05697e-05;-0.007454577285081204
1.05700e-05;-0.007423797092564054
1.05703e-05;-0.007393878972203071
1.05705e-05;-0.007365027316866443
1.05708e-05;-0.007337444705432323
1.05710e-05;-0.007311701037933329
1.05713e-05;-0.00728743589391301
1.05715e-05;-0.007264713441624168
1.05718e-05;-0.007244239013313177
1.05720e-05;-0.007225259046889433
1.05723e-05;-0.007208456823490266
1.05725e-05;-0.007193177203950086
1.05728e-05;-0.007180116336163679
1.05730e-05;-0.007169098746093274
1.05733e-05;-0.0071610586383066
1.05735e-05;-0.007153018530519927
1.05738e-05;-0.00714847393358626
1.05740e-05;-0.007149023025854211
1.05743e-05;-0.007149572118122162
1.05745e-05;-0.00715012121039011
1.05748e-05;-0.0071506703026580605
1.05750e-05;-0.0071512193949260115
1.05753e-05;-0.007155714427520457
1.05755e-05;-0.007165959519112752
1.05758e-05;-0.0071762046107050476
1.05760e-05;-0.007186449702297273
1.05763e-05;-0.007196694793889569
1.05765e-05;-0.007206939885481864
1.05767e-05;-0.007219931779791039
1.05770e-05;-0.007236926339212028
1.05773e-05;-0.0072539208986330175
1.05775e-05;-0.007270915458053891
1.05778e-05;-0.00728791001747488
1.05780e-05;-0.007304904576895869
1.05782e-05;-0.007321899136316743
1.05785e-05;-0.0073409690689537335
1.05788e-05;-0.007360251887940553
1.05790e-05;-0.007379534706927242
1.05793e-05;-0.007398817525914061
1.05795e-05;-0.00741810034490088
1.05798e-05;-0.0074373831638877
1.05800e-05;-0.007455985862139539
1.05803e-05;-0.007473597482466375
1.05805e-05;-0.007491209102793213
1.05808e-05;-0.007505131453970526
1.05810e-05;-0.007513677769649265
1.05813e-05;-0.007522224085328004
1.05815e-05;-0.007530770401006685
1.05818e-05;-0.007539316716685424
1.05820e-05;-0.007547863032364163
1.05823e-05;-0.007556409348042844
1.05825e-05;-0.007564955663721583
1.05828e-05;-0.007573501979400321
1.05830e-05;-0.007582048295079002
1.05833e-05;-0.007590594610757741
1.05835e-05;-0.00759914092643648
1.05838e-05;-0.007607687242115161
1.05840e-05;-0.0076162335577939005
1.05843e-05;-0.007624779873472639
1.05845e-05;-0.00763332618915132
1.05848e-05;-0.007641872504830059
1.05850e-05;-0.007650418820508798
1.05853e-05;-0.007658965136187479
1.05855e-05;-0.007667511451866217
1.05858e-05;-0.007676057767544956
1.05860e-05;-0.007677759803681057
1.05863e-05;-0.007678759771543977
1.05865e-05;-0.007679759739406898
1.05867e-05;-0.007680759707269813
1.05870e-05;-0.007681759675132733
1.05873e-05;-0.007682759642995654
1.05875e-05;-0.007683759610858568
1.05878e-05;-0.0076847595787214885
1.05880e-05;-0.007685759546584409
1.05883e-05;-0.00768675951444733
1.05885e-05;-0.0076877594823102436
1.05888e-05;-0.007688759450173164
1.05890e-05;-0.007689759418036085
1.05893e-05;-0.0076907593858989995
1.05895e-05;-0.00769175935376192
1.05898e-05;-0.007692759321624841
1.05900e-05;-0.007693759289487755
1.05903e-05;-0.007694759257350675
1.05905e-05;-0.007695759225213596
1.05908e-05;-0.00769675919307651
1.05910e-05;-0.007697148929037775
1.05913e-05;-0.007696649429696923
1.05915e-05;-0.007696149930356074
1.05918e-05;-0.0076947116072532285
1.05920e-05;-0.007691905221895054
1.05923e-05;-0.007689098836536898
1.05925e-05;-0.007684672850692024
1.05928e-05;-0.007677886768752088
1.05930e-05;-0.007671100686812198
1.05933e-05;-0.007662049998774598
1.05935e-05;-0.00764969930678418
1.05938e-05;-0.007637348614793845
1.05940e-05;-0.007624997922803425
1.05943e-05;-0.007612647230813007
1.05945e-05;-0.007600296538822672
1.05948e-05;-0.007580921276350843
1.05950e-05;-0.007560825451832856
1.05952e-05;-0.007540729627315005
1.05955e-05;-0.007520633802797019
1.05958e-05;-0.007500537978279031
1.05960e-05;-0.007477982195690956
1.05963e-05;-0.0074518417405343915
1.05965e-05;-0.007425701285377826
1.05968e-05;-0.007399560830221262
1.05970e-05;-0.0073734203750648744
1.05973e-05;-0.007345947942376462
1.05975e-05;-0.007316534540295926
1.05978e-05;-0.007287121138215589
1.05980e-05;-0.0072577077361350535
1.05983e-05;-0.007228294334054517
1.05985e-05;-0.007198546980574678
1.05988e-05;-0.007168312990173648
1.05990e-05;-0.007138265191606696
1.05993e-05;-0.0071084887134206486
1.05995e-05;-0.007079017817252154
1.05998e-05;-0.007050254876295787
1.06000e-05;-0.007022176001562341
1.06003e-05;-0.006994900065990782
1.06005e-05;-0.00696859400338208
1.06008e-05;-0.00694344332021841
1.06010e-05;-0.00691963279738566
1.06013e-05;-0.006897347768076355
1.06015e-05;-0.006876797633027938
1.06018e-05;-0.006858267040160315
1.06020e-05;-0.006842075114297412
1.06023e-05;-0.0068284270734017
1.06025e-05;-0.006817378196740543
1.06028e-05;-0.006809462256008913
1.06030e-05;-0.006803863377520988
1.06033e-05;-0.006800396750860969
1.06035e-05;-0.006800037260347166
1.06037e-05;-0.006802475921989988
1.06040e-05;-0.0068089920756037444
1.06043e-05;-0.0068155082292175005
1.06045e-05;-0.006826217037600949
1.06048e-05;-0.0068430354194469
1.06050e-05;-0.006859853801292851
1.06053e-05;-0.006876672183138802
1.06055e-05;-0.006893490564984639
1.06058e-05;-0.006914663353189853
1.06060e-05;-0.00694218142069879
1.06063e-05;-0.006969699488207539
1.06065e-05;-0.006997217555716475
1.06068e-05;-0.00702473562322541
1.06070e-05;-0.007055313503218082
1.06073e-05;-0.0070903501689159746
1.06075e-05;-0.007125386834613868
1.06078e-05;-0.007160423500311522
1.06080e-05;-0.007195460166009415
1.06083e-05;-0.0072304968317073075
1.06085e-05;-0.0072662604825524295
1.06088e-05;-0.007303083502558649
1.06090e-05;-0.007339906522564869
1.06093e-05;-0.007376729542570839
1.06095e-05;-0.007413552562577058
1.06098e-05;-0.007450375582583278
1.06100e-05;-0.007486049740541497
1.06103e-05;-0.007520049766603628
1.06105e-05;-0.007549828894853581
1.06108e-05;-0.0075734572936294745
1.06110e-05;-0.007597085692405529
1.06113e-05;-0.007620714091181584
1.06115e-05;-0.0076443424899574775
1.06118e-05;-0.007667970888733532
1.06120e-05;-0.007691599287509587
1.06122e-05;-0.0077152276862854806
1.06125e-05;-0.007738856085061535
1.06128e-05;-0.00776248448383759
1.06130e-05;-0.0077802444192179914
1.06133e-05;-0.007789452778042245
1.06135e-05;-0.007798661136866498
1.06138e-05;-0.007807869495690751
1.06140e-05;-0.007817077854514942
1.06143e-05;-0.007826286213339195
1.06145e-05;-0.007835494572163449
1.06148e-05;-0.007844702930987638
1.06150e-05;-0.007853911289811891
1.06153e-05;-0.007863119648636145
1.06155e-05;-0.007868241616271952
1.06158e-05;-0.007867408858669815
1.06160e-05;-0.007866576101067679
1.06163e-05;-0.007865743343465549
1.06165e-05;-0.007864910585863413
1.06168e-05;-0.007864077828261278
1.06170e-05;-0.007863245070659147
1.06173e-05;-0.007862412313057012
1.06175e-05;-0.007861579555454875
1.06178e-05;-0.007860746797852746
1.06180e-05;-0.00785991404025061
1.06183e-05;-0.007859081282648474
1.06185e-05;-0.007856704569928102
1.06188e-05;-0.00785207799220805
1.06190e-05;-0.007847451414488
1.06193e-05;-0.00784282483676798
1.06195e-05;-0.007838198259047928
1.06198e-05;-0.007833571681327877
1.06200e-05;-0.007828945103607857
1.06203e-05;-0.007824318525887806
1.06205e-05;-0.007819691948167755
1.06207e-05;-0.007815065370447734
1.06210e-05;-0.007810438792727682
1.06213e-05;-0.007805812215007631
1.06215e-05;-0.007800749531477937
1.06218e-05;-0.007795051350720474
1.06220e-05;-0.007789353169963011
1.06222e-05;-0.007783654989205587
1.06225e-05;-0.007777956808448124
1.06228e-05;-0.007772258627690661
1.06230e-05;-0.007766560446933198
1.06233e-05;-0.007760862266175774
1.06235e-05;-0.0077532452198558
1.06238e-05;-0.0077428319857337025
1.06240e-05;-0.007732418751611675
1.06243e-05;-0.007722005517489578
1.06245e-05;-0.00771159228336748
1.06248e-05;-0.007701179049245454
1.06250e-05;-0.007690765815123356
1.06253e-05;-0.007680352581001259
1.06255e-05;-0.007668152255863143
1.06258e-05;-0.0076533477659525406
1.06260e-05;-0.007638543276041938
1.06263e-05;-0.007623738786131436
1.06265e-05;-0.007608934296220833
1.06268e-05;-0.00759412980631023
1.06270e-05;-0.007579325316399728
1.06273e-05;-0.007564520826489125
1.06275e-05;-0.007547889298619861
1.06278e-05;-0.0075310703579804785
1.06280e-05;-0.007514251417340983
1.06283e-05;-0.007497432476701487
1.06285e-05;-0.007480613536062105
1.06288e-05;-0.00746379459542261
1.06290e-05;-0.007446975654783114
1.06292e-05;-0.007430397718074175
1.06295e-05;-0.007414170974415791
1.06298e-05;-0.007397944230757408
1.06300e-05;-0.007382231180735728
1.06303e-05;-0.0073672666896068065
1.06305e-05;-0.007352302198477885
1.06307e-05;-0.007338162068140684
1.06310e-05;-0.007325223203611551
1.06313e-05;-0.007312284339082418
1.06315e-05;-0.007299893090162675
1.06318e-05;-0.007288299831533511
1.06320e-05;-0.007276706572904268
1.06323e-05;-0.007264272024081724
1.06325e-05;-0.0072506115397777855
1.06328e-05;-0.007236951055473755
1.06330e-05;-0.0072226537603543965
1.06333e-05;-0.007207428498904686
1.06335e-05;-0.007192203237454872
1.06338e-05;-0.007175494815701048
1.06340e-05;-0.007156625119685514
1.06343e-05;-0.007137755423669853
1.06345e-05;-0.007118885727654191
1.06348e-05;-0.007100016031638658
1.06350e-05;-0.007081146335622996
1.06353e-05;-0.007058050947224799
1.06355e-05;-0.007034522098365562
1.06358e-05;-0.007010993249506165
1.06360e-05;-0.006987464400646768
1.06363e-05;-0.006963935551787531
1.06365e-05;-0.006939151871325518
1.06368e-05;-0.006912539639196739
1.06370e-05;-0.00688592740706814
1.06373e-05;-0.006858939064276323
1.06375e-05;-0.006831402649712667
1.06377e-05;-0.006803866235149198
1.06380e-05;-0.0067761121703857645
1.06383e-05;-0.006748040943833636
1.06385e-05;-0.006719967443182962
1.06388e-05;-0.0066918906286953855
1.06390e-05;-0.006663979160136675
1.06392e-05;-0.006636508187286466
1.06395e-05;-0.006609578722993143
1.06398e-05;-0.006583282384323442
1.06400e-05;-0.006557658617186256
1.06403e-05;-0.006532777957506585
1.06405e-05;-0.006508781186074494
1.06408e-05;-0.006487929349057824
1.06410e-05;-0.006470809637792972
1.06413e-05;-0.006453689926528005
1.06415e-05;-0.0064365702152630365
1.06418e-05;-0.0064194505039981845
1.06420e-05;-0.006402330792733217
1.06423e-05;-0.006385211081468249
1.06425e-05;-0.006368091370203397
1.06428e-05;-0.0063509716589384285
1.06430e-05;-0.006333851947673461
1.06433e-05;-0.006319863859874785
1.06435e-05;-0.006310439201382577
1.06438e-05;-0.0063010145428903696
1.06440e-05;-0.006291589884398226
1.06443e-05;-0.006282165225906019
1.06445e-05;-0.006272740567413811
1.06448e-05;-0.006263315908921667
1.06450e-05;-0.00625389125042946
1.06453e-05;-0.006244466591937252
1.06455e-05;-0.006235041933445109
1.06458e-05;-0.006227503076497123
1.06460e-05;-0.006222712226174769
1.06462e-05;-0.006217921375852446
1.06465e-05;-0.0062131305255300915
