Time(s);Current(A)
7.00000e-06;-0.0025500862716099503
7.00025e-06;-0.0025432063159138815
7.00050e-06;-0.002530388200447844
7.00075e-06;-0.002514062232130101
7.00100e-06;-0.002492538470839525
7.00125e-06;-0.0024657927491417175
7.00150e-06;-0.0024390470274438195
7.00175e-06;-0.0024067790608504054
7.00200e-06;-0.002368963173369431
7.00225e-06;-0.002325474400525986
7.00250e-06;-0.002276286365917026
7.00275e-06;-0.0022220273690131127
7.00300e-06;-0.002162673832086903
7.00325e-06;-0.002100054114833559
7.00350e-06;-0.0020322228120594563
7.00375e-06;-0.0019604752321862235
7.00400e-06;-0.0018845619675518686
7.00425e-06;-0.0018043018199132373
7.00450e-06;-0.0017199605742714511
7.00475e-06;-0.0016320519706514824
7.00500e-06;-0.0015411149544604463
7.00525e-06;-0.0014476883536110189
7.00550e-06;-0.0013522864901646405
7.00575e-06;-0.0012552596323229116
7.00600e-06;-0.0011567208128034885
7.00625e-06;-0.0010568254694020333
7.00650e-06;-0.0009560091373386043
7.00675e-06;-0.0008548627629485245
7.00700e-06;-0.0007539928700578312
7.00725e-06;-0.000654005982493928
7.00750e-06;-0.000555493176756998
7.00775e-06;-0.00045894268344308506
7.00800e-06;-0.00036469411118513905
7.00825e-06;-0.0002731137675146939
7.00850e-06;-0.0001847432543255009
7.00875e-06;-0.00010022143602082112
7.00900e-06;-2.0196989856262957e-05
7.00925e-06;5.468149432525029e-05
7.00950e-06;0.0001238516212036517
7.00975e-06;0.00018735335531814326
7.01000e-06;0.00024618101922316683
7.01025e-06;0.0003013832649482709
7.01050e-06;0.0003531801141933548
7.01075e-06;0.0004012934721856011
7.01100e-06;0.00044539212241090316
7.01125e-06;0.0004851449797617848
7.01150e-06;0.0005202749084915635
7.01175e-06;0.0005508821476508925
7.01200e-06;0.0005776647433110019
7.01225e-06;0.0006013546919988098
7.01250e-06;0.0006221648350036939
7.01275e-06;0.000639203473313232
7.01300e-06;0.0006539196796645271
7.01325e-06;0.0006661922032173622
7.01350e-06;0.0006735698609631154
7.01375e-06;0.0006784963536560181
7.01400e-06;0.0006810040041285619
7.01425e-06;0.0006810815658367293
7.01450e-06;0.0006792201396716584
7.01475e-06;0.000675410710199346
7.01500e-06;0.000669656906615031
7.01525e-06;0.0006619496884411397
7.01550e-06;0.0006520644940616396
7.01575e-06;0.0006399911968528436
7.01600e-06;0.0006279178996440477
7.01625e-06;0.0006144432124855674
7.01650e-06;0.0005995606195355512
7.01675e-06;0.0005846780265855349
7.01700e-06;0.0005689325514143794
7.01725e-06;0.000552320182002444
7.01750e-06;0.0005357078125905086
7.01775e-06;0.0005188531301867027
7.01800e-06;0.0005017550081431676
7.01825e-06;0.00048530576574816
7.01850e-06;0.0004695084200042814
7.01875e-06;0.0004537110742604564
7.01900e-06;0.00043870989977545474
7.01925e-06;0.00042500532284595077
7.01950e-06;0.00041224704098795925
7.01975e-06;0.00039971444745313494
7.02000e-06;0.0003856121409628546
7.02025e-06;0.0003682903916923742
7.02050e-06;0.0003473054440970121
7.02075e-06;0.00032289056448813066
7.02100e-06;0.0002953485491852396
7.02125e-06;0.00026498220889096413
7.02150e-06;0.00023202625706383862
7.02175e-06;0.000196257753661409
7.02200e-06;0.00015678060738637581
7.02225e-06;0.00011279003734307044
7.02250e-06;6.423674283251234e-05
7.02275e-06;1.1495500430325987e-05
7.02300e-06;-4.5015376840463756e-05
7.02325e-06;-0.00010487761594981607
7.02350e-06;-0.00016771560378674044
7.02375e-06;-0.00023344040150667308
7.02400e-06;-0.00030238474986765706
7.02425e-06;-0.0003748241385512377
7.02450e-06;-0.00045056078415062304
7.02475e-06;-0.0005296544187252744
7.02500e-06;-0.0006105706052870823
7.02525e-06;-0.0006933733352755909
7.02550e-06;-0.0007780713802812789
7.02575e-06;-0.0008627694252866798
7.02600e-06;-0.0009489501813162173
7.02625e-06;-0.0010366205423188006
7.02650e-06;-0.0011242909033210868
7.02675e-06;-0.0012117895628404735
7.02700e-06;-0.0012991157225415207
7.02725e-06;-0.001386441882242272
7.02750e-06;-0.0014719295778351292
7.02775e-06;-0.0015555702612777668
7.02800e-06;-0.0016370040967260402
7.02825e-06;-0.0017162208233162566
7.02850e-06;-0.0017913764420420645
7.02875e-06;-0.0018624520705536722
7.02900e-06;-0.0019335276990655207
7.02925e-06;-0.001998957794433766
7.02950e-06;-0.0020587161074339683
7.02975e-06;-0.002114451669558721
7.03000e-06;-0.0021661457768006494
7.03025e-06;-0.00221543449532022
7.03050e-06;-0.0022623066411271283
7.03075e-06;-0.002309178786933878
7.03100e-06;-0.002351557551391085
7.03125e-06;-0.0023894220422690502
7.03150e-06;-0.002427286533146887
7.03175e-06;-0.002465151024024724
7.03200e-06;-0.0024992482837083983
7.03225e-06;-0.002529560796244
7.03250e-06;-0.0025598733087797048
7.03275e-06;-0.0025901858213153066
7.03300e-06;-0.0026173276023836495
7.03325e-06;-0.0026412839094902877
7.03350e-06;-0.0026652402165968443
7.03375e-06;-0.0026891965237034014
7.03400e-06;-0.0027131528308100396
7.03425e-06;-0.0027321264488648443
7.03450e-06;-0.002751094281820886
7.03475e-06;-0.0027700621147769924
7.03500e-06;-0.0027890299477330346
7.03525e-06;-0.0028050376510630817
7.03550e-06;-0.002818071461477894
7.03575e-06;-0.0028311052718926625
7.03600e-06;-0.002844139082307431
7.03625e-06;-0.0028571728927222436
7.03650e-06;-0.002870206703137012
7.03675e-06;-0.0028832405135518244
7.03700e-06;-0.0028962743239665926
7.03725e-06;-0.002909308134381361
7.03750e-06;-0.0029223419447961733
7.03775e-06;-0.002930008182393863
7.03800e-06;-0.00293766818802763
7.03825e-06;-0.002945328193661423
7.03850e-06;-0.00295298819929519
7.03875e-06;-0.002960648204928957
7.03900e-06;-0.0029683082105627493
7.03925e-06;-0.0029759682161965163
7.03950e-06;-0.002983628221830283
7.03975e-06;-0.002991288227464076
7.04000e-06;-0.002998510440073331
7.04025e-06;-0.00300529282411481
7.04050e-06;-0.003012075208156312
7.04075e-06;-0.003018857592197791
7.04100e-06;-0.003025639976239293
7.04125e-06;-0.003032422360280772
7.04150e-06;-0.0030392047443222507
7.04175e-06;-0.003045987128363753
7.04200e-06;-0.003052769512405232
7.04225e-06;-0.0030620012523786366
7.04250e-06;-0.003071235836150947
7.04275e-06;-0.0030804704199232256
7.04300e-06;-0.0030897050036955043
7.04325e-06;-0.0030989395874678146
7.04350e-06;-0.0031081741712400933
7.04375e-06;-0.003117408755012372
7.04400e-06;-0.0031266433387846823
7.04425e-06;-0.0031370654461773586
7.04450e-06;-0.003148680598648126
7.04475e-06;-0.0031602957511189327
7.04500e-06;-0.0031719109035897005
7.04525e-06;-0.0031835260560605073
7.04550e-06;-0.0031951412085312746
7.04575e-06;-0.0032067563610020423
7.04600e-06;-0.003218371513472849
7.04625e-06;-0.0032299866659436165
7.04650e-06;-0.003241601818414384
7.04675e-06;-0.003252713933934075
7.04700e-06;-0.003263320673604113
7.04725e-06;-0.0032739274132741513
7.04750e-06;-0.0032845341529442254
7.04775e-06;-0.003295140892614264
7.04800e-06;-0.003305747632284302
7.04825e-06;-0.0033163543719543762
7.04850e-06;-0.0033269611116244144
7.04875e-06;-0.0033375678512944525
7.04900e-06;-0.0033481745909645266
7.04925e-06;-0.0033570718342782477
7.04950e-06;-0.0033642516328366264
7.04975e-06;-0.0033714314313949808
7.05000e-06;-0.003374964847953216
7.05025e-06;-0.003374834928454057
7.05050e-06;-0.003374705008954898
7.05075e-06;-0.003374575089455739
7.05100e-06;-0.00337444516995658
7.05125e-06;-0.003374315250457421
7.05150e-06;-0.003368502147375795
7.05175e-06;-0.00335697943643154
7.05200e-06;-0.003345456725487325
7.05225e-06;-0.0033339340145431095
7.05250e-06;-0.0033224113035988548
7.05275e-06;-0.0033108885926546395
7.05300e-06;-0.003293698559407872
7.05325e-06;-0.0032708148533264164
7.05350e-06;-0.0032479311472450386
7.05375e-06;-0.003225047441163583
7.05400e-06;-0.003202163735082205
7.05425e-06;-0.003179280029000827
7.05450e-06;-0.0031563963229193715
7.05475e-06;-0.0031253212589361394
7.05500e-06;-0.003094236684463702
7.05525e-06;-0.003063152109991159
7.05550e-06;-0.0030320675355187217
7.05575e-06;-0.003000982961046284
7.05600e-06;-0.002969898386573741
7.05625e-06;-0.002937472534794143
7.05650e-06;-0.002903699169363609
7.05675e-06;-0.002869844850652048
7.05700e-06;-0.002835909202262887
7.05725e-06;-0.002802286391265604
7.05750e-06;-0.002768977872215012
7.05775e-06;-0.0027363231351132575
7.05800e-06;-0.0027043252197559062
7.05825e-06;-0.002673630338628823
7.05850e-06;-0.0026442445502626245
7.05875e-06;-0.0026148587618963263
7.05900e-06;-0.0025873929135733923
7.05925e-06;-0.002561855932162114
7.05950e-06;-0.0025377041577878106
7.05975e-06;-0.0025153633156163673
7.06000e-06;-0.0024925042080894268
7.06025e-06;-0.00246870123289668
7.06050e-06;-0.0024432699585335772
7.06075e-06;-0.0024162028141322058
7.06100e-06;-0.0023878409011748765
7.06125e-06;-0.0023581781995631592
7.06150e-06;-0.0023285154979514416
7.06175e-06;-0.0022973510761992726
7.06200e-06;-0.002264677951975325
7.06225e-06;-0.002229061241020316
7.06250e-06;-0.002190487256963474
7.06275e-06;-0.002151913272906763
7.06300e-06;-0.0021107537393937723
7.06325e-06;-0.002066996634768468
7.06350e-06;-0.0020232395301431633
7.06375e-06;-0.0019772492222163204
7.06400e-06;-0.001929015327585054
7.06425e-06;-0.0018807814329537874
7.06450e-06;-0.0018304356100819173
7.06475e-06;-0.0017779680394417706
7.06500e-06;-0.0017245059745866064
7.06525e-06;-0.0016700447915599889
7.06550e-06;-0.0016151405722493854
7.06575e-06;-0.0015597912567327347
7.06600e-06;-0.0015040946086669856
7.06625e-06;-0.0014478246203719842
7.06650e-06;-0.0013912628189674055
7.06675e-06;-0.0013347403725621626
7.06700e-06;-0.0012786026278838697
7.06725e-06;-0.0012231946980186983
7.06750e-06;-0.001168847758886413
7.06775e-06;-0.0011157977402519404
7.06800e-06;-0.0010641380906168674
7.06825e-06;-0.0010139757965325384
7.06850e-06;-0.0009661378864673603
7.06875e-06;-0.0009198353220250457
7.06900e-06;-0.0008761588175553534
7.06925e-06;-0.0008351205830700401
7.06950e-06;-0.0007963985909432101
7.06975e-06;-0.0007611064974982194
7.07000e-06;-0.0007270245105395842
7.07025e-06;-0.0006930450899893015
7.07050e-06;-0.0006588608471853204
7.07075e-06;-0.0006244708297950693
7.07100e-06;-0.0005906534765333977
7.07125e-06;-0.0005574114500342356
7.07150e-06;-0.0005241694235349609
7.07175e-06;-0.0004913349485081612
7.07200e-06;-0.0004589099198869421
7.07225e-06;-0.00042533637143187994
7.07250e-06;-0.0003906089630364207
7.07275e-06;-0.00035588155464096147
7.07300e-06;-0.00032056747692807094
7.07325e-06;-0.0002846640021464087
7.07350e-06;-0.00024874533773595013
7.07375e-06;-0.00021281141307155082
7.07400e-06;-0.00017648757045459246
7.07425e-06;-0.00013932091033378916
7.07450e-06;-0.00010135348326738058
7.07475e-06;-6.28160231338014e-05
7.07500e-06;-2.3962591879961308e-05
7.07525e-06;1.4952804017973139e-05
7.07550e-06;5.364085971460545e-05
7.07575e-06;9.213340882850991e-05
7.07600e-06;0.00013062595794228397
7.07625e-06;0.00016913009739009805
7.07650e-06;0.0002076458810619839
7.07675e-06;0.0002458115192905713
7.07700e-06;0.00028362538405532874
7.07725e-06;0.0003208750076461374
7.07750e-06;0.00035703534498864113
7.07775e-06;0.00039212711194980564
7.07800e-06;0.0004261733659739736
7.07825e-06;0.0004591894707180513
7.07850e-06;0.0004910382094591982
7.07875e-06;0.0005214945286168584
7.07900e-06;0.0005503242154189877
7.07925e-06;0.0005772931000408189
7.07950e-06;0.000602107256705704
7.07975e-06;0.0006240827844336272
7.08000e-06;0.000641999138503012
7.08025e-06;0.0006548077307594526
7.08050e-06;0.0006621929536062491
7.08075e-06;0.0006642329181092869
7.08100e-06;0.0006610451162295973
7.08125e-06;0.0006527471274422414
7.08150e-06;0.000639419016287145
7.08175e-06;0.0006208966515807156
7.08200e-06;0.0005966797466123844
7.08225e-06;0.0005663757508625766
7.08250e-06;0.0005300513510406305
7.08275e-06;0.00048801985118394756
7.08300e-06;0.0004406191758002885
7.08325e-06;0.0003881872640510755
7.08350e-06;0.0003310385646408459
7.08375e-06;0.00026933454811676436
7.08400e-06;0.0002030261362404571
7.08425e-06;0.0001321317631658364
7.08450e-06;5.695748296101679e-05
7.08475e-06;-2.203617193259486e-05
7.08500e-06;-0.00010437327380115419
7.08525e-06;-0.00018957791680847312
7.08550e-06;-0.0002771889310553785
7.08575e-06;-0.00036726905228275396
7.08600e-06;-0.0004587308080837462
7.08625e-06;-0.0005516046904566651
7.08650e-06;-0.0006458972651624127
7.08675e-06;-0.0007401898398678408
7.08700e-06;-0.0008047878223505395
7.08725e-06;-0.0009067245366270426
7.08750e-06;-0.0009999896866596015
7.08775e-06;-0.00109203263243987
7.08800e-06;-0.0011868321228308241
7.08825e-06;-0.0012733779428006288
7.08850e-06;-0.001356727228612687
7.08875e-06;-0.001436018919915989
7.08900e-06;-0.0015125041176877196
7.08925e-06;-0.0015806903285982255
7.08950e-06;-0.0016462904057955262
7.08975e-06;-0.0017116805382740097
7.09000e-06;-0.0017664243326608693
7.09025e-06;-0.0018211681270475435
7.09050e-06;-0.0018733334110592637
7.09075e-06;-0.0019187436159798584
7.09100e-06;-0.0019641538209002993
7.09125e-06;-0.002004786390594551
7.09150e-06;-0.00203680392260586
7.09175e-06;-0.0020680835542588173
7.09200e-06;-0.00209810375452462
7.09225e-06;-0.0021271943912449785
7.09250e-06;-0.0021562850279652386
7.09275e-06;-0.002180082074916281
7.09300e-06;-0.002201438594742094
7.09325e-06;-0.002220437596211918
7.09350e-06;-0.0022369508262353177
7.09375e-06;-0.002251167477350702
7.09400e-06;-0.002257487126448161
7.09425e-06;-0.002263123154358823
7.09450e-06;-0.0022687591822694664
7.09475e-06;-0.0022743952101801097
7.09500e-06;-0.002280031238090772
7.09525e-06;-0.002285667266001415
7.09550e-06;-0.002291303293912058
7.09575e-06;-0.0022969393218227204
7.09600e-06;-0.0023025753497333636
7.09625e-06;-0.0023000989695014357
7.09650e-06;-0.0022969034206574185
7.09675e-06;-0.0022937078718134126
7.09700e-06;-0.0022905123229693953
7.09725e-06;-0.002287316774125389
7.09750e-06;-0.0022841212252813826
7.09775e-06;-0.0022809256764373654
7.09800e-06;-0.002277730127593359
7.09825e-06;-0.0022745345787493526
7.09850e-06;-0.002270092899264017
7.09875e-06;-0.002265540749739726
7.09900e-06;-0.0022609886002154344
7.09925e-06;-0.0022571168452929003
7.09950e-06;-0.0022533054076562865
7.09975e-06;-0.0022489108510291866
7.10000e-06;-0.0022444646006426353
7.10025e-06;-0.002235825518329076
7.10050e-06;-0.0022268147395890277
7.10075e-06;-0.002211290760428845
7.10100e-06;-0.0021951893831370275
7.10125e-06;-0.002179088005845155
7.10150e-06;-0.002162986628553337
7.10175e-06;-0.0021423324734725236
7.10200e-06;-0.0021153540763514103
7.10225e-06;-0.0020883756792303885
7.10250e-06;-0.0020613972821093667
7.10275e-06;-0.0020344188849882533
7.10300e-06;-0.0019985099879124505
7.10325e-06;-0.0019618093980196855
7.10350e-06;-0.0019251088081267964
7.10375e-06;-0.0018826653570079611
7.10400e-06;-0.0018397127986718026
7.10425e-06;-0.0017967602403354984
7.10450e-06;-0.001748803869467518
7.10475e-06;-0.0017004039083796652
7.10500e-06;-0.0016491908499647317
7.10525e-06;-0.0015977284092132387
7.10550e-06;-0.0015445061318162846
7.10575e-06;-0.0014911278441134858
7.10600e-06;-0.00143670747048322
7.10625e-06;-0.0013814993142595572
7.10650e-06;-0.001325790433463826
7.10675e-06;-0.0012699483112366284
7.10700e-06;-0.0012143097738145574
7.10725e-06;-0.0011592080208088107
7.10750e-06;-0.0011049787993209874
7.10775e-06;-0.0010518893244775126
7.10800e-06;-0.0010000838354024342
7.10825e-06;-0.0009497104321300719
7.10850e-06;-0.0009010755102215523
7.10875e-06;-0.0008545548859320225
7.10900e-06;-0.000810505074692684
7.10925e-06;-0.0007692804447430391
7.10950e-06;-0.0007312389466604798
7.10975e-06;-0.0006968065922031094
7.11000e-06;-0.0006664577450673417
7.11025e-06;-0.0006404986242493208
7.11050e-06;-0.0006190469744223278
7.11075e-06;-0.0006021547627989778
7.11100e-06;-0.0005898541950616201
7.11125e-06;-0.0005821762282059608
7.11150e-06;-0.0005791539139488806
7.11175e-06;-0.000580863049172483
7.11200e-06;-0.0005874096702723033
7.11225e-06;-0.0005987943689827196
7.11250e-06;-0.0006148998557165128
7.11275e-06;-0.0006355674779453106
7.11300e-06;-0.0006606263572983071
7.11325e-06;-0.000689904674240417
7.11350e-06;-0.0007232320968529907
7.11375e-06;-0.0007621967387505456
7.11400e-06;-0.0008016319924620965
7.11425e-06;-0.0008475992642622481
7.11450e-06;-0.0008941456023883114
7.11475e-06;-0.0009462209843153831
7.11500e-06;-0.0009987865184488472
7.11525e-06;-0.0010566736416166784
7.11550e-06;-0.0011150325260333967
7.11575e-06;-0.0011733914104499173
7.11600e-06;-0.0012360058266106817
7.11625e-06;-0.0012989974975646259
7.11650e-06;-0.0013619891685183567
7.11675e-06;-0.0014264048988150164
7.11700e-06;-0.001490946872609735
7.11725e-06;-0.0015554888464042352
7.11750e-06;-0.0016183574230393802
7.11775e-06;-0.0016810776522679302
7.11800e-06;-0.001743797881496268
7.11825e-06;-0.00180283042402476
7.11850e-06;-0.0018615360514773421
7.11875e-06;-0.0019155248633139486
7.11900e-06;-0.0019690955273362477
7.11925e-06;-0.0020144961271864924
7.11950e-06;-0.002059172447192942
7.11975e-06;-0.0021038487671995437
7.12000e-06;-0.00213640366916773
7.12025e-06;-0.002167884002004239
7.12050e-06;-0.0021993643348408544
7.12075e-06;-0.002217759404813302
7.12100e-06;-0.002234994460379136
7.12125e-06;-0.0022522295159450286
7.12150e-06;-0.002255771487568025
7.12175e-06;-0.0022580995611739202
7.12200e-06;-0.0022604276347798235
7.12225e-06;-0.0022493142079036375
7.12250e-06;-0.002237009185996703
7.12275e-06;-0.002224704164089811
7.12300e-06;-0.0022000343390679114
7.12325e-06;-0.002174268368718512
7.12350e-06;-0.0021485023983692
7.12375e-06;-0.0021133193717819236
7.12400e-06;-0.002077301518946444
7.12425e-06;-0.0020346804022806876
7.12450e-06;-0.001991473903322517
7.12475e-06;-0.001943935663291442
7.12500e-06;-0.0018934576553018539
7.12525e-06;-0.0018404464807112884
7.12550e-06;-0.0017851733872194144
7.12575e-06;-0.0017279195675229961
7.12600e-06;-0.0016689981072261673
7.12625e-06;-0.0016087538206028813
7.12650e-06;-0.001547543394357734
7.12675e-06;-0.0014857232705891795
7.12700e-06;-0.0014236494757914086
7.12725e-06;-0.0013616777941474673
7.12750e-06;-0.0013001642047515433
7.12775e-06;-0.0012394711217850022
7.12800e-06;-0.0011799803488597002
7.12825e-06;-0.0011220941786841499
7.12850e-06;-0.0010662218122623743
7.12875e-06;-0.001012772487369895
7.12900e-06;-0.0009621551899918697
7.12925e-06;-0.0009164693226948545
7.12950e-06;-0.0008711999442339108
7.12975e-06;-0.0008330626788548123
7.13000e-06;-0.0007955576784907769
7.13025e-06;-0.0007634203028713032
7.13050e-06;-0.0007353556502697729
7.13075e-06;-0.0007113066746082147
7.13100e-06;-0.0006913820590692555
7.13125e-06;-0.0006756902100173515
7.13150e-06;-0.0006643387081011933
7.13175e-06;-0.0006573556098336045
7.13200e-06;-0.0006546054281540616
7.13225e-06;-0.0006558957606873468
7.13250e-06;-0.0006611016084160085
7.13275e-06;-0.0006701403766326644
7.13300e-06;-0.0006829325631523872
7.13325e-06;-0.0006993985493749793
7.13350e-06;-0.0007210438915475065
7.13375e-06;-0.0007431219118128324
7.13400e-06;-0.0007710866749486842
7.13425e-06;-0.000799573300472922
7.13450e-06;-0.0008330670178834541
7.13475e-06;-0.0008670046162293704
7.13500e-06;-0.0009061297867615715
7.13525e-06;-0.0009457148378884837
7.13550e-06;-0.0009852998890152618
7.13575e-06;-0.001029466696289311
7.13600e-06;-0.0010740396782952372
7.13625e-06;-0.0011186126603010122
7.13650e-06;-0.0011654089371781467
7.13675e-06;-0.0012124023101401846
7.13700e-06;-0.0012593956831020634
7.13725e-06;-0.0013063375488238042
7.13750e-06;-0.0013532748484058287
7.13775e-06;-0.0014002121479876942
7.13800e-06;-0.0014446098020018333
7.13825e-06;-0.0014887823153006733
7.13850e-06;-0.0015329548285993636
7.13875e-06;-0.0015730024139788213
7.13900e-06;-0.0016126843226534938
7.13925e-06;-0.0016477043270634087
7.13950e-06;-0.001682311051575358
7.13975e-06;-0.0017086973809642171
7.14000e-06;-0.001734354968648908
7.14025e-06;-0.0017600125563336858
7.14050e-06;-0.001775336009389063
7.14075e-06;-0.0017897433367877209
7.14100e-06;-0.0017956972567251313
7.14125e-06;-0.0018009017783103872
7.14150e-06;-0.0017976174968015038
7.14175e-06;-0.0017935806791018194
7.14200e-06;-0.0017805652939622935
7.14225e-06;-0.0017667539548037287
7.14250e-06;-0.0017440068223838914
7.14275e-06;-0.0017204675278951634
7.14300e-06;-0.0016887126503784405
7.14325e-06;-0.0016562294577519437
7.14350e-06;-0.001616252977571975
7.14375e-06;-0.0015756122140990717
