Time(s);Current(A)
1.05000e-05;-0.004771716182456636
1.05002e-05;-0.004836306662634794
1.05005e-05;-0.004899031501242628
1.05008e-05;-0.004959870846921315
1.05010e-05;-0.0050179550970592185
1.05013e-05;-0.005073254936064093
1.05015e-05;-0.0051238498905094455
1.05017e-05;-0.005169689898072568
1.05020e-05;-0.005215529905635999
1.05023e-05;-0.0052551240109413545
1.05025e-05;-0.005288405754467588
1.05028e-05;-0.0053216874979940465
1.05030e-05;-0.005348575656630575
1.05033e-05;-0.005369002199439187
1.05035e-05;-0.005389428742247661
1.05038e-05;-0.0053998612701673665
1.05040e-05;-0.005400193441885647
1.05043e-05;-0.005400525613603925
1.05045e-05;-0.005400857785322205
1.05048e-05;-0.005401189957040486
1.05050e-05;-0.005401522128758764
1.05053e-05;-0.005390178340213317
1.05055e-05;-0.005367034353352354
1.05058e-05;-0.005343890366491548
1.05060e-05;-0.005320746379630584
1.05063e-05;-0.005297602392769621
1.05065e-05;-0.0052744584059088145
1.05068e-05;-0.005243285764315971
1.05070e-05;-0.005203999039092907
1.05073e-05;-0.005164712313870108
1.05075e-05;-0.005125425588647044
1.05078e-05;-0.0050861388634239795
1.05080e-05;-0.005042680308427775
1.05083e-05;-0.004995005533304179
1.05085e-05;-0.004947330758180582
1.05087e-05;-0.004899655983057309
1.05090e-05;-0.004851981207933714
1.05093e-05;-0.0048033679494419446
1.05095e-05;-0.004753806221650256
1.05098e-05;-0.004704400128038036
1.05100e-05;-0.004655456108233199
1.05102e-05;-0.004607305545498626
1.05105e-05;-0.004560311424039281
1.05108e-05;-0.004514822598089395
1.05110e-05;-0.0044723668582159854
1.05113e-05;-0.004432126305228002
1.05115e-05;-0.004391885752240019
1.05118e-05;-0.004355626752767623
1.05120e-05;-0.00432567102953186
1.05123e-05;-0.004295715306295894
1.05125e-05;-0.004270323886339189
1.05128e-05;-0.004245648411704876
1.05130e-05;-0.0042156255182322164
1.05133e-05;-0.004187037892648938
1.05135e-05;-0.004161743075412502
1.05138e-05;-0.004136448258175895
1.05140e-05;-0.004111153440939288
1.05143e-05;-0.004085858623702853
1.05145e-05;-0.004065050492740696
1.05148e-05;-0.004044466414354728
1.05150e-05;-0.004023882335968898
1.05153e-05;-0.0040032982575829296
1.05155e-05;-0.003984563948534364
1.05158e-05;-0.003967056086948356
1.05160e-05;-0.0039495482253622295
1.05163e-05;-0.0039320403637761025
1.05165e-05;-0.003914532502190094
1.05168e-05;-0.0038979818535613674
1.05170e-05;-0.0038824491051186317
1.05172e-05;-0.0038669163566760006
1.05175e-05;-0.0038513836082332644
1.05178e-05;-0.0038358508597905283
1.05180e-05;-0.0038213048637187317
1.05183e-05;-0.0038084537918642992
1.05185e-05;-0.0037956027200098667
1.05187e-05;-0.0037827516481555214
1.05190e-05;-0.003769900576301089
1.05193e-05;-0.0037570495044466565
1.05195e-05;-0.003744198432592311
1.05198e-05;-0.003731347360737879
1.05200e-05;-0.0037211302488883735
1.05203e-05;-0.003711313829555154
1.05205e-05;-0.003701497410222001
1.05208e-05;-0.0036916809908887813
1.05210e-05;-0.003681864571555562
1.05213e-05;-0.003672048152222409
1.05215e-05;-0.003662231732889189
1.05218e-05;-0.00365326079068446
1.05220e-05;-0.003645742107124318
1.05223e-05;-0.0036382234235641255
1.05225e-05;-0.003630704740003933
1.05228e-05;-0.0036231860564437915
1.05230e-05;-0.003615667372883599
1.05233e-05;-0.0036081486893234063
1.05235e-05;-0.0036006300057632645
1.05238e-05;-0.003592764594506065
1.05240e-05;-0.003584303616227175
1.05243e-05;-0.003575842637948342
1.05245e-05;-0.0035673816596694516
1.05248e-05;-0.0035589206813905613
1.05250e-05;-0.0035504597031117287
1.05253e-05;-0.0035419987248328385
1.05255e-05;-0.0035335377465539482
1.05257e-05;-0.003524558416954199
1.05260e-05;-0.0035146887259697116
1.05263e-05;-0.003504819034985224
1.05265e-05;-0.0034949493440008038
1.05268e-05;-0.0034850796530163162
1.05270e-05;-0.0034752099620318287
1.05272e-05;-0.003465340271047408
1.05275e-05;-0.003455222533425419
1.05278e-05;-0.0034446787312045124
1.05280e-05;-0.003434134928983677
1.05283e-05;-0.0034235911267627706
1.05285e-05;-0.003413047324541864
1.05288e-05;-0.0034025035223209576
1.05290e-05;-0.0033919597201001227
1.05293e-05;-0.003381534741687436
1.05295e-05;-0.0033713138644821043
1.05298e-05;-0.0033610929872768414
1.05300e-05;-0.003351149803506165
1.05303e-05;-0.0033416836080271298
1.05305e-05;-0.0033322174125481586
1.05308e-05;-0.0033235945327282756
1.05310e-05;-0.003316420198842087
1.05313e-05;-0.003309245864955947
1.05315e-05;-0.0033020715310697587
1.05318e-05;-0.00329489719718357
1.05320e-05;-0.00328772286329743
1.05323e-05;-0.0032805485294112413
1.05325e-05;-0.0032733741955250526
1.05328e-05;-0.0032661998616389126
1.05330e-05;-0.003262154538165906
1.05333e-05;-0.0032585852170068518
1.05335e-05;-0.0032550158958478217
1.05338e-05;-0.0032514465746887673
1.05340e-05;-0.0032478772535297134
1.05342e-05;-0.0032443079323706834
1.05345e-05;-0.003240738611211629
1.05348e-05;-0.0032371692900525747
1.05350e-05;-0.003234715204830288
1.05353e-05;-0.0032341767374007087
1.05355e-05;-0.0032336382699711297
1.05357e-05;-0.0032330998025415546
1.05360e-05;-0.0032325613351119756
1.05363e-05;-0.0032320228676823966
1.05365e-05;-0.003231484400252821
1.05368e-05;-0.003230945932823242
1.05370e-05;-0.003230407465393663
1.05373e-05;-0.003229868997964084
1.05375e-05;-0.003229995281325706
1.05378e-05;-0.0032312633934263686
1.05380e-05;-0.003232531505527031
1.05383e-05;-0.0032337996176276854
1.05385e-05;-0.0032350677297283475
1.05388e-05;-0.00323633584182901
1.05390e-05;-0.0032376039539296643
1.05393e-05;-0.003238872066030327
1.05395e-05;-0.0032401401781309894
1.05398e-05;-0.0032414082902316433
1.05400e-05;-0.003242767931260027
1.05403e-05;-0.003244284789641912
1.05405e-05;-0.0032458016480237857
1.05408e-05;-0.0032473185064056703
1.05410e-05;-0.003248573978503316
1.05413e-05;-0.003249789687078386
1.05415e-05;-0.0032510053956534644
1.05418e-05;-0.0032521921958475475
1.05420e-05;-0.0032533293407111456
1.05423e-05;-0.003254466485574751
1.05425e-05;-0.003256183433996828
1.05427e-05;-0.0032588962990464498
1.05430e-05;-0.0032616091640960904
1.05433e-05;-0.003265315464381347
1.05435e-05;-0.0032707281679045792
1.05438e-05;-0.0032761408714278486
1.05440e-05;-0.0032815535749511175
1.05442e-05;-0.00328696627847435
1.05445e-05;-0.003292378981997619
1.05448e-05;-0.003297791685520888
1.05450e-05;-0.003306802673201379
1.05453e-05;-0.0033163610517052515
1.05455e-05;-0.0033259194302091245
1.05458e-05;-0.003335477808712997
1.05460e-05;-0.0033450361872168054
1.05463e-05;-0.003354594565720678
1.05465e-05;-0.0033654071975903854
1.05468e-05;-0.0033783742346273128
1.05470e-05;-0.0033913412716643277
1.05473e-05;-0.0034043083087013427
1.05475e-05;-0.0034172753457382696
1.05478e-05;-0.0034302423827752846
1.05480e-05;-0.0034432094198122995
1.05483e-05;-0.0034565860085651787
1.05485e-05;-0.0034706660758634204
1.05488e-05;-0.0034847461431616626
1.05490e-05;-0.0034988262104598093
1.05493e-05;-0.0035129062777580515
1.05495e-05;-0.003526986345056293
1.05498e-05;-0.00354106641235444
1.05500e-05;-0.003554755747349884
1.05503e-05;-0.0035677739295182885
1.05505e-05;-0.0035807921116866046
1.05508e-05;-0.0035932448547349076
1.05510e-05;-0.0036047263546551966
1.05512e-05;-0.0036162078545754076
1.05515e-05;-0.0036269990761274504
1.05518e-05;-0.0036366046207467126
1.05520e-05;-0.0036461613462661227
1.05523e-05;-0.00365563421622361
1.05525e-05;-0.0036651070861810965
1.05527e-05;-0.003675554139204324
1.05530e-05;-0.003687674526410799
1.05533e-05;-0.003699794913617274
1.05535e-05;-0.0037133225939995937
1.05538e-05;-0.003729267552878991
1.05540e-05;-0.003745212511758388
1.05543e-05;-0.003761157470637786
1.05545e-05;-0.003777102429517075
1.05548e-05;-0.003793047388396473
1.05550e-05;-0.00380899234727587
1.05553e-05;-0.00383070023170401
1.05555e-05;-0.0038532848041384353
1.05558e-05;-0.0038758693765728607
1.05560e-05;-0.003898453949007133
1.05563e-05;-0.003921038521441558
1.05565e-05;-0.003943623093875984
1.05568e-05;-0.003968099561963336
1.05570e-05;-0.00399582570024005
1.05573e-05;-0.004023551838516763
1.05575e-05;-0.0040512779767932884
1.05578e-05;-0.004079004115070001
1.05580e-05;-0.0041067302533467145
1.05583e-05;-0.00413445639162324
1.05585e-05;-0.0041624252525975245
1.05588e-05;-0.00419081103334923
1.05590e-05;-0.004219196814100742
1.05593e-05;-0.004247582594852447
1.05595e-05;-0.004275968375604153
1.05597e-05;-0.004304354156355665
1.05600e-05;-0.00433273993710737
1.05603e-05;-0.004360032078639955
1.05605e-05;-0.004385445698615031
1.05608e-05;-0.0044108593185902805
1.05610e-05;-0.004434401791998944
1.05612e-05;-0.0044547302354962254
1.05615e-05;-0.004475058678993645
1.05618e-05;-0.004495387122491064
1.05620e-05;-0.0045157155659883465
1.05623e-05;-0.004534497105129747
1.05625e-05;-0.004550621558525352
1.05628e-05;-0.004566746011920957
1.05630e-05;-0.004582870465316453
1.05633e-05;-0.004598994918712058
1.05635e-05;-0.004614238869503772
1.05638e-05;-0.004627970399111171
1.05640e-05;-0.0046417019287186626
1.05643e-05;-0.004655433458326155
1.05645e-05;-0.004669164987933554
1.05648e-05;-0.004682896517541047
1.05650e-05;-0.004696628047148539
1.05653e-05;-0.004710359576755939
1.05655e-05;-0.004724091106363431
1.05658e-05;-0.004737158123353834
1.05660e-05;-0.004750124051021223
1.05663e-05;-0.004763089978688701
1.05665e-05;-0.004776055906356179
1.05668e-05;-0.004789021834023568
1.05670e-05;-0.004801987761691046
1.05673e-05;-0.004814953689358524
1.05675e-05;-0.004827919617025913
1.05678e-05;-0.004840555048623558
1.05680e-05;-0.00485262279393022
1.05682e-05;-0.004864690539236801
1.05685e-05;-0.004876758284543463
1.05688e-05;-0.004888826029850125
1.05690e-05;-0.004900893775156705
1.05693e-05;-0.004912961520463367
1.05695e-05;-0.004924301513801532
1.05697e-05;-0.004934391462574848
1.05700e-05;-0.004944481411348232
1.05703e-05;-0.004954571360121616
1.05705e-05;-0.004964661308894932
1.05708e-05;-0.004974751257668316
1.05710e-05;-0.0049848412064417
1.05713e-05;-0.004994145708874084
1.05715e-05;-0.005002101066306395
1.05718e-05;-0.005009383465513589
1.05720e-05;-0.005015509938240074
1.05723e-05;-0.005019760438177618
1.05725e-05;-0.005020788618299997
1.05728e-05;-0.005018800951771414
1.05730e-05;-0.005011633027575902
1.05733e-05;-0.005004465103380342
1.05735e-05;-0.004993966171618306
1.05738e-05;-0.0049777456367771965
1.05740e-05;-0.004961525101935977
1.05743e-05;-0.0049413813905592
1.05745e-05;-0.004914498919663536
1.05748e-05;-0.00488761644876769
1.05750e-05;-0.004856048657940916
1.05753e-05;-0.0048164329895847655
1.05755e-05;-0.004776817321228347
1.05758e-05;-0.004737201652871928
1.05760e-05;-0.004697585984515779
1.05763e-05;-0.004646872007094552
1.05765e-05;-0.004594469693709807
1.05767e-05;-0.004542067380325417
1.05770e-05;-0.004489665066940673
1.05773e-05;-0.00443458490432652
1.05775e-05;-0.004374905055253633
1.05778e-05;-0.004314235173685167
1.05780e-05;-0.0042518647336938125
1.05782e-05;-0.004188892957766267
1.05785e-05;-0.004124564779772523
1.05788e-05;-0.004059488855027392
1.05790e-05;-0.003994033140485513
1.05793e-05;-0.003928584135014463
1.05795e-05;-0.0038635285088283377
1.05798e-05;-0.003799249371190165
1.05800e-05;-0.003736091681736599
1.05803e-05;-0.003674317117258781
1.05805e-05;-0.0036141681629460287
1.05808e-05;-0.0035559785765349973
1.05810e-05;-0.003500154492199139
1.05813e-05;-0.003447113632300708
1.05815e-05;-0.0033972739036582465
1.05818e-05;-0.0033510538853588753
1.05820e-05;-0.003308873212819441
1.05823e-05;-0.003271118093998657
1.05825e-05;-0.003238059533395834
1.05828e-05;-0.003209830410188688
1.05830e-05;-0.0031865005292666176
1.05833e-05;-0.003168133049219164
1.05835e-05;-0.0031547908343203283
1.05838e-05;-0.0031465375198973227
1.05840e-05;-0.0031443943431926713
1.05843e-05;-0.0031471771350456315
1.05845e-05;-0.003153708188554143
1.05848e-05;-0.003166677553897639
1.05850e-05;-0.003184009995988087
1.05853e-05;-0.003208836805130945
1.05855e-05;-0.003233663614273972
1.05858e-05;-0.003263254019540352
1.05860e-05;-0.0033010267557417802
1.05863e-05;-0.0033387994919434638
1.05865e-05;-0.0033800490219081146
1.05867e-05;-0.003427270568900454
1.05870e-05;-0.003476785871085712
1.05873e-05;-0.0035302411093162383
1.05875e-05;-0.0035855511163678582
1.05878e-05;-0.003644047021618169
1.05880e-05;-0.003703955025397298
1.05883e-05;-0.003766288561731634
1.05885e-05;-0.0038295339543186154
1.05888e-05;-0.003894345623608681
1.05890e-05;-0.0039594910733245425
1.05893e-05;-0.004025243434458642
1.05895e-05;-0.0040909453627352085
1.05898e-05;-0.004156211584924005
1.05900e-05;-0.004220656704823895
1.05903e-05;-0.0042838908228858925
1.05905e-05;-0.004345506203378396
1.05908e-05;-0.004405073659857825
1.05910e-05;-0.004461565186543052
1.05913e-05;-0.004515296911162917
1.05915e-05;-0.004566348968390924
1.05918e-05;-0.004612798216138584
1.05920e-05;-0.004655237643802112
1.05923e-05;-0.004690789486103955
1.05925e-05;-0.004726341328406039
1.05928e-05;-0.0047568117578197875
1.05930e-05;-0.004778553948985326
1.05933e-05;-0.004800296140151011
1.05935e-05;-0.004816661633554892
1.05938e-05;-0.004823791683965703
1.05940e-05;-0.004830921734376562
1.05943e-05;-0.004831046942205327
1.05945e-05;-0.00481914007622119
1.05948e-05;-0.004807233210236973
1.05950e-05;-0.004795326344252755
1.05952e-05;-0.004783419478268618
1.05955e-05;-0.004763808589952278
1.05958e-05;-0.004730964661168101
1.05960e-05;-0.004698120732384147
1.05963e-05;-0.004665276803599971
1.05965e-05;-0.004632432874815794
1.05968e-05;-0.0045946893532336315
1.05970e-05;-0.004548529902027419
1.05973e-05;-0.004502370450820894
1.05975e-05;-0.004453931623139157
1.05978e-05;-0.004401577557438146
1.05980e-05;-0.004347868493992016
1.05983e-05;-0.004291831978830621
1.05985e-05;-0.004235087036990846
1.05988e-05;-0.004176821278874006
1.05990e-05;-0.004117852977513851
1.05993e-05;-0.004058518217389308
1.05995e-05;-0.00399915315757473
1.05998e-05;-0.003940094273613696
1.06000e-05;-0.0038816869550699793
1.06003e-05;-0.0038242999299503257
1.06005e-05;-0.003768325305175741
1.06008e-05;-0.003714158650969414
1.06010e-05;-0.003662190094740825
1.06013e-05;-0.003612808255021742
1.06015e-05;-0.0035664018491276353
1.06018e-05;-0.0035233442700547055
1.06020e-05;-0.003483833072868108
1.06023e-05;-0.0034476379668939524
1.06025e-05;-0.0034143180666991197
1.06028e-05;-0.0033842508527078094
1.06030e-05;-0.003356857279744221
1.06033e-05;-0.0033317344160445767
1.06035e-05;-0.0033105119028755264
1.06037e-05;-0.0032917283599450584
1.06040e-05;-0.0032771341859548684
1.06043e-05;-0.0032651281381890296
1.06045e-05;-0.003257567661528335
1.06048e-05;-0.0032500071848675896
1.06050e-05;-0.0032464262936528813
1.06053e-05;-0.0032496810543869445
1.06055e-05;-0.003252935815120986
1.06058e-05;-0.00325619057585505
1.06060e-05;-0.0032594453365891135
1.06063e-05;-0.003262700097323155
1.06065e-05;-0.003275728601268425
1.06068e-05;-0.003290243940919352
1.06070e-05;-0.0033047592805701804
1.06073e-05;-0.003319274620221107
1.06075e-05;-0.003333789959872034
1.06078e-05;-0.003350548815526762
1.06080e-05;-0.003371161312409439
1.06083e-05;-0.0033917738092921162
1.06085e-05;-0.0034132015094627778
1.06088e-05;-0.003436029467530036
1.06090e-05;-0.0034588574255972945
1.06093e-05;-0.0034819909778066966
1.06095e-05;-0.003505649442779868
1.06098e-05;-0.0035293079077530396
1.06100e-05;-0.0035527184362394246
1.06103e-05;-0.0035757030893298616
1.06105e-05;-0.003598687742420299
1.06108e-05;-0.00361993175027346
1.06110e-05;-0.0036381858876565172
1.06113e-05;-0.003656440025039575
1.06115e-05;-0.0036746941624225087
1.06118e-05;-0.0036929482998055664
1.06120e-05;-0.0037112024371886237
1.06122e-05;-0.0037294565745715574
1.06125e-05;-0.0037438928670515763
1.06128e-05;-0.003757748367914725
1.06130e-05;-0.00377160386877778
1.06133e-05;-0.0037854593696409282
1.06135e-05;-0.003799314870504077
1.06138e-05;-0.0038131703713672254
1.06140e-05;-0.0038265183201054718
1.06143e-05;-0.003838994457013407
1.06145e-05;-0.003851470593921342
1.06148e-05;-0.0038639467308291923
1.06150e-05;-0.0038764228677371274
1.06153e-05;-0.003888899004645063
1.06155e-05;-0.0039013751415529134
1.06158e-05;-0.0039138512784608484
1.06160e-05;-0.003926327415368784
1.06163e-05;-0.003938803552276634
1.06165e-05;-0.003951170902124904
1.06168e-05;-0.003963351390681527
1.06170e-05;-0.003975531879238069
1.06173e-05;-0.003987712367794691
1.06175e-05;-0.003999892856351315
1.06178e-05;-0.004012073344907856
1.06180e-05;-0.00402425383346448
1.06183e-05;-0.004036434322021103
1.06185e-05;-0.004048614810577644
1.06188e-05;-0.0040607952991342676
1.06190e-05;-0.00407254254294152
1.06193e-05;-0.004083545611166396
1.06195e-05;-0.004094548679391346
1.06198e-05;-0.004105551747616296
1.06200e-05;-0.004116554815841172
1.06203e-05;-0.004127557884066122
1.06205e-05;-0.004136667498751065
1.06207e-05;-0.004145489070843451
1.06210e-05;-0.004154310642935898
1.06213e-05;-0.004163132215028344
1.06215e-05;-0.004171953787120731
1.06218e-05;-0.004180085149643574
1.06220e-05;-0.004187030953405056
1.06222e-05;-0.004193976757166491
1.06225e-05;-0.004202144888541018
1.06228e-05;-0.004212412586880071
1.06230e-05;-0.004222680285219125
1.06233e-05;-0.004232947983558109
1.06235e-05;-0.004243215681897163
1.06238e-05;-0.004253483380236216
1.06240e-05;-0.0042637510785752
1.06243e-05;-0.00427621427175951
1.06245e-05;-0.00429244862121892
1.06248e-05;-0.0043086829706782195
1.06250e-05;-0.004324917320137629
1.06253e-05;-0.004341151669597039
1.06255e-05;-0.0043573860190563385
1.06258e-05;-0.004373620368515748
1.06260e-05;-0.00439205204866163
1.06263e-05;-0.004414258038469324
1.06265e-05;-0.004436464028277168
1.06268e-05;-0.004458670018085012
1.06270e-05;-0.0044808760078927055
1.06273e-05;-0.00450308199770055
1.06275e-05;-0.004525287987508394
1.06278e-05;-0.004547493977316088
1.06280e-05;-0.004570547226240536
1.06283e-05;-0.004595055794698795
1.06285e-05;-0.004619564363156889
1.06288e-05;-0.004644072931615148
1.06290e-05;-0.004668581500073407
1.06292e-05;-0.0046930900685314995
1.06295e-05;-0.004717598636989759
1.06298e-05;-0.004742107205448018
1.06300e-05;-0.00476517879360949
1.06303e-05;-0.004785782110312523
1.06305e-05;-0.0048063854270155556
1.06307e-05;-0.004826988743718449
1.06310e-05;-0.004847592060421482
1.06313e-05;-0.004868195377124514
1.06315e-05;-0.004888798693827548
1.06318e-05;-0.004905556632873836
1.06320e-05;-0.004915709445921007
1.06323e-05;-0.004925862258968177
1.06325e-05;-0.0049360150720152785
1.06328e-05;-0.004946167885062449
1.06330e-05;-0.00495632069810962
1.06333e-05;-0.004966473511156722
1.06335e-05;-0.004971291932389086
1.06338e-05;-0.0049669475786706645
1.06340e-05;-0.004962603224952273
1.06343e-05;-0.004958258871233852
1.06345e-05;-0.00495391451751543
1.06348e-05;-0.004949570163797039
1.06350e-05;-0.004945225810078617
1.06353e-05;-0.004935956897756393
1.06355e-05;-0.00491822917254869
1.06358e-05;-0.004900501447340867
1.06360e-05;-0.004882773722133045
1.06363e-05;-0.004865045996925342
1.06365e-05;-0.004847318271717519
1.06368e-05;-0.004829590546509697
1.06370e-05;-0.004808616515377429
1.06373e-05;-0.004782066371420291
1.06375e-05;-0.004755516227463153
1.06377e-05;-0.004728966083506195
1.06380e-05;-0.004702415939549057
1.06383e-05;-0.004675865795591919
1.06385e-05;-0.004649315651634961
1.06388e-05;-0.004620472400553925
1.06390e-05;-0.004591280309373197
1.06392e-05;-0.004562088218192667
1.06395e-05;-0.004532896127011939
1.06398e-05;-0.00450370403583121
1.06400e-05;-0.004474511944650482
1.06403e-05;-0.004446097395963964
1.06405e-05;-0.004419018416004874
1.06408e-05;-0.004391939436045783
1.06410e-05;-0.004368274551786106
1.06413e-05;-0.004350473989391944
1.06415e-05;-0.004332673426997781
1.06418e-05;-0.00431487286460374
1.06420e-05;-0.004297072302209578
1.06423e-05;-0.004279271739815417
1.06425e-05;-0.004261471177421375
1.06428e-05;-0.004243670615027213
1.06430e-05;-0.004225870052633051
1.06433e-05;-0.004208069490239009
1.06435e-05;-0.004190268927844847
1.06438e-05;-0.004172468365450686
1.06440e-05;-0.004158798335821222
1.06443e-05;-0.004152223237249545
1.06445e-05;-0.004145648138677866
1.06448e-05;-0.004139073040106233
1.06450e-05;-0.004132497941534555
1.06453e-05;-0.004125922842962877
1.06455e-05;-0.004119347744391244
