Time(s);Current(A)
3.05000e-06;0.0021542740312479733
3.05025e-06;0.002167733438573278
3.05050e-06;0.0021811928458985836
3.05075e-06;0.0021946522532238885
3.05100e-06;0.002208111660549171
3.05125e-06;0.002221571067874476
3.05150e-06;0.0022350304751997813
3.05175e-06;0.0022484898825250632
3.05200e-06;0.0022673454674454804
3.05225e-06;0.002290378827793511
3.05250e-06;0.0023134121881415027
3.05275e-06;0.0023364455484895332
3.05300e-06;0.0023594789088375637
3.05325e-06;0.002382512269185594
3.05350e-06;0.002405545629533586
3.05375e-06;0.0024285789898816166
3.05400e-06;0.002451390288534107
3.05425e-06;0.0024709338188439738
3.05450e-06;0.0024904773491538734
3.05475e-06;0.002510020879463773
3.05500e-06;0.0025295644097736727
3.05525e-06;0.002549107940083539
3.05550e-06;0.0025686514703934385
3.05575e-06;0.002588195000703338
3.05600e-06;0.0026077385310132044
3.05625e-06;0.0026198590463538153
3.05650e-06;0.002626232588213297
3.05675e-06;0.002632606130072768
3.05700e-06;0.0026389796719322495
3.05725e-06;0.0026453532137917313
3.05750e-06;0.002651726755651213
3.05775e-06;0.002658100297510684
3.05800e-06;0.0026644738393701655
3.05825e-06;0.0026708473812296473
3.05850e-06;0.0026772209230891183
3.05875e-06;0.0026835944649486
3.05900e-06;0.002689968006808082
3.05925e-06;0.0026963415486675633
3.05950e-06;0.002695286046076294
3.05975e-06;0.002688478901918131
3.06000e-06;0.0026816717577599677
3.06025e-06;0.0026748646136018155
3.06050e-06;0.0026680574694436525
3.06075e-06;0.002661250325285489
3.06100e-06;0.002654443181127337
3.06125e-06;0.002647636036969174
3.06150e-06;0.0026408288928110105
3.06175e-06;0.002634021748652847
3.06200e-06;0.0026272146044946953
3.06225e-06;0.002620407460336532
3.06250e-06;0.0026136003161783684
3.06275e-06;0.0026046370265093064
3.06300e-06;0.00259400442711578
3.06325e-06;0.0025833718277222533
3.06350e-06;0.0025727392283287263
3.06375e-06;0.0025621066289352175
3.06400e-06;0.002551474029541691
3.06425e-06;0.0025408414301481643
3.06450e-06;0.0025302088307546555
3.06475e-06;0.002519576231361129
3.06500e-06;0.002508943631967602
3.06525e-06;0.0024983110325740936
3.06550e-06;0.0024876784331805666
3.06575e-06;0.002476018657937271
3.06600e-06;0.0024635636327323645
3.06625e-06;0.002451108607527479
3.06650e-06;0.0024386535823225724
3.06675e-06;0.002426198557117666
3.06700e-06;0.0024137435319127806
3.06725e-06;0.002401288506707874
3.06750e-06;0.002388833481502967
3.06775e-06;0.0023763784562980607
3.06800e-06;0.0023639234310931755
3.06825e-06;0.002351468405888269
3.06850e-06;0.0023390133806833625
3.06875e-06;0.002326558355478477
3.06900e-06;0.002313278088017471
3.06925e-06;0.0022878538958063304
3.06950e-06;0.002262429703595233
3.06975e-06;0.0022370055113840924
3.07000e-06;0.0022115813191729513
3.07025e-06;0.0021861571269618106
3.07050e-06;0.0021607329347507133
3.07075e-06;0.0021353087425395726
3.07100e-06;0.002109884550328432
3.07125e-06;0.002084460358117334
3.07150e-06;0.0020590361659061935
3.07175e-06;0.002033611973695053
3.07200e-06;0.002008187781483912
3.07225e-06;0.0019827635892728144
3.07250e-06;0.0019549143004762826
3.07275e-06;0.0019251874773053063
3.07300e-06;0.0018954606541343802
3.07325e-06;0.0018657338309634038
3.07350e-06;0.0018360070077924273
3.07375e-06;0.0018062801846215012
3.07400e-06;0.0017765533614505248
3.07425e-06;0.0017471944813877527
3.07450e-06;0.0017232501003841714
3.07475e-06;0.0016993057193806307
3.07500e-06;0.0016753613383770495
3.07525e-06;0.0016514169573734684
3.07550e-06;0.0016274725763699277
3.07575e-06;0.0016035281953663465
3.07600e-06;0.0015795838143627652
3.07625e-06;0.0015631013609266372
3.07650e-06;0.0015523960075005529
3.07675e-06;0.0015416906540744685
3.07700e-06;0.0015309853006483841
3.07725e-06;0.001520279947222318
3.07750e-06;0.0015095745937962336
3.07775e-06;0.001498869240370149
3.07800e-06;0.0014881638869440829
3.07825e-06;0.0014774585335179985
3.07850e-06;0.0014667531800919141
3.07875e-06;0.0014569187224445681
3.07900e-06;0.001459900007964817
3.07925e-06;0.001462881293485071
3.07950e-06;0.0014658625790053249
3.07975e-06;0.0014688438645255738
3.08000e-06;0.0014718251500458277
3.08025e-06;0.0014748064355660816
3.08050e-06;0.0014777877210863306
3.08075e-06;0.0014807690066065845
3.08100e-06;0.0014837502921268384
3.08125e-06;0.0014867315776470923
3.08150e-06;0.0014938605610845565
3.08175e-06;0.0015042007343202685
3.08200e-06;0.0015145409075559804
3.08225e-06;0.0015248810807916748
3.08250e-06;0.0015352212540273868
3.08275e-06;0.0015455614272630988
3.08300e-06;0.0015559016004988108
3.08325e-06;0.0015662417737345052
3.08350e-06;0.0015766077368659479
3.08375e-06;0.0015873532134685782
3.08400e-06;0.0015980986900711906
3.08425e-06;0.001608844166673821
3.08450e-06;0.0016195896432764513
3.08475e-06;0.0016303351198790634
3.08500e-06;0.0016410805964816937
3.08525e-06;0.001651826073084324
3.08550e-06;0.0016625715496869546
3.08575e-06;0.0016732749379375878
3.08600e-06;0.0016839457409592274
3.08625e-06;0.001694616543980867
3.08650e-06;0.0017052873470024886
3.08675e-06;0.0017159581500241282
3.08700e-06;0.0017266289530457678
3.08725e-06;0.0017434368311541285
3.08750e-06;0.0017649960950440803
3.08775e-06;0.0017865553589340684
3.08800e-06;0.0018081146228240566
3.08825e-06;0.0018296738867140084
3.08850e-06;0.0018512331506039968
3.08875e-06;0.0018790294982260365
3.08900e-06;0.001911654659337336
3.08925e-06;0.001944279820448691
3.08950e-06;0.0019831035272421826
3.08975e-06;0.0020267262109758795
3.09000e-06;0.0020703488947095023
3.09025e-06;0.0021139715784431992
3.09050e-06;0.0021575942621768957
3.09075e-06;0.002201216945910519
3.09100e-06;0.0022448396296442154
3.09125e-06;0.002289108861552318
3.09150e-06;0.00234289242979551
3.09175e-06;0.0023966759980386105
3.09200e-06;0.002450459566281802
3.09225e-06;0.002504243134524994
3.09250e-06;0.0025580267027680947
3.09275e-06;0.0026118102710112863
3.09300e-06;0.0026655938392544784
3.09325e-06;0.0027178507068390772
3.09350e-06;0.002768925587288283
3.09375e-06;0.002820000467737489
3.09400e-06;0.0028710753481866946
3.09425e-06;0.002922150228635814
3.09450e-06;0.0029732251090850196
3.09475e-06;0.0030242999895342257
3.09500e-06;0.0030753748699833446
3.09525e-06;0.0031252702407105442
3.09550e-06;0.0031578084327285373
3.09575e-06;0.0031903466247465307
3.09600e-06;0.0032228848167644686
3.09625e-06;0.003255423008782462
3.09650e-06;0.003287961200800455
3.09675e-06;0.0033204993928183935
3.09700e-06;0.0033530375848363865
3.09725e-06;0.00338557577685438
3.09750e-06;0.003405080681433468
3.09775e-06;0.003414495082677504
3.09800e-06;0.0034239094839215406
3.09825e-06;0.003433323885165577
3.09850e-06;0.0034427382864095973
3.09875e-06;0.0034521526876536337
3.09900e-06;0.00346156708889767
3.09925e-06;0.0034709814901416904
3.09950e-06;0.003480395891385727
3.09975e-06;0.003489810292629763
3.10000e-06;0.0034992246938737996
3.10025e-06;0.003498707778817396
3.10050e-06;0.0034905019379453013
3.10075e-06;0.003482296097073206
3.10100e-06;0.0034740902562011245
3.10125e-06;0.0034658844153290297
3.10150e-06;0.0034576785744569343
3.10175e-06;0.003449472733584853
3.10200e-06;0.0034412668927127576
3.10225e-06;0.0034330610518406627
3.10250e-06;0.0034248552109685674
3.10275e-06;0.003416649370096486
3.10300e-06;0.003406400607893994
3.10325e-06;0.0033945701952756164
3.10350e-06;0.003382739782657259
3.10375e-06;0.003370909370038881
3.10400e-06;0.0033590789574205037
3.10425e-06;0.003347248544802126
3.10450e-06;0.0033354181321837684
3.10475e-06;0.0033235877195653906
3.10500e-06;0.003311757306947013
3.10525e-06;0.0032999268943286553
3.10550e-06;0.003288096481710278
3.10575e-06;0.0032762660690919
3.10600e-06;0.0032644356564735426
3.10625e-06;0.003252605243855165
3.10650e-06;0.0032407748312367874
3.10675e-06;0.0032289444186184096
3.10700e-06;0.003217114006000052
3.10725e-06;0.0032089772636002233
3.10750e-06;0.0032037001981495687
3.10775e-06;0.0031984231326989236
3.10800e-06;0.003193146067248269
3.10825e-06;0.003187869001797615
3.10850e-06;0.0031825919363469607
3.10875e-06;0.0031773148708963152
3.10900e-06;0.003172037805445661
3.10925e-06;0.0031667607399950065
3.10950e-06;0.003161483674544361
3.10975e-06;0.003156206609093707
3.11000e-06;0.0031509295436430527
3.11025e-06;0.003145652478192407
3.11050e-06;0.003140375412741753
3.11075e-06;0.0031350983472910984
3.11100e-06;0.0031298212818404443
3.11125e-06;0.003124544216389799
3.11150e-06;0.0031208435508642595
3.11175e-06;0.00311836335015067
3.11200e-06;0.003115883149437085
3.11225e-06;0.003113402948723496
3.11250e-06;0.0031109227480099065
3.11275e-06;0.003108442547296317
3.11300e-06;0.003105962346582732
3.11325e-06;0.003103482145869143
3.11350e-06;0.0031010019451555536
3.11375e-06;0.0030985217444419685
3.11400e-06;0.003096063085128107
3.11425e-06;0.0030939214201703906
3.11450e-06;0.0030917797552126778
3.11475e-06;0.003089638090254962
3.11500e-06;0.0030874964252972457
3.11525e-06;0.0030853547603395294
3.11550e-06;0.003083213095381817
3.11575e-06;0.0030810714304241008
3.11600e-06;0.0030789297654663845
3.11625e-06;0.003076788100508672
3.11650e-06;0.003074646435550956
3.11675e-06;0.003063558210912054
3.11700e-06;0.0030455434690198897
3.11725e-06;0.003027528727127756
3.11750e-06;0.003009513985235591
3.11775e-06;0.002991499243343427
3.11800e-06;0.002973484501451293
3.11825e-06;0.0029554697595591288
3.11850e-06;0.002937455017666964
3.11875e-06;0.00291944027577483
3.11900e-06;0.002901425533882666
3.11925e-06;0.0028834107919905017
3.11950e-06;0.0028524512261132342
3.11975e-06;0.0028114696462026786
3.12000e-06;0.0027704880662920536
3.12025e-06;0.0027295064863814282
3.12050e-06;0.0026885249064708726
3.12075e-06;0.0026475433265602476
3.12100e-06;0.0026065617466496226
3.12125e-06;0.002565580166738997
3.12150e-06;0.0025245985868284416
3.12175e-06;0.0024836170069178166
3.12200e-06;0.0024426354270071916
3.12225e-06;0.0023966878099381606
3.12250e-06;0.002346895436528529
3.12275e-06;0.0022971030631188977
3.12300e-06;0.00224731068970935
3.12325e-06;0.002197518316299719
3.12350e-06;0.0021477259428900873
3.12375e-06;0.002098232419648315
3.12400e-06;0.002053136652252385
3.12425e-06;0.0020080408848563783
3.12450e-06;0.001962945117460372
3.12475e-06;0.0019178493500644415
3.12500e-06;0.001872753582668435
3.12525e-06;0.0018276578152724285
3.12550e-06;0.001788198950187466
3.12575e-06;0.0017531042320491485
3.12600e-06;0.0017180095139107717
3.12625e-06;0.0016867059162828395
3.12650e-06;0.0016583374426090273
3.12675e-06;0.001629968968935167
3.12700e-06;0.0016070299782231508
3.12725e-06;0.0015882945482937208
3.12750e-06;0.001569559118364259
3.12775e-06;0.0015508236884347975
3.12800e-06;0.0015320882585053359
3.12825e-06;0.001513352828575906
3.12850e-06;0.0014946173986464441
3.12875e-06;0.0014758819687169826
3.12900e-06;0.0014578904238532237
3.12925e-06;0.001450845584892668
3.12950e-06;0.0014438007459321122
3.12975e-06;0.0014367559069715565
3.13000e-06;0.0014297110680110128
3.13025e-06;0.001422666229050457
3.13050e-06;0.0014156213900899013
3.13075e-06;0.0014085765511293576
3.13100e-06;0.0014015317121688017
3.13125e-06;0.0013985279832748599
3.13150e-06;0.0013986529227852514
3.13175e-06;0.0013987778622956434
3.13200e-06;0.0013989028018060352
3.13225e-06;0.001399027741316427
3.13250e-06;0.0013991526808268188
3.13275e-06;0.0013992776203372106
3.13300e-06;0.0013994025598476024
3.13325e-06;0.0013995274993579942
3.13350e-06;0.0014011129697181946
3.13375e-06;0.0014038291978771332
3.13400e-06;0.0014065454260360718
3.13425e-06;0.0014092616541950059
3.13450e-06;0.0014119778823539443
3.13475e-06;0.001414694110512883
3.13500e-06;0.001417410338671817
3.13525e-06;0.0014201265668307556
3.13550e-06;0.0014228427949896942
3.13575e-06;0.0014256130410361058
3.13600e-06;0.0014284251082789352
3.13625e-06;0.0014312371755217646
3.13650e-06;0.0014340492427645942
3.13675e-06;0.0014368613100074188
3.13700e-06;0.0014396733772502482
3.13725e-06;0.0014424854444930776
3.13750e-06;0.0014452975117359023
3.13775e-06;0.0014481095789787317
3.13800e-06;0.001450921646221561
3.13825e-06;0.0014537337134643905
3.13850e-06;0.001456545780707215
3.13875e-06;0.0014593578479500447
3.13900e-06;0.001462169915192874
3.13925e-06;0.0014649819824356987
3.13950e-06;0.0014677940496785281
3.13975e-06;0.0014706061169213575
3.14000e-06;0.0014734181841641822
3.14025e-06;0.0014762302514070116
3.14050e-06;0.0014798084601005924
3.14075e-06;0.001483979823276684
3.14100e-06;0.0014881511864527689
3.14125e-06;0.0014923225496288606
3.14150e-06;0.0014964939128049523
3.14175e-06;0.0015006652759810368
3.14200e-06;0.0015048366391571285
3.14225e-06;0.0015090080023332205
3.14250e-06;0.0015131793655093122
3.14275e-06;0.0015173507286853967
3.14300e-06;0.0015215220918614884
3.14325e-06;0.0015256934550375802
3.14350e-06;0.001529864818213665
3.14375e-06;0.0015340361813897566
3.14400e-06;0.0015382075445658483
3.14425e-06;0.001542378907741933
3.14450e-06;0.0015465502709180246
3.14475e-06;0.0015507216340941163
3.14500e-06;0.001554892997270208
3.14525e-06;0.0015596096686511015
3.14550e-06;0.0015647485231755041
3.14575e-06;0.0015698873776999068
3.14600e-06;0.0015750262322243008
3.14625e-06;0.0015801650867487034
3.14650e-06;0.001585303941273106
3.14675e-06;0.0015904427957975087
3.14700e-06;0.0015955816503219024
3.14725e-06;0.001600720504846305
3.14750e-06;0.0016058593593707077
3.14775e-06;0.0016109982138951017
3.14800e-06;0.0016161370684195043
3.14825e-06;0.001621275922943907
3.14850e-06;0.001626414777468301
3.14875e-06;0.0016315536319927036
3.14900e-06;0.0016366924865171063
3.14925e-06;0.0016422757330869164
3.14950e-06;0.00165439846976623
3.14975e-06;0.0016665212064455642
3.15000e-06;0.0016786439431248986
3.15025e-06;0.0016907666798042123
3.15050e-06;0.0017028894164835464
3.15075e-06;0.0017150121531628807
3.15100e-06;0.0017271348898421945
3.15125e-06;0.0017392576265215288
3.15150e-06;0.001751380363200863
3.15175e-06;0.0017635030998801972
3.15200e-06;0.001775625836559511
3.15225e-06;0.0017877485732388453
3.15250e-06;0.0017998713099181794
3.15275e-06;0.0018119940465974932
3.15300e-06;0.0018241167832768275
3.15325e-06;0.0018362395199561616
3.15350e-06;0.0018480075036964778
3.15375e-06;0.0018595008341129296
3.15400e-06;0.0018709941645294007
3.15425e-06;0.001882487494945872
3.15450e-06;0.0018939808253623238
3.15475e-06;0.001905474155778795
3.15500e-06;0.0019169674861952662
3.15525e-06;0.0019284608166117178
3.15550e-06;0.0019399541470281891
3.15575e-06;0.0019514474774446602
3.15600e-06;0.0019629408078611315
3.15625e-06;0.001974233692854416
3.15650e-06;0.0019825769056468234
3.15675e-06;0.001990920118439231
3.15700e-06;0.0019992633312316244
3.15725e-06;0.002007606544024032
3.15750e-06;0.0020159497568164393
3.15775e-06;0.002024292969608847
3.15800e-06;0.0020326361824012404
3.15825e-06;0.002040979395193648
3.15850e-06;0.0020493226079860553
3.15875e-06;0.002057665820778449
3.15900e-06;0.0020660090335708563
3.15925e-06;0.0020750836172631834
3.15950e-06;0.002084724435724943
3.15975e-06;0.002094365254186719
3.16000e-06;0.0021040060726484947
3.16025e-06;0.0021136468911102705
3.16050e-06;0.00212328770957203
3.16075e-06;0.0021329285280338056
3.16100e-06;0.0021425693464955813
3.16125e-06;0.0021522101649573406
3.16150e-06;0.0021618509834191164
3.16175e-06;0.002171491801880892
3.16200e-06;0.002181132620342668
3.16225e-06;0.0021907734388044277
3.16250e-06;0.0022004142572662035
3.16275e-06;0.00220936753992056
3.16300e-06;0.002217788525378698
3.16325e-06;0.002226209510836851
3.16350e-06;0.0022346304962950034
3.16375e-06;0.002243051481753142
3.16400e-06;0.0022514724672112944
3.16425e-06;0.0022598934526694473
3.16450e-06;0.0022683144381275997
3.16475e-06;0.0022767354235857383
3.16500e-06;0.0022851564090438908
3.16525e-06;0.0022935773945020436
3.16550e-06;0.002301998379960182
3.16575e-06;0.0023104193654183347
3.16600e-06;0.002318840350876487
3.16625e-06;0.0023238926804217915
3.16650e-06;0.0023263369623889377
3.16675e-06;0.002328781244356088
3.16700e-06;0.002331225526323238
3.16725e-06;0.0023336698082903843
3.16750e-06;0.0023361140902575348
3.16775e-06;0.002338558372224685
3.16800e-06;0.0023410026541918314
3.16825e-06;0.0023434469361589814
3.16850e-06;0.002345891218126132
3.16875e-06;0.002348335500093282
3.16900e-06;0.002350779782060428
3.16925e-06;0.0023532240640275785
3.16950e-06;0.002355668345994729
3.16975e-06;0.002358112627961875
3.17000e-06;0.002360556909929025
3.17025e-06;0.0023630011918961756
3.17050e-06;0.002365445473863326
3.17075e-06;0.002365749239098403
3.17100e-06;0.002364395794566843
3.17125e-06;0.0023630423500352825
3.17150e-06;0.0023616889055037248
3.17175e-06;0.002360335460972165
3.17200e-06;0.002358982016440605
3.17225e-06;0.002357628571909047
3.17250e-06;0.0023562751273774867
3.17275e-06;0.0023549216828459268
3.17300e-06;0.002353568238314367
3.17325e-06;0.002352214793782809
3.17350e-06;0.0023508613492512487
3.17375e-06;0.0023495079047196887
3.17400e-06;0.002348154460188131
3.17425e-06;0.002346801015656571
3.17450e-06;0.002345447571125011
3.17475e-06;0.0023440941265934507
3.17500e-06;0.002342740682061893
3.17525e-06;0.0023433658503448094
3.17550e-06;0.0023455228807391106
3.17575e-06;0.0023476799111334084
3.17600e-06;0.0023498369415277096
3.17625e-06;0.002351993971922011
3.17650e-06;0.0023541510023163087
3.17675e-06;0.00235630803271061
3.17700e-06;0.002358465063104911
3.17725e-06;0.0023606220934992124
3.17750e-06;0.00236277912389351
3.17775e-06;0.0023649361542878115
3.17800e-06;0.0023670931846821127
3.17825e-06;0.00236925021507641
3.17850e-06;0.0023714072454707113
3.17875e-06;0.0023735642758650126
3.17900e-06;0.002375721306259314
3.17925e-06;0.002383742113099343
3.17950e-06;0.0023963027151440324
3.17975e-06;0.0024088633171887217
3.18000e-06;0.00242142391923339
3.18025e-06;0.0024339845212780794
3.18050e-06;0.0024465451233227687
3.18075e-06;0.0024591057253674367
3.18100e-06;0.002471666327412126
3.18125e-06;0.0024842269294568153
3.18150e-06;0.0024967875315015046
3.18175e-06;0.0025093481335461726
3.18200e-06;0.0025219087355908623
3.18225e-06;0.0025344693376355516
3.18250e-06;0.0025470299396802196
3.18275e-06;0.002559590541724909
3.18300e-06;0.002572151143769598
3.18325e-06;0.002584989805718022
3.18350e-06;0.002598043744464453
3.18375e-06;0.002611097683210906
3.18400e-06;0.0026241516219573592
3.18425e-06;0.0026372055607037904
3.18450e-06;0.0026502594994502436
3.18475e-06;0.002663313438196697
3.18500e-06;0.002676367376943128
3.18525e-06;0.0026894213156895812
3.18550e-06;0.0027024752544360345
3.18575e-06;0.0027155291931824877
3.18600e-06;0.002728583131928919
3.18625e-06;0.002741426179483541
3.18650e-06;0.0027511658392101596
3.18675e-06;0.0027609054989367623
3.18700e-06;0.0027706451586633814
3.18725e-06;0.00278038481839
3.18750e-06;0.0027901244781166194
3.18775e-06;0.002799864137843222
3.18800e-06;0.002809603797569841
3.18825e-06;0.00281934345729646
3.18850e-06;0.0028290831170230627
3.18875e-06;0.002838822776749682
3.18900e-06;0.0028485624364763006
3.18925e-06;0.0028583020962029033
3.18950e-06;0.002869184668632616
3.18975e-06;0.0028809520956704854
3.19000e-06;0.0028927195227083547
3.19025e-06;0.002904486949746204
3.19050e-06;0.002916254376784073
3.19075e-06;0.0029280218038219424
3.19100e-06;0.0029397892308597913
3.19125e-06;0.0029515566578976605
3.19150e-06;0.0029633240849355298
3.19175e-06;0.002975091511973399
3.19200e-06;0.0029868589390112483
3.19225e-06;0.0029986263660491176
3.19250e-06;0.003010393793086987
3.19275e-06;0.0030221612201248357
3.19300e-06;0.003032901411599951
3.19325e-06;0.0030428463068823386
3.19350e-06;0.0030527912021647095
3.19375e-06;0.003062736097447097
3.19400e-06;0.003072680992729485
3.19425e-06;0.0030826258880118727
3.19450e-06;0.0030925707832942435
3.19475e-06;0.0031025156785766312
3.19500e-06;0.003112460573859019
3.19525e-06;0.0031224054691413898
3.19550e-06;0.0031323503644237775
3.19575e-06;0.0031422952597061652
3.19600e-06;0.003152240154988553
3.19625e-06;0.003162185050270924
3.19650e-06;0.003167633784840098
3.19675e-06;0.003169601546176979
3.19700e-06;0.0031715693075138563
3.19725e-06;0.003173537068850737
3.19750e-06;0.003175504830187618
3.19775e-06;0.003177472591524495
3.19800e-06;0.003179440352861376
3.19825e-06;0.0031814081141982565
