Time(s);Current(A)
4.50000e-06;-0.0007355165988445403
4.50025e-06;-0.0007255770904165532
4.50050e-06;-0.0007155959757591257
4.50075e-06;-0.0007042972337831607
4.50100e-06;-0.0006929984918071574
4.50125e-06;-0.0006816997498311923
4.50150e-06;-0.0006704010078552273
4.50175e-06;-0.000659102265879224
4.50200e-06;-0.0006487701854128993
4.50225e-06;-0.0006392932360685102
4.50250e-06;-0.000629816286724089
4.50275e-06;-0.0006203393373796998
4.50300e-06;-0.0006112268995423209
4.50325e-06;-0.0006024369170120027
4.50350e-06;-0.0005936469344817143
4.50375e-06;-0.0005848569519514259
4.50400e-06;-0.0005748405059769796
4.50425e-06;-0.0005637391020824558
4.50450e-06;-0.0005526376981878944
4.50475e-06;-0.000540713595342988
4.50500e-06;-0.0005280617139847121
4.50525e-06;-0.0005154098326263935
4.50550e-06;-0.0005012055292307517
4.50575e-06;-0.000485627917406875
4.50600e-06;-0.0004700503055829455
4.50625e-06;-0.00045306503753980254
4.50650e-06;-0.0004348345242583032
4.50675e-06;-0.0004166040109767421
4.50700e-06;-0.0003972839782983791
4.50725e-06;-0.0003770001315704963
4.50750e-06;-0.00035671628484254477
4.50775e-06;-0.00033519855441210085
4.50800e-06;-0.0003125893019294482
4.50825e-06;-0.0002899800494467189
4.50850e-06;-0.0002667106822323455
4.50875e-06;-0.00024285736226354693
4.50900e-06;-0.00021900404229482912
4.50925e-06;-0.00019482733547141943
4.50950e-06;-0.00017036455315916853
4.50975e-06;-0.00014589659239675487
4.51000e-06;-0.0001212646353388747
4.51025e-06;-9.663267828091107e-05
4.51050e-06;-7.220658860939406e-05
4.51075e-06;-4.820095021652141e-05
4.51100e-06;-2.4703747479970393e-05
4.51125e-06;-1.7876896683747198e-06
4.51150e-06;2.0505921090530618e-05
4.51175e-06;4.2092768882347306e-05
4.51200e-06;6.283397611531607e-05
4.51225e-06;8.25739441342586e-05
4.51250e-06;0.00010115709284520244
4.51275e-06;0.0001184280798095308
4.51300e-06;0.00013457531067881682
4.51325e-06;0.00015073382774760148
4.51350e-06;0.00016854748153458972
4.51375e-06;0.00018893239003945668
4.51400e-06;0.00021189210344297165
4.51425e-06;0.00023715100074938082
4.51450e-06;0.0002644335081821881
4.51475e-06;0.00029346420787777224
4.51500e-06;0.0003241829882577122
4.51525e-06;0.0003571227114831433
4.51550e-06;0.0003931348880759777
4.51575e-06;0.000432615113290234
4.51600e-06;0.00047538729729036
4.51625e-06;0.0005211005250946842
4.51650e-06;0.0005699543926707017
4.51675e-06;0.0006204337060295373
4.51700e-06;0.0006731384483095259
4.51725e-06;0.0007278118564678347
4.51750e-06;0.0007852088160338113
4.51775e-06;0.0008450150921466062
4.51800e-06;0.0009074687352594007
4.51825e-06;0.000972264300429947
4.51850e-06;0.0010370598656004935
4.51875e-06;0.0011039097495120916
4.51900e-06;0.0011725769312796149
4.51925e-06;0.0012412441130471381
4.51950e-06;0.001309911294814894
4.51975e-06;0.0013785784765824173
4.52000e-06;0.0014471207818099162
4.52025e-06;0.001515552618363066
4.52050e-06;0.0015839844549159839
4.52075e-06;0.0016524162914689018
4.52100e-06;0.0017208481280220518
4.52125e-06;0.0017861462116054942
4.52150e-06;0.001848672104856807
4.52175e-06;0.0019111979981079083
4.52200e-06;0.0019695184296716893
4.52225e-06;0.002024118612592569
4.52250e-06;0.002078718795513263
4.52275e-06;0.0021270943004864937
4.52300e-06;0.002169963311426833
4.52325e-06;0.0022128323223670272
4.52350e-06;0.002248506395446905
4.52375e-06;0.0022778156601416556
4.52400e-06;0.0023071249248363063
4.52425e-06;0.0023288361743807238
4.52450e-06;0.0023438260440498547
4.52475e-06;0.002358815913718934
4.52500e-06;0.002365921314863359
4.52525e-06;0.002366051932854449
4.52550e-06;0.002366182550845539
4.52575e-06;0.0023589050381757916
4.52600e-06;0.002345074121840606
4.52625e-06;0.002331243205505421
4.52650e-06;0.0023105826658415744
4.52675e-06;0.0022838804834741304
4.52700e-06;0.0022571783011066863
4.52725e-06;0.002224469904729174
4.52750e-06;0.002186448272569424
4.52775e-06;0.0021484266404096747
4.52800e-06;0.0021040939218340666
4.52825e-06;0.0020541782702972813
4.52850e-06;0.0020042626187604957
4.52875e-06;0.0019543469672235413
4.52900e-06;0.0019044313156867563
4.52925e-06;0.0018542717477784533
4.52950e-06;0.001796387594460918
4.52975e-06;0.0017385034411435787
4.53000e-06;0.0016806192878260433
4.53025e-06;0.001622735134508704
4.53050e-06;0.0015648509811913647
4.53075e-06;0.0015077128161137387
4.53100e-06;0.0014512345694812105
4.53125e-06;0.001394756322848682
4.53150e-06;0.0013382780762159626
4.53175e-06;0.0012820872670697174
4.53200e-06;0.0012349993131263544
4.53225e-06;0.0011879113591828317
4.53250e-06;0.0011408234052394687
4.53275e-06;0.0010937354512961057
4.53300e-06;0.0010522761730083305
4.53325e-06;0.0010157961513453204
4.53350e-06;0.0009822444369824617
4.53375e-06;0.0009512831709620439
4.53400e-06;0.0009232476641823064
4.53425e-06;0.0008978003516725791
4.53450e-06;0.0008756282068665037
4.53475e-06;0.0008563533511354485
4.53500e-06;0.0008404349230448088
4.53525e-06;0.0008274856684482029
4.53550e-06;0.0008172800872092908
4.53575e-06;0.000809501622858415
4.53600e-06;0.000804299401185723
4.53625e-06;0.0008013761833508182
4.53650e-06;0.0008010822078336487
4.53675e-06;0.000803114120860816
4.53700e-06;0.0008076602737826841
4.53725e-06;0.0008144305814465352
4.53750e-06;0.0008235945208509267
4.53775e-06;0.0008348759222355486
4.53800e-06;0.0008461573236202087
4.53825e-06;0.0008598802190850304
4.53850e-06;0.0008757629166623621
4.53875e-06;0.0008916456142396399
4.53900e-06;0.0009098772399694506
4.53925e-06;0.0009301867818519523
4.53950e-06;0.0009504963237343851
4.53975e-06;0.000970805865616818
4.54000e-06;0.0009911154074993195
4.54025e-06;0.0010114684782713374
4.54050e-06;0.0010332000650595324
4.54075e-06;0.001054931651847801
4.54100e-06;0.001076663238635996
4.54125e-06;0.001098394825424191
4.54150e-06;0.0011201264122124596
4.54175e-06;0.0011396544941544994
4.54200e-06;0.0011572333047631346
4.54225e-06;0.0011748121153718296
4.54250e-06;0.0011923909259804648
4.54275e-06;0.0012099697365891599
4.54300e-06;0.001227548547197795
4.54325e-06;0.0012392324862785145
4.54350e-06;0.0012457016857124591
4.54375e-06;0.001252170885146382
4.54400e-06;0.0012586400845803047
4.54425e-06;0.0012651092840142493
4.54450e-06;0.001271578483448172
4.54475e-06;0.0012723466183111743
4.54500e-06;0.0012680714596426021
4.54525e-06;0.0012637963009740443
4.54550e-06;0.0012554649196956185
4.54575e-06;0.0012435453101141474
4.54600e-06;0.0012316257005327166
4.54625e-06;0.001215980220407186
4.54650e-06;0.0011970387490539485
4.54675e-06;0.0011780972777007753
4.54700e-06;0.0011558795473534259
4.54725e-06;0.001130763562550981
4.54750e-06;0.0011056475777485363
4.54775e-06;0.0010776755424384634
4.54800e-06;0.0010471769788160286
4.54825e-06;0.0010166784151935935
4.54850e-06;0.000983667993983113
4.54875e-06;0.000948435525474929
4.54900e-06;0.0009132030569667451
4.54925e-06;0.0008779705884584417
4.54950e-06;0.0008427381199502578
4.54975e-06;0.0008063353106829943
4.55000e-06;0.0007688971909212217
4.55025e-06;0.0007314590711595759
4.55050e-06;0.0006940209513979301
4.55075e-06;0.0006565828316361575
4.55100e-06;0.0006200797416464163
4.55125e-06;0.0005844038006111439
4.55150e-06;0.0005487278595759925
4.55175e-06;0.0005145549802890378
4.55200e-06;0.00048171174417595947
4.55225e-06;0.00045066489007756247
4.55250e-06;0.0004212071570424749
4.55275e-06;0.0003934219548827593
4.55300e-06;0.0003683047117576814
4.55325e-06;0.0003442387543530083
4.55350e-06;0.0003198472553100965
4.55375e-06;0.00029516777460748025
4.55400e-06;0.00026991495733177316
4.55425e-06;0.0002441549532676177
4.55450e-06;0.00021828202383512656
4.55475e-06;0.00019242720405567135
4.55500e-06;0.0001666767751517362
4.55525e-06;0.00014062743569319313
4.55550e-06;0.00011363413643846219
4.55575e-06;8.53299529706324e-05
4.55600e-06;5.58129448129905e-05
4.55625e-06;2.5318273662630795e-05
4.55650e-06;-5.918928907724364e-06
4.55675e-06;-3.766364684972504e-05
4.55700e-06;-6.978847408485917e-05
4.55725e-06;-0.0001024659339567647
4.55750e-06;-0.00013603989041584006
4.55775e-06;-0.00017084588493724927
4.55800e-06;-0.0002063041875282453
4.55825e-06;-0.0002423740733242588
4.55850e-06;-0.0002789849797635953
4.55875e-06;-0.00031559588620280775
4.55900e-06;-0.0003523956900802492
4.55925e-06;-0.0003893625969990529
4.55950e-06;-0.00042632950391773136
4.55975e-06;-0.000463296410836535
4.56000e-06;-0.0004998991498499904
4.56025e-06;-0.0005361797375147958
4.56050e-06;-0.0005724603251797241
4.56075e-06;-0.0006087409128445294
4.56100e-06;-0.0006434821919698202
4.56125e-06;-0.0006768617631718338
4.56150e-06;-0.0007102413343737346
4.56175e-06;-0.0007417451733818002
4.56200e-06;-0.0007715896963237589
4.56225e-06;-0.0008014342192656165
4.56250e-06;-0.0008284016998065767
4.56275e-06;-0.0008528240821216594
4.56300e-06;-0.0008772464644366592
4.56325e-06;-0.0008984621523578382
4.56350e-06;-0.0009168411242785596
4.56375e-06;-0.0009352200961992188
4.56400e-06;-0.0009504912075528095
4.56425e-06;-0.0009630130335940509
4.56450e-06;-0.0009755348596352924
4.56475e-06;-0.0009846598905940897
4.56500e-06;-0.000990780038088068
4.56525e-06;-0.0009969001855820465
4.56550e-06;-0.0009999546313130905
4.56575e-06;-0.001000297086384798
4.56600e-06;-0.0010006395414565057
4.56625e-06;-0.0009981506544768806
4.56650e-06;-0.0009931570968573287
4.56675e-06;-0.0009881635392377768
4.56700e-06;-0.0009805550444666419
4.56725e-06;-0.0009706333158332976
4.56750e-06;-0.0009607115871999534
4.56775e-06;-0.0009479216339960103
4.56800e-06;-0.0009325943830229993
4.56825e-06;-0.0009172671320499362
4.56850e-06;-0.0009019398810769252
4.56875e-06;-0.0008866126301039142
4.56900e-06;-0.0008712853791308511
4.56925e-06;-0.0008538010490037663
4.56950e-06;-0.0008344085167848978
4.56975e-06;-0.0008150159845659635
4.57000e-06;-0.000795623452347095
4.57025e-06;-0.0007762309201282265
4.57050e-06;-0.0007568383879092922
4.57075e-06;-0.0007377334415358471
4.57100e-06;-0.0007188829002502976
4.57125e-06;-0.0007000323589646841
4.57150e-06;-0.0006811818176791345
4.57175e-06;-0.0006623312763935849
4.57200e-06;-0.0006434807351079714
4.57225e-06;-0.0006269251358696601
4.57250e-06;-0.0006123996954256828
4.57275e-06;-0.0005978742549817548
4.57300e-06;-0.0005833488145378268
4.57325e-06;-0.0005688233740938494
4.57350e-06;-0.0005542979336499214
4.57375e-06;-0.0005394397749622197
4.57400e-06;-0.0005242872860235378
4.57425e-06;-0.0005091347970849073
4.57450e-06;-0.0004939823081462766
4.57475e-06;-0.0004787655320342653
4.57500e-06;-0.0004615128460146859
4.57525e-06;-0.00044426015999510644
4.57550e-06;-0.00042700747397546855
4.57575e-06;-0.0004097547879558891
4.57600e-06;-0.00039079584573298916
4.57625e-06;-0.00037032750982377173
4.57650e-06;-0.0003498591739146237
4.57675e-06;-0.0003285248735173122
4.57700e-06;-0.00030642452091274915
4.57725e-06;-0.00028432416830818615
4.57750e-06;-0.0002612591447916853
4.57775e-06;-0.00023734075108338546
4.57800e-06;-0.00021274428397039712
4.57825e-06;-0.00018754797744644479
4.57850e-06;-0.0001620128793744501
4.57875e-06;-0.0001361780784661081
4.57900e-06;-0.00011021941676679865
4.57925e-06;-8.41511849482996e-05
4.57950e-06;-5.790014047072025e-05
4.57975e-06;-3.14873756881955e-05
4.58000e-06;-5.066294000632684e-06
4.58025e-06;2.125228991950153e-05
4.58050e-06;4.7277312135325434e-05
4.58075e-06;7.284572283539393e-05
4.58100e-06;9.782090669378498e-05
4.58125e-06;0.0001221396176147186
4.58150e-06;0.00014577985875731544
4.58175e-06;0.00016866638430605772
4.58200e-06;0.00019065526374127155
4.58225e-06;0.0002115814287489483
4.58250e-06;0.0002312798237852398
4.58275e-06;0.0002495854945750743
4.58300e-06;0.0002661934391931279
4.58325e-06;0.00028190997330110464
4.58350e-06;0.00029700616299693647
4.58375e-06;0.00031155358168349776
4.58400e-06;0.00032536756329271734
4.58425e-06;0.00033853272950620496
4.58450e-06;0.0003516978957196925
4.58475e-06;0.0003636615514556604
4.58500e-06;0.0003745623232442923
4.58525e-06;0.0003854630950329611
4.58550e-06;0.00039578193119065063
4.58575e-06;0.0004055859736349046
4.58600e-06;0.00041539001607919176
4.58625e-06;0.0004238965962546837
4.58650e-06;0.0004312554113100232
4.58675e-06;0.0004386142263653877
4.58700e-06;0.0004459730414207272
4.58725e-06;0.0004533318564760668
4.58750e-06;0.00046069067153143125
4.58775e-06;0.00046804948658677077
4.58800e-06;0.0004754083016421103
4.58825e-06;0.00048276711669747476
4.58850e-06;0.0004901259317528143
4.58875e-06;0.0004974847468081538
4.58900e-06;0.0005048435618635183
4.58925e-06;0.0005121189777129361
4.58950e-06;0.0005167532248744005
4.58975e-06;0.0005213874720358491
4.59000e-06;0.0005260217191972977
4.59025e-06;0.000530655966358762
4.59050e-06;0.0005352902135202106
4.59075e-06;0.0005399244606816593
4.59100e-06;0.0005445587078431236
4.59125e-06;0.0005491929550045723
4.59150e-06;0.0005538272021660209
4.59175e-06;0.0005584614493274853
4.59200e-06;0.0005630956964889338
4.59225e-06;0.0005677299436503824
4.59250e-06;0.0005714952738689602
4.59275e-06;0.000574491940070661
4.59300e-06;0.0005774886062723618
4.59325e-06;0.0005790761800746558
4.59350e-06;0.0005794172381625014
4.59375e-06;0.0005797582962503482
4.59400e-06;0.0005779572340951253
4.59425e-06;0.0005742612028475493
4.59450e-06;0.0005705651715999607
4.59475e-06;0.0005652325242475999
4.59500e-06;0.0005584520884507728
4.59525e-06;0.0005501364853542196
4.59550e-06;0.0005404628377716886
4.59575e-06;0.0005290911323887275
4.59600e-06;0.0005162172858167914
4.59625e-06;0.0005018513882021097
4.59650e-06;0.00048616558773914847
4.59675e-06;0.0004692019739956235
4.59700e-06;0.0004511079770815199
4.59725e-06;0.00043174241349361255
4.59750e-06;0.0004112519926277168
4.59775e-06;0.00038954472659825473
4.59800e-06;0.000366761011203852
4.59825e-06;0.0003428762020440845
4.59850e-06;0.00031801733988244817
4.59875e-06;0.0002931584777207276
4.59900e-06;0.00026746651331822414
4.59925e-06;0.0002410375674123847
4.59950e-06;0.00021460862150645576
4.59975e-06;0.00018776966758837733
4.60000e-06;0.00016056801110341933
4.60025e-06;0.00013337597156221325
4.60050e-06;0.00010648849092699905
4.60075e-06;7.960101029178487e-05
4.60100e-06;5.311955600389944e-05
4.60125e-06;2.731776806663671e-05
4.60150e-06;2.1748543943757714e-06
4.60175e-06;-2.2179415632869714e-05
4.60200e-06;-4.55800062319922e-05
4.60225e-06;-6.785130908494602e-05
4.60250e-06;-8.881773888914067e-05
4.60275e-06;-0.00010830383703998726
4.60300e-06;-0.00012630008961653637
4.60325e-06;-0.0001432616320026129
4.60350e-06;-0.00015991486511027968
4.60375e-06;-0.00017666928688957233
4.60400e-06;-0.00019350138537081767
4.60425e-06;-0.00021008473403811775
4.60450e-06;-0.00022644803286905987
4.60475e-06;-0.00024281133169994654
4.60500e-06;-0.0002590229343336693
4.60525e-06;-0.00027510034300428114
4.60550e-06;-0.0002911777516748384
4.60575e-06;-0.0003072551603453957
4.60600e-06;-0.0003233646609323599
4.60625e-06;-0.00034049048012120656
4.60650e-06;-0.00035761629931011125
4.60675e-06;-0.0003747421184989579
4.60700e-06;-0.0003918679376878046
4.60725e-06;-0.0004094836867679725
4.60750e-06;-0.00042753283915685
4.60775e-06;-0.0004455819915457275
4.60800e-06;-0.0004636311439346661
4.60825e-06;-0.00048168029632354357
4.60850e-06;-0.000499729448712421
4.60875e-06;-0.0005177836408226355
4.60900e-06;-0.0005359974358191723
4.60925e-06;-0.0005542112308157092
4.60950e-06;-0.0005724250258123078
4.60975e-06;-0.0005906388208088446
4.61000e-06;-0.0006088526158053815
4.61025e-06;-0.00062706641080198
4.61050e-06;-0.0006445499901255883
4.61075e-06;-0.0006613876037827623
4.61100e-06;-0.0006782252174398792
4.61125e-06;-0.0006950628310969961
4.61150e-06;-0.0007107385295781652
4.61175e-06;-0.0007253863710317175
4.61200e-06;-0.0007400342124852697
4.61225e-06;-0.0007546820539388716
4.61250e-06;-0.000768055155226035
4.61275e-06;-0.0007803005918907057
4.61300e-06;-0.0007904450993683264
4.61325e-06;-0.0007987310763146803
4.61350e-06;-0.0008033636917398799
4.61375e-06;-0.0008018551309807822
4.61400e-06;-0.0007949785392813818
4.61425e-06;-0.0007829505655556036
4.61450e-06;-0.0007659877660605896
4.61475e-06;-0.0007443066459729624
4.61500e-06;-0.0007179229198093943
4.61525e-06;-0.0006863114086584263
4.61550e-06;-0.0006486906744051315
4.61575e-06;-0.000604754851894354
4.61600e-06;-0.0005547579229411943
4.61625e-06;-0.0004991219786168886
4.61650e-06;-0.00043826905178493536
4.61675e-06;-0.0003726211171017991
4.61700e-06;-0.00030247437129945495
4.61725e-06;-0.00022778616572707562
4.61750e-06;-0.00014835337003279007
4.61775e-06;-6.427077936639478e-05
4.61800e-06;2.4016160682605122e-05
4.61825e-06;0.00011595672419503192
4.61850e-06;0.00021100022846290976
4.61875e-06;0.0003085960867020594
4.61900e-06;0.00040873909510641843
4.61925e-06;0.0005101828535739744
4.61950e-06;0.0006134394560660928
4.61975e-06;0.0007182997422944008
4.62000e-06;0.000823160028523064
4.62025e-06;0.0009279686722781986
4.62050e-06;0.001031141851031931
4.62075e-06;0.0011343150297860132
4.62100e-06;0.0012374882085397455
4.62125e-06;0.0013367265949795386
4.62150e-06;0.0014324841731690372
4.62175e-06;0.0015282417513582116
4.62200e-06;0.001618953471472922
4.62225e-06;0.0017052015088785263
4.62250e-06;0.0017857388968867535
4.62275e-06;0.0018612245124121482
4.62300e-06;0.001930120444308151
4.62325e-06;0.00199318698971637
4.62350e-06;0.0020503517040439596
4.62375e-06;0.002102295522151207
4.62400e-06;0.002148257422892345
4.62425e-06;0.00218892758123401
4.62450e-06;0.002223100589116132
4.62475e-06;0.0022515260674925803
4.62500e-06;0.002273294161068003
4.62525e-06;0.0022891729781345533
4.62550e-06;0.002299215719500568
4.62575e-06;0.0023040957333762477
4.62600e-06;0.002302119788820429
4.62625e-06;0.002294078904931628
4.62650e-06;0.0022860380210427997
4.62675e-06;0.0022700534506875443
4.62700e-06;0.0022470417116322284
4.62725e-06;0.002224029972576835
4.62750e-06;0.002194595476106987
4.62775e-06;0.0021594792599391793
4.62800e-06;0.0021243630437712525
4.62825e-06;0.002084125135157012
4.62850e-06;0.002039356458995094
4.62875e-06;0.001994587782833328
4.62900e-06;0.0019452578390856724
4.62925e-06;0.001891892892578574
4.62950e-06;0.0018385279460716565
4.62975e-06;0.001785162999564739
4.63000e-06;0.0017317980530576409
4.63025e-06;0.0016769930235690257
4.63050e-06;0.0016209140633812926
4.63075e-06;0.0015648351031933693
4.63100e-06;0.0015087561430056362
4.63125e-06;0.001452677182817903
4.63150e-06;0.0013989348972618116
4.63175e-06;0.0013472596881071264
4.63200e-06;0.0012955844789524409
4.63225e-06;0.0012471996126145208
4.63250e-06;0.0012017254596024835
4.63275e-06;0.0011597897429028827
4.63300e-06;0.0011209842087710577
4.63325e-06;0.0010859968415672166
4.63350e-06;0.0010543871131003901
4.63375e-06;0.0010265555238618278
4.63400e-06;0.0010020661639316701
4.63425e-06;0.0009815548037587299
4.63450e-06;0.000964562474138905
4.63475e-06;0.0009517506300790238
4.63500e-06;0.0009426369401944495
4.63525e-06;0.0009375975203916436
4.63550e-06;0.0009361622940965002
4.63575e-06;0.0009384948758061242
4.63600e-06;0.000944160547584967
4.63625e-06;0.0009534379008078171
4.63650e-06;0.0009659102309347708
4.63675e-06;0.000981839691109061
4.63700e-06;0.0010008274084488944
4.63725e-06;0.001022924360765742
4.63750e-06;0.0010477718142258394
4.63775e-06;0.0010758349497831366
4.63800e-06;0.0011067427520669005
4.63825e-06;0.0011376505543506644
4.63850e-06;0.0011716609151807473
4.63875e-06;0.0012084158710288053
4.63900e-06;0.0012451708268768635
4.63925e-06;0.0012843537180418682
4.63950e-06;0.001325684416919454
4.63975e-06;0.0013670151157970398
4.64000e-06;0.0014083458146747654
4.64025e-06;0.0014496765135523513
4.64050e-06;0.0014909861716953644
4.64075e-06;0.00153162949101373
4.64100e-06;0.0015722728103319578
4.64125e-06;0.0016129161296503233
4.64150e-06;0.0016535594489685511
4.64175e-06;0.001694202768286779
4.64200e-06;0.0017316406932107928
4.64225e-06;0.0017662430521480563
4.64250e-06;0.0018008454110853198
4.64275e-06;0.0018311501869680577
4.64300e-06;0.001857653221524963
4.64325e-06;0.0018841562560818685
4.64350e-06;0.0019046283990514666
4.64375e-06;0.0019197654758949965
4.64400e-06;0.0019294479447229062
4.64425e-06;0.0019343051411955079
4.64450e-06;0.0019338427613683068
4.64475e-06;0.001928674561363461
4.64500e-06;0.001918057158317811
