Time(s);Current(A)
4.25000e-06;-0.0018899551286791487
4.25025e-06;-0.0018560537646021514
4.25050e-06;-0.001821451187902237
4.25075e-06;-0.0017868337531807969
4.25100e-06;-0.0017521757915388218
4.25125e-06;-0.001717748732715364
4.25150e-06;-0.001683753399858155
4.25175e-06;-0.0016503944515719826
4.25200e-06;-0.0016178885183848876
4.25225e-06;-0.0015864606900250942
4.25250e-06;-0.0015563377121376445
4.25275e-06;-0.0015277465897688997
4.25300e-06;-0.0015009143327963316
4.25325e-06;-0.0014760676090983622
4.25350e-06;-0.0014534423132883598
4.25375e-06;-0.0014332673536530238
4.25400e-06;-0.001417008269871245
4.25425e-06;-0.0014008310803348522
4.25450e-06;-0.0013899544243898803
4.25475e-06;-0.001379190081657153
4.25500e-06;-0.0013738506462716716
4.25525e-06;-0.0013686261594587047
4.25550e-06;-0.0013689597317315541
4.25575e-06;-0.0013694110739342772
4.25600e-06;-0.0013740677538791153
4.25625e-06;-0.0013815441775266485
4.25650e-06;-0.001391720747551427
4.25675e-06;-0.0014045067860798692
4.25700e-06;-0.0014198118335758503
4.25725e-06;-0.0014386909050850562
4.25750e-06;-0.0014576446000470213
4.25775e-06;-0.0014809902503846752
4.25800e-06;-0.0015044289620354241
4.25825e-06;-0.0015317329500960147
4.25850e-06;-0.0015591188396485484
4.25875e-06;-0.0015897219168837312
4.25900e-06;-0.0016203931632335427
4.25925e-06;-0.0016536284925483824
4.25950e-06;-0.0016869181523168383
4.25975e-06;-0.0017221125773448879
4.26000e-06;-0.0017573473625179762
4.26025e-06;-0.0017935435648033
4.26050e-06;-0.0018301231138802602
4.26075e-06;-0.001866862771755503
4.26100e-06;-0.0019035476333291404
4.26125e-06;-0.0019399630239167564
4.26150e-06;-0.001975895071663457
4.26175e-06;-0.002011129465623696
4.26200e-06;-0.0020454404852124977
4.26225e-06;-0.0020785886023169478
4.26250e-06;-0.0021103292133832553
4.26275e-06;-0.0021404176134050563
4.26300e-06;-0.002167557449441017
4.26325e-06;-0.0021946355368826402
4.26350e-06;-0.0022185192365968692
4.26375e-06;-0.0022406532976083932
4.26400e-06;-0.002261193456718721
4.26425e-06;-0.0022817005977351446
4.26450e-06;-0.0023006590517926804
4.26475e-06;-0.00231836968104791
4.26500e-06;-0.002333955829538469
4.26525e-06;-0.0023494975078330086
4.26550e-06;-0.002362789742544607
4.26575e-06;-0.0023748313880709903
4.26600e-06;-0.002385672321067015
4.26625e-06;-0.002396488352202634
4.26650e-06;-0.002405729020431697
4.26675e-06;-0.002414936308234989
4.26700e-06;-0.0024222730877112414
4.26725e-06;-0.002429570232914022
4.26750e-06;-0.0024353575650814655
4.26775e-06;-0.002440308523341441
4.26800e-06;-0.0024444548130577136
4.26825e-06;-0.0024485844137688804
4.26850e-06;-0.002451699530472097
4.26875e-06;-0.0024547931512343365
4.26900e-06;-0.0024567362862556656
4.26925e-06;-0.0024586550435900236
4.26950e-06;-0.002459674798689658
4.26975e-06;-0.002460219505691483
4.27000e-06;-0.0024604690950711214
4.27025e-06;-0.0024604878283658155
4.27050e-06;-0.0024602687826619837
4.27075e-06;-0.0024598022080591394
4.27100e-06;-0.0024590792376684607
4.27125e-06;-0.002458090111927279
4.27150e-06;-0.002456856743886326
4.27175e-06;-0.002455478097968065
4.27200e-06;-0.002454075732969364
4.27225e-06;-0.0024527023402835914
4.27250e-06;-0.0024513655947378723
4.27275e-06;-0.002450097214371844
4.27300e-06;-0.0024488302664243972
4.27325e-06;-0.0024476802822472866
4.27350e-06;-0.0024465327764200346
4.27375e-06;-0.0024456958439829503
4.27400e-06;-0.002444865492297466
4.27425e-06;-0.002444035140611979
4.27450e-06;-0.002443930739501034
4.27475e-06;-0.0024438417205849437
4.27500e-06;-0.0024437527016688532
4.27525e-06;-0.0024436636827527627
4.27550e-06;-0.0024435746638366727
4.27575e-06;-0.002443485644920582
4.27600e-06;-0.0024444113380120325
4.27625e-06;-0.0024453585318755236
4.27650e-06;-0.002446305725739018
4.27675e-06;-0.002447252919602509
4.27700e-06;-0.0024482001134660007
4.27725e-06;-0.002449147307329495
4.27750e-06;-0.002451085520247057
4.27775e-06;-0.0024530447319057497
4.27800e-06;-0.002455003943564436
4.27825e-06;-0.0024569631552231225
4.27850e-06;-0.002458922366881816
4.27875e-06;-0.0024608815785405022
4.27900e-06;-0.0024628407901991886
4.27925e-06;-0.0024648000018578815
4.27950e-06;-0.002467295753463043
4.27975e-06;-0.0024698028738339077
4.28000e-06;-0.0024723099942047812
4.28025e-06;-0.002474817114575646
4.28050e-06;-0.002477324234946511
4.28075e-06;-0.002479831355317384
4.28100e-06;-0.002482338475688249
4.28125e-06;-0.002484845596059114
4.28150e-06;-0.0024872328646653214
4.28175e-06;-0.002489617593727839
4.28200e-06;-0.0024920023227903644
4.28225e-06;-0.0024942230441749175
4.28250e-06;-0.002496328114614695
4.28275e-06;-0.0024982997084149593
4.28300e-06;-0.0025001178166336167
4.28325e-06;-0.002501762871834424
4.28350e-06;-0.002502900904860677
4.28375e-06;-0.0025024486899388083
4.28400e-06;-0.002499229290583885
4.28425e-06;-0.002492892212451719
4.28450e-06;-0.0024835805707871536
4.28475e-06;-0.0024714512161465385
4.28500e-06;-0.002455438200784794
4.28525e-06;-0.002439344131788186
4.28550e-06;-0.002419536292083663
4.28575e-06;-0.0023966513390353008
4.28600e-06;-0.0023683520448112756
4.28625e-06;-0.002339939372120132
4.28650e-06;-0.002306397963499456
4.28675e-06;-0.002269678323921872
4.28700e-06;-0.0022288149593700764
4.28725e-06;-0.002187865171425521
4.28750e-06;-0.0021419610672088435
4.28775e-06;-0.0020959519857928553
4.28800e-06;-0.002044628234812442
4.28825e-06;-0.001993191871093038
4.28850e-06;-0.0019381907343729227
4.28875e-06;-0.0018811783473407864
4.28900e-06;-0.0018218831387450379
4.28925e-06;-0.0017625404284435568
4.28950e-06;-0.0017015403893964505
4.28975e-06;-0.001639555843010583
4.29000e-06;-0.0015766540017218094
4.29025e-06;-0.0015130913313490689
4.29050e-06;-0.001449245565983169
4.29075e-06;-0.0013854984000627197
4.29100e-06;-0.0013222308754291191
4.29125e-06;-0.0012598243614298237
4.29150e-06;-0.0011986116707549208
4.29175e-06;-0.0011388103592956881
4.29200e-06;-0.001080623478590392
4.29225e-06;-0.0010243811618800285
4.29250e-06;-0.0009704898274250108
4.29275e-06;-0.0009193577947198373
4.29300e-06;-0.0008713933905061728
4.29325e-06;-0.0008270048845252545
4.29350e-06;-0.0007865936483241351
4.29375e-06;-0.000750494388440388
4.29400e-06;-0.0007189042292076268
4.29425e-06;-0.000691917944785526
4.29450e-06;-0.0006696048318163446
4.29475e-06;-0.0006520336347552282
4.29500e-06;-0.0006392730398499623
4.29525e-06;-0.0006313916751404615
4.29550e-06;-0.0006284538924673268
4.29575e-06;-0.0006304821151703907
4.29600e-06;-0.0006374127222513701
4.29625e-06;-0.0006491179874217643
4.29650e-06;-0.0006654541013262505
4.29675e-06;-0.0006862769987963189
4.29700e-06;-0.0007114426158712942
4.29725e-06;-0.0007408067745904827
4.29750e-06;-0.0007742227295829087
4.29775e-06;-0.0008133030396734384
4.29800e-06;-0.0008525015919317511
4.29825e-06;-0.0008983134137051489
4.29850e-06;-0.0009442653643019501
4.29875e-06;-0.000995748954537441
4.29900e-06;-0.0010473497548991
4.29925e-06;-0.0011033951785337584
4.29950e-06;-0.0011595347794626312
4.29975e-06;-0.0012183089722187961
4.30000e-06;-0.001278475978817634
4.30025e-06;-0.0013396607189933257
4.30050e-06;-0.0014015027704405746
4.30075e-06;-0.0014636414809074882
4.30100e-06;-0.0015257161957272542
4.30125e-06;-0.0015873666022323898
4.30150e-06;-0.0016482309130043302
4.30175e-06;-0.0017079373912425213
4.30200e-06;-0.0017660930000353316
4.30225e-06;-0.0018222890936243556
4.30250e-06;-0.001876113170991156
4.30275e-06;-0.0019271526562353507
4.30300e-06;-0.0019749950874558054
4.30325e-06;-0.0020192276631682904
4.30350e-06;-0.0020574222865981833
4.30375e-06;-0.0020954905624968783
4.30400e-06;-0.002125201514804744
4.30425e-06;-0.0021547353834603065
4.30450e-06;-0.0021756256750869495
4.30475e-06;-0.002196332817626342
4.30500e-06;-0.0022057452043421173
4.30525e-06;-0.0022149182660407924
4.30550e-06;-0.002224091327739499
4.30575e-06;-0.0022240440875415514
4.30600e-06;-0.0022193260747979857
4.30625e-06;-0.0022101705250895686
4.30650e-06;-0.002196694477887215
4.30675e-06;-0.002179013897344723
4.30700e-06;-0.0021572454171212138
4.30725e-06;-0.002131505229370189
4.30750e-06;-0.0021037921465458386
4.30775e-06;-0.002082261804845626
4.30800e-06;-0.0020491681852525625
4.30825e-06;-0.0020075208397462843
4.30850e-06;-0.001969232212542759
4.30875e-06;-0.0019090038738003065
4.30900e-06;-0.0018653061611405178
4.30925e-06;-0.0018142185881342232
4.30950e-06;-0.0017625923006567984
4.30975e-06;-0.001708319357852422
4.31000e-06;-0.0016548272777810852
4.31025e-06;-0.001599704282912045
4.31050e-06;-0.0015412110847378437
4.31075e-06;-0.0014806109837616247
4.31100e-06;-0.001423410671278755
4.31125e-06;-0.0013687477189388785
4.31150e-06;-0.0013137023381860475
4.31175e-06;-0.0012597011571834225
4.31200e-06;-0.0012072912310715858
4.31225e-06;-0.0011562334200322408
4.31250e-06;-0.0011056089810323163
4.31275e-06;-0.0010563799461553803
4.31300e-06;-0.0010121663865300255
4.31325e-06;-0.0009725736669246375
4.31350e-06;-0.0009357208554325532
4.31375e-06;-0.0009019807914829948
4.31400e-06;-0.0008709669562793562
4.31425e-06;-0.0008421483260439291
4.31450e-06;-0.0008148523782935109
4.31475e-06;-0.0007896087056817449
4.31500e-06;-0.0007686116864809899
4.31525e-06;-0.0007515409082265275
4.31550e-06;-0.000737145093694385
4.31575e-06;-0.000725584553973007
4.31600e-06;-0.0007165439969434693
4.31625e-06;-0.0007096177890615186
4.31650e-06;-0.0007043115164821523
4.31675e-06;-0.0007008838916923558
4.31700e-06;-0.0007006363585862598
4.31725e-06;-0.0007032950235346549
4.31750e-06;-0.00070800289841536
4.31775e-06;-0.000714787363529245
4.31800e-06;-0.0007233778672948875
4.31825e-06;-0.0007334471469167102
4.31850e-06;-0.0007446125456561387
4.31875e-06;-0.0007569630552905178
4.31900e-06;-0.0007712408408697311
4.31925e-06;-0.0007872012876118305
4.31950e-06;-0.0008042344539614575
4.31975e-06;-0.0008222844356769615
4.32000e-06;-0.0008411087987384279
4.32025e-06;-0.0008604295474375443
4.32050e-06;-0.0008799339876729026
4.32075e-06;-0.0008996049049670152
4.32100e-06;-0.0009198341743954015
4.32125e-06;-0.0009403955802324968
4.32150e-06;-0.0009608341215953813
4.32175e-06;-0.0009810418026521242
4.32200e-06;-0.0010007938112183104
4.32225e-06;-0.0010198431098577714
4.32250e-06;-0.0010379209545407259
4.32275e-06;-0.001054943696886333
4.32300e-06;-0.001071083928114486
4.32325e-06;-0.0010861230709612597
4.32350e-06;-0.001099674182665532
4.32375e-06;-0.0011115288980791977
4.32400e-06;-0.0011214462856408744
4.32425e-06;-0.0011292909944298967
4.32450e-06;-0.0011349804483272111
4.32475e-06;-0.0011385527981643082
4.32500e-06;-0.0011402064755681911
4.32525e-06;-0.0011398950775510686
4.32550e-06;-0.0011371970908355936
4.32575e-06;-0.0011320417547238096
4.32600e-06;-0.0011260775087465701
4.32625e-06;-0.0011170622583736823
4.32650e-06;-0.0011056468835545013
4.32675e-06;-0.0010919199455042146
4.32700e-06;-0.0010773150871030302
4.32725e-06;-0.0010599767711467357
4.32750e-06;-0.0010417923444706327
4.32775e-06;-0.0010209735014300174
4.32800e-06;-0.0009995595720725015
4.32825e-06;-0.0009759297402304233
4.32850e-06;-0.0009507040183616149
4.32875e-06;-0.0009240290480756479
4.32900e-06;-0.0008968768342701358
4.32925e-06;-0.0008682386942045403
4.32950e-06;-0.0008393087701084551
4.32975e-06;-0.0008093150606157857
4.33000e-06;-0.000778718081476631
4.33025e-06;-0.0007476670517826584
4.33050e-06;-0.0007163241751312161
4.33075e-06;-0.0006848812525259566
4.33100e-06;-0.0006535695366020261
4.33125e-06;-0.0006225600184208436
4.33150e-06;-0.0005919977346117274
4.33175e-06;-0.000562055212945737
4.33200e-06;-0.0005329000037786964
4.33225e-06;-0.0005047158613328801
4.33250e-06;-0.00047769458311233595
4.33275e-06;-0.00045204663278825
4.33300e-06;-0.0004280070548032314
4.33325e-06;-0.0004057819395202172
4.33350e-06;-0.0003856229856618393
4.33375e-06;-0.0003679134264469768
4.33400e-06;-0.00035299650274592134
4.33425e-06;-0.0003410031456579598
4.33450e-06;-0.0003319349301358068
4.33475e-06;-0.000325795224152556
4.33500e-06;-0.00032260287964019083
4.33525e-06;-0.00032235858192364915
4.33550e-06;-0.0003250915407886938
4.33575e-06;-0.0003309133628892623
4.33600e-06;-0.00033991065109626655
4.33625e-06;-0.00035203692064780557
4.33650e-06;-0.00036716470446530435
4.33675e-06;-0.0003851676555053306
4.33700e-06;-0.0004059291334223701
4.33725e-06;-0.0004293211069406644
4.33750e-06;-0.00045523346756168526
4.33775e-06;-0.00048388486420941715
4.33800e-06;-0.0005152325999944712
4.33825e-06;-0.0005475878718876378
4.33850e-06;-0.0005830801677526073
4.33875e-06;-0.0006192032933192703
4.33900e-06;-0.0006577957775143929
4.33925e-06;-0.000697961333643461
4.33950e-06;-0.0007386530929559212
4.33975e-06;-0.0007809832173713785
4.34000e-06;-0.0008236500314510299
4.34025e-06;-0.0008673651489504103
4.34050e-06;-0.0009111707710765325
4.34075e-06;-0.0009552581847749673
4.34100e-06;-0.000999257584280421
4.34125e-06;-0.0010428405387974812
4.34150e-06;-0.0010857811755489728
4.34175e-06;-0.0011278478055480891
4.34200e-06;-0.0011688027452111597
4.34225e-06;-0.0012083755970022344
4.34250e-06;-0.0012462759677214301
4.34275e-06;-0.0012819137862743282
4.34300e-06;-0.0013149674139777791
4.34325e-06;-0.0013470799831739818
4.34350e-06;-0.0013757268690270325
4.34375e-06;-0.001402375681367292
4.34400e-06;-0.0014276108479275922
4.34425e-06;-0.001451646770179234
4.34450e-06;-0.0014750413066862138
4.34475e-06;-0.0014964388502916308
4.34500e-06;-0.0015172503920030983
4.34525e-06;-0.0015358092818437631
4.34550e-06;-0.0015526750497314534
4.34575e-06;-0.0015681897462742223
4.34600e-06;-0.0015827184126252464
4.34625e-06;-0.0015964022770064107
4.34650e-06;-0.0016096509239377152
4.34675e-06;-0.001621544495292164
4.34700e-06;-0.0016329113965069535
4.34725e-06;-0.001642638478722236
4.34750e-06;-0.0016519916845691277
4.34775e-06;-0.001659973079151754
4.34800e-06;-0.0016673077100881632
4.34825e-06;-0.0016743927316407792
4.34850e-06;-0.0016807005794386499
4.34875e-06;-0.0016866237118212367
4.34900e-06;-0.001691349009734192
4.34925e-06;-0.0016960743076471472
4.34950e-06;-0.001700492150192167
4.34975e-06;-0.0017038370766812088
4.35000e-06;-0.0017068219655328514
4.35025e-06;-0.0017096764320664608
4.35050e-06;-0.001712124820907464
4.35075e-06;-0.0017143761211600146
4.35100e-06;-0.0017160137742972615
4.35125e-06;-0.0017176514274345083
4.35150e-06;-0.0017191251553162034
4.35175e-06;-0.0017200884921043213
4.35200e-06;-0.001721013849777582
4.35225e-06;-0.001721820957203811
4.35250e-06;-0.0017226280646300371
4.35275e-06;-0.001723406277364557
4.35300e-06;-0.001724076752106268
4.35325e-06;-0.001724651194715113
4.35350e-06;-0.0017249424552216587
4.35375e-06;-0.0017244213002261136
4.35400e-06;-0.0017224910116857188
4.35425e-06;-0.0017189430990538245
4.35450e-06;-0.0017138398813172095
4.35475e-06;-0.0017072652907091617
4.35500e-06;-0.0016993034421203354
4.35525e-06;-0.0016900249318757628
4.35550e-06;-0.0016794016976546008
4.35575e-06;-0.0016671912566585197
4.35600e-06;-0.001653108984210465
4.35625e-06;-0.0016371135622179132
4.35650e-06;-0.0016193330386124294
4.35675e-06;-0.0015999091506553554
4.35700e-06;-0.0015788271422088726
4.35725e-06;-0.0015562028139419668
4.35750e-06;-0.0015329221856280485
4.35775e-06;-0.0015075981278403917
4.35800e-06;-0.0014817504563543068
4.35825e-06;-0.001453966328731853
4.35850e-06;-0.0014249660914444806
4.35875e-06;-0.0013949276586180076
4.35900e-06;-0.0013639596129474425
4.35925e-06;-0.0013322269499007663
4.35950e-06;-0.0013002416210289392
4.35975e-06;-0.0012674696019890996
4.36000e-06;-0.0012345425392973014
4.36025e-06;-0.0012010851376715271
4.36050e-06;-0.0011674806870354756
4.36075e-06;-0.0011339297143877743
4.36100e-06;-0.001100632570497515
4.36125e-06;-0.0010677864364904783
4.36150e-06;-0.0010355642763248644
4.36175e-06;-0.0010040862008746673
4.36200e-06;-0.0009734619116005273
4.36225e-06;-0.0009438610335870688
4.36250e-06;-0.0009154948175693305
4.36275e-06;-0.0008885776848129307
4.36300e-06;-0.0008633241887559157
4.36325e-06;-0.0008399443406250046
4.36350e-06;-0.0008186091614621675
4.36375e-06;-0.0007993852663773724
4.36400e-06;-0.0007825199965483519
4.36425e-06;-0.000768054228658088
4.36450e-06;-0.000754383857200724
4.36475e-06;-0.0007437375701112891
4.36500e-06;-0.0007356420804456124
4.36525e-06;-0.0007301803683106104
4.36550e-06;-0.0007258407027117314
4.36575e-06;-0.0007249945961526903
4.36600e-06;-0.0007251984409024245
4.36625e-06;-0.0007286713718869961
4.36650e-06;-0.0007331427545572057
4.36675e-06;-0.0007407228763034924
4.36700e-06;-0.0007492543366717118
4.36725e-06;-0.0007607478467727413
4.36750e-06;-0.0007731154212980999
4.36775e-06;-0.000788204447717597
4.36800e-06;-0.0008040436465568633
4.36825e-06;-0.0008222185521196367
4.36850e-06;-0.0008410326501477852
4.36875e-06;-0.0008618369121693417
4.36900e-06;-0.0008831721318389095
4.36925e-06;-0.000906160519921
4.36950e-06;-0.0009295527898533062
4.36975e-06;-0.0009542025700969414
4.37000e-06;-0.0009790999362471044
4.37025e-06;-0.0010047681759337425
4.37050e-06;-0.0010305358207179844
4.37075e-06;-0.001056612969222628
4.37100e-06;-0.0010826430966397323
4.37125e-06;-0.0011085268210870721
4.37150e-06;-0.0011342787364976023
4.37175e-06;-0.001159473434193104
4.37200e-06;-0.001184019680995935
4.37225e-06;-0.0012075979509692386
4.37250e-06;-0.001230016980816026
4.37275e-06;-0.0012516058755089618
4.37300e-06;-0.0012706100947205998
4.37325e-06;-0.0012896143139322378
4.37350e-06;-0.0013075183085617976
4.37375e-06;-0.0013219966881118771
4.37400e-06;-0.0013364750676619565
4.37425e-06;-0.0013499350862063997
4.37450e-06;-0.0013602243768158588
4.37475e-06;-0.001370513667425318
4.37500e-06;-0.0013796768103012042
4.37525e-06;-0.0013853336248143113
4.37550e-06;-0.0013909904393274186
4.37575e-06;-0.0013957760925637213
4.37600e-06;-0.0013978493330301372
4.37625e-06;-0.0013993016064782272
4.37650e-06;-0.0013988204619531164
4.37675e-06;-0.0013978764363528145
4.37700e-06;-0.0013951837757561593
4.37725e-06;-0.0013912308254772066
4.37750e-06;-0.0013860527451953738
4.37775e-06;-0.0013797526045355346
4.37800e-06;-0.0013724658136091766
4.37825e-06;-0.0013642814877950803
4.37850e-06;-0.001355249510075423
4.37875e-06;-0.0013454165945084914
4.37900e-06;-0.0013348292474084315
4.37925e-06;-0.001323536330448798
4.37950e-06;-0.0013116042725996786
4.37975e-06;-0.001299141876041804
4.38000e-06;-0.00128627841310767
4.38025e-06;-0.0012731139551668486
4.38050e-06;-0.0012597241631607775
4.38075e-06;-0.001246182551758388
4.38100e-06;-0.001232562698656817
4.38125e-06;-0.0012189393290137815
4.38150e-06;-0.001205398545269789
4.38175e-06;-0.0011920527950795995
4.38200e-06;-0.0011790272306227245
4.38225e-06;-0.0011664288561437498
4.38250e-06;-0.0011543494197713792
4.38275e-06;-0.0011428792314949294
4.38300e-06;-0.0011321085414892772
4.38325e-06;-0.0011221065759579054
4.38350e-06;-0.0011127798985463803
4.38375e-06;-0.0011036724617126607
4.38400e-06;-0.0010942301559502157
4.38425e-06;-0.0010842665317736815
4.38450e-06;-0.0010738616631134036
4.38475e-06;-0.0010631169194142388
4.38500e-06;-0.0010521336103066342
4.38525e-06;-0.001040999917256692
4.38550e-06;-0.0010297021677314238
4.38575e-06;-0.0010179995054380372
4.38600e-06;-0.0010055895153089768
4.38625e-06;-0.0009924004009339343
4.38650e-06;-0.0009785271515070216
4.38675e-06;-0.0009640781213924315
4.38700e-06;-0.0009491237675268302
4.38725e-06;-0.0009337598554287205
4.38750e-06;-0.0009181927465758683
4.38775e-06;-0.0009019929724669863
4.38800e-06;-0.0008855759929134975
4.38825e-06;-0.0008683599641452914
4.38850e-06;-0.0008506663487827145
4.38875e-06;-0.0008326079249723546
4.38900e-06;-0.0008142881992711171
4.38925e-06;-0.0007958136115661308
4.38950e-06;-0.0007772916065683053
4.38975e-06;-0.0007586219649915346
4.39000e-06;-0.0007399034062016529
4.39025e-06;-0.0007210282673832335
4.39050e-06;-0.0007021636238317556
4.39075e-06;-0.0006834249312462159
4.39100e-06;-0.000664979919995368
4.39125e-06;-0.000646946691879197
4.39150e-06;-0.0006290803865010759
4.39175e-06;-0.0006118488885671308
4.39200e-06;-0.0005951053682369302
4.39225e-06;-0.0005789226419257065
4.39250e-06;-0.0005634145789515342
4.39275e-06;-0.0005486981767128016
4.39300e-06;-0.0005348904609084272
4.39325e-06;-0.0005221075972892247
