Time(s);Current(A)
1.25000e-06;-0.013151898059484905
1.25025e-06;-0.013140398437579519
1.25050e-06;-0.013128898815674124
1.25075e-06;-0.013117399193768737
1.25100e-06;-0.01310589957186334
1.25125e-06;-0.013094399949957954
1.25150e-06;-0.013082900328052567
1.25175e-06;-0.01307036501479288
1.25200e-06;-0.013056977918013192
1.25225e-06;-0.013043590821233493
1.25250e-06;-0.013030203724453807
1.25275e-06;-0.01301681662767412
1.25300e-06;-0.01300342953089442
1.25325e-06;-0.012990042434114734
1.25350e-06;-0.012978508417517682
1.25375e-06;-0.012968498429439632
1.25400e-06;-0.012958488441361583
1.25425e-06;-0.012948478453283525
1.25450e-06;-0.012938468465205476
1.25475e-06;-0.012928458477127418
1.25500e-06;-0.01291844848904937
1.25525e-06;-0.012911815142120961
1.25550e-06;-0.012907958845780337
1.25575e-06;-0.012904102549439711
1.25600e-06;-0.012905007459741475
1.25625e-06;-0.012909828128668081
1.25650e-06;-0.01291464879759469
1.25675e-06;-0.012919469466521297
1.25700e-06;-0.012924290135447903
1.25725e-06;-0.012929110804374512
1.25750e-06;-0.012934515796556145
1.25775e-06;-0.012951330467439851
1.25800e-06;-0.012968145138323544
1.25825e-06;-0.012984959809207238
1.25850e-06;-0.013001774480090945
1.25875e-06;-0.01301858915097464
1.25900e-06;-0.013035403821858346
1.25925e-06;-0.013057466576647013
1.25950e-06;-0.013083845512470873
1.25975e-06;-0.01311022444829471
1.26000e-06;-0.013136603384118548
1.26025e-06;-0.01316298231994241
1.26050e-06;-0.013189361255766247
1.26075e-06;-0.013218672416177062
1.26100e-06;-0.013250395125713615
1.26125e-06;-0.013282117835250167
1.26150e-06;-0.013313840544786746
1.26175e-06;-0.013345563254323298
1.26200e-06;-0.013377285963859878
1.26225e-06;-0.013409622935566273
1.26250e-06;-0.013442465094837514
1.26275e-06;-0.013475031551579138
1.26300e-06;-0.013507371262321374
1.26325e-06;-0.013539102587778112
1.26350e-06;-0.013570333558995267
1.26375e-06;-0.013600608386685177
1.26400e-06;-0.013630096853365227
1.26425e-06;-0.013658228526317373
1.26450e-06;-0.013685244331561841
1.26475e-06;-0.013710499115643815
1.26500e-06;-0.013734305583296155
1.26525e-06;-0.013755997650176642
1.26550e-06;-0.013775950770676492
1.26575e-06;-0.013793626726260513
1.26600e-06;-0.013809429873367876
1.26625e-06;-0.013822281887651746
1.26650e-06;-0.013832706802111133
1.26675e-06;-0.013843131716570522
1.26700e-06;-0.013849901549671492
1.26725e-06;-0.01385366533463637
1.26750e-06;-0.013857429119601253
1.26775e-06;-0.013856019713263798
1.26800e-06;-0.01385035571980584
1.26825e-06;-0.013844691726347886
1.26850e-06;-0.013839027732889933
1.26875e-06;-0.013833363739431975
1.26900e-06;-0.013827699745974023
1.26925e-06;-0.013816401438725132
1.26950e-06;-0.013800469303441185
1.26975e-06;-0.013784537168157238
1.27000e-06;-0.013768605032873277
1.27025e-06;-0.01375267289758933
1.27050e-06;-0.013736740762305369
1.27075e-06;-0.013717359898336943
1.27100e-06;-0.013695142696838103
1.27125e-06;-0.013672925495339244
1.27150e-06;-0.013650708293840404
1.27175e-06;-0.013628491092341545
1.27200e-06;-0.013606273890842705
1.27225e-06;-0.013584038345041932
1.27250e-06;-0.01356144460266214
1.27275e-06;-0.013538850860282364
1.27300e-06;-0.013516257117902572
1.27325e-06;-0.013493663375522798
1.27350e-06;-0.013471069633143005
1.27375e-06;-0.01344847589076323
1.27400e-06;-0.013427718212838063
1.27425e-06;-0.01340847056918847
1.27450e-06;-0.01339079409778618
1.27475e-06;-0.013374409805392243
1.27500e-06;-0.013359316979620842
1.27525e-06;-0.013345286294593401
1.27550e-06;-0.01333125560956595
1.27575e-06;-0.013315810895067616
1.27600e-06;-0.0132992032404762
1.27625e-06;-0.0132825955858848
1.27650e-06;-0.013263911576304393
1.27675e-06;-0.013243519910332182
1.27700e-06;-0.013223128244359986
1.27725e-06;-0.013202736578387775
1.27750e-06;-0.01318234491241558
1.27775e-06;-0.013161953246443368
1.27800e-06;-0.013141190659802866
1.27825e-06;-0.013113185360142988
1.27850e-06;-0.013085180060483087
1.27875e-06;-0.01305717476082321
1.27900e-06;-0.013029169461163307
1.27925e-06;-0.01300116416150343
1.27950e-06;-0.012973158861843553
1.27975e-06;-0.012941622703128153
1.28000e-06;-0.012907182660411036
1.28025e-06;-0.01287274261769389
1.28050e-06;-0.012838302574976774
1.28075e-06;-0.01280386253225966
1.28100e-06;-0.012769422489542513
1.28125e-06;-0.012734982446825397
1.28150e-06;-0.012700027355426476
1.28175e-06;-0.01266464867260023
1.28200e-06;-0.012629269989773952
1.28225e-06;-0.012593891306947706
1.28250e-06;-0.01255851262412146
1.28275e-06;-0.012523133941295183
1.28300e-06;-0.012487755258468937
1.28325e-06;-0.012454455240577636
1.28350e-06;-0.012422864778846679
1.28375e-06;-0.012391274317115722
1.28400e-06;-0.01236210939033673
1.28425e-06;-0.012334939295985756
1.28450e-06;-0.012307769201634759
1.28475e-06;-0.012284304099572983
1.28500e-06;-0.012263886093887972
1.28525e-06;-0.012243468088202944
1.28550e-06;-0.012228057017614785
1.28575e-06;-0.012216763800074987
1.28600e-06;-0.0122054705825352
1.28625e-06;-0.01219959397855
1.28650e-06;-0.01219817215941942
1.28675e-06;-0.012196750340288842
1.28700e-06;-0.012203250158590353
1.28725e-06;-0.012216264968242163
1.28750e-06;-0.012229279777893983
1.28775e-06;-0.012242294587545792
1.28800e-06;-0.0122553093971976
1.28825e-06;-0.012269158022891512
1.28850e-06;-0.012299288001494093
1.28875e-06;-0.012329417980096699
1.28900e-06;-0.01235954795869928
1.28925e-06;-0.01238967793730186
1.28950e-06;-0.012419807915904465
1.28975e-06;-0.012456634228658546
1.29000e-06;-0.012498967806728592
1.29025e-06;-0.0125413013847986
1.29050e-06;-0.012583634962868644
1.29075e-06;-0.012626294948055544
1.29100e-06;-0.012675328460727327
1.29125e-06;-0.012724361973399153
1.29150e-06;-0.012773395486070937
1.29175e-06;-0.012822428998742762
1.29200e-06;-0.012872653815486962
1.29225e-06;-0.012923858396300609
1.29250e-06;-0.012975069365032038
1.29275e-06;-0.013026091905711986
1.29300e-06;-0.013076615830611723
1.29325e-06;-0.013126379290031331
1.29350e-06;-0.013175119288027759
1.29375e-06;-0.013222555157408965
1.29400e-06;-0.01326653136279835
1.29425e-06;-0.013308195242327027
1.29450e-06;-0.013349859121855668
1.29475e-06;-0.013391523001384345
1.29500e-06;-0.013429252051343401
1.29525e-06;-0.013463744979878147
1.29550e-06;-0.013497579441852266
1.29575e-06;-0.01353087236124962
1.29600e-06;-0.013563940170425837
1.29625e-06;-0.013596822842229073
1.29650e-06;-0.013628949440088581
1.29675e-06;-0.0136604542201427
1.29700e-06;-0.013691077808237593
1.29725e-06;-0.013720976677732215
1.29750e-06;-0.013750875547226812
1.29775e-06;-0.013781275910850132
1.29800e-06;-0.013812088718231311
1.29825e-06;-0.013842901525612464
1.29850e-06;-0.013873648154165856
1.29875e-06;-0.013904340355273596
1.29900e-06;-0.013935032556381363
1.29925e-06;-0.013965724757489103
1.29950e-06;-0.013996416958596844
1.29975e-06;-0.01402710915970461
1.30000e-06;-0.014058198178262375
1.30025e-06;-0.014089644213354484
1.30050e-06;-0.01412111546579589
1.30075e-06;-0.014152320469825883
1.30100e-06;-0.01418330650320594
1.30125e-06;-0.014214061038447065
1.30150e-06;-0.01424462518270082
1.30175e-06;-0.014275123148126763
1.30200e-06;-0.01430556668610708
1.30225e-06;-0.014335628226606556
1.30250e-06;-0.014365375600962349
1.30275e-06;-0.014394393219595516
1.30300e-06;-0.014422810665314758
1.30325e-06;-0.014450592896493928
1.30350e-06;-0.014477480164890309
1.30375e-06;-0.01450365885919148
1.30400e-06;-0.014529019260045439
1.30425e-06;-0.01455340736968244
1.30450e-06;-0.014576667896033192
1.30475e-06;-0.014598645489716221
1.30500e-06;-0.014619115448861464
1.30525e-06;-0.014637606591107976
1.30550e-06;-0.014653469049114881
1.30575e-06;-0.014666273898691514
1.30600e-06;-0.014675941948764856
1.30625e-06;-0.014682522922408433
1.30650e-06;-0.014686068882942155
1.30675e-06;-0.014686631564141047
1.30700e-06;-0.014684219171195228
1.30725e-06;-0.014678685204674207
1.30750e-06;-0.014669771349127683
1.30775e-06;-0.014657359297934547
1.30800e-06;-0.014641549089468534
1.30825e-06;-0.014621709220149577
1.30850e-06;-0.014599786818065704
1.30875e-06;-0.014573702194791722
1.30900e-06;-0.014544194436429774
1.30925e-06;-0.014514686678067825
1.30950e-06;-0.014484755364372607
1.30975e-06;-0.014446553576730532
1.31000e-06;-0.014408351789088425
1.31025e-06;-0.01437015000144635
1.31050e-06;-0.01432877036465424
1.31075e-06;-0.014284777169756234
1.31100e-06;-0.014240783974858263
1.31125e-06;-0.014195217222890197
1.31150e-06;-0.014148356330564557
1.31175e-06;-0.014100741152912129
1.31200e-06;-0.014052505628466315
1.31225e-06;-0.01400418450592282
1.31250e-06;-0.01395579298494576
1.31275e-06;-0.013907998606519117
1.31300e-06;-0.013860695335970495
1.31325e-06;-0.013814580473638347
1.31350e-06;-0.013769442993737033
1.31375e-06;-0.013726095408386561
1.31400e-06;-0.013684219885802838
1.31425e-06;-0.013644880111045341
1.31450e-06;-0.01360762581107686
1.31475e-06;-0.013573647490842406
1.31500e-06;-0.013542363434238472
1.31525e-06;-0.01351470848146129
1.31550e-06;-0.013490038212120992
1.31575e-06;-0.01346895565290049
1.31600e-06;-0.013450823733695301
1.31625e-06;-0.013436456597689644
1.31650e-06;-0.013425185731891647
1.31675e-06;-0.013417873841992506
1.31700e-06;-0.013413817932180055
1.31725e-06;-0.013414583793022626
1.31750e-06;-0.013419315222142531
1.31775e-06;-0.013424046651262435
1.31800e-06;-0.013434081414862777
1.31825e-06;-0.013448477799221183
1.31850e-06;-0.0134628741835796
1.31875e-06;-0.013482210216968419
1.31900e-06;-0.013505608765333058
1.31925e-06;-0.013529007313697716
1.31950e-06;-0.013556580323719692
1.31975e-06;-0.013587586535755534
1.32000e-06;-0.013618592747791348
1.32025e-06;-0.013651904912959272
1.32050e-06;-0.013688117743561459
1.32075e-06;-0.013726071703207787
1.32100e-06;-0.013765596054202208
1.32125e-06;-0.013806482251927751
1.32150e-06;-0.013848477115148325
1.32175e-06;-0.013891322223341596
1.32200e-06;-0.013934781779959925
1.32225e-06;-0.013978630825229446
1.32250e-06;-0.014022644490120447
1.32275e-06;-0.01406659883692594
1.32300e-06;-0.01411026421582691
1.32325e-06;-0.014153388047364919
1.32350e-06;-0.014195688733025347
1.32375e-06;-0.014236881593765249
1.32400e-06;-0.014276696760958744
1.32425e-06;-0.014314871181350568
1.32450e-06;-0.014351141710941297
1.32475e-06;-0.014385245807509179
1.32500e-06;-0.014416915637009657
1.32525e-06;-0.014445882921229199
1.32550e-06;-0.014471926091363779
1.32575e-06;-0.014494916629674894
1.32600e-06;-0.01451479752966922
1.32625e-06;-0.01453153153844379
1.32650e-06;-0.014545080892062212
1.32675e-06;-0.014555408428365743
1.32700e-06;-0.014562474759573474
1.32725e-06;-0.014566238998236374
1.32750e-06;-0.01456668971535522
1.32775e-06;-0.014563874279429406
1.32800e-06;-0.014557884900946054
1.32825e-06;-0.014548824775222409
1.32850e-06;-0.014536797971586213
1.32875e-06;-0.014519536655743182
1.32900e-06;-0.01449905361394011
1.32925e-06;-0.014478570572137054
1.32950e-06;-0.014458087530333983
1.32975e-06;-0.014437604488530927
1.33000e-06;-0.014414736579246518
1.33025e-06;-0.01438479721538569
1.33050e-06;-0.014354857851524861
1.33075e-06;-0.014324918487664007
1.33100e-06;-0.014290124343451038
1.33125e-06;-0.014252728004652906
1.33150e-06;-0.014215331665854805
1.33175e-06;-0.01417792424840989
1.33200e-06;-0.014140305801314703
1.33225e-06;-0.014102626011860917
1.33250e-06;-0.014063708444105589
1.33275e-06;-0.01402352161218407
1.33300e-06;-0.01398441715635805
1.33325e-06;-0.013947502033703263
1.33350e-06;-0.013911822473376025
1.33375e-06;-0.0138772155149992
1.33400e-06;-0.013844150653496446
1.33425e-06;-0.013814081662411526
1.33450e-06;-0.013784012671326633
1.33475e-06;-0.013754514182257609
1.33500e-06;-0.013735882800234007
1.33525e-06;-0.013717251418210421
1.33550e-06;-0.013698620036186819
1.33575e-06;-0.013679988654163233
1.33600e-06;-0.013661357272139647
1.33625e-06;-0.013642725890116045
1.33650e-06;-0.013624094508092459
1.33675e-06;-0.013605463126068857
1.33700e-06;-0.013593269815029414
1.33725e-06;-0.013586346582144445
1.33750e-06;-0.01357942334925947
1.33775e-06;-0.013572500116374503
1.33800e-06;-0.013565576883489529
1.33825e-06;-0.01355865365060456
1.33850e-06;-0.013551730417719586
1.33875e-06;-0.013544807184834617
1.33900e-06;-0.013538281035044796
1.33925e-06;-0.013539318652569262
1.33950e-06;-0.013540356270093727
1.33975e-06;-0.013541393887618193
1.34000e-06;-0.013542431505142657
1.34025e-06;-0.013543469122667124
1.34050e-06;-0.013544506740191588
1.34075e-06;-0.013545544357716053
1.34100e-06;-0.013548811315020153
1.34125e-06;-0.013553903165976433
1.34150e-06;-0.013558995016932715
1.34175e-06;-0.013564086867889001
1.34200e-06;-0.013569178718845281
1.34225e-06;-0.013574270569801568
1.34250e-06;-0.01357936242075785
1.34275e-06;-0.013584529108927147
1.34300e-06;-0.013591121320551132
1.34325e-06;-0.013597713532175119
1.34350e-06;-0.013604309704767266
1.34375e-06;-0.013610981327162782
1.34400e-06;-0.013617652949558304
1.34425e-06;-0.013624138162030133
1.34450e-06;-0.013630470783008487
1.34475e-06;-0.013636794294379476
1.34500e-06;-0.01364294428300095
1.34525e-06;-0.013649130900512847
1.34550e-06;-0.013656015236984405
1.34575e-06;-0.013662956270425849
1.34600e-06;-0.013670977286099732
1.34625e-06;-0.013679044105306837
1.34650e-06;-0.013687983405039291
1.34675e-06;-0.013696967184369172
1.34700e-06;-0.013706798225466813
1.34725e-06;-0.013716693744560535
1.34750e-06;-0.013727817461391742
1.34775e-06;-0.013739011114550831
1.34800e-06;-0.013751536937518122
1.34825e-06;-0.013764130590903725
1.34850e-06;-0.013778016300050383
1.34875e-06;-0.01379190200919704
1.34900e-06;-0.013805870581018852
1.34925e-06;-0.013821417547895152
1.34950e-06;-0.013836964514771465
1.34975e-06;-0.013852511481647766
1.35000e-06;-0.013868916168282834
1.35025e-06;-0.013886022967425552
1.35050e-06;-0.013903129766568255
1.35075e-06;-0.013920275310465375
1.35100e-06;-0.013938158876984
1.35125e-06;-0.013956042443502625
1.35150e-06;-0.013973945458715567
1.35175e-06;-0.013992218938952097
1.35200e-06;-0.014010492697911969
1.35225e-06;-0.014028771766083947
1.35250e-06;-0.014047033994721661
1.35275e-06;-0.014064975458460341
1.35300e-06;-0.014082888678235319
1.35325e-06;-0.014100263897848648
1.35350e-06;-0.014117600723323805
1.35375e-06;-0.014134206204829212
1.35400e-06;-0.014150773129607842
1.35425e-06;-0.014166573699555476
1.35450e-06;-0.014181730037775033
1.35475e-06;-0.0141961536686219
1.35500e-06;-0.01420974835865227
1.35525e-06;-0.014222261553836242
1.35550e-06;-0.014233286246005327
1.35575e-06;-0.014242585898741614
1.35600e-06;-0.014250139830398433
1.35625e-06;-0.014255976586798391
1.35650e-06;-0.014260118751952714
1.35675e-06;-0.014262593334216069
1.35700e-06;-0.0142633754064967
1.35725e-06;-0.014261633833282168
1.35750e-06;-0.014259700103561276
1.35775e-06;-0.014254106114516848
1.35800e-06;-0.014248333138643206
1.35825e-06;-0.014239150763718785
1.35850e-06;-0.01422977243855384
1.35875e-06;-0.01421666158978925
1.35900e-06;-0.014203550741024673
1.35925e-06;-0.014190256244557472
1.35950e-06;-0.01417346356721458
1.35975e-06;-0.014156539309234847
1.36000e-06;-0.01413710866069934
1.36025e-06;-0.014117574814852377
1.36050e-06;-0.01409607523321736
1.36075e-06;-0.014074500396284325
1.36100e-06;-0.01405149207207843
1.36125e-06;-0.014028439245048159
1.36150e-06;-0.014004515440418076
1.36175e-06;-0.013980133033246769
1.36200e-06;-0.013955452907825431
1.36225e-06;-0.013930649128567696
1.36250e-06;-0.0139058940366038
1.36275e-06;-0.013881360904386486
1.36300e-06;-0.013857222634982222
1.36325e-06;-0.01383362698574802
1.36350e-06;-0.01381069903038734
1.36375e-06;-0.013788588567983432
1.36400e-06;-0.013767478648753665
1.36425e-06;-0.013747561963563193
1.36450e-06;-0.013729029387085957
1.36475e-06;-0.013712070862673263
1.36500e-06;-0.01369687289384396
1.36525e-06;-0.01368356848513475
1.36550e-06;-0.013672197081760644
1.36575e-06;-0.013662770136071029
1.36600e-06;-0.013655322525086151
1.36625e-06;-0.013649897043190567
1.36650e-06;-0.013646535646354013
1.36675e-06;-0.013645281175414928
1.36700e-06;-0.013646174752417894
1.36725e-06;-0.013649221786217277
1.36750e-06;-0.0136543701714476
1.36775e-06;-0.01366155159413889
1.36800e-06;-0.013670709615245186
1.36825e-06;-0.013681885289420105
1.36850e-06;-0.013696569762894939
1.36875e-06;-0.013711254236369758
1.36900e-06;-0.013726227265910282
1.36925e-06;-0.013746696804777756
1.36950e-06;-0.013767166343645247
1.36975e-06;-0.01378763588251272
1.37000e-06;-0.013808357073703278
1.37025e-06;-0.013833871819788108
1.37050e-06;-0.013859386565872918
1.37075e-06;-0.01388490131195775
1.37100e-06;-0.01391054871873233
1.37125e-06;-0.013938723089259598
1.37150e-06;-0.013966949209417778
1.37175e-06;-0.013996161073293167
1.37200e-06;-0.014025395513758
1.37225e-06;-0.014055060000404651
1.37250e-06;-0.014084718308684241
1.37275e-06;-0.014114258929428494
1.37300e-06;-0.01414376336259421
1.37325e-06;-0.014172578483052837
1.37350e-06;-0.014201324062041562
1.37375e-06;-0.014228744992605988
1.37400e-06;-0.014256062818766653
1.37425e-06;-0.014281416678876698
1.37450e-06;-0.014306595074910625
1.37475e-06;-0.014328431174435916
1.37500e-06;-0.014350267273961229
1.37525e-06;-0.014371875099082382
1.37550e-06;-0.014389134679476013
1.37575e-06;-0.014406394259869662
1.37600e-06;-0.014423422019879057
1.37625e-06;-0.01443603399018451
1.37650e-06;-0.014448645960489953
1.37675e-06;-0.014460895698863756
1.37700e-06;-0.014466245526173212
1.37725e-06;-0.01447159535348266
1.37750e-06;-0.014476945180792115
1.37775e-06;-0.014482295008101564
1.37800e-06;-0.014487644835411019
1.37825e-06;-0.014492573914374939
1.37850e-06;-0.014489488442685237
1.37875e-06;-0.014486402970995533
1.37900e-06;-0.014483317499305832
1.37925e-06;-0.014480232027616129
1.37950e-06;-0.014477146555926428
1.37975e-06;-0.014473772317579995
1.38000e-06;-0.014464897558501963
1.38025e-06;-0.014456022799423936
1.38050e-06;-0.014447148040345902
1.38075e-06;-0.014438273281267877
1.38100e-06;-0.014429247881522807
1.38125e-06;-0.014417353029599808
1.38150e-06;-0.014405458177676819
1.38175e-06;-0.01439356332575382
1.38200e-06;-0.01438166847383083
1.38225e-06;-0.01436957814763433
1.38250e-06;-0.014353764364214736
1.38275e-06;-0.014341027325976542
1.38300e-06;-0.014334849267999439
1.38325e-06;-0.014324488304413041
1.38350e-06;-0.014311205313145784
1.38375e-06;-0.014297922321878539
1.38400e-06;-0.01428628681636682
1.38425e-06;-0.014274872052171886
1.38450e-06;-0.014263644915966083
1.38475e-06;-0.01425330257877497
1.38500e-06;-0.014242960241583865
1.38525e-06;-0.014232807458930475
1.38550e-06;-0.014223548560334498
1.38575e-06;-0.01421428966173853
1.38600e-06;-0.014204799712998298
1.38625e-06;-0.014194220198991525
1.38650e-06;-0.014183640684984752
1.38675e-06;-0.014173083928385219
1.38700e-06;-0.014162634489098033
1.38725e-06;-0.014152185049810839
1.38750e-06;-0.014141506841551485
1.38775e-06;-0.014129749825369528
1.38800e-06;-0.014117992809187583
1.38825e-06;-0.014106235793005637
1.38850e-06;-0.01409447877682368
1.38875e-06;-0.01408250087800735
1.38900e-06;-0.014069481360943244
1.38925e-06;-0.01405646184387915
1.38950e-06;-0.014043442326815056
1.38975e-06;-0.01403042280975095
1.39000e-06;-0.01401720128946717
1.39025e-06;-0.014003027180763229
1.39050e-06;-0.013988853072059297
1.39075e-06;-0.01397466467887301
1.39100e-06;-0.013960408924223358
1.39125e-06;-0.01394616278308466
1.39150e-06;-0.01393196197646691
1.39175e-06;-0.013917735180781465
1.39200e-06;-0.013903385828213065
1.39225e-06;-0.01388903997887324
1.39250e-06;-0.013874744541439787
1.39275e-06;-0.013860659927892498
1.39300e-06;-0.013846876757703741
1.39325e-06;-0.01383344190215788
1.39350e-06;-0.013820355687136663
1.39375e-06;-0.013807616064704507
1.39400e-06;-0.01379520922634016
1.39425e-06;-0.013783173723603069
1.39450e-06;-0.013771640595040605
1.39475e-06;-0.013760712891576841
1.39500e-06;-0.013750561866061928
1.39525e-06;-0.013741781166774006
1.39550e-06;-0.013735353189076342
1.39575e-06;-0.013731892775682247
1.39600e-06;-0.013731411227198315
1.39625e-06;-0.0137337753612494
1.39650e-06;-0.013738910207179987
1.39675e-06;-0.013746724123173432
1.39700e-06;-0.013757164454978564
1.39725e-06;-0.013770759473488579
1.39750e-06;-0.013788498374567295
