Time(s);Current(A)
3.75000e-06;0.0018475248111756901
3.75025e-06;0.0018659828533530618
3.75050e-06;0.0018844408955304335
3.75075e-06;0.001902898937707774
3.75100e-06;0.0019213569798851456
3.75125e-06;0.0019398150220625173
3.75150e-06;0.001959744990314021
3.75175e-06;0.0019904272379116933
3.75200e-06;0.0020211094855094175
3.75225e-06;0.0020517917331071417
3.75250e-06;0.002082473980704814
3.75275e-06;0.002113156228302538
3.75300e-06;0.0021438384759002622
3.75325e-06;0.0021745207234979864
3.75350e-06;0.0022053256274595515
3.75375e-06;0.0022370265244410696
3.75400e-06;0.002268727421422588
3.75425e-06;0.0023004283184040525
3.75450e-06;0.0023321292153855705
3.75475e-06;0.002363830112367089
3.75500e-06;0.0023955310093485534
3.75525e-06;0.0024272319063300715
3.75550e-06;0.00245893280331159
3.75575e-06;0.002490633700293108
3.75600e-06;0.0025167680930059206
3.75625e-06;0.002539496701829055
3.75650e-06;0.0025622253106521893
3.75675e-06;0.002584953919475285
3.75700e-06;0.0026076825282984194
3.75725e-06;0.0026304111371215533
3.75750e-06;0.002653139745944649
3.75775e-06;0.0026758683547677834
3.75800e-06;0.0026985969635909177
3.75825e-06;0.002721290454488482
3.75850e-06;0.0027437274122947912
3.75875e-06;0.0027661643701011383
3.75900e-06;0.002788601327907486
3.75925e-06;0.002811038285713795
3.75950e-06;0.0028334752435201426
3.75975e-06;0.00285591220132649
3.76000e-06;0.0028783491591328376
3.76025e-06;0.002900786116939147
3.76050e-06;0.0029232230747454945
3.76075e-06;0.0029456600325518415
3.76100e-06;0.002968096990358151
3.76125e-06;0.0029905339481644984
3.76150e-06;0.003012970905970846
3.76175e-06;0.0030365228194213583
3.76200e-06;0.003060756902109144
3.76225e-06;0.00308499098479693
3.76250e-06;0.0031092250674847155
3.76275e-06;0.00313345915017246
3.76300e-06;0.0031576932328602455
3.76325e-06;0.003181927315548031
3.76350e-06;0.003206161398235776
3.76375e-06;0.0032303954809235614
3.76400e-06;0.003254629563611347
3.76425e-06;0.0032788636462991326
3.76450e-06;0.0033030977289868774
3.76475e-06;0.003327331811674663
3.76500e-06;0.0033502745342701566
3.76525e-06;0.0033637839947633645
3.76550e-06;0.003377293455256596
3.76575e-06;0.0033908029157498267
3.76600e-06;0.003404312376243035
3.76625e-06;0.003417821836736266
3.76650e-06;0.0034313312972294972
3.76675e-06;0.003444840757722728
3.76700e-06;0.0034583502182159364
3.76725e-06;0.0034718596787091677
3.76750e-06;0.0034853691392023986
3.76775e-06;0.003498878599695607
3.76800e-06;0.003512388060188838
3.76825e-06;0.003513184780630455
3.76850e-06;0.0035020405406139734
3.76875e-06;0.0034908963005975103
3.76900e-06;0.0034797520605810285
3.76925e-06;0.0034686078205645467
3.76950e-06;0.0034574635805480836
3.76975e-06;0.003446319340531602
3.77000e-06;0.00343517510051512
3.77025e-06;0.003424030860498657
3.77050e-06;0.003412886620482175
3.77075e-06;0.0034017423804656934
3.77100e-06;0.003390598140449211
3.77125e-06;0.0033794539004327485
3.77150e-06;0.003352547132255027
3.77175e-06;0.0033240984336924627
3.77200e-06;0.0032956497351299464
3.77225e-06;0.003267201036567382
3.77250e-06;0.003238752338004818
3.77275e-06;0.0032103036394422533
3.77300e-06;0.003181854940879737
3.77325e-06;0.0031534062423171725
3.77350e-06;0.003123914193932109
3.77375e-06;0.0030933239517706734
3.77400e-06;0.003062733709609186
3.77425e-06;0.0030321434674476983
3.77450e-06;0.003001553225286263
3.77475e-06;0.0029709629831247753
3.77500e-06;0.0029403727409632882
3.77525e-06;0.0029097824988018007
3.77550e-06;0.0028800263761054523
3.77575e-06;0.002862572614955007
3.77600e-06;0.002845118853804562
3.77625e-06;0.0028276650926541465
3.77650e-06;0.0028102113315037016
3.77675e-06;0.0027927575703532563
3.77700e-06;0.0027753038092028113
3.77725e-06;0.002757850048052396
3.77750e-06;0.002740396286901951
3.77775e-06;0.0027229425257515056
3.77800e-06;0.00270548876460109
3.77825e-06;0.0026880350034506452
3.77850e-06;0.0026705812423002003
3.77875e-06;0.002653127481149785
3.77900e-06;0.0026454949836111135
3.77925e-06;0.0026454703725497437
3.77950e-06;0.002645445761488374
3.77975e-06;0.002645421150427004
3.78000e-06;0.0026453965393656337
3.78025e-06;0.002645371928304264
3.78050e-06;0.002645347317242894
3.78075e-06;0.002645322706181524
3.78100e-06;0.0026452980951201543
3.78125e-06;0.0026452734840587844
3.78150e-06;0.002645248872997414
3.78175e-06;0.0026452242619360443
3.78200e-06;0.0026451996508746745
3.78225e-06;0.002645679214450088
3.78250e-06;0.002653594809582532
3.78275e-06;0.0026615104047149757
3.78300e-06;0.002669425999847406
3.78325e-06;0.0026773415949798494
3.78350e-06;0.002685257190112293
3.78375e-06;0.0026931727852447366
3.78400e-06;0.0027010883803771668
3.78425e-06;0.0027090039755096103
3.78450e-06;0.002716889830340206
3.78475e-06;0.0027243370478278214
3.78500e-06;0.0027317842653154494
3.78525e-06;0.0027392314828030774
3.78550e-06;0.0027466787002907054
3.78575e-06;0.002754125917778321
3.78600e-06;0.002761573135265949
3.78625e-06;0.002769020352753577
3.78650e-06;0.0027764675702411923
3.78675e-06;0.002782934568263125
3.78700e-06;0.0027749443874649244
3.78725e-06;0.0027669542066667374
3.78750e-06;0.0027589640258685365
3.78775e-06;0.002750973845070336
3.78800e-06;0.002742983664272135
3.78825e-06;0.002734993483473948
3.78850e-06;0.0027270033026757477
3.78875e-06;0.002719013121877547
3.78900e-06;0.00271102294107936
3.78925e-06;0.0027030327602811594
3.78950e-06;0.0026950425794829585
3.78975e-06;0.002673374205507641
3.79000e-06;0.0026411102355861408
3.79025e-06;0.0026088462656645864
3.79050e-06;0.0025765822957430316
3.79075e-06;0.002544318325821532
3.79100e-06;0.0025120543558999776
3.79125e-06;0.0024797903859784228
3.79150e-06;0.002447526416056923
3.79175e-06;0.0024152624461353683
3.79200e-06;0.002382998476213814
3.79225e-06;0.002350734506292259
3.79250e-06;0.002317809735381751
3.79275e-06;0.0022751388633193118
3.79300e-06;0.0022324679912568727
3.79325e-06;0.0021897971191945057
3.79350e-06;0.0021471262471320666
3.79375e-06;0.0021044553750696276
3.79400e-06;0.0020617845030071885
3.79425e-06;0.002020586574459927
3.79450e-06;0.001980529638303631
3.79475e-06;0.0019404727021473341
3.79500e-06;0.0019004157659911055
3.79525e-06;0.0018603588298348093
3.79550e-06;0.0018203018936785128
3.79575e-06;0.0017807384257218471
3.79600e-06;0.0017484530809349051
3.79625e-06;0.0017161677361479631
3.79650e-06;0.0016844241847553986
3.79675e-06;0.0016606715009818021
3.79700e-06;0.0016369188172081653
3.79725e-06;0.0016138408317287185
3.79750e-06;0.0016007139176497428
3.79775e-06;0.0015875870035707447
3.79800e-06;0.0015751575968972985
3.79825e-06;0.0015730156713910036
3.79850e-06;0.0015708737458847123
3.79875e-06;0.0015694548669909758
3.79900e-06;0.0015787001449943012
3.79925e-06;0.0015879454229976112
3.79950e-06;0.0015978802374142565
3.79975e-06;0.0016179849694682319
3.80000e-06;0.0016380897015221732
3.80025e-06;0.0016588079806846678
3.80050e-06;0.0016885754172809222
3.80075e-06;0.0017183428538771767
3.80100e-06;0.0017486478458131178
3.80125e-06;0.0017868811986381634
3.80150e-06;0.001825114551463209
3.80175e-06;0.001863921761143368
3.80200e-06;0.0019111927398726865
3.80225e-06;0.001958463718602005
3.80250e-06;0.0020057346973313232
3.80275e-06;0.002053005676060562
3.80300e-06;0.00210027665478988
3.80325e-06;0.0021475476335191986
3.80350e-06;0.002196777325970791
3.80375e-06;0.0022475243050194033
3.80400e-06;0.002298271284068016
3.80425e-06;0.002349018263116542
3.80450e-06;0.002399765242165154
3.80475e-06;0.0024505122212137667
3.80500e-06;0.002500439010968689
3.80525e-06;0.0025382688941582975
3.80550e-06;0.0025760987773479696
3.80575e-06;0.0026139286605376417
3.80600e-06;0.0026517585437272496
3.80625e-06;0.0026895884269169217
3.80650e-06;0.0027274183101065937
3.80675e-06;0.002765248193296266
3.80700e-06;0.0028030780764858737
3.80725e-06;0.0028389879960948627
3.80750e-06;0.0028465805257742024
3.80775e-06;0.002854173055453529
3.80800e-06;0.0028617655851328684
3.80825e-06;0.002869358114812208
3.80850e-06;0.002876950644491535
3.80875e-06;0.0028845431741708746
3.80900e-06;0.002892135703850214
3.80925e-06;0.0028997282335295536
3.80950e-06;0.0029055139218476756
3.80975e-06;0.0028846506508397383
3.81000e-06;0.0028637873798318006
3.81025e-06;0.0028429241088238984
3.81050e-06;0.0028220608378159606
3.81075e-06;0.0028011975668080233
3.81100e-06;0.0027803342958000856
3.81125e-06;0.0027594710247921834
3.81150e-06;0.002728674834766507
3.81175e-06;0.0026901842661683916
3.81200e-06;0.002651693697570341
3.81225e-06;0.002613203128972225
3.81250e-06;0.002574712560374109
3.81275e-06;0.0025362219917760584
3.81300e-06;0.0024977314231779428
3.81325e-06;0.0024588845902142175
3.81350e-06;0.002414783242497222
3.81375e-06;0.0023706818947803014
3.81400e-06;0.0023265805470633065
3.81425e-06;0.002282479199346311
3.81450e-06;0.0022383778516293904
3.81475e-06;0.002194276503912395
3.81500e-06;0.002153898388590387
3.81525e-06;0.0021164044163392405
3.81550e-06;0.0020789104440882213
3.81575e-06;0.002041416471837202
3.81600e-06;0.002003922499586056
3.81625e-06;0.001966428527335037
3.81650e-06;0.0019296827745276432
3.81675e-06;0.0019039724507021647
3.81700e-06;0.0018782621268766861
3.81725e-06;0.0018531278212003672
3.81750e-06;0.0018364891613282526
3.81775e-06;0.001819850501456138
3.81800e-06;0.001803822052456408
3.81825e-06;0.0017967935550113215
3.81850e-06;0.0017897650575662348
3.81875e-06;0.0017833496661762542
3.81900e-06;0.0017859769271592444
3.81925e-06;0.0017886041881422347
3.81950e-06;0.0017917983702410692
3.81975e-06;0.0018033540267213617
3.82000e-06;0.001814909683201654
3.82025e-06;0.0018269853415909204
3.82050e-06;0.0018467304667157721
3.82075e-06;0.0018664755918406909
3.82100e-06;0.0018868847571156533
3.82125e-06;0.0019170877976718373
3.82150e-06;0.0019472908382281234
3.82175e-06;0.0019774938787843073
3.82200e-06;0.002007696919340491
3.82225e-06;0.0020378999598967776
3.82250e-06;0.0020681030004529614
3.82275e-06;0.0020987647889490943
3.82300e-06;0.0021361926142702656
3.82325e-06;0.0021736204395913098
3.82350e-06;0.002211048264912354
3.82375e-06;0.0022484760902335248
3.82400e-06;0.0022859039155545694
3.82425e-06;0.0023233317408756136
3.82450e-06;0.0023605258008770782
3.82475e-06;0.0023942720747991467
3.82500e-06;0.00242801834872133
3.82525e-06;0.0024617646226433986
3.82550e-06;0.0024955108965654675
3.82575e-06;0.0025292571704876505
3.82600e-06;0.002563003444409719
3.82625e-06;0.002595739136609235
3.82650e-06;0.002613569839484637
3.82675e-06;0.0026314005423599784
3.82700e-06;0.00264923124523532
3.82725e-06;0.0026670619481107224
3.82750e-06;0.002684892650986064
3.82775e-06;0.0027027233538614056
3.82800e-06;0.0027197395624795483
3.82825e-06;0.002724316585806368
3.82850e-06;0.0027226065223389445
3.82875e-06;0.002720896458871516
3.82900e-06;0.002718052586435436
3.82925e-06;0.0026984862558422904
3.82950e-06;0.002678919925249211
3.82975e-06;0.0026593535946561318
3.83000e-06;0.002639787264062986
3.83025e-06;0.0026202209334699068
3.83050e-06;0.0026006546028768274
3.83075e-06;0.0025810882722836818
3.83100e-06;0.002560289752567031
3.83125e-06;0.002521317773628824
3.83150e-06;0.0024823457946904852
3.83175e-06;0.002443373815752278
3.83200e-06;0.002404401836814071
3.83225e-06;0.002365429857875732
3.83250e-06;0.002326457878937525
3.83275e-06;0.002287485899999318
3.83300e-06;0.002248064387281474
3.83325e-06;0.0022020127366629604
3.83350e-06;0.002155961086044291
3.83375e-06;0.0021099094354257776
3.83400e-06;0.002063857784807264
3.83425e-06;0.0020178061341885947
3.83450e-06;0.0019720147814350475
3.83475e-06;0.0019300625411542407
3.83500e-06;0.0018881103008732917
3.83525e-06;0.0018461580605924847
3.83550e-06;0.0018042058203116777
3.83575e-06;0.0017622535800307284
3.83600e-06;0.001720900588352833
3.83625e-06;0.0016883858665767847
3.83650e-06;0.001655871144800626
3.83675e-06;0.001623911172054041
3.83700e-06;0.0016001331485453532
3.83725e-06;0.0015763551250365848
3.83750e-06;0.001553153713498448
3.83775e-06;0.0015384567059739276
3.83800e-06;0.0015237596984494573
3.83825e-06;0.0015096757871250587
3.83850e-06;0.001504634382808219
3.83875e-06;0.0014995929784913963
3.83900e-06;0.0014951357259400297
3.83925e-06;0.001499294081235702
3.83950e-06;0.00150345243653136
3.83975e-06;0.0015081495101686082
3.84000e-06;0.0015207920977037344
3.84025e-06;0.0015334346852388177
3.84050e-06;0.0015465659894629794
3.84075e-06;0.001566905337195612
3.84100e-06;0.001587244684928176
3.84125e-06;0.00160815604967804
3.84150e-06;0.0016375040478398605
3.84175e-06;0.0016668520460015814
3.84200e-06;0.0016962000441634016
3.84225e-06;0.0017255480423251225
3.84250e-06;0.0017548960404868434
3.84275e-06;0.0017842440386486638
3.84300e-06;0.0018169814781721753
3.84325e-06;0.0018523444948222653
3.84350e-06;0.001887707511472475
3.84375e-06;0.0019230705281225648
3.84400e-06;0.001958433544772655
3.84425e-06;0.0019937965614228647
3.84450e-06;0.0020285242761826734
3.84475e-06;0.0020538819739840198
3.84500e-06;0.002079239671785452
3.84525e-06;0.0021045973695867984
3.84550e-06;0.0021299550673881448
3.84575e-06;0.002155312765189577
3.84600e-06;0.002180670462990923
3.84625e-06;0.002206028160792355
3.84650e-06;0.0022313858585937016
3.84675e-06;0.002256743556395048
3.84700e-06;0.00228210125419648
3.84725e-06;0.002307458951997826
3.84750e-06;0.0023328166497991725
3.84775e-06;0.0023581743476006048
3.84800e-06;0.002383532045401951
3.84825e-06;0.0023961105669031966
3.84850e-06;0.002398789901663945
3.84875e-06;0.0024014692364246848
3.84900e-06;0.002404148571185424
3.84925e-06;0.002406827905946173
3.84950e-06;0.0024095072407069123
3.84975e-06;0.002412186575467652
3.85000e-06;0.002414865910228401
3.85025e-06;0.00241754524498914
3.85050e-06;0.002420224579749889
3.85075e-06;0.0024229039145106284
3.85100e-06;0.002425583249271368
3.85125e-06;0.0024282625840321165
3.85150e-06;0.0024309419187928563
3.85175e-06;0.002432883232485301
3.85200e-06;0.0024239395322536586
3.85225e-06;0.0024149958320220473
3.85250e-06;0.0024060521317904354
3.85275e-06;0.0023971084315587933
3.85300e-06;0.0023881647313271815
3.85325e-06;0.00237922103109557
3.85350e-06;0.002370277330863928
3.85375e-06;0.002361333630632316
3.85400e-06;0.0023523899304007043
3.85425e-06;0.0023434159941133135
3.85450e-06;0.002333996108649301
3.85475e-06;0.0023245762231852564
3.85500e-06;0.002315156337721244
3.85525e-06;0.0023057364522572313
3.85550e-06;0.0022963165667931867
3.85575e-06;0.002286896681329174
3.85600e-06;0.0022774767958651616
3.85625e-06;0.002268056910401117
3.85650e-06;0.0022586370249371044
3.85675e-06;0.0022496915933756757
3.85700e-06;0.0022477438446118613
3.85725e-06;0.002245796095848054
3.85750e-06;0.002243848347084246
3.85775e-06;0.002241900598320432
3.85800e-06;0.002239952849556624
3.85825e-06;0.0022380051007928163
3.85850e-06;0.0022360573520290024
3.85875e-06;0.0022341096032651945
3.85900e-06;0.0022321618545013805
3.85925e-06;0.0022302141057375727
3.85950e-06;0.0022282663569737652
3.85975e-06;0.002226318608209951
3.86000e-06;0.002224370859446143
3.86025e-06;0.0022224231106823355
3.86050e-06;0.0022247599579012394
3.86075e-06;0.002230415799610451
3.86100e-06;0.002236071641319663
3.86125e-06;0.0022417274830288936
3.86150e-06;0.0022473833247381053
3.86175e-06;0.002253039166447317
3.86200e-06;0.0022586950081565477
3.86225e-06;0.0022643508498657594
3.86250e-06;0.0022700066915749707
3.86275e-06;0.0022756625332842014
3.86300e-06;0.002281318374993413
3.86325e-06;0.002286974216702644
3.86350e-06;0.0022926300584118556
3.86375e-06;0.0022982859001210673
3.86400e-06;0.0023039990711559355
3.86425e-06;0.0023105577878452196
3.86450e-06;0.0023171165045345037
3.86475e-06;0.0023236752212238104
3.86500e-06;0.002330233937913095
3.86525e-06;0.002336792654602379
3.86550e-06;0.002343351371291686
3.86575e-06;0.00234991008798097
3.86600e-06;0.002356468804670254
3.86625e-06;0.0023630275213595607
3.86650e-06;0.0023658851767292587
3.86675e-06;0.0023658758635035125
3.86700e-06;0.0023658665502777664
3.86725e-06;0.0023658572370520202
3.86750e-06;0.002365847923826274
3.86775e-06;0.002365838610600528
3.86800e-06;0.0023658292973747818
3.86825e-06;0.0023658199841490356
3.86850e-06;0.0023658106709232895
3.86875e-06;0.0023650304550680294
3.86900e-06;0.002352880257778104
3.86925e-06;0.00234073006048822
3.86950e-06;0.0023285798631983356
3.86975e-06;0.0023164296659084105
3.87000e-06;0.0023042794686185266
3.87025e-06;0.0022921292713286422
3.87050e-06;0.002279979074038717
3.87075e-06;0.002267828876748833
3.87100e-06;0.002255678679458949
3.87125e-06;0.0022429675894372904
3.87150e-06;0.0022219839372255644
3.87175e-06;0.0022010002850138388
3.87200e-06;0.002180016632802042
3.87225e-06;0.0021590329805903164
3.87250e-06;0.0021380493283785196
3.87275e-06;0.002117065676166794
3.87300e-06;0.002096082023955068
3.87325e-06;0.002075098371743271
3.87350e-06;0.0020541147195315456
3.87375e-06;0.002033119721222143
3.87400e-06;0.0020119573802224906
3.87425e-06;0.0019907950392229097
3.87450e-06;0.001969632698223329
3.87475e-06;0.001948470357223676
3.87500e-06;0.0019273080162240952
3.87525e-06;0.0019061456752245143
3.87550e-06;0.0018849833342248616
3.87575e-06;0.0018641318665442914
3.87600e-06;0.0018478654446637184
3.87625e-06;0.0018315990227830902
3.87650e-06;0.0018153326009025172
3.87675e-06;0.001799066179021889
3.87700e-06;0.001782799757141316
3.87725e-06;0.001766533335260743
3.87750e-06;0.001750266913380115
3.87775e-06;0.0017337733576432031
3.87800e-06;0.0017139298227663035
3.87825e-06;0.0016940862878893365
3.87850e-06;0.0016742427530124367
3.87875e-06;0.0016543992181355372
3.87900e-06;0.0016345556832585702
3.87925e-06;0.0016147121483816706
3.87950e-06;0.0015948686135047708
3.87975e-06;0.0015750250786278038
3.88000e-06;0.0015551815437509042
3.88025e-06;0.0015353380088740044
3.88050e-06;0.0015114927224481346
3.88075e-06;0.0014845475424989261
3.88100e-06;0.0014576023625496263
3.88125e-06;0.0014306571826004178
3.88150e-06;0.0014037120026512094
3.88175e-06;0.0013767668227019096
3.88200e-06;0.001349821642752701
3.88225e-06;0.0013228764628034925
3.88250e-06;0.001295931282854193
3.88275e-06;0.0012689861029049844
3.88300e-06;0.0012419405000147327
3.88325e-06;0.0012134137671732654
3.88350e-06;0.0011848870343318947
3.88375e-06;0.001156360301490524
3.88400e-06;0.0011278335686490564
3.88425e-06;0.0010993068358076856
3.88450e-06;0.001070780102966315
3.88475e-06;0.00104471205889595
3.88500e-06;0.0010205485991817407
3.88525e-06;0.0009963851394674495
3.88550e-06;0.0009722216797532404
3.88575e-06;0.0009480582200390312
3.88600e-06;0.00092389476032474
3.88625e-06;0.0009001480815361851
3.88650e-06;0.00088254847139005
3.88675e-06;0.0008649488612438552
3.88700e-06;0.0008476786046143837
3.88725e-06;0.0008352659567424621
3.88750e-06;0.0008228533088704986
3.88775e-06;0.0008107870899330548
3.88800e-06;0.0008038303237287672
3.88825e-06;0.000796873557524456
3.88850e-06;0.0007902763865598592
3.88875e-06;0.0007889828571139329
3.88900e-06;0.0007876893276680022
3.88925e-06;0.0007867268001449259
3.88950e-06;0.0007906461935899939
3.88975e-06;0.0007945655870350485
3.89000e-06;0.0007987929737086839
3.89025e-06;0.0008075629279530093
3.89050e-06;0.0008163328821973051
3.89075e-06;0.0008253722448931358
3.89100e-06;0.0008383850913593337
3.89125e-06;0.0008513979378254877
3.89150e-06;0.0008647162412265124
3.89175e-06;0.0008825397046040485
3.89200e-06;0.0009003631679815244
3.89225e-06;0.0009181866313590001
3.89250e-06;0.0009360100947365364
3.89275e-06;0.0009538335581140121
3.89300e-06;0.000971657021491488
3.89325e-06;0.000991042154389657
3.89350e-06;0.0010116370098735596
3.89375e-06;0.001032231865357532
3.89400e-06;0.0010528267208414345
3.89425e-06;0.001073421576325337
3.89450e-06;0.0010940164318093094
3.89475e-06;0.0011144424254558307
3.89500e-06;0.0011323778893279194
3.89525e-06;0.001150313353200069
3.89550e-06;0.0011682488170721577
3.89575e-06;0.0011861842809442464
3.89600e-06;0.001204119744816396
3.89625e-06;0.0012220552086884848
3.89650e-06;0.0012351288629393919
3.89675e-06;0.001244436393289836
3.89700e-06;0.0012537439236402484
3.89725e-06;0.0012630514539906609
3.89750e-06;0.0012723589843411048
3.89775e-06;0.0012816665146915174
3.89800e-06;0.0012904266849330874
3.89825e-06;0.0012911138845778318
