Time(s);Current(A)
2.50000e-06;0.002913040454401428
2.50025e-06;0.002922326918319483
2.50050e-06;0.0029316133822375216
2.50075e-06;0.0029372121721018395
2.50100e-06;0.0029404395152637405
2.50125e-06;0.0029436668584256363
2.50150e-06;0.0029468942015875377
2.50175e-06;0.0029501215447494387
2.50200e-06;0.0029533488879113397
2.50225e-06;0.0029565762310732355
2.50250e-06;0.0029598035742351364
2.50275e-06;0.002963030917397038
2.50300e-06;0.0029662582605589336
2.50325e-06;0.0029694856037208346
2.50350e-06;0.0029727129468827356
2.50375e-06;0.0029759402900446314
2.50400e-06;0.0029791676332065324
2.50425e-06;0.0029823949763684338
2.50450e-06;0.0029856223195303348
2.50475e-06;0.0029888496626922305
2.50500e-06;0.0029920770058541315
2.50525e-06;0.0029913137431013532
2.50550e-06;0.0029879842260920005
2.50575e-06;0.002984654709082642
2.50600e-06;0.002981325192073284
2.50625e-06;0.0029779956750639255
2.50650e-06;0.0029746661580545733
2.50675e-06;0.002971336641045215
2.50700e-06;0.0029680071240358566
2.50725e-06;0.002964677607026504
2.50750e-06;0.002961348090017146
2.50775e-06;0.0029580185730077877
2.50800e-06;0.002954689055998435
2.50825e-06;0.0029513595389890766
2.50850e-06;0.0029480300219797183
2.50875e-06;0.0029447005049703604
2.50900e-06;0.0029413709879610077
2.50925e-06;0.0029380414709516494
2.50950e-06;0.002934711953942291
2.50975e-06;0.00293120547186764
2.51000e-06;0.002927585188189465
2.51025e-06;0.0029239649045112895
2.51050e-06;0.0029203446208331137
2.51075e-06;0.0029167243371549445
2.51100e-06;0.002913104053476769
2.51125e-06;0.002909483769798594
2.51150e-06;0.0029058634861204246
2.51175e-06;0.0029022432024422493
2.51200e-06;0.00290397472840421
2.51225e-06;0.002909147863125191
2.51250e-06;0.002914320997846181
2.51275e-06;0.0029194941325671703
2.51300e-06;0.00292466726728816
2.51325e-06;0.002929840402009141
2.51350e-06;0.0029350135367301306
2.51375e-06;0.0029401866714511204
2.51400e-06;0.002945359806172101
2.51425e-06;0.002959941675639215
2.51450e-06;0.00298057405625886
2.51475e-06;0.0030012064368785053
2.51500e-06;0.0030218388174981154
2.51525e-06;0.0030424711981177606
2.51550e-06;0.0030631035787374054
2.51575e-06;0.003083735959357016
2.51600e-06;0.003104368339976661
2.51625e-06;0.003125000720596306
2.51650e-06;0.003145633101215916
2.51675e-06;0.003172319600076869
2.51700e-06;0.0032028993439837247
2.51725e-06;0.0032334790878905803
2.51750e-06;0.0032640588317973842
2.51775e-06;0.00329463857570424
2.51800e-06;0.0033252183196110954
2.51825e-06;0.003355798063517899
2.51850e-06;0.0033863778074247545
2.51875e-06;0.00341695755133161
2.51900e-06;0.0034475372952384657
2.51925e-06;0.0034760925096741393
2.51950e-06;0.0035033458021751147
2.51975e-06;0.0035305990946760896
2.52000e-06;0.0035578523871770185
2.52025e-06;0.003585105679677994
2.52050e-06;0.003612358972178969
2.52075e-06;0.003639612264679898
2.52100e-06;0.003666865557180873
2.52125e-06;0.0036941188496818485
2.52150e-06;0.0037193685196402837
2.52175e-06;0.003728174860820947
2.52200e-06;0.0037369812020016254
2.52225e-06;0.0037457875431823034
2.52250e-06;0.003754593884362967
2.52275e-06;0.003763400225543645
2.52300e-06;0.0037722065667243235
2.52325e-06;0.003781012907905002
2.52350e-06;0.003789819249085665
2.52375e-06;0.0037986255902663435
2.52400e-06;0.003792775812695941
2.52425e-06;0.00377750106860725
2.52450e-06;0.0037622263245185336
2.52475e-06;0.0037469515804298167
2.52500e-06;0.0037316768363411263
2.52525e-06;0.0037164020922524094
2.52550e-06;0.003701127348163693
2.52575e-06;0.0036858526040749766
2.52600e-06;0.0036705778599862857
2.52625e-06;0.0036535266070992227
2.52650e-06;0.003621895902429644
2.52675e-06;0.0035902651977601186
2.52700e-06;0.00355863449309054
2.52725e-06;0.0035270037884209612
2.52750e-06;0.0034953730837513825
2.52775e-06;0.003463742379081857
2.52800e-06;0.0034321116744122785
2.52825e-06;0.0034004809697426998
2.52850e-06;0.003368850265073175
2.52875e-06;0.0033361633685750993
2.52900e-06;0.003302797262745423
2.52925e-06;0.003269431156915804
2.52950e-06;0.0032360650510861277
2.52975e-06;0.003202698945256452
2.53000e-06;0.003169332839426776
2.53025e-06;0.0031359667335971566
2.53050e-06;0.0031026006277674804
2.53075e-06;0.0030692345219378043
2.53100e-06;0.003044306183477644
2.53125e-06;0.0030248039524542665
2.53150e-06;0.0030053017214308883
2.53175e-06;0.0029857994904075105
2.53200e-06;0.0029662972593841657
2.53225e-06;0.002946795028360788
2.53250e-06;0.0029272927973374102
2.53275e-06;0.0029077905663140655
2.53300e-06;0.0028882883352906873
2.53325e-06;0.002881816533052447
2.53350e-06;0.0028837242586491557
2.53375e-06;0.002885631984245868
2.53400e-06;0.0028875397098425803
2.53425e-06;0.0028894474354392925
2.53450e-06;0.0028913551610360013
2.53475e-06;0.0028932628866327136
2.53500e-06;0.002895170612229426
2.53525e-06;0.0028970783378261347
2.53550e-06;0.002898986063422847
2.53575e-06;0.0029027395503479457
2.53600e-06;0.0029216408306971626
2.53625e-06;0.0029405421110463474
2.53650e-06;0.0029594433913955644
2.53675e-06;0.002978344671744781
2.53700e-06;0.0029972459520939657
2.53725e-06;0.0030161472324431826
2.53750e-06;0.0030350485127923995
2.53775e-06;0.0030539497931415843
2.53800e-06;0.0030728510734908013
2.53825e-06;0.0030917523538400177
2.53850e-06;0.00311196536324201
2.53875e-06;0.0031330219112788837
2.53900e-06;0.0031540784593157936
2.53925e-06;0.003175135007352703
2.53950e-06;0.003196191555389577
2.53975e-06;0.0032172481034264864
2.54000e-06;0.003238304651463396
2.54025e-06;0.0032593611995003057
2.54050e-06;0.0032804177475371796
2.54075e-06;0.003301474295574089
2.54100e-06;0.0033225308436109985
2.54125e-06;0.0033435873916478724
2.54150e-06;0.003364643939684782
2.54175e-06;0.0033843730219228615
2.54200e-06;0.0033932078583065075
2.54225e-06;0.0034020426946901688
2.54250e-06;0.00341087753107383
2.54275e-06;0.003419712367457491
2.54300e-06;0.0034285472038411372
2.54325e-06;0.0034373820402247984
2.54350e-06;0.0034462168766084596
2.54375e-06;0.003455051712992106
2.54400e-06;0.0034638865493757673
2.54425e-06;0.0034727213857594285
2.54450e-06;0.0034815562221430746
2.54475e-06;0.0034903910585267358
2.54500e-06;0.003499225894910397
2.54525e-06;0.0035024161007200494
2.54550e-06;0.003501976392288488
2.54575e-06;0.0035015366838569264
2.54600e-06;0.0035010969754253646
2.54625e-06;0.0035006572669938033
2.54650e-06;0.0035002175585622415
2.54675e-06;0.0034997778501306798
2.54700e-06;0.003499338141699118
2.54725e-06;0.0034988984332675567
2.54750e-06;0.003498458724835995
2.54775e-06;0.003498019016404433
2.54800e-06;0.003497579307972872
2.54825e-06;0.00349713959954131
2.54850e-06;0.0034966998911097483
2.54875e-06;0.0034962601826781874
2.54900e-06;0.0034939862158755914
2.54925e-06;0.0034905326855044013
2.54950e-06;0.0034870791551332115
2.54975e-06;0.0034836256247620274
2.55000e-06;0.0034801720943908377
2.55025e-06;0.0034767185640196476
2.55050e-06;0.0034732650336484635
2.55075e-06;0.0034698115032772738
2.55100e-06;0.003466357972906084
2.55125e-06;0.003462904442534894
2.55150e-06;0.0034594509121637098
2.55175e-06;0.00345599738179252
2.55200e-06;0.00345254385142133
2.55225e-06;0.0034490903210501462
2.55250e-06;0.003445636790678956
2.55275e-06;0.0034391997540069233
2.55300e-06;0.0034308441024904703
2.55325e-06;0.003422488450974003
2.55350e-06;0.0034141327994575356
2.55375e-06;0.0034006063006947213
2.55400e-06;0.003383754565352943
2.55425e-06;0.003366902830011136
2.55450e-06;0.0033500510946693294
2.55475e-06;0.003333199359327551
2.55500e-06;0.003316347623985744
2.55525e-06;0.0032994958886439375
2.55550e-06;0.0032826441533021305
2.55575e-06;0.003265792417960352
2.55600e-06;0.0032489406826185455
2.55625e-06;0.0032320889472767385
2.55650e-06;0.003214362956235104
2.55675e-06;0.003189462123819179
2.55700e-06;0.0031645612914032546
2.55725e-06;0.003139660458987372
2.55750e-06;0.0031147596265714474
2.55775e-06;0.0030898587941555226
2.55800e-06;0.0030649579617395978
2.55825e-06;0.0030400571293237155
2.55850e-06;0.0030151562969077906
2.55875e-06;0.0029902554644918662
2.55900e-06;0.0029653546320759835
2.55925e-06;0.002940453799660059
2.55950e-06;0.002917466429167146
2.55975e-06;0.0028957095559749833
2.56000e-06;0.0028739526827828575
2.56025e-06;0.002852195809590695
2.56050e-06;0.0028304389363985323
2.56075e-06;0.0028086820632064065
2.56100e-06;0.0027869251900142443
2.56125e-06;0.0027651683168220817
2.56150e-06;0.0027449580794434484
2.56175e-06;0.002737440772323237
2.56200e-06;0.002729923465203025
2.56225e-06;0.0027224061580828135
2.56250e-06;0.0027148888509626145
2.56275e-06;0.0027073715438424026
2.56300e-06;0.002699854236722191
2.56325e-06;0.0026923369296019918
2.56350e-06;0.0026848196224817803
2.56375e-06;0.0026901421068777813
2.56400e-06;0.002703721525270343
2.56425e-06;0.0027173009436628815
2.56450e-06;0.0027308803620554427
2.56475e-06;0.0027444597804480043
2.56500e-06;0.002758039198840543
2.56525e-06;0.0027716186172331045
2.56550e-06;0.0027851980356256656
2.56575e-06;0.0027987774540182042
2.56600e-06;0.0028141308283513517
2.56625e-06;0.002844042703684011
2.56650e-06;0.0028739545790166703
2.56675e-06;0.002903866454349279
2.56700e-06;0.002933778329681938
2.56725e-06;0.0029636902050145975
2.56750e-06;0.002993602080347206
2.56775e-06;0.0030235139556798653
2.56800e-06;0.0030534258310125247
2.56825e-06;0.003083337706345184
2.56850e-06;0.003114110169784476
2.56875e-06;0.003145436054919673
2.56900e-06;0.00317676194005487
2.56925e-06;0.0032080878251900136
2.56950e-06;0.0032394137103252106
2.56975e-06;0.0032707395954604075
2.57000e-06;0.003302065480595551
2.57025e-06;0.003333391365730748
2.57050e-06;0.003364717250865945
2.57075e-06;0.003396043136001142
2.57100e-06;0.0034273690211362854
2.57125e-06;0.003457105968384777
2.57150e-06;0.003473802820733197
2.57175e-06;0.003490499673081588
2.57200e-06;0.003507196525430008
2.57225e-06;0.0035238933777784276
2.57250e-06;0.0035405902301268474
2.57275e-06;0.0035572870824752386
2.57300e-06;0.0035739839348236583
2.57325e-06;0.003590680787172078
2.57350e-06;0.0036073776395204697
2.57375e-06;0.003624074491868889
2.57400e-06;0.003640771344217309
2.57425e-06;0.0036495305729408326
2.57450e-06;0.0036531853235829107
2.57475e-06;0.003656840074224989
2.57500e-06;0.0036604948248670673
2.57525e-06;0.0036641495755091397
2.57550e-06;0.0036678043261512178
2.57575e-06;0.0036714590767932963
2.57600e-06;0.0036751138274353683
2.57625e-06;0.003678768578077447
2.57650e-06;0.003682423328719525
2.57675e-06;0.0036860780793616034
2.57700e-06;0.0036897328300036754
2.57725e-06;0.0036933875806457535
2.57750e-06;0.003697042331287832
2.57775e-06;0.0037000548096598703
2.57800e-06;0.0036977962881872845
2.57825e-06;0.0036955377667146983
2.57850e-06;0.0036932792452421164
2.57875e-06;0.00369102072376953
2.57900e-06;0.0036887622022969443
2.57925e-06;0.003686503680824358
2.57950e-06;0.0036842451593517758
2.57975e-06;0.00368198663787919
2.58000e-06;0.003679728116406604
2.58025e-06;0.003677469594934022
2.58050e-06;0.0036752110734614356
2.58075e-06;0.0036729525519888498
2.58100e-06;0.003670694030516264
2.58125e-06;0.0036684355090436816
2.58150e-06;0.0036639500360853027
2.58175e-06;0.003658032468889988
2.58200e-06;0.0036521149016946835
2.58225e-06;0.0036461973344993686
2.58250e-06;0.0036402797673040542
2.58275e-06;0.0036343622001087494
2.58300e-06;0.003628444632913435
2.58325e-06;0.00362252706571812
2.58350e-06;0.0036166094985228057
2.58375e-06;0.003610691931327501
2.58400e-06;0.003604774364132186
2.58425e-06;0.0035988567969368716
2.58450e-06;0.0035929392297415668
2.58475e-06;0.0035870216625462524
2.58500e-06;0.0035811040953509375
2.58525e-06;0.003575186528155623
2.58550e-06;0.003568539635749865
2.58575e-06;0.0035559073174572624
2.58600e-06;0.0035432749991646593
2.58625e-06;0.0035306426808720784
2.58650e-06;0.0035180103625794754
2.58675e-06;0.0035053780442868727
2.58700e-06;0.0034927457259942914
2.58725e-06;0.0034801134077016888
2.58750e-06;0.003467481089409086
2.58775e-06;0.0034548487711164835
2.58800e-06;0.003442216452823902
2.58825e-06;0.0034295841345312996
2.58850e-06;0.0034169518162386965
2.58875e-06;0.0034043194979461156
2.58900e-06;0.0033916871796535126
2.58925e-06;0.00337905486136091
2.58950e-06;0.0033664225430683073
2.58975e-06;0.0033548036931389255
2.59000e-06;0.0033438365781986398
2.59025e-06;0.0033328694632583544
2.59050e-06;0.0033219023483180873
2.59075e-06;0.0033109352333778016
2.59100e-06;0.0032999681184375158
2.59125e-06;0.0032890010034972487
2.59150e-06;0.003278033888556963
2.59175e-06;0.0032670667736166776
2.59200e-06;0.003256099658676392
2.59225e-06;0.0032439425959669872
2.59250e-06;0.003231020308979683
2.59275e-06;0.003218098021992378
2.59300e-06;0.003205175735005095
2.59325e-06;0.0031922534480177903
2.59350e-06;0.003179331161030486
2.59375e-06;0.003166408874043181
2.59400e-06;0.0031534865870558983
2.59425e-06;0.0031405643000685934
2.59450e-06;0.003127642013081289
2.59475e-06;0.003109970059453025
2.59500e-06;0.0030892437194727763
2.59525e-06;0.003068517379492528
2.59550e-06;0.003047791039512314
2.59575e-06;0.0030270646995320654
2.59600e-06;0.003006338359551817
2.59625e-06;0.0029856120195715682
2.59650e-06;0.002964885679591355
2.59675e-06;0.002944159339611106
2.59700e-06;0.0029234329996308574
2.59725e-06;0.0029023559375178838
2.59750e-06;0.0028784005691253577
2.59775e-06;0.0028544452007328316
2.59800e-06;0.0028304898323403055
2.59825e-06;0.0028065344639478197
2.59850e-06;0.0027825790955552936
2.59875e-06;0.0027586237271627675
2.59900e-06;0.0027346683587702817
2.59925e-06;0.0027107129903777556
2.59950e-06;0.0026867576219852295
2.59975e-06;0.0026628022535927437
2.60000e-06;0.0026432250614426534
2.60025e-06;0.0026264633598885923
2.60050e-06;0.0026097016583345313
2.60075e-06;0.0025929399567804984
2.60100e-06;0.0025761782552264374
2.60125e-06;0.0025594165536723763
2.60150e-06;0.0025426548521183434
2.60175e-06;0.0025258931505642824
2.60200e-06;0.0025091314490102213
2.60225e-06;0.0024923697474561603
2.60250e-06;0.0024756080459021274
2.60275e-06;0.0024588463443480663
2.60300e-06;0.002442974968919255
2.60325e-06;0.0024344103216321395
2.60350e-06;0.0024258456743450098
2.60375e-06;0.00241728102705788
2.60400e-06;0.0024087163797707647
2.60425e-06;0.002400151732483635
2.60450e-06;0.002391587085196505
2.60475e-06;0.0023830224379093753
2.60500e-06;0.0023744577906222603
2.60525e-06;0.00236589314333513
2.60550e-06;0.0023573284960480005
2.60575e-06;0.002348763848760885
2.60600e-06;0.0023401992014737555
2.60625e-06;0.002334202278936275
2.60650e-06;0.0023298565930064304
2.60675e-06;0.0023255109070765925
2.60700e-06;0.0023211652211467476
2.60725e-06;0.0023168195352169024
2.60750e-06;0.002312473849287065
2.60775e-06;0.0023081281633572197
2.60800e-06;0.002303782477427375
2.60825e-06;0.002299436791497537
2.60850e-06;0.002295091105567692
2.60875e-06;0.002290745419637847
2.60900e-06;0.002286399733708002
2.60925e-06;0.002282054047778164
2.60950e-06;0.0022777083618483194
2.60975e-06;0.002273362675918474
2.61000e-06;0.0022690169899886366
2.61025e-06;0.0022646713040587914
2.61050e-06;0.0022603256181289466
2.61075e-06;0.0022559799321991017
2.61100e-06;0.002254522396383554
2.61125e-06;0.0022549221543444633
2.61150e-06;0.0022553219123053725
2.61175e-06;0.0022557216702662813
2.61200e-06;0.002256121428227191
2.61225e-06;0.0022565211861881
2.61250e-06;0.002256920944149009
2.61275e-06;0.002257320702109918
2.61300e-06;0.0022577204600708273
2.61325e-06;0.002258120218031737
2.61350e-06;0.0022585199759926457
2.61375e-06;0.002258919733953555
2.61400e-06;0.002259319491914464
2.61425e-06;0.002259719249875373
2.61450e-06;0.0022601190078362825
2.61475e-06;0.0022605187657971917
2.61500e-06;0.002260918523758101
2.61525e-06;0.0022613182817190097
2.61550e-06;0.0022617180396799193
2.61575e-06;0.0022652025347238165
2.61600e-06;0.002270670743480519
2.61625e-06;0.0022761389522372314
2.61650e-06;0.0022816071609939436
2.61675e-06;0.0022870753697506463
2.61700e-06;0.0022925435785073585
2.61725e-06;0.0022980117872640703
2.61750e-06;0.0023034799960207825
2.61775e-06;0.0023089482047774852
2.61800e-06;0.0023144164135341975
2.61825e-06;0.0023198846222909097
2.61850e-06;0.0023253528310476124
2.61875e-06;0.0023308210398043246
2.61900e-06;0.0023362907640270417
2.61925e-06;0.0023417729253756487
2.61950e-06;0.0023472550867242653
2.61975e-06;0.0023527372480728814
2.62000e-06;0.0023582194094214975
2.62025e-06;0.0023637015707701045
2.62050e-06;0.002369183732118721
2.62075e-06;0.002374665893467337
2.62100e-06;0.0023801480548159442
2.62125e-06;0.0023856302161645608
2.62150e-06;0.002391112377513177
2.62175e-06;0.002396594538861793
2.62200e-06;0.0024020767002104
2.62225e-06;0.0024075588615590166
2.62250e-06;0.0024192312882746914
2.62275e-06;0.002434884512693656
2.62300e-06;0.0024505377371126474
2.62325e-06;0.002466190961531639
2.62350e-06;0.002481844185950604
2.62375e-06;0.0024974974103695955
2.62400e-06;0.0025131506347885867
2.62425e-06;0.0025288038592075784
2.62450e-06;0.002544457083626543
2.62475e-06;0.0025601103080455344
2.62500e-06;0.002575763532464526
2.62525e-06;0.002593008966943866
2.62550e-06;0.002623321350410309
2.62575e-06;0.0026536337338767518
2.62600e-06;0.0026839461173431946
2.62625e-06;0.0027142585008095863
2.62650e-06;0.002744570884276029
2.62675e-06;0.002774883267742472
2.62700e-06;0.0028051956512088637
2.62725e-06;0.0028355080346753065
2.62750e-06;0.00286582041814175
2.62775e-06;0.002896132801608141
2.62800e-06;0.002926445185074584
2.62825e-06;0.002958083188006016
2.62850e-06;0.0029905736621336013
2.62875e-06;0.0030230641362611315
2.62900e-06;0.0030555546103887164
2.62925e-06;0.0030880450845163017
2.62950e-06;0.003120535558643832
2.62975e-06;0.0031530260327714173
2.63000e-06;0.003185516506899002
2.63025e-06;0.0032180069810265875
2.63050e-06;0.0032504974551541177
2.63075e-06;0.0032815845831411766
2.63100e-06;0.0033011547304937373
2.63125e-06;0.003320724877846265
2.63150e-06;0.0033402950251988257
2.63175e-06;0.003359865172551387
2.63200e-06;0.003379435319903914
2.63225e-06;0.0033990054672564753
2.63250e-06;0.003418575614609036
2.63275e-06;0.0034381457619615968
2.63300e-06;0.0034577159093141245
2.63325e-06;0.0034772860566666852
2.63350e-06;0.0034878249733806114
2.63375e-06;0.0034925561419519315
2.63400e-06;0.0034972873105232594
2.63425e-06;0.0035020184790945873
2.63450e-06;0.0035067496476659152
2.63475e-06;0.0035114808162372353
2.63500e-06;0.0035162119848085632
2.63525e-06;0.003520943153379891
2.63550e-06;0.0035256743219512113
2.63575e-06;0.003530405490522539
2.63600e-06;0.003535136659093867
2.63625e-06;0.003539867827665187
2.63650e-06;0.003544598996236515
2.63675e-06;0.003549330164807843
2.63700e-06;0.00354902798618236
2.63725e-06;0.003545488993660347
2.63750e-06;0.0035419500011383276
2.63775e-06;0.0035384110086163086
2.63800e-06;0.0035348720160942953
2.63825e-06;0.0035313330235722763
2.63850e-06;0.003527794031050257
2.63875e-06;0.003524255038528238
2.63900e-06;0.0035207160460062246
2.63925e-06;0.0035171770534842056
2.63950e-06;0.0035136380609621866
2.63975e-06;0.0035100990684401733
2.64000e-06;0.0035065600759181543
2.64025e-06;0.003503021083396135
2.64050e-06;0.0034982477451206235
2.64075e-06;0.0034926806313847775
2.64100e-06;0.003487113517648932
2.64125e-06;0.0034815464039130864
2.64150e-06;0.00347597929017725
2.64175e-06;0.0034704121764414044
2.64200e-06;0.003464845062705559
2.64225e-06;0.0034592779489697224
2.64250e-06;0.003453710835233877
2.64275e-06;0.0034481437214980313
2.64300e-06;0.0034412971150413617
2.64325e-06;0.0034239499681513966
2.64350e-06;0.003406602821261402
2.64375e-06;0.0033892556743714075
2.64400e-06;0.0033719085274814425
2.64425e-06;0.003354561380591448
2.64450e-06;0.0033372142337014534
2.64475e-06;0.0033198670868114883
2.64500e-06;0.003302519939921494
2.64525e-06;0.0032851727930314992
2.64550e-06;0.0032678256461415047
2.64575e-06;0.0032431535335783208
2.64600e-06;0.0032137709272309187
2.64625e-06;0.0031843883208835166
2.64650e-06;0.003155005714536165
2.64675e-06;0.0031256231081887628
2.64700e-06;0.0030962405018413607
2.64725e-06;0.003066857895493959
2.64750e-06;0.003037475289146607
2.64775e-06;0.0030080926827992047
2.64800e-06;0.002977015166950298
2.64825e-06;0.0029448476991442785
