Time(s);Current(A)
2.50000e-06;-0.0036849700082955887
2.50025e-06;-0.003781892697333118
2.50050e-06;-0.0038771806744417716
2.50075e-06;-0.003970407839513168
2.50100e-06;-0.004061270092618978
2.50125e-06;-0.004149370421002835
2.50150e-06;-0.004234134868542426
2.50175e-06;-0.004314926740085284
2.50200e-06;-0.0043902769966150355
2.50225e-06;-0.004460033523114904
2.50250e-06;-0.0045272816147854346
2.50275e-06;-0.004587094520052318
2.50300e-06;-0.004642545466784476
2.50325e-06;-0.004694413722583182
2.50350e-06;-0.004742688754680894
2.50375e-06;-0.004787056514053743
2.50400e-06;-0.004826508653967389
2.50425e-06;-0.0048611359257835236
2.50450e-06;-0.004893696029968795
2.50475e-06;-0.0049201014936732295
2.50500e-06;-0.0049427826811967585
2.50525e-06;-0.00496185232234835
2.50550e-06;-0.004977656400778261
2.50575e-06;-0.004991552633479017
2.50600e-06;-0.005000832564443137
2.50625e-06;-0.0050081096693136125
2.50650e-06;-0.005010540654064001
2.50675e-06;-0.005011331236003875
2.50700e-06;-0.00500815263205671
2.50725e-06;-0.005003739759975691
2.50750e-06;-0.004996340402120364
2.50775e-06;-0.004987749534316748
2.50800e-06;-0.004976275640197505
2.50825e-06;-0.004963650475123068
2.50850e-06;-0.004948239647650262
2.50875e-06;-0.004932004159120676
2.50900e-06;-0.004913773286891966
2.50925e-06;-0.004895071802276795
2.50950e-06;-0.004875231604639118
2.50975e-06;-0.004855046958497
2.51000e-06;-0.0048340288706330775
2.51025e-06;-0.00481279120450726
2.51050e-06;-0.0047910222378175545
2.51075e-06;-0.004769337630032222
2.51100e-06;-0.004747857140510003
2.51125e-06;-0.004726921341249849
2.51150e-06;-0.004707303496876894
2.51175e-06;-0.004687685652503906
2.51200e-06;-0.004668868162384734
2.51225e-06;-0.004651987242227926
2.51250e-06;-0.00463570738777527
2.51275e-06;-0.00462088189654061
2.51300e-06;-0.004606092150604397
2.51325e-06;-0.00459138889545768
2.51350e-06;-0.004576685640310938
2.51375e-06;-0.004562131312560014
2.51400e-06;-0.004547937335641184
2.51425e-06;-0.004533743358722331
2.51450e-06;-0.004519549381803477
2.51475e-06;-0.004505355404884624
2.51500e-06;-0.004490873441461214
2.51525e-06;-0.004476316041777683
2.51550e-06;-0.004461758642094152
2.51575e-06;-0.004447201242410645
2.51600e-06;-0.004432434052246631
2.51625e-06;-0.004417159244435848
2.51650e-06;-0.00440188443662509
2.51675e-06;-0.004386609628814307
2.51700e-06;-0.004371334821003524
2.51725e-06;-0.004355828329189781
2.51750e-06;-0.004339761245264799
2.51775e-06;-0.004323694161339791
2.51800e-06;-0.004307627077414782
2.51825e-06;-0.0042915599934898
2.51850e-06;-0.004275581632799849
2.51875e-06;-0.004259817950486585
2.51900e-06;-0.004244054268173322
2.51925e-06;-0.004228290585860085
2.51950e-06;-0.004212526903546822
2.51975e-06;-0.0041967632212335584
2.52000e-06;-0.004180999538920322
2.52025e-06;-0.0041652358566070585
2.52050e-06;-0.00415030754191847
2.52075e-06;-0.0041374005169798785
2.52100e-06;-0.004124493492041265
2.52125e-06;-0.004111586467102652
2.52150e-06;-0.004098679442164039
2.52175e-06;-0.0040857724172254474
2.52200e-06;-0.004072865392286834
2.52225e-06;-0.004059958367348221
2.52250e-06;-0.004048741465227965
2.52275e-06;-0.004041614053564433
2.52300e-06;-0.004034486641900901
2.52325e-06;-0.0040273592302373686
2.52350e-06;-0.004020231818573848
2.52375e-06;-0.004013104406910315
2.52400e-06;-0.004005976995246783
2.52425e-06;-0.003998849583583263
2.52450e-06;-0.003991722171919731
2.52475e-06;-0.003984594760256198
2.52500e-06;-0.003977467348592678
2.52525e-06;-0.003970339936929146
2.52550e-06;-0.003963212525265614
2.52575e-06;-0.0039560851136020815
2.52600e-06;-0.003950139076757184
2.52625e-06;-0.00394705154285321
2.52650e-06;-0.003943964008949237
2.52675e-06;-0.003940876475045269
2.52700e-06;-0.003937788941141295
2.52725e-06;-0.003934701407237322
2.52750e-06;-0.003931613873333349
2.52775e-06;-0.00392852633942938
2.52800e-06;-0.003925438805525407
2.52825e-06;-0.003922351271621433
2.52850e-06;-0.003919263737717465
2.52875e-06;-0.003916176203813492
2.52900e-06;-0.003913088669909518
2.52925e-06;-0.00391000113600555
2.52950e-06;-0.003907303726775118
2.52975e-06;-0.003905550279197761
2.53000e-06;-0.003903796831620404
2.53025e-06;-0.0039020433840430495
2.53050e-06;-0.0039002899364656922
2.53075e-06;-0.0038986379646841437
2.53100e-06;-0.0038972315278980904
2.53125e-06;-0.003895825091112035
2.53150e-06;-0.0038944186543259794
2.53175e-06;-0.003893012217539924
2.53200e-06;-0.00389163380506785
2.53225e-06;-0.0038903349803016377
2.53250e-06;-0.00388898928479486
2.53275e-06;-0.003886894364933546
2.53300e-06;-0.0038834278658955055
2.53325e-06;-0.003878897552732673
2.53350e-06;-0.0038717931913028747
2.53375e-06;-0.0038632777076199843
2.53400e-06;-0.0038513478146851255
2.53425e-06;-0.0038394179217502667
2.53450e-06;-0.003827488028815428
2.53475e-06;-0.0038133749662458594
2.53500e-06;-0.0037939794169299
2.53525e-06;-0.003774583867613974
2.53550e-06;-0.0037551883182980147
2.53575e-06;-0.0037334746523349565
2.53600e-06;-0.00370615197630218
2.53625e-06;-0.0036788293002694497
2.53650e-06;-0.0036515066242366733
2.53675e-06;-0.003624183948203897
2.53700e-06;-0.0035913347931085062
2.53725e-06;-0.0035570380114559965
2.53750e-06;-0.0035227412298034864
2.53775e-06;-0.0034884444481510343
2.53800e-06;-0.0034529725350840542
2.53825e-06;-0.0034146572258724425
2.53850e-06;-0.0033763419166608307
2.53875e-06;-0.003337529237153832
2.53900e-06;-0.0032975131000903286
2.53925e-06;-0.0032574969630268253
2.53950e-06;-0.0032173856867309682
2.53975e-06;-0.003177044207648066
2.54000e-06;-0.003136702728565164
2.54025e-06;-0.0030967380957095387
2.54050e-06;-0.0030576852954342197
2.54075e-06;-0.0030191691852825653
2.54100e-06;-0.0029819516725557815
2.54125e-06;-0.0029454799429270945
2.54150e-06;-0.0029108127406555734
2.54175e-06;-0.0028771851818784086
2.54200e-06;-0.0028460731871202127
2.54225e-06;-0.0028162899982991257
2.54250e-06;-0.002789722042797748
2.54275e-06;-0.0027649804223969653
2.54300e-06;-0.0027446578772758862
2.54325e-06;-0.002724335332154773
2.54350e-06;-0.0027062761339400293
2.54375e-06;-0.002693693422685494
2.54400e-06;-0.0026811107114309367
2.54425e-06;-0.002671702464101141
2.54450e-06;-0.0026699752798203897
2.54475e-06;-0.0026682480955396355
2.54500e-06;-0.002666520911258881
2.54525e-06;-0.002664793726978127
2.54550e-06;-0.002666696780737904
2.54575e-06;-0.0026773837072816237
2.54600e-06;-0.0026880706338253436
2.54625e-06;-0.0026987575603690454
2.54650e-06;-0.0027094444869127654
2.54675e-06;-0.0027223567114785133
2.54700e-06;-0.002740653358364087
2.54725e-06;-0.002759745355161488
2.54750e-06;-0.002781239642743192
2.54775e-06;-0.002804329807463723
2.54800e-06;-0.0028288852599037432
2.54825e-06;-0.002854775052583526
2.54850e-06;-0.0028818635972132998
2.54875e-06;-0.002909992453445983
2.54900e-06;-0.002938972424800312
2.54925e-06;-0.0029686070216682465
2.54950e-06;-0.002998711743091804
2.54975e-06;-0.0030291091040341852
2.55000e-06;-0.0030596213866281034
2.55025e-06;-0.0030900707763480383
2.55050e-06;-0.003120276559530108
2.55075e-06;-0.0031500438684723504
2.55100e-06;-0.0031791584618981977
2.55125e-06;-0.0032074012723136355
2.55150e-06;-0.003234561194667387
2.55175e-06;-0.0032596654760953534
2.55200e-06;-0.0032819005697336543
2.55225e-06;-0.0033041356633719174
2.55250e-06;-0.0033263707570102183
2.55275e-06;-0.003347071390094403
2.55300e-06;-0.0033640591795166476
2.55325e-06;-0.0033810469689389212
2.55350e-06;-0.0033973918876795653
2.55375e-06;-0.0034111016686744805
2.55400e-06;-0.003422199153253149
2.55425e-06;-0.0034332966378318357
2.55450e-06;-0.0034443941224105226
2.55475e-06;-0.0034554916069891905
2.55500e-06;-0.0034625663005826406
2.55525e-06;-0.003468587249287388
2.55550e-06;-0.003474608197992135
2.55575e-06;-0.003480629146696872
2.55600e-06;-0.0034846926772675382
2.55625e-06;-0.003484019958676522
2.55650e-06;-0.0034833472400855065
2.55675e-06;-0.0034826745214944902
2.55700e-06;-0.003482001802903474
2.55725e-06;-0.0034813290843124585
2.55750e-06;-0.0034806563657214422
2.55775e-06;-0.003479983647130426
2.55800e-06;-0.003479310928539409
2.55825e-06;-0.003478638209948394
2.55850e-06;-0.0034779654913573775
2.55875e-06;-0.003477292772766361
2.55900e-06;-0.003473138524940829
2.55925e-06;-0.003468072312350206
2.55950e-06;-0.0034630060997595828
2.55975e-06;-0.00345793988716896
2.56000e-06;-0.0034528736745783454
2.56025e-06;-0.0034478074619877226
2.56050e-06;-0.0034427412493971
2.56075e-06;-0.0034376750368064852
2.56100e-06;-0.0034326088242158624
2.56125e-06;-0.003427542611625239
2.56150e-06;-0.003422476399034625
2.56175e-06;-0.003417527956471362
2.56200e-06;-0.0034128644750942966
2.56225e-06;-0.003408326851210871
2.56250e-06;-0.00340409682116133
2.56275e-06;-0.0033996349494104868
2.56300e-06;-0.0033939028178604723
2.56325e-06;-0.0033864978720697173
2.56350e-06;-0.003377994762624696
2.56375e-06;-0.003366834491382435
2.56400e-06;-0.003355674220140174
2.56425e-06;-0.0033433639034962403
2.56450e-06;-0.003328270889852022
2.56475e-06;-0.0033131778762078034
2.56500e-06;-0.0032958592457742277
2.56525e-06;-0.003273155421717404
2.56550e-06;-0.00325045159766058
2.56575e-06;-0.0032277477736037943
2.56600e-06;-0.0032050439495469704
2.56625e-06;-0.0031823401254901466
2.56650e-06;-0.0031531234283380285
2.56675e-06;-0.003122200724893128
2.56700e-06;-0.003091278021448175
2.56725e-06;-0.003060355318003222
2.56750e-06;-0.0030294326145583216
2.56775e-06;-0.0029970839800940625
2.56800e-06;-0.002961285104479062
2.56825e-06;-0.002925486228864061
2.56850e-06;-0.00288919663271403
2.56875e-06;-0.0028517196690400013
2.56900e-06;-0.0028142427053659724
2.56925e-06;-0.002776532727737066
2.56950e-06;-0.0027382589399902388
2.56975e-06;-0.002699985152243412
2.57000e-06;-0.002661930681761047
2.57025e-06;-0.002624406880322537
2.57050e-06;-0.00258732883977708
2.57075e-06;-0.0025513293805625717
2.57100e-06;-0.002515922952870726
2.57125e-06;-0.002481951448562443
2.57150e-06;-0.0024490887407161758
2.57175e-06;-0.0024189089222449544
2.57200e-06;-0.0023887291037736815
2.57225e-06;-0.002359717940954654
2.57250e-06;-0.0023340864126690994
2.57275e-06;-0.002310001437735967
2.57300e-06;-0.002286259366206513
2.57325e-06;-0.0022621108703386648
2.57350e-06;-0.0022378174868612046
2.57375e-06;-0.0022131735273836608
2.57400e-06;-0.002188529567906117
2.57425e-06;-0.0021640692371331406
2.57450e-06;-0.0021400532219015313
2.57475e-06;-0.002115753668154114
2.57500e-06;-0.002090768052990064
2.57525e-06;-0.002065782437826056
2.57550e-06;-0.0020391236883112477
2.57575e-06;-0.0020120266717383044
2.57600e-06;-0.001984605852367316
2.57625e-06;-0.001956401546471572
2.57650e-06;-0.0019281972405758277
2.57675e-06;-0.0018999929346800836
2.57700e-06;-0.0018703334909866288
2.57725e-06;-0.0018402928830659213
2.57750e-06;-0.0018102522751452137
2.57775e-06;-0.0017798352700426061
2.57800e-06;-0.0017485075188879054
2.57825e-06;-0.0017171797677332044
2.57850e-06;-0.0016858741219250158
2.57875e-06;-0.0016546219631192879
2.57900e-06;-0.0016233215992253877
2.57925e-06;-0.0015918900939457315
2.57950e-06;-0.0015604657796988261
2.57975e-06;-0.0015292429053276552
2.58000e-06;-0.001498415714204016
2.58025e-06;-0.0014681780378388008
2.58050e-06;-0.001438700728622328
2.58075e-06;-0.0014100587306438831
2.58100e-06;-0.0013822347360179432
2.58125e-06;-0.0013552640350223972
2.58150e-06;-0.0013292955532588123
2.58175e-06;-0.0013045201151969527
2.58200e-06;-0.0012811287726658717
2.58225e-06;-0.0012593128410250858
2.58250e-06;-0.001239383443478307
2.58275e-06;-0.0012221299279882502
2.58300e-06;-0.0012087374410969752
2.58325e-06;-0.001199992193703716
2.58350e-06;-0.0011960118831662247
2.58375e-06;-0.001196681326402164
2.58400e-06;-0.0012018853348578656
2.58425e-06;-0.001211508886852168
2.58450e-06;-0.0012255123367771075
2.58475e-06;-0.0012449496197872976
2.58500e-06;-0.0012698673298941175
2.58525e-06;-0.00129713917429097
2.58550e-06;-0.0013315769230671489
2.58575e-06;-0.0013709508987688414
2.58600e-06;-0.0014149541482354755
2.58625e-06;-0.0014632799028080528
2.58650e-06;-0.001515668280048038
2.58675e-06;-0.0015720471423148843
2.58700e-06;-0.0016324993915893273
2.58725e-06;-0.001696951715956002
2.58750e-06;-0.0017650682702608767
2.58775e-06;-0.0018364217959869486
2.58800e-06;-0.0019105852476904864
2.58825e-06;-0.001987131599685385
2.58850e-06;-0.0020656633845464165
2.58875e-06;-0.0021459008666150927
2.58900e-06;-0.0022276610951010548
2.58925e-06;-0.002310663241565308
2.58950e-06;-0.002394462421347094
2.58975e-06;-0.0024785564187479086
2.59000e-06;-0.0025624430861559593
2.59025e-06;-0.002645620440703386
2.59050e-06;-0.002727604814732387
2.59075e-06;-0.0028079863381790843
2.59100e-06;-0.0028864161261724923
2.59125e-06;-0.0029624838265375182
2.59150e-06;-0.0030356762422292884
2.59175e-06;-0.0031054445233342966
2.59200e-06;-0.003171239587108525
2.59225e-06;-0.0032325133435303025
2.59250e-06;-0.0032889140725341818
2.59275e-06;-0.0033409089985422763
2.59300e-06;-0.0033897947547908347
2.59325e-06;-0.003436503764611506
2.59350e-06;-0.0034810557206577048
2.59375e-06;-0.0035231269883347523
2.59400e-06;-0.003562393933047907
2.59425e-06;-0.0035985334648928826
2.59450e-06;-0.0036313452097621783
2.59475e-06;-0.0036611421790919184
2.59500e-06;-0.0036887568664409733
2.59525e-06;-0.003714793277552162
2.59550e-06;-0.003739283932678118
2.59575e-06;-0.003761747967075202
2.59600e-06;-0.0037821755964268177
2.59625e-06;-0.003801341893347851
2.59650e-06;-0.00381745621861043
2.59675e-06;-0.0038327910580652877
2.59700e-06;-0.0038457842563863263
2.59725e-06;-0.003857675150188353
2.59750e-06;-0.0038689408757424455
2.59775e-06;-0.0038786939185744625
2.59800e-06;-0.003887520738311756
2.59825e-06;-0.0038941064306777093
2.59850e-06;-0.003900692123043673
2.59875e-06;-0.003906544401319874
2.59900e-06;-0.003910622080797499
2.59925e-06;-0.003914314652912345
2.59950e-06;-0.003917075403464363
2.59975e-06;-0.003919836154016377
2.60000e-06;-0.003922074365043941
2.60025e-06;-0.0039230482180161305
2.60050e-06;-0.0039240220709883195
2.60075e-06;-0.003924700202539225
2.60100e-06;-0.0039246627944158115
2.60125e-06;-0.0039246253862923975
2.60150e-06;-0.003924553617291638
2.60175e-06;-0.003924398707303393
2.60200e-06;-0.003924243797315149
2.60225e-06;-0.003924034236737307
2.60250e-06;-0.003923692441352424
2.60275e-06;-0.003922991967430168
2.60300e-06;-0.003921423620214515
2.60325e-06;-0.003919114721197147
2.60350e-06;-0.003915013952680685
2.60375e-06;-0.003910913184164225
2.60400e-06;-0.0039058698234759417
2.60425e-06;-0.003898545728126183
2.60450e-06;-0.003891221632776424
2.60475e-06;-0.003883897537426665
2.60500e-06;-0.0038752829346742567
2.60525e-06;-0.0038635457673046824
2.60550e-06;-0.003851808599935108
2.60575e-06;-0.0038400714325655537
2.60600e-06;-0.003826970956535527
2.60625e-06;-0.0038105717629804076
2.60650e-06;-0.0037941725694252883
2.60675e-06;-0.0037777733758701973
2.60700e-06;-0.003761374182315078
2.60725e-06;-0.0037449749887599588
2.60750e-06;-0.0037253131359215857
2.60775e-06;-0.003704796649929786
2.60800e-06;-0.003684280163937986
2.60825e-06;-0.003663763677946221
2.60850e-06;-0.0036432471919544207
2.60875e-06;-0.0036222484487589096
2.60900e-06;-0.0036000828162626322
2.60925e-06;-0.003577917183766392
2.60950e-06;-0.0035556929062852674
2.60975e-06;-0.0035333267289945893
2.61000e-06;-0.0035109605517039495
2.61025e-06;-0.003488863315230003
2.61050e-06;-0.003467416818981758
2.61075e-06;-0.0034459703227335127
2.61100e-06;-0.0034250446865480857
2.61125e-06;-0.0034053793447237925
2.61150e-06;-0.0033857140028994994
2.61175e-06;-0.0033669119270537977
2.61200e-06;-0.003350198644960392
2.61225e-06;-0.003333485362866986
2.61250e-06;-0.0033176184840494763
2.61275e-06;-0.003303799597297546
2.61300e-06;-0.0032899807105456163
2.61325e-06;-0.003276532326648799
2.61350e-06;-0.0032639804266494433
2.61375e-06;-0.0032514285266500662
2.61400e-06;-0.003238876626650689
2.61425e-06;-0.003227772695243772
2.61450e-06;-0.003217048050135785
2.61475e-06;-0.003206323405027798
2.61500e-06;-0.0031957225997466666
2.61525e-06;-0.003185421442387581
2.61550e-06;-0.0031751202850284774
2.61575e-06;-0.0031659440354236366
2.61600e-06;-0.003158470952717632
2.61625e-06;-0.0031509978700116144
2.61650e-06;-0.0031413274140959235
2.61675e-06;-0.0031326376729364767
2.61700e-06;-0.0031242095940193283
2.61725e-06;-0.003114891316747897
2.61750e-06;-0.003106784128265156
2.61775e-06;-0.0030976487551281472
2.61800e-06;-0.003089819664817502
2.61825e-06;-0.0030819905745068563
2.61850e-06;-0.0030741614841962245
2.61875e-06;-0.003066332393885579
2.61900e-06;-0.0030585033035749336
2.61925e-06;-0.0030509354231472233
2.61950e-06;-0.0030444599050684883
2.61975e-06;-0.0030379843869897533
2.62000e-06;-0.003031508868911018
2.62025e-06;-0.003025033350832294
2.62050e-06;-0.0030185578327535587
2.62075e-06;-0.003012090992627909
2.62100e-06;-0.003005709612779701
2.62125e-06;-0.00299954442611496
2.62150e-06;-0.0029938063149021104
2.62175e-06;-0.0029881223890507384
2.62200e-06;-0.002982868785554802
2.62225e-06;-0.002977886082714923
2.62250e-06;-0.002973333711992146
2.62275e-06;-0.002969770173754686
2.62300e-06;-0.0029682042597225047
2.62325e-06;-0.002969368591376796
2.62350e-06;-0.0029733709576807996
2.62375e-06;-0.002980199197119532
2.62400e-06;-0.002990303697808153
2.62425e-06;-0.003000968665297555
2.62450e-06;-0.003015766915346883
2.62475e-06;-0.0030314553826031633
2.62500e-06;-0.003053708947472527
2.62525e-06;-0.0030759625123418536
2.62550e-06;-0.003098964348602887
2.62575e-06;-0.0031278124761735405
2.62600e-06;-0.0031593767632823555
2.62625e-06;-0.0031934065280187596
2.62650e-06;-0.0032297210422868464
2.62675e-06;-0.0032682966277226373
2.62700e-06;-0.003309285280684509
2.62725e-06;-0.0033527316375552368
2.62750e-06;-0.003398434302834649
2.62775e-06;-0.0034460899016453598
2.62800e-06;-0.0034953895719636043
2.62825e-06;-0.003546026345854118
2.62850e-06;-0.0035977379451868482
2.62875e-06;-0.003650359623711692
2.62900e-06;-0.003703837527823729
2.62925e-06;-0.0037580495840944606
2.62950e-06;-0.0038127203501033147
2.62975e-06;-0.003867510351805742
2.63000e-06;-0.003922076518457059
2.63025e-06;-0.003976077600350688
2.63050e-06;-0.004029199053958759
2.63075e-06;-0.00408118931826376
2.63100e-06;-0.004131864290120319
2.63125e-06;-0.004180998707193357
2.63150e-06;-0.004228270227441425
2.63175e-06;-0.0042733175185408236
2.63200e-06;-0.004315775912100279
2.63225e-06;-0.004355284221897776
2.63250e-06;-0.004391564846176128
2.63275e-06;-0.004424822310182693
2.63300e-06;-0.004455808864614447
2.63325e-06;-0.0044850366371994264
2.63350e-06;-0.0045124796057463565
2.63375e-06;-0.004537946869962736
2.63400e-06;-0.0045610943705471085
2.63425e-06;-0.004581075197893553
2.63450e-06;-0.0046006195675746785
2.63475e-06;-0.004616721049969021
2.63500e-06;-0.004630993048091285
2.63525e-06;-0.004643699191128094
2.63550e-06;-0.004654458993663252
2.63575e-06;-0.004664832881882095
2.63600e-06;-0.004672360762252712
2.63625e-06;-0.004679475343709223
2.63650e-06;-0.004683541963731282
2.63675e-06;-0.004687291728666302
2.63700e-06;-0.0046887047778426385
2.63725e-06;-0.004689882541891166
2.63750e-06;-0.0046893251453302585
2.63775e-06;-0.004688466453323475
2.63800e-06;-0.004685385793467079
2.63825e-06;-0.004682305133610678
2.63850e-06;-0.004678950108813007
2.63875e-06;-0.004673571720944602
2.63900e-06;-0.0046680755098017605
2.63925e-06;-0.004661710385665551
2.63950e-06;-0.004655238873988784
2.63975e-06;-0.004647982784589538
2.64000e-06;-0.00464072669519028
2.64025e-06;-0.004633382159563925
2.64050e-06;-0.004625385358277003
2.64075e-06;-0.004617388556990067
2.64100e-06;-0.004609420947406332
2.64125e-06;-0.0046016686182952325
2.64150e-06;-0.004593988907021061
2.64175e-06;-0.004586844731551186
2.64200e-06;-0.004579828851300075
2.64225e-06;-0.0045737591116404575
2.64250e-06;-0.0045676893719808305
2.64275e-06;-0.004561879855504015
2.64300e-06;-0.0045579894106689885
2.64325e-06;-0.004554098965833968
2.64350e-06;-0.004550630964793232
2.64375e-06;-0.004550278366066482
2.64400e-06;-0.004549925767339733
2.64425e-06;-0.004549573168612983
2.64450e-06;-0.004549220569886234
2.64475e-06;-0.004549419688789635
2.64500e-06;-0.004553687567620071
