Time(s);Current(A)
1.40000e-05;0.010595155650298548
1.40003e-05;0.010598256830295654
1.40005e-05;0.010601358010292779
1.40008e-05;0.010604459190289905
1.40010e-05;0.010607560370287011
1.40013e-05;0.010610661550284138
1.40015e-05;0.010613762730281263
1.40018e-05;0.010616863910278369
1.40020e-05;0.010619965090275496
1.40023e-05;0.01062306627027262
1.40025e-05;0.010626167450269727
1.40028e-05;0.010629268630266853
1.40030e-05;0.010624795546932743
1.40033e-05;0.010619419420847761
1.40035e-05;0.01061404329476274
1.40038e-05;0.010608667168677722
1.40040e-05;0.01060329104259274
1.40043e-05;0.01059791491650772
1.40045e-05;0.0105925387904227
1.40048e-05;0.010566564759857296
1.40050e-05;0.010538134940852392
1.40053e-05;0.010509705121847488
1.40055e-05;0.010481275302842584
1.40058e-05;0.010452845483837873
1.40060e-05;0.01042441566483297
1.40063e-05;0.010395985845828066
1.40065e-05;0.010342038841402872
1.40068e-05;0.010285049546484912
1.40070e-05;0.010228060251566952
1.40073e-05;0.010171070956649379
1.40075e-05;0.010114081661731418
1.40078e-05;0.010057092366813458
1.40080e-05;0.010000103071895885
1.40083e-05;0.009943113776977925
1.40085e-05;0.009886124482059964
1.40088e-05;0.009822418346085916
1.40090e-05;0.009748358496578985
1.40093e-05;0.009674298647072055
1.40095e-05;0.009600238797565627
1.40098e-05;0.009526178948058697
1.40100e-05;0.009452119098551766
1.40103e-05;0.009378059249045338
1.40105e-05;0.009303999399538408
1.40108e-05;0.009229939550031478
1.40110e-05;0.009155879700525048
1.40113e-05;0.009088314501719737
1.40115e-05;0.009021523628678217
1.40118e-05;0.00895473275563715
1.40120e-05;0.00888794188259563
1.40123e-05;0.00882115100955411
1.40125e-05;0.008754360136513043
1.40128e-05;0.008696164038070742
1.40130e-05;0.008651216404694254
1.40133e-05;0.00860626877131807
1.40135e-05;0.008561321137941582
1.40138e-05;0.008516373504565094
1.40140e-05;0.008471425871188605
1.40143e-05;0.008426478237812422
1.40145e-05;0.008411673351815039
1.40148e-05;0.008400462239673416
1.40150e-05;0.00838925112753187
1.40153e-05;0.00837804001539025
1.40155e-05;0.008366828903248628
1.40158e-05;0.008355617791107084
1.40160e-05;0.008344406678965462
1.40163e-05;0.008333195566823841
1.40165e-05;0.008321984454682295
1.40168e-05;0.008310773342540673
1.40170e-05;0.008299562230399052
1.40173e-05;0.008288351118257507
1.40175e-05;0.00828907876147471
1.40178e-05;0.00830820946826184
1.40180e-05;0.00832734017504884
1.40183e-05;0.00834647088183597
1.40185e-05;0.0083656015886231
1.40188e-05;0.008384732295410102
1.40190e-05;0.008403863002197231
1.40193e-05;0.008422993708984361
1.40195e-05;0.008442124415771362
1.40198e-05;0.008461255122558492
1.40200e-05;0.008480385829345622
1.40203e-05;0.008499516536132623
1.40205e-05;0.008518647242919753
1.40208e-05;0.008541731371763868
1.40210e-05;0.008565286847982186
1.40213e-05;0.008588842324200664
1.40215e-05;0.008612397800419141
1.40218e-05;0.00863595327663746
1.40220e-05;0.008659508752855939
1.40223e-05;0.008683064229074416
1.40225e-05;0.008706619705292894
1.40228e-05;0.008730175181511212
1.40230e-05;0.00875373065772969
1.40233e-05;0.008763322933423625
1.40235e-05;0.00877125044431096
1.40238e-05;0.00877917795519835
1.40240e-05;0.008787105466085741
1.40243e-05;0.008795032976973077
1.40245e-05;0.008802960487860466
1.40248e-05;0.008810887998747857
1.40250e-05;0.008818815509635192
1.40253e-05;0.008826743020522582
1.40255e-05;0.008834670531409973
1.40258e-05;0.00882197688750693
1.40260e-05;0.008806824683139073
1.40263e-05;0.008791672478771216
1.40265e-05;0.008776520274403461
1.40268e-05;0.008761368070035603
1.40270e-05;0.008746215865667746
1.40273e-05;0.008731063661299991
1.40275e-05;0.008715911456932134
1.40278e-05;0.008700759252564277
1.40280e-05;0.008685607048196523
1.40283e-05;0.008670454843828666
1.40285e-05;0.008655302639460809
1.40288e-05;0.008640150435093055
1.40290e-05;0.008620488993222302
1.40293e-05;0.00859387676109351
1.40295e-05;0.008567264528964898
1.40298e-05;0.008540652296836105
1.40300e-05;0.008514040064707313
1.40303e-05;0.008487427832578701
1.40305e-05;0.008460815600449907
1.40308e-05;0.008434203368321114
1.40310e-05;0.008407591136192322
1.40313e-05;0.00838097890406371
1.40315e-05;0.008354366671934918
1.40318e-05;0.008327754439806125
1.40320e-05;0.008301142207677513
1.40323e-05;0.008274529975548721
1.40325e-05;0.008252662031451875
1.40328e-05;0.008231359725851798
1.40330e-05;0.008210057420251575
1.40333e-05;0.008188755114651352
1.40335e-05;0.008167452809051274
1.40338e-05;0.008146150503451051
1.40340e-05;0.00812484819785083
1.40343e-05;0.008103545892250751
1.40345e-05;0.008079230485679254
1.40348e-05;0.008050270517168457
1.40350e-05;0.008021310548657857
1.40353e-05;0.007992350580147061
1.40355e-05;0.007963390611636265
1.40358e-05;0.007934430643125665
1.40360e-05;0.007905470674614869
1.40363e-05;0.007876510706104073
1.40365e-05;0.007847550737593474
1.40368e-05;0.007806100929910994
1.40370e-05;0.007763162019162348
1.40373e-05;0.0077202231084139905
1.40375e-05;0.007677284197665343
1.40378e-05;0.007634345286916695
1.40380e-05;0.007591406376168339
1.40383e-05;0.007548467465419691
1.40385e-05;0.0075055285546710435
1.40388e-05;0.007462589643922687
1.40390e-05;0.0074196507331740396
1.40393e-05;0.007376711822425392
1.40395e-05;0.0073326806286006015
1.40398e-05;0.007286965728703337
1.40400e-05;0.007241250828805761
1.40403e-05;0.007195535928908186
1.40405e-05;0.00714982102901092
1.40408e-05;0.007104106129113345
1.40410e-05;0.007058391229215769
1.40413e-05;0.007012676329318504
1.40415e-05;0.006966961429420928
1.40418e-05;0.006921246529523353
1.40420e-05;0.006875531629626087
1.40423e-05;0.006829816729728512
1.40425e-05;0.006802851145456094
1.40428e-05;0.006778120951329074
1.40430e-05;0.006753390757201887
1.40433e-05;0.0067286605630747
1.40435e-05;0.00670393036894768
1.40438e-05;0.006679200174820493
1.40440e-05;0.006654469980693306
1.40443e-05;0.006629739786566286
1.40445e-05;0.006605009592439099
1.40448e-05;0.006580279398311912
1.40450e-05;0.006555549204184892
1.40453e-05;0.006530819010057705
1.40455e-05;0.006506088815930518
1.40458e-05;0.006481358621803499
1.40460e-05;0.006456628427676312
1.40463e-05;0.006431898233549125
1.40465e-05;0.00642234308871245
1.40468e-05;0.006414597191547882
1.40470e-05;0.006406851294383314
1.40473e-05;0.006399105397218798
1.40475e-05;0.00639135950005423
1.40478e-05;0.006383613602889662
1.40480e-05;0.006375867705725093
1.40483e-05;0.006368121808560577
1.40485e-05;0.006360375911396009
1.40488e-05;0.00635263001423144
1.40490e-05;0.006344884117066925
1.40493e-05;0.006337138219902357
1.40495e-05;0.006329392322737788
1.40498e-05;0.006321646425573272
1.40500e-05;0.006313900528408704
1.40503e-05;0.0063061546312441355
1.40505e-05;0.006302877710653148
1.40508e-05;0.006300133604507139
1.40510e-05;0.006297389498361131
1.40513e-05;0.006294645392215141
1.40515e-05;0.006291901286069133
1.40518e-05;0.006289157179923124
1.40520e-05;0.006286872323200456
1.40523e-05;0.006285295379161036
1.40525e-05;0.006283718435121616
1.40528e-05;0.006282141491082207
1.40530e-05;0.006280564547042787
1.40533e-05;0.0062789876030033675
1.40535e-05;0.006277410658963958
1.40538e-05;0.006290050226665761
1.40540e-05;0.006304384760248488
1.40543e-05;0.006318719293831118
1.40545e-05;0.006333053827413845
1.40548e-05;0.006347388360996572
1.40550e-05;0.006361722894579201
1.40553e-05;0.006376057428161928
1.40555e-05;0.006390391961744655
1.40558e-05;0.006415230810264862
1.40560e-05;0.006456261595881601
1.40563e-05;0.00649729238149834
1.40565e-05;0.006538323167115079
1.40568e-05;0.00657935395273154
1.40570e-05;0.006620384738348279
1.40573e-05;0.0066614155239650185
1.40575e-05;0.006702446309581479
1.40578e-05;0.0067434770951982186
1.40580e-05;0.006803360864229892
1.40583e-05;0.006865492383217704
1.40585e-05;0.006927623902205937
1.40588e-05;0.00698975542119417
1.40590e-05;0.007051886940181982
1.40593e-05;0.007114018459170215
1.40595e-05;0.007176149978158447
1.40598e-05;0.007238281497146259
1.40600e-05;0.007300413016134492
1.40603e-05;0.007362322175663737
1.40605e-05;0.007423888577916672
1.40608e-05;0.007485454980170024
1.40610e-05;0.007547021382423375
1.40613e-05;0.00760858778467631
1.40615e-05;0.007670154186929661
1.40618e-05;0.007731720589183013
1.40620e-05;0.007793286991435948
1.40623e-05;0.0078548533936893
1.40625e-05;0.007916419795942651
1.40628e-05;0.007959206100961468
1.40630e-05;0.007999753345889569
1.40633e-05;0.008040300590817668
1.40635e-05;0.008080847835745494
1.40638e-05;0.008121395080673593
1.40640e-05;0.008152500712827769
1.40643e-05;0.008169052516286497
1.40645e-05;0.008185604319745339
1.40648e-05;0.00820215612320418
1.40650e-05;0.008218707926663021
1.40653e-05;0.00823525973012175
1.40655e-05;0.008238301033165635
1.40658e-05;0.008218742942981213
1.40660e-05;0.008196682483412961
1.40663e-05;0.008174622023844561
1.40665e-05;0.00815256156427616
1.40668e-05;0.008130501104707907
1.40670e-05;0.008108440645139506
1.40673e-05;0.008086380185571104
1.40675e-05;0.008064319726002854
1.40678e-05;0.008042259266434452
1.40680e-05;0.00802019880686605
1.40683e-05;0.007987232619171607
1.40685e-05;0.007937455733690466
1.40688e-05;0.007887678848209326
1.40690e-05;0.007837901962728523
1.40693e-05;0.007788125077247384
1.40695e-05;0.0077383481917662434
1.40698e-05;0.007688571306285441
1.40700e-05;0.007638794420804301
1.40703e-05;0.007589017535323162
1.40705e-05;0.007539240649842359
1.40708e-05;0.0074894637643612184
1.40710e-05;0.007439249563512947
1.40713e-05;0.007388983223670525
1.40715e-05;0.007338716883827762
1.40718e-05;0.0072884505439849995
1.40720e-05;0.007238184204142579
1.40723e-05;0.007187917864299816
1.40725e-05;0.007137651524457054
1.40728e-05;0.007101827052588413
1.40730e-05;0.007067724414735472
1.40733e-05;0.00703362177688253
1.40735e-05;0.006999519139029589
1.40738e-05;0.006965416501176879
1.40740e-05;0.006931313863323938
1.40743e-05;0.006897211225470996
1.40745e-05;0.006885373170082438
1.40748e-05;0.0068761896130947395
1.40750e-05;0.00686700605610704
1.40753e-05;0.006857822499119404
1.40755e-05;0.006848638942131705
1.40758e-05;0.0068394553851440065
1.40760e-05;0.0068302718281563705
1.40763e-05;0.006821088271168671
1.40765e-05;0.006811904714180973
1.40768e-05;0.006802721157193337
1.40770e-05;0.0067935376002056375
1.40773e-05;0.006784354043217939
1.40775e-05;0.006775170486230303
1.40778e-05;0.006784891496073815
1.40780e-05;0.0067968664059181345
1.40783e-05;0.006808841315762372
1.40785e-05;0.006820816225606692
1.40788e-05;0.006832791135451011
1.40790e-05;0.006844766045295249
1.40793e-05;0.006856740955139568
1.40795e-05;0.0068687158649838875
1.40798e-05;0.006880690774828126
1.40800e-05;0.0068926656846724456
1.40803e-05;0.006904640594516765
1.40805e-05;0.006916615504361003
1.40808e-05;0.006928590414205322
1.40810e-05;0.006942250197154015
1.40813e-05;0.006956110859367702
1.40815e-05;0.006969971521581483
1.40818e-05;0.0069838321837952634
1.40820e-05;0.006997692846009044
1.40823e-05;0.007011553508222731
1.40825e-05;0.007025414170436511
1.40828e-05;0.007039274832650292
1.40830e-05;0.007053135494863979
1.40833e-05;0.0070669961570777595
1.40835e-05;0.00708085681929154
1.40838e-05;0.007089983662385084
1.40840e-05;0.007098546115137565
1.40843e-05;0.0071071085678900475
1.40845e-05;0.007115671020642471
1.40848e-05;0.007124233473394953
1.40850e-05;0.007132795926147435
1.40853e-05;0.007141358378899858
1.40855e-05;0.0071499208316523405
1.40858e-05;0.007158483284404822
1.40860e-05;0.007167045737157246
1.40863e-05;0.007175608189909728
1.40865e-05;0.007182262257162024
1.40868e-05;0.007188688796847972
1.40870e-05;0.007195115336533962
1.40873e-05;0.007201541876219954
1.40875e-05;0.007207968415905901
1.40878e-05;0.007214394955591893
1.40880e-05;0.0072208214952778835
1.40883e-05;0.007227248034963831
1.40885e-05;0.007233674574649822
1.40888e-05;0.007240101114335813
1.40890e-05;0.00724652765402176
1.40893e-05;0.007252954193707752
1.40895e-05;0.007259380733393743
1.40898e-05;0.007265807273079691
1.40900e-05;0.0072722338127656815
1.40903e-05;0.007278660352451672
1.40905e-05;0.007285086892137664
1.40908e-05;0.007291513431823611
1.40910e-05;0.007297939971509603
1.40913e-05;0.007304366511195593
1.40915e-05;0.007310793050881541
1.40918e-05;0.007317219590567532
1.40920e-05;0.007323646130253523
1.40923e-05;0.00733007266993947
1.40925e-05;0.007336499209625462
1.40928e-05;0.0073429257493114524
1.40930e-05;0.0073493522889974
1.40933e-05;0.007360225638449155
1.40935e-05;0.007371629159506374
1.40938e-05;0.007383032680563515
1.40940e-05;0.007394436201620733
1.40943e-05;0.007405839722677951
1.40945e-05;0.0074172432437350925
1.40948e-05;0.007428646764792311
1.40950e-05;0.007440050285849529
1.40953e-05;0.007470910445161368
1.40955e-05;0.007504090325281228
1.40958e-05;0.007537270205401088
1.40960e-05;0.007570450085520724
1.40963e-05;0.007603629965640584
1.40965e-05;0.007636809845760444
1.40968e-05;0.0076699897258800795
1.40970e-05;0.00770316960599994
1.40973e-05;0.007756390424203902
1.40975e-05;0.007812000626456391
1.40978e-05;0.007867610828709255
1.40980e-05;0.00792322103096212
1.40983e-05;0.007978831233214608
1.40985e-05;0.008034441435467473
1.40988e-05;0.008090051637720337
1.40990e-05;0.008145661839973202
1.40993e-05;0.00820127204222569
1.40995e-05;0.008256882244478556
1.40998e-05;0.008314261626567454
1.41000e-05;0.008374368121164074
1.41003e-05;0.0084344746157611
1.41005e-05;0.008494581110358126
1.41008e-05;0.008554687604954744
1.41010e-05;0.008614794099551772
1.41013e-05;0.008674900594148797
1.41015e-05;0.008735007088745417
1.41018e-05;0.008795113583342442
1.41020e-05;0.00885522007793947
1.41023e-05;0.008915326572536087
1.41025e-05;0.008954730031048474
1.41028e-05;0.0089916651667707
1.41030e-05;0.009028600302492676
1.41033e-05;0.009065535438214903
1.41035e-05;0.009102470573937132
1.41038e-05;0.009139405709659107
1.41040e-05;0.009176340845381334
1.41043e-05;0.009197826983111945
1.41045e-05;0.009195499173380792
1.41048e-05;0.00919317136364962
1.41050e-05;0.009190843553918452
1.41053e-05;0.009188515744187298
1.41055e-05;0.009186187934456127
1.41058e-05;0.009183860124724958
1.41060e-05;0.009181532314993805
1.41063e-05;0.009139247276077572
1.41065e-05;0.009092198330117325
1.41068e-05;0.0090451493841574
1.41070e-05;0.008998100438197154
1.41073e-05;0.008951051492236907
1.41075e-05;0.008904002546276662
1.41078e-05;0.008856953600316735
1.41080e-05;0.00880990465435649
1.41083e-05;0.008762855708396244
1.41085e-05;0.008704318171111749
1.41088e-05;0.008628071478165666
1.41090e-05;0.008551824785219583
1.41093e-05;0.008475578092274018
1.41095e-05;0.008399331399327935
1.41098e-05;0.008323084706381852
1.41100e-05;0.008246838013436286
1.41103e-05;0.008170591320490203
1.41105e-05;0.00809434462754412
1.41108e-05;0.008018097934598555
1.41110e-05;0.00794331278028174
1.41113e-05;0.007868701878141966
1.41115e-05;0.007794090976002699
1.41118e-05;0.007719480073862924
1.41120e-05;0.007644869171723151
1.41123e-05;0.007570258269583883
1.41125e-05;0.007504388892119563
1.41128e-05;0.007451994188515855
1.41130e-05;0.007399599484912502
1.41133e-05;0.007347204781308794
1.41135e-05;0.007294810077705086
1.41138e-05;0.007242415374101733
1.41140e-05;0.007190020670498025
1.41143e-05;0.007170750201806729
1.41145e-05;0.007155428975326709
1.41148e-05;0.007140107748846586
1.41150e-05;0.007124786522366462
1.41153e-05;0.007109465295886442
1.41155e-05;0.0070941440694063185
1.41158e-05;0.007078822842926194
1.41160e-05;0.007063501616446174
1.41163e-05;0.00704818038996605
1.41165e-05;0.007032859163485927
1.41168e-05;0.007017537937005803
1.41170e-05;0.007002216710525783
1.41173e-05;0.007018744115345713
1.41175e-05;0.007039068678332428
1.41178e-05;0.007059393241319005
1.41180e-05;0.00707971780430572
1.41183e-05;0.007100042367292434
1.41185e-05;0.007120366930279011
1.41188e-05;0.007140691493265726
1.41190e-05;0.007161016056252441
1.41193e-05;0.007181340619239018
1.41195e-05;0.007201665182225733
1.41198e-05;0.007221989745212448
1.41200e-05;0.007242314308199025
1.41203e-05;0.0072717322293696755
1.41205e-05;0.007302234307626112
1.41208e-05;0.007332736385882342
1.41210e-05;0.007363238464138779
1.41213e-05;0.007393740542395216
1.41215e-05;0.007424242620651446
1.41218e-05;0.007454744698907882
1.41220e-05;0.007479578834785287
1.41223e-05;0.007503737209324566
1.41225e-05;0.00752789558386401
1.41228e-05;0.007552053958403453
1.41230e-05;0.007576212332942733
1.41233e-05;0.0076003707074821765
1.41235e-05;0.00762452908202162
1.41238e-05;0.007643871717470853
1.41240e-05;0.007662640195655791
1.41243e-05;0.0076814086738407296
1.41245e-05;0.007700177152025541
1.41248e-05;0.00771894563021048
1.41250e-05;0.007737714108395418
1.41253e-05;0.007756482586580357
1.41255e-05;0.007775251064765168
1.41258e-05;0.007794019542950106
1.41260e-05;0.007812788021135044
1.41263e-05;0.007831556499319856
1.41265e-05;0.007850324977504795
1.41268e-05;0.007869093455689733
1.41270e-05;0.007887861933874543
1.41273e-05;0.007907428587395354
1.41275e-05;0.00792709040349847
1.41278e-05;0.007946752219601455
1.41280e-05;0.007966414035704573
1.41283e-05;0.00798607585180769
1.41285e-05;0.008005737667910675
1.41288e-05;0.008025399484013793
1.41290e-05;0.008045061300116911
1.41293e-05;0.008064723116219896
1.41295e-05;0.008084384932323014
1.41298e-05;0.008104046748426132
1.41300e-05;0.008123708564529116
1.41303e-05;0.008143370380632235
1.41305e-05;0.00816303219673535
1.41308e-05;0.008178100983033263
1.41310e-05;0.008192622164616675
1.41313e-05;0.008207143346200086
1.41315e-05;0.0082216645277834
1.41318e-05;0.008236185709366812
1.41320e-05;0.008250706890950225
1.41323e-05;0.008265228072533538
1.41325e-05;0.008279749254116951
1.41328e-05;0.008294270435700362
1.41330e-05;0.008308791617283677
1.41333e-05;0.008323312798867088
1.41335e-05;0.008337833980450501
1.41338e-05;0.008352355162033913
1.41340e-05;0.008351397748865787
1.41343e-05;0.00834859489775738
1.41345e-05;0.008345792046648972
1.41348e-05;0.008342989195540584
1.41350e-05;0.008340186344432177
1.41353e-05;0.00833738349332377
1.41355e-05;0.008334580642215381
1.41358e-05;0.008331777791106974
1.41360e-05;0.008328974939998566
1.41363e-05;0.008326172088890178
1.41365e-05;0.00832336923778177
1.41368e-05;0.008320566386673365
1.41370e-05;0.008317763535564977
1.41373e-05;0.00829997982170763
1.41375e-05;0.008280410012087434
1.41378e-05;0.00826084020246737
1.41380e-05;0.008241270392847172
1.41383e-05;0.008221700583226976
1.41385e-05;0.008202130773606911
1.41388e-05;0.008182560963986714
1.41390e-05;0.008162991154366517
1.41393e-05;0.008143421344746452
1.41395e-05;0.008123851535126255
1.41398e-05;0.008104281725506058
1.41400e-05;0.008084711915885993
1.41403e-05;0.008065142106265797
1.41405e-05;0.00804502678211511
1.41408e-05;0.00802484641890719
1.41410e-05;0.008004666055699135
1.41413e-05;0.00798448569249108
1.41415e-05;0.007964305329283161
1.41418e-05;0.007944124966075106
1.41420e-05;0.00792394460286705
1.41423e-05;0.007903764239658995
1.41425e-05;0.007883583876451076
1.41428e-05;0.00786340351324302
1.41430e-05;0.007843223150034965
1.41433e-05;0.007823042786827047
1.41435e-05;0.007802862423618991
1.41438e-05;0.0078013829635969045
1.41440e-05;0.007802133121756406
1.41443e-05;0.007802883279915913
1.41445e-05;0.00780363343807542
1.41448e-05;0.0078043835962349215
1.41450e-05;0.007805133754394428
1.41453e-05;0.007805883912553935
1.41455e-05;0.007806634070713437
1.41458e-05;0.007807384228872943
1.41460e-05;0.00780813438703245
1.41463e-05;0.00781868705962873
1.41465e-05;0.007844349874915762
1.41468e-05;0.007870012690202795
1.41470e-05;0.007895675505489655
1.41473e-05;0.007921338320776686
1.41475e-05;0.00794700113606372
1.41478e-05;0.007972663951350578
1.41480e-05;0.007998326766637611
1.41483e-05;0.008023989581924644
1.41485e-05;0.008049652397211502
1.41488e-05;0.008075315212498536
1.41490e-05;0.008112124177412448
1.41493e-05;0.008150262043803265
1.41495e-05;0.00818839991019434
1.41498e-05;0.008226537776585417
1.41500e-05;0.008264675642976234
1.41503e-05;0.00830281350936731
1.41505e-05;0.008340951375758385
1.41508e-05;0.008379089242149461
1.41510e-05;0.008417227108540279
1.41513e-05;0.008450380429033216
1.41515e-05;0.008482939466241773
