Time(s);Current(A)
3.50000e-06;0.002436267562796985
3.50025e-06;0.002446360278146238
3.50050e-06;0.0024564529934955085
3.50075e-06;0.0024665457088447794
3.50100e-06;0.0024766384241940325
3.50125e-06;0.0024867311395433034
3.50150e-06;0.002496823854892574
3.50175e-06;0.0025005286632332775
3.50200e-06;0.002495998847189556
3.50225e-06;0.0024914690311458273
3.50250e-06;0.002486939215102098
3.50275e-06;0.002482409399058377
3.50300e-06;0.0024778795830146484
3.50325e-06;0.002473349766970919
3.50350e-06;0.0024688199509271904
3.50375e-06;0.002464290134883469
3.50400e-06;0.002455433041604367
3.50425e-06;0.0024462842789583204
3.50450e-06;0.0024371355163122894
3.50475e-06;0.0024279867536662427
3.50500e-06;0.002418837991020196
3.50525e-06;0.002409689228374165
3.50550e-06;0.0024005404657281184
3.50575e-06;0.0023913917030820723
3.50600e-06;0.0023822429404360256
3.50625e-06;0.0023730941777899946
3.50650e-06;0.002363945415143948
3.50675e-06;0.002354463174061755
3.50700e-06;0.002344958455694422
3.50725e-06;0.002335453737327073
3.50750e-06;0.002325949018959724
3.50775e-06;0.0023164443005923747
3.50800e-06;0.002306939582225042
3.50825e-06;0.002297434863857693
3.50850e-06;0.002287930145490344
3.50875e-06;0.002278425427123011
3.50900e-06;0.002268920708755662
3.50925e-06;0.002259415990388313
3.50950e-06;0.002244180190183239
3.50975e-06;0.0022285581006509505
3.51000e-06;0.002212936011118662
3.51025e-06;0.0021973139215863734
3.51050e-06;0.0021816918320541113
3.51075e-06;0.0021660697425218223
3.51100e-06;0.0021504476529895337
3.51125e-06;0.0021348255634572716
3.51150e-06;0.002119203473924983
3.51175e-06;0.0021035813843926945
3.51200e-06;0.002087959294860406
3.51225e-06;0.002069343970148152
3.51250e-06;0.0020505268938579564
3.51275e-06;0.0020317098175677605
3.51300e-06;0.002012892741277597
3.51325e-06;0.001994075664987401
3.51350e-06;0.0019752585886972057
3.51375e-06;0.001956441512407042
3.51400e-06;0.0019376244361168462
3.51425e-06;0.0019188073598266505
3.51450e-06;0.001899990283536455
3.51475e-06;0.0018811732072462912
3.51500e-06;0.0018649748399290529
3.51525e-06;0.0018489529801816082
3.51550e-06;0.0018329311204341905
3.51575e-06;0.0018169092606867456
3.51600e-06;0.001800887400939301
3.51625e-06;0.0017857661352068959
3.51650e-06;0.001771805821477657
3.51675e-06;0.0017578455077483946
3.51700e-06;0.0017438851940191323
3.51725e-06;0.0017299248802898936
3.51750e-06;0.0017159645665606313
3.51775e-06;0.0016927101493371002
3.51800e-06;0.0016688292861670524
3.51825e-06;0.001644948422996964
3.51850e-06;0.0016210675598268757
3.51875e-06;0.0015971866966567874
3.51900e-06;0.0015733058334867396
3.51925e-06;0.0015494249703166512
3.51950e-06;0.0015255441071465629
3.51975e-06;0.0015016632439765149
3.52000e-06;0.001471084354226259
3.52025e-06;0.0014318710662390482
3.52050e-06;0.0013926577782518378
3.52075e-06;0.0013534444902646935
3.52100e-06;0.0013142312022774829
3.52125e-06;0.0012750179142902722
3.52150e-06;0.0012358046263031281
3.52175e-06;0.0011965913383159175
3.52200e-06;0.001157378050328707
3.52225e-06;0.0011181647623415628
3.52250e-06;0.0010722389738229492
3.52275e-06;0.001025860745889122
3.52300e-06;0.0009794825179552946
3.52325e-06;0.0009331042900215458
3.52350e-06;0.0008867260620877183
3.52375e-06;0.000840347834153891
3.52400e-06;0.0007939696062201422
3.52425e-06;0.0007475913782863147
3.52450e-06;0.0007012131503524874
3.52475e-06;0.0006577140456768711
3.52500e-06;0.0006144090011488475
3.52525e-06;0.0005711039566207506
3.52550e-06;0.0005311281490559649
3.52575e-06;0.0004913767404343634
3.52600e-06;0.000454390298256634
3.52625e-06;0.00041980493243479303
3.52650e-06;0.000387863385625716
3.52675e-06;0.00035915386116243777
3.52700e-06;0.00033473211155638476
3.52725e-06;0.0003154710312642024
3.52750e-06;0.0003016103788644462
3.52775e-06;0.00029310240265049866
3.52800e-06;0.0002898827286249873
3.52825e-06;0.00029188695184892275
3.52850e-06;0.00029905140172834964
3.52875e-06;0.0003114939127286997
3.52900e-06;0.00032962506279909953
3.52925e-06;0.0003537409244740739
3.52950e-06;0.00038374085497104815
3.52975e-06;0.0004193441885234579
3.53000e-06;0.00046025983229460316
3.53025e-06;0.0005061967443044497
3.53050e-06;0.0005568642952388399
3.53075e-06;0.000612085582701415
3.53100e-06;0.0006718670429584168
3.53125e-06;0.0007361434646272072
3.53150e-06;0.0008063469944320932
3.53175e-06;0.0008769309137280148
3.53200e-06;0.0009536874262714786
3.53225e-06;0.0010308599871216369
3.53250e-06;0.0011135147743932695
3.53275e-06;0.0011965390775116572
3.53300e-06;0.0012795633806300451
3.53325e-06;0.0013668674327427623
3.53350e-06;0.0014544599506998701
3.53375e-06;0.001542052468656978
3.53400e-06;0.0016296449866140858
3.53425e-06;0.001715855723126492
3.53450e-06;0.001800285210919458
3.53475e-06;0.001884714698712424
3.53500e-06;0.0019691441865052474
3.53525e-06;0.002053573674298213
3.53550e-06;0.002128715212689797
3.53575e-06;0.0022032307199358545
3.53600e-06;0.0022777462271817853
3.53625e-06;0.0023396228745978186
3.53650e-06;0.002400647631079069
3.53675e-06;0.0024616723875602155
3.53700e-06;0.002513002288506061
3.53725e-06;0.002563678731809686
3.53750e-06;0.0026143551751132248
3.53775e-06;0.0026524941668384767
3.53800e-06;0.0026897881028000634
3.53825e-06;0.00272708203876165
3.53850e-06;0.0027643759747231736
3.53875e-06;0.0028016699106847604
3.53900e-06;0.0028389638466463476
3.53925e-06;0.002876257782607871
3.53950e-06;0.0029135517185694577
3.53975e-06;0.0029444199462124645
3.54000e-06;0.0029670048199571322
3.54025e-06;0.002989589693701762
3.54050e-06;0.0030121745674464295
3.54075e-06;0.0030347594411910977
3.54100e-06;0.0030573443149357273
3.54125e-06;0.003079929188680395
3.54150e-06;0.0031025140624250627
3.54175e-06;0.0031250989361696923
3.54200e-06;0.0031383137447128138
3.54225e-06;0.0031508969872988415
3.54250e-06;0.0031634802298848687
3.54275e-06;0.003176063472470875
3.54300e-06;0.0031886467150569024
3.54325e-06;0.00320122995764293
3.54350e-06;0.003213813200228936
3.54375e-06;0.0032263964428149634
3.54400e-06;0.003238979685400991
3.54425e-06;0.0032515629279870183
3.54450e-06;0.0032641461705730248
3.54475e-06;0.003276729413159052
3.54500e-06;0.0032893126557450797
3.54525e-06;0.0032929827249589664
3.54550e-06;0.0032960520238739595
3.54575e-06;0.003299121322788952
3.54600e-06;0.0033021906217039396
3.54625e-06;0.0033052599206189323
3.54650e-06;0.003308329219533925
3.54675e-06;0.0033113985184489176
3.54700e-06;0.003314467817363905
3.54725e-06;0.0033175371162788977
3.54750e-06;0.0033206064151938904
3.54775e-06;0.003323675714108878
3.54800e-06;0.0033267450130238705
3.54825e-06;0.003329814311938863
3.54850e-06;0.0033159786370429356
3.54875e-06;0.0033010035244018182
3.54900e-06;0.0032860284117606758
3.54925e-06;0.003271053299119533
3.54950e-06;0.0032560781864784155
3.54975e-06;0.0032411030738372726
3.55000e-06;0.00322612796119613
3.55025e-06;0.003211152848555013
3.55050e-06;0.00319617773591387
3.55075e-06;0.003181202623272727
3.55100e-06;0.0031599531790730833
3.55125e-06;0.0031306155201271274
3.55150e-06;0.003101277861181122
3.55175e-06;0.0030719402022351162
3.55200e-06;0.0030426025432891603
3.55225e-06;0.003013264884343155
3.55250e-06;0.0029839272253971492
3.55275e-06;0.0029545895664511435
3.55300e-06;0.0029252519075051876
3.55325e-06;0.0028959142485591822
3.55350e-06;0.0028665765896131764
3.55375e-06;0.0028357366282451856
3.55400e-06;0.0028047954079160942
3.55425e-06;0.002773854187587003
3.55450e-06;0.002742912967257964
3.55475e-06;0.0027119717469288726
3.55500e-06;0.002681030526599781
3.55525e-06;0.00265008930627069
3.55550e-06;0.002619148085941651
3.55575e-06;0.0025914380580144844
3.55600e-06;0.0025678933467893138
3.55625e-06;0.002544348635564183
3.55650e-06;0.0025208039243390123
3.55675e-06;0.0024972592131138416
3.55700e-06;0.002473714501888671
3.55725e-06;0.00245016979066354
3.55750e-06;0.0024266250794383695
3.55775e-06;0.002403080368213199
3.55800e-06;0.0023756710586017825
3.55825e-06;0.002348001265340836
3.55850e-06;0.002320331472079889
3.55875e-06;0.0022926616788189894
3.55900e-06;0.0022649918855580423
3.55925e-06;0.0022373220922970957
3.55950e-06;0.002209652299036149
3.55975e-06;0.0021819825057752492
3.56000e-06;0.002154312712514302
3.56025e-06;0.0021266429192533555
3.56050e-06;0.0020948942147324613
3.56075e-06;0.0020578874026510076
3.56100e-06;0.0020208805905695543
3.56125e-06;0.0019838737784881005
3.56150e-06;0.0019468669664067099
3.56175e-06;0.0019098601543252563
3.56200e-06;0.001872853342243803
3.56225e-06;0.0018358465301624122
3.56250e-06;0.0017988397180809586
3.56275e-06;0.001761832905999505
3.56300e-06;0.0017248260939181142
3.56325e-06;0.0016859415603435513
3.56350e-06;0.0016469304636184492
3.56375e-06;0.001607919366893347
3.56400e-06;0.001568908270168311
3.56425e-06;0.001529897173443209
3.56450e-06;0.0014908860767181066
3.56475e-06;0.0014544977495849496
3.56500e-06;0.0014214904238371154
3.56525e-06;0.0013884830980892815
3.56550e-06;0.0013554757723414474
3.56575e-06;0.0013224684465936692
3.56600e-06;0.001289461120845835
3.56625e-06;0.001256453795098001
3.56650e-06;0.001230665216875129
3.56675e-06;0.0012053632003884093
3.56700e-06;0.00118006118390169
3.56725e-06;0.0011547591674150133
3.56750e-06;0.0011286438430451302
3.56775e-06;0.001101480086861673
3.56800e-06;0.0010743163306782158
3.56825e-06;0.0010471525744948046
3.56850e-06;0.0010199888183113474
3.56875e-06;0.0009909903732904415
3.56900e-06;0.0009618682656282304
3.56925e-06;0.0009327461579659699
3.56950e-06;0.000899490883494225
3.56975e-06;0.0008659570231857965
3.57000e-06;0.0008324231628774247
3.57025e-06;0.0007963193155156445
3.57050e-06;0.0007600422445636861
3.57075e-06;0.000723765173611789
3.57100e-06;0.0006847685886904193
3.57125e-06;0.0006455887016887063
3.57150e-06;0.0006064088146870595
3.57175e-06;0.0005645424601459675
3.57200e-06;0.0005224950309370133
3.57225e-06;0.0004804476017280591
3.57250e-06;0.00043754204299588937
3.57275e-06;0.0003945786441758236
3.57300e-06;0.00035161524535575785
3.57325e-06;0.0003085158163908128
3.57350e-06;0.0002652410315310212
3.57375e-06;0.00022196624667122965
3.57400e-06;0.00017869146181143808
3.57425e-06;0.00013627594645477191
3.57450e-06;9.477614418694429e-05
3.57475e-06;5.4355844999333346e-05
3.57500e-06;1.5037479010932446e-05
3.57525e-06;-2.3145583140259675e-05
3.57550e-06;-6.0004930544644625e-05
3.57575e-06;-9.52752422094711e-05
3.57600e-06;-0.0001286867587901672
3.57625e-06;-0.0001599697855066954
3.57650e-06;-0.0001888557905204618
3.57675e-06;-0.00021535060274190958
3.57700e-06;-0.00023998030156386342
3.57725e-06;-0.00026328884948126233
3.57750e-06;-0.00028537343061361677
3.57775e-06;-0.00030609986875520736
3.57800e-06;-0.0003253205682738538
3.57825e-06;-0.00034288794364530984
3.57850e-06;-0.00035782470401055436
3.57875e-06;-0.00037259123088470916
3.57900e-06;-0.0003847281807939883
3.57925e-06;-0.0003966878906031298
3.57950e-06;-0.00040675582862341773
3.57975e-06;-0.00041669625646783035
3.58000e-06;-0.0004245412216359678
3.58025e-06;-0.0004322449473502043
3.58050e-06;-0.0004376414351224916
3.58075e-06;-0.0004428824092553945
3.58100e-06;-0.000446003499436599
3.58125e-06;-0.0004489817041085134
3.58150e-06;-0.0004519599087804278
3.58175e-06;-0.00045301163200553413
3.58200e-06;-0.00045393350553652904
3.58225e-06;-0.00045485537906752395
3.58250e-06;-0.00045325734415618065
3.58275e-06;-0.0004514894610789193
3.58300e-06;-0.000449721578001655
3.58325e-06;-0.00044795369492439067
3.58350e-06;-0.00044618581184712933
3.58375e-06;-0.000444417928769865
3.58400e-06;-0.00044110981030191386
3.58425e-06;-0.000437697876095346
3.58450e-06;-0.00043428594188877235
3.58475e-06;-0.0004308740076821987
3.58500e-06;-0.0004274620734756251
3.58525e-06;-0.0004240501392690572
3.58550e-06;-0.0004216160026006841
3.58575e-06;-0.00041924777194529326
3.58600e-06;-0.0004168795412899065
3.58625e-06;-0.00041451131063451567
3.58650e-06;-0.00041214307997912485
3.58675e-06;-0.0004097748493237341
3.58700e-06;-0.00040740661866834726
3.58725e-06;-0.00040503838801295643
3.58750e-06;-0.0004026701573575656
3.58775e-06;-0.00040030192670217885
3.58800e-06;-0.000397933696046788
3.58825e-06;-0.0003955654653913972
3.58850e-06;-0.00039319723473601044
3.58875e-06;-0.0003908290040806196
3.58900e-06;-0.0003902373871305739
3.58925e-06;-0.00038976551841199864
3.58950e-06;-0.00038929364969342425
3.58975e-06;-0.00038882178097484905
3.59000e-06;-0.0003883499122562738
3.59025e-06;-0.0003878780435376994
3.59050e-06;-0.0003874061748191242
3.59075e-06;-0.000386934306100549
3.59100e-06;-0.00038646243738197375
3.59125e-06;-0.00038599056866339936
3.59150e-06;-0.00038551869994482416
3.59175e-06;-0.00038504683122624896
3.59200e-06;-0.0003845749625076745
3.59225e-06;-0.0003841030937890993
3.59250e-06;-0.0003844332203270879
3.59275e-06;-0.0003848174033621864
3.59300e-06;-0.0003852015863972855
3.59325e-06;-0.00038558576943238464
3.59350e-06;-0.0003859699524674838
3.59375e-06;-0.00038635413550258224
3.59400e-06;-0.0003867383185376814
3.59425e-06;-0.0003871225015727805
3.59450e-06;-0.000387506684607879
3.59475e-06;-0.0003878908676429781
3.59500e-06;-0.00038827505067807723
3.59525e-06;-0.0003886592337131764
3.59550e-06;-0.00038904341674827483
3.59575e-06;-0.000389427599783374
3.59600e-06;-0.0003898182331824668
3.59625e-06;-0.0003901810264777784
3.59650e-06;-0.0003905073133816275
3.59675e-06;-0.0003901366932352028
3.59700e-06;-0.0003872598336989375
3.59725e-06;-0.0003802488228432961
3.59750e-06;-0.00036871974976676575
3.59775e-06;-0.0003528880538526101
3.59800e-06;-0.0003330039171409083
3.59825e-06;-0.0003093175434242213
3.59850e-06;-0.00028207739330700306
3.59875e-06;-0.0002511223830474713
3.59900e-06;-0.00021557176610432447
3.59925e-06;-0.00017465851408363531
3.59950e-06;-0.0001283949552330887
3.59975e-06;-7.716877902099838e-05
3.60000e-06;-2.138944953514213e-05
3.60025e-06;3.8533596880747293e-05
3.60050e-06;0.00010219206089898778
3.60075e-06;0.00016943415284797716
3.60100e-06;0.00024055889109796553
3.60125e-06;0.0003157940228686142
3.60150e-06;0.00039487905587035316
3.60175e-06;0.0004773184997835337
3.60200e-06;0.0005636823471878859
3.60225e-06;0.0006502965689878578
3.60250e-06;0.0007410242896999608
3.60275e-06;0.0008320292705832114
3.60300e-06;0.0009230342514663079
3.60325e-06;0.001017253670231673
3.60350e-06;0.001111689750193852
3.60375e-06;0.001206125830155871
3.60400e-06;0.0013005619101180501
3.60425e-06;0.0013919753051080993
3.60450e-06;0.0014831849635296753
3.60475e-06;0.001574394621951097
3.60500e-06;0.001665604280372673
3.60525e-06;0.0017487059299312424
3.60550e-06;0.001831261079302528
3.60575e-06;0.001913816228673953
3.60600e-06;0.001986921153344603
3.60625e-06;0.002059389109105261
3.60650e-06;0.002121812149843412
3.60675e-06;0.002183558138048487
3.60700e-06;0.0022335196747842122
3.60725e-06;0.0022826869098555892
3.60750e-06;0.0023318541449270495
3.60775e-06;0.00236749372025666
3.60800e-06;0.0024022214973005796
3.60825e-06;0.002436949274344558
3.60850e-06;0.0024567091635148215
3.60875e-06;0.002475460179401486
3.60900e-06;0.0024942111952881187
3.60925e-06;0.0024998705170973037
3.60950e-06;0.002504647425802941
3.60975e-06;0.0025094243345085703
3.61000e-06;0.0025020648781666223
3.61025e-06;0.0024938874003002064
3.61050e-06;0.0024857099224337904
3.61075e-06;0.002466257613401811
3.61100e-06;0.0024460453523955637
3.61125e-06;0.0024258330913893163
3.61150e-06;0.002393433714162473
3.61175e-06;0.0023602128946544373
3.61200e-06;0.002326992075146401
3.61225e-06;0.0022937712556384215
3.61250e-06;0.0022605504361303858
3.61275e-06;0.0022273296166223496
3.61300e-06;0.002184742442726113
3.61325e-06;0.002141523952989868
3.61350e-06;0.002098305463253549
3.61375e-06;0.0020550869735172306
3.61400e-06;0.0020118684837809853
3.61425e-06;0.0019686499940446667
3.61450e-06;0.00192620945871551
3.61475e-06;0.0018838213594697829
3.61500e-06;0.0018414332602241276
3.61525e-06;0.0017990451609784005
3.61550e-06;0.0017566570617326735
3.61575e-06;0.0017142689624870182
3.61600e-06;0.0016811002355429645
3.61625e-06;0.0016485529174768048
3.61650e-06;0.0016160055994107
3.61675e-06;0.00158345828134454
3.61700e-06;0.0015509109632783802
3.61725e-06;0.0015183636452122202
3.61750e-06;0.0014847714512756344
3.61775e-06;0.0014511088300776787
3.61800e-06;0.0014174462088797227
3.61825e-06;0.0013837835876818238
3.61850e-06;0.0013501209664838678
3.61875e-06;0.0013164583452859118
3.61900e-06;0.0012827957240879558
3.61925e-06;0.001241940074524254
3.61950e-06;0.0012005995967596475
3.61975e-06;0.001159259118995041
3.62000e-06;0.0011179186412305045
3.62025e-06;0.001076578163465898
3.62050e-06;0.0010352376857012916
3.62075e-06;0.0009938972079367552
3.62100e-06;0.0009468329358020838
3.62125e-06;0.000899382865532678
3.62150e-06;0.0008519327952632721
3.62175e-06;0.0008010435241266479
3.62200e-06;0.0007499224422025819
3.62225e-06;0.000698801360278516
3.62250e-06;0.0006476802783545367
3.62275e-06;0.0006021861691231078
3.62300e-06;0.000561791718900025
3.62325e-06;0.0005065670572009728
3.62350e-06;0.0004542707545128866
3.62375e-06;0.0003987307526330017
3.62400e-06;0.00034315497318059327
3.62425e-06;0.0002925447783608021
3.62450e-06;0.00024161968826769015
3.62475e-06;0.0001929390825743793
3.62500e-06;0.00014542324211748076
3.62525e-06;9.924936456843399e-05
3.62550e-06;6.495260297486177e-05
3.62575e-06;1.0208847850014132e-05
3.62600e-06;-2.9767749947829153e-05
3.62625e-06;-6.651129303482121e-05
3.62650e-06;-0.00010185069652374266
3.62675e-06;-0.00013419403741172337
3.62700e-06;-0.0001642743248946394
3.62725e-06;-0.00019288507052838425
3.62750e-06;-0.00022046058186999274
3.62775e-06;-0.00024717661319997516
3.62800e-06;-0.00027224841364809337
3.62825e-06;-0.00029500014730175403
3.62850e-06;-0.000315549683204575
3.62875e-06;-0.00033403260627698787
3.62900e-06;-0.00035092268421380143
3.62925e-06;-0.0003665073055917482
3.62950e-06;-0.000381616078960159
3.62975e-06;-0.00039563541982340784
3.63000e-06;-0.00040902431688289315
3.63025e-06;-0.00042049324689015917
3.63050e-06;-0.0004308511109748127
3.63075e-06;-0.00043963138159143673
3.63100e-06;-0.0004474987144885724
3.63125e-06;-0.00045440315567057786
3.63150e-06;-0.00046075038095105646
3.63175e-06;-0.00046709760623153505
3.63200e-06;-0.00047200727971373783
3.63225e-06;-0.00047608505620414036
3.63250e-06;-0.0004801628326945429
3.63275e-06;-0.0004828969797562594
3.63300e-06;-0.0004848535817714837
3.63325e-06;-0.00048681018378670803
3.63350e-06;-0.0004879703617161008
3.63375e-06;-0.0004886696569127835
3.63400e-06;-0.0004893689521094661
3.63425e-06;-0.0004900682473061488
3.63450e-06;-0.0004907675425028303
3.63475e-06;-0.0004907506286267151
3.63500e-06;-0.000490319251651685
3.63525e-06;-0.0004898878746766556
3.63550e-06;-0.0004894564977016254
3.63575e-06;-0.0004890251207265953
3.63600e-06;-0.0004886132945248474
3.63625e-06;-0.0004882127821620174
3.63650e-06;-0.00048740123345679994
3.63675e-06;-0.0004863518220901054
3.63700e-06;-0.0004829575623210547
3.63725e-06;-0.00047547085762186065
3.63750e-06;-0.00046369237062118373
3.63775e-06;-0.00044781069762109325
3.63800e-06;-0.0004280164513553748
3.63825e-06;-0.00040451073424770654
3.63850e-06;-0.0003775355855920482
3.63875e-06;-0.0003469093268005102
3.63900e-06;-0.00031183547948338626
3.63925e-06;-0.0002716305864300846
3.63950e-06;-0.00022628565857552347
3.63975e-06;-0.00017616470373694757
3.64000e-06;-0.00012163299079910542
3.64025e-06;-6.306233794045507e-05
3.64050e-06;-8.501697292451514e-07
3.64075e-06;6.487153028414923e-05
3.64100e-06;0.0001343558296003683
3.64125e-06;0.0002077850045528938
3.64150e-06;0.00028491883052502516
3.64175e-06;0.0003652834291086706
3.64200e-06;0.00044840420604222735
3.64225e-06;0.0005343095136105699
3.64250e-06;0.0006212769831528572
3.64275e-06;0.0007104408713071732
3.64300e-06;0.0008008758051643915
3.64325e-06;0.0008913107390217628
3.64350e-06;0.0009826641229182158
3.64375e-06;0.0010745490047581476
3.64400e-06;0.001166433886598235
3.64425e-06;0.0012583187684383225
3.64450e-06;0.0013466428009277858
3.64475e-06;0.0014329062051554329
3.64500e-06;0.001519169609383226
3.64525e-06;0.0016054330136110193
3.64550e-06;0.0016849969089148505
3.64575e-06;0.0017606838647393449
