Time(s);Current(A)
7.00000e-06;0.0017499940142537515
7.00025e-06;0.0017406482028006962
7.00050e-06;0.001731302391347641
7.00075e-06;0.001721956579894554
7.00100e-06;0.0017126107684414988
7.00125e-06;0.0017032649569884435
7.00150e-06;0.0016939191455353567
7.00175e-06;0.0016845733340823013
7.00200e-06;0.0016752275226292461
7.00225e-06;0.0016821478767826126
7.00250e-06;0.0016981302399863222
7.00275e-06;0.0017141126031900863
7.00300e-06;0.001730094966393796
7.00325e-06;0.0017460773295975057
7.00350e-06;0.0017620596928012698
7.00375e-06;0.0017780420560049794
7.00400e-06;0.0017940244192086892
7.00425e-06;0.0018100067824124533
7.00450e-06;0.0018259891456161629
7.00475e-06;0.0018419715088198727
7.00500e-06;0.0018670866115704907
7.00525e-06;0.0018972896354959143
7.00550e-06;0.001927492659421338
7.00575e-06;0.001957695683346864
7.00600e-06;0.0019878987072722877
7.00625e-06;0.0020181017311977113
7.00650e-06;0.0020483047551232373
7.00675e-06;0.0020797332006596684
7.00700e-06;0.0021118443382329853
7.00725e-06;0.0021439554758061934
7.00750e-06;0.0021760666133794015
7.00775e-06;0.002208177750952719
7.00800e-06;0.002240288888525927
7.00825e-06;0.002272400026099135
7.00850e-06;0.0022987843860407973
7.00875e-06;0.002321978313032394
7.00900e-06;0.0023451722400239907
7.00925e-06;0.002368366167015666
7.00950e-06;0.0023915600940072625
7.00975e-06;0.0024147540209988588
7.01000e-06;0.0024379479479905344
7.01025e-06;0.0024611418749821306
7.01050e-06;0.0024843358019737273
7.01075e-06;0.0025061993044981994
7.01100e-06;0.0025200382922957007
7.01125e-06;0.0025338772800932484
7.01150e-06;0.0025477162678907497
7.01175e-06;0.002561555255688251
7.01200e-06;0.002575394243485799
7.01225e-06;0.0025892332312833
7.01250e-06;0.0026030722190808014
7.01275e-06;0.0026169112068783495
7.01300e-06;0.0026307501946758504
7.01325e-06;0.0026400552820504243
7.01350e-06;0.0026468344977690493
7.01375e-06;0.002653613713487651
7.01400e-06;0.0026603929292062524
7.01425e-06;0.0026671721449248774
7.01450e-06;0.002673951360643479
7.01475e-06;0.0026807305763620805
7.01500e-06;0.0026875097920807055
7.01525e-06;0.002694289007799307
7.01550e-06;0.0027010682235179316
7.01575e-06;0.0027078474392365336
7.01600e-06;0.002714626654955135
7.01625e-06;0.0027214058706737597
7.01650e-06;0.0027281850863923617
7.01675e-06;0.0027349643021109633
7.01700e-06;0.002741743517829588
7.01725e-06;0.00274852273354819
7.01750e-06;0.0027553019492667914
7.01775e-06;0.002762081164985416
7.01800e-06;0.002768860380704018
7.01825e-06;0.0027756395964226195
7.01850e-06;0.002782418812141244
7.01875e-06;0.002789198027859846
7.01900e-06;0.0027959772435784476
7.01925e-06;0.0028027564592970726
7.01950e-06;0.002808745759591836
7.01975e-06;0.002809970649650956
7.02000e-06;0.0028111955397100716
7.02025e-06;0.0028124204297691876
7.02050e-06;0.0028136453198283075
7.02075e-06;0.002814870209887423
7.02100e-06;0.0028160950999465387
7.02125e-06;0.0028173199900056586
7.02150e-06;0.0028185448800647746
7.02175e-06;0.00281976977012389
7.02200e-06;0.00282099466018301
7.02225e-06;0.002822219550242126
7.02250e-06;0.0028234444403012417
7.02275e-06;0.0028246693303603616
7.02300e-06;0.002825894220419477
7.02325e-06;0.002827119110478593
7.02350e-06;0.002828344000537713
7.02375e-06;0.0028295688905968287
7.02400e-06;0.0028307937806559486
7.02425e-06;0.0028320186707150646
7.02450e-06;0.00283324356077418
7.02475e-06;0.0028344684508333
7.02500e-06;0.002835693340892416
7.02525e-06;0.0028369182309515317
7.02550e-06;0.0028381431210106516
7.02575e-06;0.002839368011069767
7.02600e-06;0.0028395528573335175
7.02625e-06;0.0028391582870027376
7.02650e-06;0.0028387637166719585
7.02675e-06;0.00283836914634118
7.02700e-06;0.0028379745760104
7.02725e-06;0.002837580005679621
7.02750e-06;0.0028371854353488424
7.02775e-06;0.0028367908650180624
7.02800e-06;0.0028363962946872834
7.02825e-06;0.0028360017243565035
7.02850e-06;0.002835607154025725
7.02875e-06;0.002835212583694946
7.02900e-06;0.002834818013364166
7.02925e-06;0.002834423443033387
7.02950e-06;0.0028340288727026083
7.02975e-06;0.0028336343023718283
7.03000e-06;0.0028332397320410493
7.03025e-06;0.0028328451617102707
7.03050e-06;0.002834438029503614
7.03075e-06;0.002837138114737925
7.03100e-06;0.0028398381999722353
7.03125e-06;0.0028425382852065553
7.03150e-06;0.0028452383704408663
7.03175e-06;0.0028479384556751772
7.03200e-06;0.0028506385409094973
7.03225e-06;0.002853338626143808
7.03250e-06;0.0028560387113781283
7.03275e-06;0.002858738796612439
7.03300e-06;0.00286143888184675
7.03325e-06;0.00286413896708107
7.03350e-06;0.002866839052315381
7.03375e-06;0.002869539137549692
7.03400e-06;0.002872239222784012
7.03425e-06;0.0028749393080183226
7.03450e-06;0.0028776393932526336
7.03475e-06;0.0028803394784869536
7.03500e-06;0.002885036224377094
7.03525e-06;0.002890845325653193
7.03550e-06;0.002896654426929313
7.03575e-06;0.0029024635282054122
7.03600e-06;0.002908272629481512
7.03625e-06;0.0029140817307576313
7.03650e-06;0.002919890832033731
7.03675e-06;0.0029256999333098503
7.03700e-06;0.00293150903458595
7.03725e-06;0.00293731813586205
7.03750e-06;0.0029425145177880874
7.03775e-06;0.0029473695489356864
7.03800e-06;0.002952224580083286
7.03825e-06;0.0029570796112309014
7.03850e-06;0.002961934642378501
7.03875e-06;0.0029667896735261
7.03900e-06;0.0029716447046737155
7.03925e-06;0.002976499735821315
7.03950e-06;0.002981354766968914
7.03975e-06;0.0029862097981165295
7.04000e-06;0.0029794144185185277
7.04025e-06;0.0029661285032842664
7.04050e-06;0.00295284258804996
7.04075e-06;0.0029395566728156984
7.04100e-06;0.002926270757581392
7.04125e-06;0.002912984842347131
7.04150e-06;0.0028996989271128696
7.04175e-06;0.0028864130118785632
7.04200e-06;0.002873127096644302
7.04225e-06;0.0028598411814100403
7.04250e-06;0.0028420611665910763
7.04275e-06;0.0027971747889953638
7.04300e-06;0.002752288411399651
7.04325e-06;0.0027074020338037864
7.04350e-06;0.002662515656208074
7.04375e-06;0.0026176292786123613
7.04400e-06;0.002572742901016497
7.04425e-06;0.0025278565234207843
7.04450e-06;0.0024829701458250718
7.04475e-06;0.002438083768229207
7.04500e-06;0.0023931973906334944
7.04525e-06;0.002337611093866618
7.04550e-06;0.0022760637878107936
7.04575e-06;0.00221451648175497
7.04600e-06;0.0021529691756989374
7.04625e-06;0.002091421869643113
7.04650e-06;0.0020298745635872893
7.04675e-06;0.0019677944158385595
7.04700e-06;0.0019054174177840749
7.04725e-06;0.0018430404197295903
7.04750e-06;0.0017806634216748945
7.04775e-06;0.0017182864236204099
7.04800e-06;0.0016559094255659255
7.04825e-06;0.0015976415961816866
7.04850e-06;0.001541663017045454
7.04875e-06;0.0014856844379092214
7.04900e-06;0.0014340277554115179
7.04925e-06;0.0013847788355892423
7.04950e-06;0.0013400998538146205
7.04975e-06;0.0012979668205390163
7.05000e-06;0.001259755560437522
7.05025e-06;0.0012237291510758886
7.05050e-06;0.001190739834693495
7.05075e-06;0.0011594425067428982
7.05100e-06;0.0011315998650468528
7.05125e-06;0.001105681856287235
7.05150e-06;0.0010836577711815585
7.05175e-06;0.0010638030216285857
7.05200e-06;0.0010472882706417592
7.05225e-06;0.00103263425917615
7.05250e-06;0.0010212992625665057
7.05275e-06;0.001011813315287867
7.05300e-06;0.0010023273680092285
7.05325e-06;0.0009970687162251459
7.05350e-06;0.0009941651240732456
7.05375e-06;0.0009912615319213358
7.05400e-06;0.0009919200616229377
7.05425e-06;0.0009945630774794818
7.05450e-06;0.000997206093336035
7.05475e-06;0.00100248503201377
7.05500e-06;0.001009232464066859
7.05525e-06;0.0010159798961199712
7.05550e-06;0.0010259296348005848
7.05575e-06;0.0010376634037382673
7.05600e-06;0.0010493971726759895
7.05625e-06;0.001061130941613672
7.05650e-06;0.0010728647105513545
7.05675e-06;0.0010845984794890767
7.05700e-06;0.0010966306412230095
7.05725e-06;0.001110462572460997
7.05750e-06;0.0011242945036990313
7.05775e-06;0.0011381264349370186
7.05800e-06;0.0011519583661750061
7.05825e-06;0.0011657902974130405
7.05850e-06;0.001179622228651028
7.05875e-06;0.0011917537029788763
7.05900e-06;0.0012029378393621118
7.05925e-06;0.0012141219757453472
7.05950e-06;0.0012253061121286206
7.05975e-06;0.001236490248511856
7.06000e-06;0.0012480076072080672
7.06025e-06;0.001259710606680725
7.06050e-06;0.0012714136061533431
7.06075e-06;0.0012831166056259612
7.06100e-06;0.001294819605098619
7.06125e-06;0.0013108381213649972
7.06150e-06;0.0013292608460441096
7.06175e-06;0.0013476835707232845
7.06200e-06;0.001366106295402397
7.06225e-06;0.0013845290200815094
7.06250e-06;0.0014029517447606843
7.06275e-06;0.0014213744694397967
7.06300e-06;0.0014397971941189716
7.06325e-06;0.001458219918798084
7.06350e-06;0.0014766426434771965
7.06375e-06;0.0015008911887295887
7.06400e-06;0.0015283853445314213
7.06425e-06;0.001555879500333254
7.06450e-06;0.00158337365613518
7.06475e-06;0.0016108678119370126
7.06500e-06;0.0016383619677388453
7.06525e-06;0.0016658561235407712
7.06550e-06;0.0016933502793426039
7.06575e-06;0.0017208444351444366
7.06600e-06;0.0017483385909463623
7.06625e-06;0.0017771931839730007
7.06650e-06;0.0018068056872979532
7.06675e-06;0.0018364181906230061
7.06700e-06;0.0018660306939479584
7.06725e-06;0.0018956431972730113
7.06750e-06;0.0019252557005979638
7.06775e-06;0.001954868203922916
7.06800e-06;0.001983591895760508
7.06825e-06;0.0020069546813382766
7.06850e-06;0.0020303174669160456
7.06875e-06;0.0020536802524938934
7.06900e-06;0.0020770430380716623
7.06925e-06;0.0021004058236494313
7.06950e-06;0.002123768609227279
7.06975e-06;0.0021471313948050476
7.07000e-06;0.0021576723830346242
7.07025e-06;0.00216107024692508
7.07050e-06;0.002164468110815524
7.07075e-06;0.002167865974705968
7.07100e-06;0.0021712638385964237
7.07125e-06;0.0021746617024868678
7.07150e-06;0.0021780595663773235
7.07175e-06;0.0021814574302677675
7.07200e-06;0.0021848552941582115
7.07225e-06;0.0021882531580486673
7.07250e-06;0.002187918465910708
7.07275e-06;0.002165070695064396
7.07300e-06;0.002142222924218007
7.07325e-06;0.0021193751533716944
7.07350e-06;0.0020965273825253824
7.07375e-06;0.0020736796116789928
7.07400e-06;0.0020508318408326807
7.07425e-06;0.0020279840699863687
7.07450e-06;0.002005136299139979
7.07475e-06;0.001982288528293667
7.07500e-06;0.001959440757447355
7.07525e-06;0.0019278276032627733
7.07550e-06;0.0018913311849494444
7.07575e-06;0.0018548347666359922
7.07600e-06;0.0018183383483226635
7.07625e-06;0.0017818419300093349
7.07650e-06;0.0017453455116958824
7.07675e-06;0.001708680401478875
7.07700e-06;0.0016709978184964076
7.07725e-06;0.0016333152355138124
7.07750e-06;0.0015956326525313452
7.07775e-06;0.0015579500695488777
7.07800e-06;0.0015202674865662825
7.07825e-06;0.001482584903583815
7.07850e-06;0.001447888506134249
7.07875e-06;0.0014148557361759588
7.07900e-06;0.0013818229662177807
7.07925e-06;0.0013526609182111498
7.07950e-06;0.0013256552799047186
7.07975e-06;0.001298649641598379
7.08000e-06;0.0012766450045633337
7.08025e-06;0.0012574264647442124
7.08050e-06;0.001243306517893269
7.08075e-06;0.0012320270373614192
7.08100e-06;0.0012258406920394884
7.08125e-06;0.001222491772476493
7.08150e-06;0.001224211017009965
7.08175e-06;0.0012287537756982957
7.08200e-06;0.0012387177705883972
7.08225e-06;0.0012517019788854257
7.08250e-06;0.0012701841684379064
7.08275e-06;0.0012917293266714
7.08300e-06;0.001318305715678044
7.08325e-06;0.0013476850429938812
7.08350e-06;0.0013827015493237844
7.08375e-06;0.0014208585725029481
7.08400e-06;0.0014590155956819824
7.08425e-06;0.0015033461908492197
7.08450e-06;0.0015511161316178986
7.08475e-06;0.0015988860723865777
7.08500e-06;0.001652935799600048
7.08525e-06;0.0017104840453255803
7.08550e-06;0.0017680322910511126
7.08575e-06;0.00182558053677684
7.08600e-06;0.0018831287825023723
7.08625e-06;0.0019406770282279048
7.08650e-06;0.002000973840919862
7.08675e-06;0.0020628019019268253
7.08700e-06;0.0021246299629337885
7.08725e-06;0.0021864580239409613
7.08750e-06;0.0022482860849479245
7.08775e-06;0.0023101141459548878
7.08800e-06;0.0023648145241178696
7.08825e-06;0.00241554401400314
7.08850e-06;0.002466273503888583
7.08875e-06;0.0025170029937738535
7.08900e-06;0.002567732483659124
7.08925e-06;0.0026184619735445665
7.08950e-06;0.002669191463429837
7.08975e-06;0.0027199209533151076
7.09000e-06;0.0027597400291815622
7.09025e-06;0.002793480827425815
7.09050e-06;0.002827221625670068
7.09075e-06;0.002860962423914435
7.09100e-06;0.002894703222158688
7.09125e-06;0.0029284440204029407
7.09150e-06;0.0029621848186473076
7.09175e-06;0.0029959256168915604
7.09200e-06;0.0030232956972037284
7.09225e-06;0.003047116600356034
7.09250e-06;0.0030709375035082587
7.09275e-06;0.003094758406660564
7.09300e-06;0.003118579309812789
7.09325e-06;0.0031424002129650137
7.09350e-06;0.003166221116117319
7.09375e-06;0.003190042019269544
7.09400e-06;0.003213862922421769
7.09425e-06;0.0032376838255740743
7.09450e-06;0.003261504728726299
7.09475e-06;0.003285325631878524
7.09500e-06;0.0033091465350308293
7.09525e-06;0.003332967438183054
7.09550e-06;0.003356788341335279
7.09575e-06;0.003379490933047875
7.09600e-06;0.0033954483792759888
7.09625e-06;0.0034114058255041023
7.09650e-06;0.00342736327173227
7.09675e-06;0.0034433207179603836
7.09700e-06;0.0034592781641885513
7.09725e-06;0.0034752356104166653
7.09750e-06;0.003491193056644779
7.09775e-06;0.0035071505028729465
7.09800e-06;0.0035231079491010605
7.09825e-06;0.003539065395329174
7.09850e-06;0.0035550228415573417
7.09875e-06;0.0035709802877854553
7.09900e-06;0.0035869377340135692
7.09925e-06;0.003602895180241737
7.09950e-06;0.0036188526264698505
7.09975e-06;0.0036209585615766715
7.10000e-06;0.003615347710691925
7.10025e-06;0.003609736859807198
7.10050e-06;0.003604126008922471
7.10075e-06;0.003598515158037725
7.10100e-06;0.0035929043071529975
7.10125e-06;0.003587293456268251
7.10150e-06;0.0035816826053835242
7.10175e-06;0.003576071754498797
7.10200e-06;0.0035652796611492675
7.10225e-06;0.0035232366720615426
7.10250e-06;0.003481193682973818
7.10275e-06;0.0034391506938859506
7.10300e-06;0.003397107704798226
7.10325e-06;0.0033550647157105013
7.10350e-06;0.0033130217266226342
7.10375e-06;0.0032709787375349094
7.10400e-06;0.003228935748447185
7.10425e-06;0.003186892759359318
7.10450e-06;0.003128946246925137
7.10475e-06;0.0030621397563204253
7.10500e-06;0.0029953332657154876
7.10525e-06;0.002928526775110776
7.10550e-06;0.0028617202845058385
7.10575e-06;0.0027949137939011267
7.10600e-06;0.002727123006961915
7.10625e-06;0.0026533953926437355
7.10650e-06;0.0025796677783258056
7.10675e-06;0.0025059401640078758
7.10700e-06;0.0024322125496896965
7.10725e-06;0.0023584849353717667
7.10750e-06;0.002284757321053837
7.10775e-06;0.002218590076520163
7.10800e-06;0.0021566347735664554
7.10825e-06;0.0020946794706127475
7.10850e-06;0.00203272416765883
7.10875e-06;0.001970768864705122
7.10900e-06;0.0019088135617514146
7.10925e-06;0.0018468582587974967
7.10950e-06;0.001784902955843789
7.10975e-06;0.0017266913435610297
7.11000e-06;0.0016910599690502506
7.11025e-06;0.0016554285945394713
7.11050e-06;0.0016197972200285714
7.11075e-06;0.0015841658455177923
7.11100e-06;0.001548534471007013
7.11125e-06;0.001512903096496113
7.11150e-06;0.001477271721985334
7.11175e-06;0.0014416403474745549
7.11200e-06;0.0014162072187894283
7.11225e-06;0.0013964556132116614
7.11250e-06;0.0013767040076338945
7.11275e-06;0.0013608065762847153
7.11300e-06;0.001347056335767556
7.11325e-06;0.0013333060952503966
7.11350e-06;0.0013237910502725478
7.11375e-06;0.0013166354661011334
7.11400e-06;0.0013094798819296948
7.11425e-06;0.0013052777923356295
7.11450e-06;0.0013027211178427737
7.11475e-06;0.0013001644433499092
7.11500e-06;0.0013014938494328753
7.11525e-06;0.0013049882216251134
7.11550e-06;0.0013084825938173633
7.11575e-06;0.0013119769660096014
7.11600e-06;0.0013154713382018393
7.11625e-06;0.0013189657103940893
7.11650e-06;0.0013224600825863272
7.11675e-06;0.0013286808560550355
7.11700e-06;0.0013364205291576023
7.11725e-06;0.001344160202260143
7.11750e-06;0.0013518998753626835
7.11775e-06;0.0013596395484652504
7.11800e-06;0.0013673792215677912
7.11825e-06;0.001375118894670358
7.11850e-06;0.001381978426808922
7.11875e-06;0.0013883476254813955
7.11900e-06;0.0013947168241538906
7.11925e-06;0.001401086022826364
7.11950e-06;0.0014074552214988374
7.11975e-06;0.0014138244201713323
7.12000e-06;0.0014201936188438058
7.12025e-06;0.0014265628175162792
7.12050e-06;0.0014329320161887743
7.12075e-06;0.0014393012148612478
7.12100e-06;0.0014454936718805392
7.12125e-06;0.0014515876647322344
7.12150e-06;0.001457681657583909
7.12175e-06;0.0014637756504355835
7.12200e-06;0.0014698696432872786
7.12225e-06;0.0014759636361389532
7.12250e-06;0.0014820576289906484
7.12275e-06;0.001488151621842323
7.12300e-06;0.0014942456146939975
7.12325e-06;0.0015003396075456928
7.12350e-06;0.0015074032122840701
7.12375e-06;0.0015150069954445182
7.12400e-06;0.001522610778604992
7.12425e-06;0.0015302145617654402
7.12450e-06;0.0015378183449258882
7.12475e-06;0.001545422128086362
7.12500e-06;0.00155302591124681
7.12525e-06;0.001560629694407258
7.12550e-06;0.001568233477567732
7.12575e-06;0.00157583726072818
7.12600e-06;0.001583441043888628
7.12625e-06;0.001591044827049102
7.12650e-06;0.00159864861020955
7.12675e-06;0.001605611293676239
7.12700e-06;0.001612216815452021
7.12725e-06;0.0016188223372278032
7.12750e-06;0.0016254278590036076
7.12775e-06;0.0016320333807793898
7.12800e-06;0.0016386389025551719
7.12825e-06;0.0016452444243309765
7.12850e-06;0.0016518499461067586
7.12875e-06;0.0016584554678825407
7.12900e-06;0.0016650609896583452
7.12925e-06;0.0016716665114341273
7.12950e-06;0.0016782720332099094
7.12975e-06;0.0016848775549857138
7.13000e-06;0.0016915523828158572
7.13025e-06;0.001698265821594972
7.13050e-06;0.0017049792603741098
7.13075e-06;0.0017116926991532248
7.13100e-06;0.0017184061379323624
7.13125e-06;0.0017251195767114774
7.13150e-06;0.0017318330154905922
7.13175e-06;0.00173854645426973
7.13200e-06;0.0017452598930488448
7.13225e-06;0.0017519733318279598
7.13250e-06;0.0017586867706070976
7.13275e-06;0.0017654002093862124
7.13300e-06;0.0017721136481653275
7.13325e-06;0.001778827086944465
7.13350e-06;0.00178554052572358
7.13375e-06;0.0017927751660464137
7.13400e-06;0.0018031534567953345
7.13425e-06;0.0018135317475442203
7.13450e-06;0.001823910038293106
7.13475e-06;0.001834288329042027
7.13500e-06;0.0018446666197909126
7.13525e-06;0.0018550449105398336
7.13550e-06;0.0018654232012887194
7.13575e-06;0.001875801492037605
7.13600e-06;0.001886179782786526
7.13625e-06;0.0018965580735354117
7.13650e-06;0.0019069363642842973
7.13675e-06;0.0019173146550332182
7.13700e-06;0.001927692945782104
7.13725e-06;0.0019380712365309899
7.13750e-06;0.0019484495272799106
7.13775e-06;0.0019574761003540004
7.13800e-06;0.001965749620860919
7.13825e-06;0.001974023141367865
7.13850e-06;0.0019822966618747834
7.13875e-06;0.001990570182381702
7.13900e-06;0.0019988437028886485
7.13925e-06;0.002007117223395567
7.13950e-06;0.0020153907439025135
7.13975e-06;0.002023664264409432
7.14000e-06;0.0020319377849163504
7.14025e-06;0.002034522990451066
7.14050e-06;0.0020339391908951684
7.14075e-06;0.0020333553913392706
7.14100e-06;0.002032771591783371
7.14125e-06;0.0020321877922274733
7.14150e-06;0.0020316039926715755
7.14175e-06;0.002031020193115676
7.14200e-06;0.002030436393559778
7.14225e-06;0.0020298525940038803
7.14250e-06;0.002029268794447981
7.14275e-06;0.0020218125289439607
7.14300e-06;0.0020105275585106546
7.14325e-06;0.0019992425880773104
7.14350e-06;0.001987957617644004
7.14375e-06;0.0019766726472106597
7.14400e-06;0.001965387676777353
7.14425e-06;0.001954102706344047
7.14450e-06;0.0019428177359107027
7.14475e-06;0.0019315327654773967
7.14500e-06;0.001919405269907389
7.14525e-06;0.0019021960462887008
7.14550e-06;0.0018849868226700711
7.14575e-06;0.0018677775990514414
7.14600e-06;0.0018505683754327532
7.14625e-06;0.0018333591518141235
7.14650e-06;0.0018161499281954935
7.14675e-06;0.0017989407045768055
7.14700e-06;0.0017817314809581758
7.14725e-06;0.0017645222573395459
7.14750e-06;0.0017474317529654472
7.14775e-06;0.001730407388017974
7.14800e-06;0.0017133830230704433
7.14825e-06;0.0016963586581229702
