Time(s);Current(A)
9.50000e-06;0.007892762495319587
9.50025e-06;0.007901803774873957
9.50050e-06;0.007910845054428267
9.50075e-06;0.007919886333982638
9.50100e-06;0.007928927613537008
9.50125e-06;0.007937968893091316
9.50150e-06;0.007947010172645687
9.50175e-06;0.007956051452200057
9.50200e-06;0.007965092731754367
9.50225e-06;0.007974134011308738
9.50250e-06;0.007983175290863108
9.50275e-06;0.007992216570417418
9.50300e-06;0.008001257849971789
9.50325e-06;0.00801029912952616
9.50350e-06;0.00801934040908053
9.50375e-06;0.0080255681147682
9.50400e-06;0.008028103228034737
9.50425e-06;0.008030638341301273
9.50450e-06;0.008033173454567792
9.50475e-06;0.008035708567834329
9.50500e-06;0.008038243681100865
9.50525e-06;0.008040778794367385
9.50550e-06;0.00804331390763392
9.50575e-06;0.008045849020900456
9.50600e-06;0.008048384134166975
9.50625e-06;0.008050919247433511
9.50650e-06;0.008053454360700048
9.50675e-06;0.008055989473966567
9.50700e-06;0.008058524587233103
9.50725e-06;0.008061059700499638
9.50750e-06;0.008063594813766157
9.50775e-06;0.008066129927032694
9.50800e-06;0.00806866504029923
9.50825e-06;0.008060278483338693
9.50850e-06;0.008051100687416924
9.50875e-06;0.008041922891495157
9.50900e-06;0.008032745095573451
9.50925e-06;0.008023567299651682
9.50950e-06;0.008014389503729916
9.50975e-06;0.00800521170780821
9.51000e-06;0.007996033911886441
9.51025e-06;0.007986856115964674
9.51050e-06;0.007977678320042968
9.51075e-06;0.0079685005241212
9.51100e-06;0.007959322728199431
9.51125e-06;0.007933466192918627
9.51150e-06;0.007906401338018568
9.51175e-06;0.007879336483118511
9.51200e-06;0.007852271628218454
9.51225e-06;0.00782520677331858
9.51250e-06;0.007798141918418522
9.51275e-06;0.007771077063518465
9.51300e-06;0.007744012208618591
9.51325e-06;0.007716947353718534
9.51350e-06;0.0076898824988184756
9.51375e-06;0.007662817643918602
9.51400e-06;0.007635752789018544
9.51425e-06;0.007603542862926516
9.51450e-06;0.007570960193407831
9.51475e-06;0.007538377523888924
9.51500e-06;0.007505794854370018
9.51525e-06;0.007473212184851332
9.51550e-06;0.007440629515332426
9.51575e-06;0.00740804684581352
9.51600e-06;0.007375464176294834
9.51625e-06;0.0073428815067759275
9.51650e-06;0.007310298837257021
9.51675e-06;0.007277716167738335
9.51700e-06;0.007245133498219429
9.51725e-06;0.007227855925631785
9.51750e-06;0.0072116871568037805
9.51775e-06;0.007195518387975667
9.51800e-06;0.0071793496191475525
9.51825e-06;0.007163180850319548
9.51850e-06;0.007147012081491435
9.51875e-06;0.007130843312663321
9.51900e-06;0.007114674543835317
9.51925e-06;0.007098505775007202
9.51950e-06;0.007082337006179089
9.51975e-06;0.007066168237351084
9.52000e-06;0.007049999468522971
9.52025e-06;0.007059175919659916
9.52050e-06;0.007070188548334429
9.52075e-06;0.007081201177008867
9.52100e-06;0.007092213805683381
9.52125e-06;0.007103226434357894
9.52150e-06;0.0071142390630323325
9.52175e-06;0.007125251691706845
9.52200e-06;0.007136264320381358
9.52225e-06;0.007147276949055797
9.52250e-06;0.00715828957773031
9.52275e-06;0.007169302206404824
9.52300e-06;0.007180314835079262
9.52325e-06;0.0071978152492416965
9.52350e-06;0.007223830367006198
9.52375e-06;0.007249845484770522
9.52400e-06;0.007275860602535023
9.52425e-06;0.007301875720299524
9.52450e-06;0.007327890838063849
9.52475e-06;0.0073539059558283505
9.52500e-06;0.007379921073592852
9.52525e-06;0.007405936191357177
9.52550e-06;0.007431951309121678
9.52575e-06;0.007457966426886179
9.52600e-06;0.007483981544650504
9.52625e-06;0.007509996662415005
9.52650e-06;0.007526044315878145
9.52675e-06;0.007541369859448595
9.52700e-06;0.007556695403019149
9.52725e-06;0.007572020946589704
9.52750e-06;0.007587346490160154
9.52775e-06;0.007602672033730708
9.52800e-06;0.007617997577301263
9.52825e-06;0.007633323120871713
9.52850e-06;0.007648648664442267
9.52875e-06;0.007663974208012822
9.52900e-06;0.007679299751583376
9.52925e-06;0.007694625295153826
9.52950e-06;0.007709950838724381
9.52975e-06;0.007725276382294935
9.53000e-06;0.007740601925865385
9.53025e-06;0.00775592746943594
9.53050e-06;0.007771253013006494
9.53075e-06;0.007786578556576944
9.53100e-06;0.007801904100147499
9.53125e-06;0.007805528921750471
9.53150e-06;0.007807153647037119
9.53175e-06;0.0078087783723237774
9.53200e-06;0.007810403097610437
9.53225e-06;0.007812027822897084
9.53250e-06;0.007813652548183742
9.53275e-06;0.007815277273470402
9.53300e-06;0.007816901998757049
9.53325e-06;0.007818526724043708
9.53350e-06;0.007820151449330367
9.53375e-06;0.007821776174617014
9.53400e-06;0.007823400899903674
9.53425e-06;0.007825025625190331
9.53450e-06;0.00782665035047698
9.53475e-06;0.007828275075763638
9.53500e-06;0.007829899801050297
9.53525e-06;0.007831524526336944
9.53550e-06;0.007833149251623603
9.53575e-06;0.007834773976910262
9.53600e-06;0.007833859170160844
9.53625e-06;0.007832209552796312
9.53650e-06;0.007830559935431778
9.53675e-06;0.007828910318067256
9.53700e-06;0.007827260700702722
9.53725e-06;0.00782561108333819
9.53750e-06;0.007823961465973656
9.53775e-06;0.007822311848609135
9.53800e-06;0.0078206622312446
9.53825e-06;0.007814367845822484
9.53850e-06;0.007795864034808284
9.53875e-06;0.007777360223793958
9.53900e-06;0.007758856412779632
9.53925e-06;0.007740352601765432
9.53950e-06;0.007721848790751105
9.53975e-06;0.0077033449797367795
9.54000e-06;0.007684841168722579
9.54025e-06;0.007666337357708252
9.54050e-06;0.007647833546693927
9.54075e-06;0.0076047249963293
9.54100e-06;0.007554497093499653
9.54125e-06;0.007504269190670006
9.54150e-06;0.007454041287840699
9.54175e-06;0.007403813385011052
9.54200e-06;0.007353585482181404
9.54225e-06;0.007303357579352098
9.54250e-06;0.007253129676522451
9.54275e-06;0.007202901773692804
9.54300e-06;0.007152673870863498
9.54325e-06;0.007087802372629597
9.54350e-06;0.00701869376724477
9.54375e-06;0.006949585161860412
9.54400e-06;0.006880476556475585
9.54425e-06;0.006811367951090759
9.54450e-06;0.0067422593457064
9.54475e-06;0.006673150740321573
9.54500e-06;0.006604042134936747
9.54525e-06;0.006534933529552389
9.54550e-06;0.006465824924167561
9.54575e-06;0.006400615313786011
9.54600e-06;0.006336533873034642
9.54625e-06;0.0062724524322837075
9.54650e-06;0.006208370991532338
9.54675e-06;0.006144289550780969
9.54700e-06;0.006080208110030034
9.54725e-06;0.006021254455713521
9.54750e-06;0.0059757799086803945
9.54775e-06;0.005930305361647576
9.54800e-06;0.005884830814614449
9.54825e-06;0.005839356267581323
9.54850e-06;0.005793881720548504
9.54875e-06;0.005748407173515378
9.54900e-06;0.005720361914177912
9.54925e-06;0.005697359798789357
9.54950e-06;0.005674357683400646
9.54975e-06;0.005651355568011935
9.55000e-06;0.005628353452623379
9.55025e-06;0.005605351337234668
9.55050e-06;0.005582349221845956
9.55075e-06;0.005559347106457401
9.55100e-06;0.005536344991068689
9.55125e-06;0.005513342875679978
9.55150e-06;0.0054903407602914225
9.55175e-06;0.0054673386449027115
9.55200e-06;0.0054443365295140005
9.55225e-06;0.005426221264474759
9.55250e-06;0.005420951772360724
9.55275e-06;0.00541568228024669
9.55300e-06;0.005410412788132692
9.55325e-06;0.005405143296018657
9.55350e-06;0.005399873803904623
9.55375e-06;0.005394604311790624
9.55400e-06;0.00538933481967659
9.55425e-06;0.005384065327562556
9.55450e-06;0.005378795835448521
9.55475e-06;0.005373526343334522
9.55500e-06;0.005368256851220487
9.55525e-06;0.005362987359106453
9.55550e-06;0.005357717866992455
9.55575e-06;0.005356338122126108
9.55600e-06;0.005356083871063237
9.55625e-06;0.005355829620000368
9.55650e-06;0.005355575368937498
9.55675e-06;0.005355321117874627
9.55700e-06;0.005355066866811758
9.55725e-06;0.005354812615748888
9.55750e-06;0.005354558364686017
9.55775e-06;0.005354304113623149
9.55800e-06;0.005356908704032972
9.55825e-06;0.0053670281610268995
9.55850e-06;0.005377147618020759
9.55875e-06;0.005387267075014687
9.55900e-06;0.005397386532008615
9.55925e-06;0.005407505989002474
9.55950e-06;0.005417625445996402
9.55975e-06;0.005427744902990329
9.56000e-06;0.005437864359984189
9.56025e-06;0.005447983816978116
9.56050e-06;0.005476924701443548
9.56075e-06;0.0055113115438702445
9.56100e-06;0.005545698386297173
9.56125e-06;0.0055800852287241015
9.56150e-06;0.005614472071150798
9.56175e-06;0.005648858913577726
9.56200e-06;0.005683245756004655
9.56225e-06;0.00571763259843135
9.56250e-06;0.005752019440858278
9.56275e-06;0.005786406283285207
9.56300e-06;0.005820793125711903
9.56325e-06;0.005866848885202245
9.56350e-06;0.005916281032157865
9.56375e-06;0.005965713179113485
9.56400e-06;0.0060151453260687705
9.56425e-06;0.00606457747302439
9.56450e-06;0.00611400961998001
9.56475e-06;0.006163441766935296
9.56500e-06;0.006212873913890916
9.56525e-06;0.006262306060846536
9.56550e-06;0.006311738207801822
9.56575e-06;0.0063611703547574415
9.56600e-06;0.006403733887297912
9.56625e-06;0.006444309994313373
9.56650e-06;0.006484886101329108
9.56675e-06;0.006525462208344843
9.56700e-06;0.006566038315360303
9.56725e-06;0.006606614422376038
9.56750e-06;0.006647190529391773
9.56775e-06;0.006687766636407234
9.56800e-06;0.006728342743422969
9.56825e-06;0.006764425078817189
9.56850e-06;0.006788694903958705
9.56875e-06;0.006812964729100386
9.56900e-06;0.006837234554242067
9.56925e-06;0.006861504379383584
9.56950e-06;0.006885774204525265
9.56975e-06;0.006910044029666945
9.57000e-06;0.006934313854808462
9.57025e-06;0.006958583679950142
9.57050e-06;0.006982853505091823
9.57075e-06;0.00699788167862876
9.57100e-06;0.007010235791113002
9.57125e-06;0.007022589903597242
9.57150e-06;0.0070349440160814005
9.57175e-06;0.007047298128565642
9.57200e-06;0.007059652241049883
9.57225e-06;0.007072006353534124
9.57250e-06;0.007084360466018283
9.57275e-06;0.007096714578502523
9.57300e-06;0.007109068690986765
9.57325e-06;0.007121422803470923
9.57350e-06;0.007133776915955164
9.57375e-06;0.007146131028439405
9.57400e-06;0.007158485140923564
9.57425e-06;0.007170839253407804
9.57450e-06;0.007183193365892046
9.57475e-06;0.007195547478376204
9.57500e-06;0.007207901590860445
9.57525e-06;0.007220255703344686
9.57550e-06;0.007232609815828845
9.57575e-06;0.007244963928313085
9.57600e-06;0.007257318040797327
9.57625e-06;0.007269672153281485
9.57650e-06;0.007282026265765726
9.57675e-06;0.007294380378249967
9.57700e-06;0.007306734490734126
9.57725e-06;0.007319088603218366
9.57750e-06;0.00732709263814163
9.57775e-06;0.007323661882840696
9.57800e-06;0.007320231127539739
9.57825e-06;0.007316800372238782
9.57850e-06;0.007313369616937848
9.57875e-06;0.007309938861636891
9.57900e-06;0.007306508106335934
9.57925e-06;0.007303077351035
9.57950e-06;0.007299646595734044
9.57975e-06;0.007296215840433086
9.58000e-06;0.007292785085132153
9.58025e-06;0.007289354329831196
9.58050e-06;0.007285923574530238
9.58075e-06;0.007282492819229281
9.58100e-06;0.007279062063928348
9.58125e-06;0.00727563130862739
9.58150e-06;0.007272200553326434
9.58175e-06;0.007268769798025499
9.58200e-06;0.007265339042724543
9.58225e-06;0.007261908287423586
9.58250e-06;0.007258477532122652
9.58275e-06;0.007255046776821695
9.58300e-06;0.007251616021520738
9.58325e-06;0.007248185266219804
9.58350e-06;0.007244754510918847
9.58375e-06;0.00724132375561789
9.58400e-06;0.007237893000316956
9.58425e-06;0.007234462245015999
9.58450e-06;0.007225814453778326
9.58475e-06;0.007215657119310329
9.58500e-06;0.007205499784842263
9.58525e-06;0.0071953424503741975
9.58550e-06;0.0071851851159062
9.58575e-06;0.007175027781438134
9.58600e-06;0.007164870446970068
9.58625e-06;0.007154713112502071
9.58650e-06;0.007144555778034005
9.58675e-06;0.007134398443565939
9.58700e-06;0.007124241109097942
9.58725e-06;0.007114083774629876
9.58750e-06;0.00710392644016181
9.58775e-06;0.007093769105693813
9.58800e-06;0.0070836117712257465
9.58825e-06;0.007077021480944069
9.58850e-06;0.007079807667618001
9.58875e-06;0.007082593854291952
9.58900e-06;0.007085380040965904
9.58925e-06;0.007088166227639855
9.58950e-06;0.0070909524143137875
9.58975e-06;0.007093738600987738
9.59000e-06;0.00709652478766169
9.59025e-06;0.007099310974335623
9.59050e-06;0.007102097161009574
9.59075e-06;0.0071048833476835245
9.59100e-06;0.007107669534357457
9.59125e-06;0.007110455721031409
9.59150e-06;0.00711324190770536
9.59175e-06;0.0071160280943792925
9.59200e-06;0.007118814281053243
9.59225e-06;0.007132512840545583
9.59250e-06;0.007149368882316863
9.59275e-06;0.007166224924088258
9.59300e-06;0.007183080965859652
9.59325e-06;0.007199937007630932
9.59350e-06;0.007216793049402326
9.59375e-06;0.0072336490911737205
9.59400e-06;0.0072505051329450005
9.59425e-06;0.007267361174716395
9.59450e-06;0.007284217216487789
9.59475e-06;0.007301073258259069
9.59500e-06;0.007317929300030463
9.59525e-06;0.007334785341801858
9.59550e-06;0.007351078084019364
9.59575e-06;0.007365890114193478
9.59600e-06;0.007380702144367592
9.59625e-06;0.007395514174541606
9.59650e-06;0.00741032620471572
9.59675e-06;0.0074251382348898345
9.59700e-06;0.0074399502650638475
9.59725e-06;0.007454762295237962
9.59750e-06;0.007469574325412076
9.59775e-06;0.00748438635558619
9.59800e-06;0.007499198385760204
9.59825e-06;0.007514010415934318
9.59850e-06;0.007528822446108432
9.59875e-06;0.007543634476282445
9.59900e-06;0.007555248353249923
9.59925e-06;0.0075659368483369195
9.59950e-06;0.007576625343423843
9.59975e-06;0.00758731383851084
9.60000e-06;0.0075980023335978355
9.60025e-06;0.007608690828684759
9.60050e-06;0.007619379323771756
9.60075e-06;0.0076300678188587516
9.60100e-06;0.007640756313945675
9.60125e-06;0.007651444809032672
9.60150e-06;0.007662133304119668
9.60175e-06;0.007672821799206591
9.60200e-06;0.007683510294293588
9.60225e-06;0.007694198789380584
9.60250e-06;0.007704887284467507
9.60275e-06;0.007715575779554504
9.60300e-06;0.0077262642746415
9.60325e-06;0.007736952769728423
9.60350e-06;0.00774764126481542
9.60375e-06;0.007756922984481553
9.60400e-06;0.007765797655328959
9.60425e-06;0.007774672326176425
9.60450e-06;0.007783546997023891
9.60475e-06;0.007792421667871297
9.60500e-06;0.007801296338718763
9.60525e-06;0.007810171009566229
9.60550e-06;0.007819045680413635
9.60575e-06;0.007827920351261102
9.60600e-06;0.007836795022108567
9.60625e-06;0.007845669692956034
9.60650e-06;0.00785454436380344
9.60675e-06;0.007863419034650905
9.60700e-06;0.007872293705498372
9.60725e-06;0.007881168376345778
9.60750e-06;0.007890043047193243
9.60775e-06;0.00789891771804071
9.60800e-06;0.007907792388888116
9.60825e-06;0.007916667059735582
9.60850e-06;0.007913521758765169
9.60875e-06;0.00790689849304118
9.60900e-06;0.007900275227317144
9.60925e-06;0.00789365196159311
9.60950e-06;0.007887028695869122
9.60975e-06;0.007880405430145088
9.61000e-06;0.007873782164421054
9.61025e-06;0.007867158898697064
9.61050e-06;0.00786053563297303
9.61075e-06;0.007853912367248996
9.61100e-06;0.007847289101525007
9.61125e-06;0.007840665835800974
9.61150e-06;0.007834042570076938
9.61175e-06;0.00782741930435295
9.61200e-06;0.007820796038628916
9.61225e-06;0.007810215516252516
9.61250e-06;0.00778923278860389
9.61275e-06;0.007768250060955121
9.61300e-06;0.007747267333306352
9.61325e-06;0.007726284605657725
9.61350e-06;0.007705301878008957
9.61375e-06;0.007684319150360188
9.61400e-06;0.007663336422711562
9.61425e-06;0.007642353695062792
9.61450e-06;0.007621370967414024
9.61475e-06;0.007600388239765255
9.61500e-06;0.007579405512116629
9.61525e-06;0.00755842278446786
9.61550e-06;0.0075374400568190905
9.61575e-06;0.007516457329170464
9.61600e-06;0.0074954746015216955
9.61625e-06;0.007477488284102397
9.61650e-06;0.007460368974470406
9.61675e-06;0.007443249664838298
9.61700e-06;0.00742613035520619
9.61725e-06;0.007409011045574198
9.61750e-06;0.0073918917359420905
9.61775e-06;0.007374772426309983
9.61800e-06;0.0073576531166779915
9.61825e-06;0.007340533807045884
9.61850e-06;0.007323414497413776
9.61875e-06;0.007306295187781785
9.61900e-06;0.007289175878149677
9.61925e-06;0.00727205656851757
9.61950e-06;0.007254937258885577
9.61975e-06;0.00723781794925347
9.62000e-06;0.007220698639621362
9.62025e-06;0.0072035280904072544
9.62050e-06;0.00718634271508001
9.62075e-06;0.007169157339752766
9.62100e-06;0.0071519719644256375
9.62125e-06;0.007134786589098393
9.62150e-06;0.007117601213771149
9.62175e-06;0.007100415838444021
9.62200e-06;0.007083230463116777
9.62225e-06;0.0070660450877895326
9.62250e-06;0.007048859712462404
9.62275e-06;0.00703167433713516
9.62300e-06;0.007014488961807916
9.62325e-06;0.006997303586480671
9.62350e-06;0.006980118211153543
9.62375e-06;0.006962932835826299
9.62400e-06;0.006945747460499054
9.62425e-06;0.00692769442072396
9.62450e-06;0.006909390323257789
9.62475e-06;0.006891086225791618
9.62500e-06;0.0068727821283255715
9.62525e-06;0.006854478030859401
9.62550e-06;0.00683617393339323
9.62575e-06;0.006817869835927183
9.62600e-06;0.006799565738461012
9.62625e-06;0.0067841212159818155
9.62650e-06;0.006769504108173325
9.62675e-06;0.006754887000364735
9.62700e-06;0.0067402698925561454
9.62725e-06;0.006725652784747654
9.62750e-06;0.0067110356769390644
9.62775e-06;0.0066964185691304745
9.62800e-06;0.0066818014613219835
9.62825e-06;0.006659992693821882
9.62850e-06;0.0066361030280195615
9.62875e-06;0.006612213362217404
9.62900e-06;0.006588323696415084
9.62925e-06;0.006564434030612764
9.62950e-06;0.006540544364810606
9.62975e-06;0.006516654699008286
9.63000e-06;0.006492765033205967
9.63025e-06;0.0064688753674038086
9.63050e-06;0.006426370990942761
9.63075e-06;0.00637848046977074
9.63100e-06;0.006330589948599045
9.63125e-06;0.006282699427427024
9.63150e-06;0.006234808906255004
9.63175e-06;0.006186918385082984
9.63200e-06;0.006139027863911288
9.63225e-06;0.006091137342739268
9.63250e-06;0.006043246821567248
9.63275e-06;0.00598111949632799
9.63300e-06;0.005914872768517803
9.63325e-06;0.005848626040707617
9.63350e-06;0.005782379312897879
9.63375e-06;0.005716132585087692
9.63400e-06;0.005649885857277506
9.63425e-06;0.005583639129467769
9.63450e-06;0.005517392401657582
9.63475e-06;0.00545113219171093
9.63500e-06;0.005384836542074185
9.63525e-06;0.005318540892436991
9.63550e-06;0.005252245242799796
9.63575e-06;0.005185949593163051
9.63600e-06;0.005119653943525857
9.63625e-06;0.0050533582938886625
9.63650e-06;0.004987062644251918
9.63675e-06;0.004920766994614724
9.63700e-06;0.0048756459536568285
9.63725e-06;0.004836651760903898
9.63750e-06;0.004797657568150703
9.63775e-06;0.004758663375397508
9.63800e-06;0.004719669182644577
9.63825e-06;0.004680674989891382
9.63850e-06;0.004641680797138187
9.63875e-06;0.004602686604385256
9.63900e-06;0.004563692411632061
9.63925e-06;0.004524698218878866
9.63950e-06;0.004485704026125935
9.63975e-06;0.004457402038653326
9.64000e-06;0.004457206015497512
9.64025e-06;0.004457009992341698
9.64050e-06;0.004456813969185886
9.64075e-06;0.0044566179460300715
9.64100e-06;0.004456421922874258
9.64125e-06;0.004456225899718445
9.64150e-06;0.004456029876562632
9.64175e-06;0.004455833853406818
9.64200e-06;0.004455637830251005
9.64225e-06;0.004455441807095191
9.64250e-06;0.004455245783939377
9.64275e-06;0.004473390255001931
9.64300e-06;0.004496841526572322
9.64325e-06;0.004520292798142713
9.64350e-06;0.004543744069712945
9.64375e-06;0.004567195341283336
9.64400e-06;0.004590646612853727
9.64425e-06;0.00461409788442396
9.64450e-06;0.004637549155994351
9.64475e-06;0.004661000427564742
9.64500e-06;0.0046881702431394
9.64525e-06;0.004716416015064054
9.64550e-06;0.004744661786988709
9.64575e-06;0.0047729075589131725
9.64600e-06;0.004801153330837827
9.64625e-06;0.0048293991027624815
9.64650e-06;0.004857644874686945
9.64675e-06;0.0048858906466116
9.64700e-06;0.004914136418536254
9.64725e-06;0.004936993028986089
9.64750e-06;0.004958290291878926
9.64775e-06;0.004979587554771763
9.64800e-06;0.005000884817664455
9.64825e-06;0.005022182080557292
9.64850e-06;0.005043479343450128
9.64875e-06;0.0050647766063429646
9.64900e-06;0.005086073869235657
9.64925e-06;0.005107371132128493
9.64950e-06;0.00512866839502133
9.64975e-06;0.0051516746145081034
9.65000e-06;0.00517917306658967
9.65025e-06;0.005206671518671237
9.65050e-06;0.0052341699707526175
9.65075e-06;0.005261668422834184
9.65100e-06;0.0052891668749157515
