Time(s);Current(A)
1.75000e-06;0.010125450177945725
1.75025e-06;0.010137863037907629
1.75050e-06;0.010150275897869534
1.75075e-06;0.010162688757831448
1.75100e-06;0.010175101617793352
1.75125e-06;0.010187514477755266
1.75150e-06;0.010199927337717171
1.75175e-06;0.010212340197679085
1.75200e-06;0.010224753057640989
1.75225e-06;0.010233934583861336
1.75250e-06;0.010241885007801151
1.75275e-06;0.01024983543174096
1.75300e-06;0.010257785855680775
1.75325e-06;0.010265736279620581
1.75350e-06;0.01027368670356039
1.75375e-06;0.010281637127500205
1.75400e-06;0.010289587551440011
1.75425e-06;0.010297537975379826
1.75450e-06;0.010305488399319634
1.75475e-06;0.010313438823259443
1.75500e-06;0.010321389247199256
1.75525e-06;0.010329339671139064
1.75550e-06;0.01033729009507888
1.75575e-06;0.010345240519018686
1.75600e-06;0.010353190942958501
1.75625e-06;0.01036114136689831
1.75650e-06;0.010369091790838118
1.75675e-06;0.01037466910295478
1.75700e-06;0.010372030892638818
1.75725e-06;0.010369392682322854
1.75750e-06;0.010366754472006892
1.75775e-06;0.010364116261690929
1.75800e-06;0.010361478051374965
1.75825e-06;0.010358839841059004
1.75850e-06;0.010356201630743038
1.75875e-06;0.010353563420427076
1.75900e-06;0.010350925210111115
1.75925e-06;0.01034828699979515
1.75950e-06;0.010345648789479188
1.75975e-06;0.010343010579163224
1.76000e-06;0.01034037236884726
1.76025e-06;0.010337734158531297
1.76050e-06;0.010335095948215335
1.76075e-06;0.010332457737899373
1.76100e-06;0.010329819527583408
1.76125e-06;0.010327181317267446
1.76150e-06;0.010321438456478454
1.76175e-06;0.010314512758327846
1.76200e-06;0.01030758706017724
1.76225e-06;0.010300661362026628
1.76250e-06;0.01029373566387602
1.76275e-06;0.010286809965725409
1.76300e-06;0.010279884267574802
1.76325e-06;0.010272958569424196
1.76350e-06;0.010266032871273582
1.76375e-06;0.010259107173122976
1.76400e-06;0.010252181474972363
1.76425e-06;0.010245255776821756
1.76450e-06;0.01023833007867115
1.76475e-06;0.010231404380520536
1.76500e-06;0.01022447868236993
1.76525e-06;0.010217552984219318
1.76550e-06;0.01021062728606871
1.76575e-06;0.010197488053015107
1.76600e-06;0.01018198153214776
1.76625e-06;0.010166475011280414
1.76650e-06;0.010150968490413052
1.76675e-06;0.010135461969545706
1.76700e-06;0.010119955448678346
1.76725e-06;0.010104448927810998
1.76750e-06;0.01008894240694365
1.76775e-06;0.01007343588607629
1.76800e-06;0.010057929365208943
1.76825e-06;0.010038406322890086
1.76850e-06;0.010004978406068106
1.76875e-06;0.009971550489246124
1.76900e-06;0.009938122572424116
1.76925e-06;0.009904694655602135
1.76950e-06;0.009871266738780126
1.76975e-06;0.009837838821958145
1.77000e-06;0.009804410905136136
1.77025e-06;0.009770982988314155
1.77050e-06;0.009737555071492175
1.77075e-06;0.009704127154670165
1.77100e-06;0.009664177901458175
1.77125e-06;0.00962174409148322
1.77150e-06;0.009579310281508303
1.77175e-06;0.009536876471533385
1.77200e-06;0.009494442661558432
1.77225e-06;0.009452008851583515
1.77250e-06;0.00940957504160856
1.77275e-06;0.009367141231633644
1.77300e-06;0.009324707421658725
1.77325e-06;0.009282273611683772
1.77350e-06;0.009239839801708854
1.77375e-06;0.009200284843641751
1.77400e-06;0.009170696239538787
1.77425e-06;0.009141107635435797
1.77450e-06;0.009111519031332832
1.77475e-06;0.009081930427229866
1.77500e-06;0.009052341823126878
1.77525e-06;0.009022753219023912
1.77550e-06;0.008993164614920921
1.77575e-06;0.008963576010817957
1.77600e-06;0.00893398740671499
1.77625e-06;0.008904398802612002
1.77650e-06;0.008874810198509036
1.77675e-06;0.008865582608774398
1.77700e-06;0.008864112339460224
1.77725e-06;0.008862642070146049
1.77750e-06;0.008861171800831874
1.77775e-06;0.0088597015315177
1.77800e-06;0.008858231262203526
1.77825e-06;0.00885676099288935
1.77850e-06;0.008855290723575176
1.77875e-06;0.008853820454261002
1.77900e-06;0.008852350184946829
1.77925e-06;0.008850879915632652
1.77950e-06;0.008849409646318479
1.77975e-06;0.008847939377004304
1.78000e-06;0.00884646910769013
1.78025e-06;0.00884912990324553
1.78050e-06;0.008866092113411588
1.78075e-06;0.008883054323577631
1.78100e-06;0.00890001653374369
1.78125e-06;0.008916978743909733
1.78150e-06;0.008933940954075776
1.78175e-06;0.008950903164241835
1.78200e-06;0.008967865374407878
1.78225e-06;0.008984827584573937
1.78250e-06;0.00900178979473998
1.78275e-06;0.009018752004906039
1.78300e-06;0.009035714215072082
1.78325e-06;0.009052676425238127
1.78350e-06;0.009069638635404184
1.78375e-06;0.009086600845570229
1.78400e-06;0.009102789779006536
1.78425e-06;0.009118684102593954
1.78450e-06;0.009134578426181372
1.78475e-06;0.009150472749768802
1.78500e-06;0.00916636707335622
1.78525e-06;0.009178428063513318
1.78550e-06;0.009189028596192316
1.78575e-06;0.009199629128871312
1.78600e-06;0.009210229661550318
1.78625e-06;0.009220830194229314
1.78650e-06;0.00923143072690832
1.78675e-06;0.009242031259587318
1.78700e-06;0.009252631792266323
1.78725e-06;0.00926323232494532
1.78750e-06;0.009273832857624316
1.78775e-06;0.009284433390303323
1.78800e-06;0.00929503392298232
1.78825e-06;0.009305634455661325
1.78850e-06;0.009316234988340322
1.78875e-06;0.009326835521019318
1.78900e-06;0.009337436053698325
1.78925e-06;0.009348036586377322
1.78950e-06;0.00935790751039686
1.78975e-06;0.009367500461617485
1.79000e-06;0.009377093412838109
1.79025e-06;0.009386686364058741
1.79050e-06;0.009396279315279366
1.79075e-06;0.009405872266499998
1.79100e-06;0.009415465217720624
1.79125e-06;0.009425058168941257
1.79150e-06;0.009434651120161881
1.79175e-06;0.009444244071382505
1.79200e-06;0.009453837022603138
1.79225e-06;0.009463429973823764
1.79250e-06;0.009473022925044396
1.79275e-06;0.00948261587626502
1.79300e-06;0.009492208827485644
1.79325e-06;0.009501801778706277
1.79350e-06;0.009511394729926901
1.79375e-06;0.009516706914884293
1.79400e-06;0.009520388175421888
1.79425e-06;0.009524069435959482
1.79450e-06;0.009527750696497079
1.79475e-06;0.009531431957034672
1.79500e-06;0.00953511321757227
1.79525e-06;0.009538794478109864
1.79550e-06;0.00954247573864746
1.79575e-06;0.009546156999185054
1.79600e-06;0.00954983825972265
1.79625e-06;0.009553519520260246
1.79650e-06;0.00955720078079784
1.79675e-06;0.009560882041335437
1.79700e-06;0.009564563301873032
1.79725e-06;0.009568244562410625
1.79750e-06;0.009571925822948222
1.79775e-06;0.009575607083485815
1.79800e-06;0.009579288344023414
1.79825e-06;0.009582969604561007
1.79850e-06;0.0095866508650986
1.79875e-06;0.009590332125636198
1.79900e-06;0.009594013386173793
1.79925e-06;0.00959769464671139
1.79950e-06;0.009600277328817679
1.79975e-06;0.009599056820675958
1.80000e-06;0.009597836312534238
1.80025e-06;0.009596615804392517
1.80050e-06;0.009595395296250796
1.80075e-06;0.009594174788109075
1.80100e-06;0.009592954279967354
1.80125e-06;0.009591733771825633
1.80150e-06;0.009590513263683912
1.80175e-06;0.00958929275554219
1.80200e-06;0.00958807224740047
1.80225e-06;0.009586851739258748
1.80250e-06;0.009585631231117027
1.80275e-06;0.009584410722975308
1.80300e-06;0.009583190214833587
1.80325e-06;0.009581969706691866
1.80350e-06;0.009580749198550145
1.80375e-06;0.009579528690408423
1.80400e-06;0.009578308182266702
1.80425e-06;0.009577087674124981
1.80450e-06;0.00957586716598326
1.80475e-06;0.009574646657841539
1.80500e-06;0.009573426149699818
1.80525e-06;0.009572205641558097
1.80550e-06;0.009565088627631705
1.80575e-06;0.00955572511046652
1.80600e-06;0.009546361593301328
1.80625e-06;0.009536998076136144
1.80650e-06;0.009527634558970951
1.80675e-06;0.009518271041805767
1.80700e-06;0.009508907524640583
1.80725e-06;0.009499544007475392
1.80750e-06;0.009490180490310208
1.80775e-06;0.009480816973145016
1.80800e-06;0.009471453455979831
1.80825e-06;0.009450552015548638
1.80850e-06;0.009425254754451402
1.80875e-06;0.009399957493354188
1.80900e-06;0.009374660232256951
1.80925e-06;0.009349362971159738
1.80950e-06;0.009324065710062501
1.80975e-06;0.009298768448965287
1.81000e-06;0.009273471187868072
1.81025e-06;0.009248173926770837
1.81050e-06;0.009222876665673622
1.81075e-06;0.009197579404576387
1.81100e-06;0.00916658551059038
1.81125e-06;0.009133421262719934
1.81150e-06;0.009100257014849459
1.81175e-06;0.009067092766979012
1.81200e-06;0.009033928519108538
1.81225e-06;0.009000764271238092
1.81250e-06;0.008967600023367646
1.81275e-06;0.008934435775497171
1.81300e-06;0.008901271527626724
1.81325e-06;0.00886810727975625
1.81350e-06;0.008834943031885804
1.81375e-06;0.00880177878401533
1.81400e-06;0.008771399654074266
1.81425e-06;0.008750662378593042
1.81450e-06;0.008729925103111802
1.81475e-06;0.008709187827630579
1.81500e-06;0.008688450552149337
1.81525e-06;0.008667713276668114
1.81550e-06;0.00864697600118689
1.81575e-06;0.00862623872570565
1.81600e-06;0.008605501450224427
1.81625e-06;0.008584764174743185
1.81650e-06;0.008564026899261962
1.81675e-06;0.008543289623780738
1.81700e-06;0.008522552348299498
1.81725e-06;0.008519609384176613
1.81750e-06;0.008523445855121745
1.81775e-06;0.008527282326066874
1.81800e-06;0.008531118797012004
1.81825e-06;0.008534955267957132
1.81850e-06;0.008538791738902261
1.81875e-06;0.008542628209847391
1.81900e-06;0.00854646468079252
1.81925e-06;0.008550301151737652
1.81950e-06;0.008554137622682778
1.81975e-06;0.008557974093627907
1.82000e-06;0.008561810564573037
1.82025e-06;0.008565647035518166
1.82050e-06;0.008569483506463298
1.82075e-06;0.008576271936924604
1.82100e-06;0.008593279814011376
1.82125e-06;0.008610287691098163
1.82150e-06;0.008627295568184933
1.82175e-06;0.00864430344527172
1.82200e-06;0.00866131132235849
1.82225e-06;0.008678319199445277
1.82250e-06;0.008695327076532047
1.82275e-06;0.00871233495361882
1.82300e-06;0.008729342830705604
1.82325e-06;0.008746350707792377
1.82350e-06;0.008763358584879163
1.82375e-06;0.008780366461965934
1.82400e-06;0.008797374339052704
1.82425e-06;0.00881438221613949
1.82450e-06;0.008828417399864992
1.82475e-06;0.00884132002042394
1.82500e-06;0.008854222640982878
1.82525e-06;0.008867125261541814
1.82550e-06;0.008880027882100763
1.82575e-06;0.0088929305026597
1.82600e-06;0.008905833123218649
1.82625e-06;0.008918735743777587
1.82650e-06;0.008931638364336535
1.82675e-06;0.008944540984895472
1.82700e-06;0.00895744360545441
1.82725e-06;0.008970346226013358
1.82750e-06;0.008986069643687908
1.82775e-06;0.009002867753745833
1.82800e-06;0.009019665863803743
1.82825e-06;0.009036463973861653
1.82850e-06;0.009053262083919577
1.82875e-06;0.009070060193977488
1.82900e-06;0.009086858304035413
1.82925e-06;0.009103656414093322
1.82950e-06;0.009120454524151233
1.82975e-06;0.009137252634209158
1.83000e-06;0.009154050744267067
1.83025e-06;0.009170848854324992
1.83050e-06;0.009190632942889694
1.83075e-06;0.009211554656113875
1.83100e-06;0.009232476369338037
1.83125e-06;0.009253398082562201
1.83150e-06;0.00927431979578638
1.83175e-06;0.009295241509010545
1.83200e-06;0.009316163222234726
1.83225e-06;0.009337084935458888
1.83250e-06;0.009358006648683052
1.83275e-06;0.009378928361907233
1.83300e-06;0.009399850075131395
1.83325e-06;0.009420771788355577
1.83350e-06;0.00944169350157974
1.83375e-06;0.009460035551537245
1.83400e-06;0.009469447014568316
1.83425e-06;0.009478858477599378
1.83450e-06;0.009488269940630449
1.83475e-06;0.009497681403661511
1.83500e-06;0.009507092866692582
1.83525e-06;0.009516504329723645
1.83550e-06;0.009525915792754708
1.83575e-06;0.009535327255785778
1.83600e-06;0.009544738718816842
1.83625e-06;0.009554150181847913
1.83650e-06;0.009563561644878975
1.83675e-06;0.009572973107910037
1.83700e-06;0.009582384570941108
1.83725e-06;0.009569698706507352
1.83750e-06;0.009548594005643974
1.83775e-06;0.009527489304780612
1.83800e-06;0.009506384603917251
1.83825e-06;0.009485279903053872
1.83850e-06;0.009464175202190511
1.83875e-06;0.00944307050132713
1.83900e-06;0.009421965800463769
1.83925e-06;0.00940086109960039
1.83950e-06;0.009379756398737029
1.83975e-06;0.009358651697873668
1.84000e-06;0.009337546997010289
1.84025e-06;0.009301492684003067
1.84050e-06;0.009259742734746453
1.84075e-06;0.009217992785489874
1.84100e-06;0.009176242836233296
1.84125e-06;0.00913449288697668
1.84150e-06;0.009092742937720102
1.84175e-06;0.009050992988463487
1.84200e-06;0.009009243039206909
1.84225e-06;0.008967493089950328
1.84250e-06;0.008925743140693715
1.84275e-06;0.008883993191437135
1.84300e-06;0.008842243242180522
1.84325e-06;0.008802535621296056
1.84350e-06;0.008763606104846486
1.84375e-06;0.008724676588396882
1.84400e-06;0.008685747071947312
1.84425e-06;0.008646817555497708
1.84450e-06;0.008607888039048137
1.84475e-06;0.008568958522598534
1.84500e-06;0.008530029006148963
1.84525e-06;0.008500945894167243
1.84550e-06;0.008475614152968323
1.84575e-06;0.008450282411769426
1.84600e-06;0.008424950670570508
1.84625e-06;0.00839961892937161
1.84650e-06;0.008374287188172713
1.84675e-06;0.008348955446973795
1.84700e-06;0.008323623705774897
1.84725e-06;0.008308697728049413
1.84750e-06;0.008297736230677566
1.84775e-06;0.008286774733305718
1.84800e-06;0.008275813235933863
1.84825e-06;0.008264851738562016
1.84850e-06;0.00825389024119016
1.84875e-06;0.008242928743818313
1.84900e-06;0.008231967246446457
1.84925e-06;0.008221005749074611
1.84950e-06;0.008210044251702764
1.84975e-06;0.008199082754330908
1.85000e-06;0.008188121256959061
1.85025e-06;0.008177159759587205
1.85050e-06;0.008166198262215358
1.85075e-06;0.008155236764843511
1.85100e-06;0.008144275267471655
1.85125e-06;0.008135214361187852
1.85150e-06;0.008132733148517698
1.85175e-06;0.008130251935847545
1.85200e-06;0.008127770723177392
1.85225e-06;0.008125289510507236
1.85250e-06;0.008122808297837084
1.85275e-06;0.00812032708516693
1.85300e-06;0.008117845872496776
1.85325e-06;0.00811536465982662
1.85350e-06;0.008112883447156468
1.85375e-06;0.008110402234486315
1.85400e-06;0.00810792102181616
1.85425e-06;0.008105439809146008
1.85450e-06;0.008102958596475852
1.85475e-06;0.008100477383805699
1.85500e-06;0.008097996171135546
1.85525e-06;0.008095514958465392
1.85550e-06;0.00810010678730501
1.85575e-06;0.008107393366431419
1.85600e-06;0.008114679945557823
1.85625e-06;0.008121966524684226
1.85650e-06;0.008129253103810637
1.85675e-06;0.00813653968293704
1.85700e-06;0.00814382626206345
1.85725e-06;0.008151112841189854
1.85750e-06;0.008158399420316265
1.85775e-06;0.008165685999442668
1.85800e-06;0.00817725505782817
1.85825e-06;0.008203649715264062
1.85850e-06;0.008230044372699932
1.85875e-06;0.008256439030135825
1.85900e-06;0.008282833687571696
1.85925e-06;0.008309228345007566
1.85950e-06;0.008335623002443459
1.85975e-06;0.00836201765987933
1.86000e-06;0.00838841231731522
1.86025e-06;0.008414806974751091
1.86050e-06;0.008441201632186961
1.86075e-06;0.008475726065534381
1.86100e-06;0.008513347853243121
1.86125e-06;0.008550969640951893
1.86150e-06;0.008588591428660633
1.86175e-06;0.008626213216369404
1.86200e-06;0.008663835004078144
1.86225e-06;0.008701456791786884
1.86250e-06;0.008739078579495655
1.86275e-06;0.008776700367204395
1.86300e-06;0.008814322154913169
1.86325e-06;0.008851943942621909
1.86350e-06;0.008887158201871248
1.86375e-06;0.008914037791066106
1.86400e-06;0.008940917380260942
1.86425e-06;0.008967796969455802
1.86450e-06;0.008994676558650638
1.86475e-06;0.009021556147845474
1.86500e-06;0.009048435737040332
1.86525e-06;0.009075315326235168
1.86550e-06;0.009102194915430026
1.86575e-06;0.009129074504624862
1.86600e-06;0.00915595409381972
1.86625e-06;0.009182833683014556
1.86650e-06;0.009187281898889366
1.86675e-06;0.009183184010574197
1.86700e-06;0.00917908612225903
1.86725e-06;0.009174988233943863
1.86750e-06;0.009170890345628697
1.86775e-06;0.009166792457313533
1.86800e-06;0.009162694568998363
1.86825e-06;0.009158596680683197
1.86850e-06;0.00915449879236803
1.86875e-06;0.009150400904052863
1.86900e-06;0.009146303015737697
1.86925e-06;0.00914220512742253
1.86950e-06;0.009138107239107364
1.86975e-06;0.009128581802483509
1.87000e-06;0.00910026662978033
1.87025e-06;0.009071951457077128
1.87050e-06;0.009043636284373949
1.87075e-06;0.00901532111167077
1.87100e-06;0.008987005938967566
1.87125e-06;0.008958690766264389
1.87150e-06;0.008930375593561185
1.87175e-06;0.008902060420858006
1.87200e-06;0.008873745248154827
1.87225e-06;0.008845430075451625
1.87250e-06;0.008817114902748446
1.87275e-06;0.008788799730045243
1.87300e-06;0.008760484557342066
1.87325e-06;0.008732962758571505
1.87350e-06;0.008705743226460777
1.87375e-06;0.008678523694350074
1.87400e-06;0.008651304162239347
1.87425e-06;0.008624084630128644
1.87450e-06;0.008596865098017919
1.87475e-06;0.008569645565907214
1.87500e-06;0.008542426033796511
1.87525e-06;0.008515206501685784
1.87550e-06;0.008487986969575081
1.87575e-06;0.00847260747895278
1.87600e-06;0.008466553950006046
1.87625e-06;0.00846050042105931
1.87650e-06;0.00845444689211257
1.87675e-06;0.008448393363165834
1.87700e-06;0.008442339834219093
1.87725e-06;0.008436286305272359
1.87750e-06;0.008430232776325623
1.87775e-06;0.008424179247378883
1.87800e-06;0.008418125718432147
1.87825e-06;0.008422677866961775
1.87850e-06;0.008443497260744746
1.87875e-06;0.008464316654527718
1.87900e-06;0.008485136048310707
1.87925e-06;0.00850595544209368
1.87950e-06;0.008526774835876669
1.87975e-06;0.00854759422965964
1.88000e-06;0.00856841362344263
1.88025e-06;0.008589233017225603
1.88050e-06;0.008610052411008574
1.88075e-06;0.008630871804791563
1.88100e-06;0.008651691198574535
1.88125e-06;0.00867608781105297
1.88150e-06;0.008708663080173724
1.88175e-06;0.008741238349294479
1.88200e-06;0.00877381361841526
1.88225e-06;0.008806388887536013
1.88250e-06;0.008838964156656796
1.88275e-06;0.00887153942577755
1.88300e-06;0.008904114694898305
1.88325e-06;0.008936689964019086
1.88350e-06;0.00896926523313984
1.88375e-06;0.009001840502260623
1.88400e-06;0.009034415771381376
1.88425e-06;0.009063032416600052
1.88450e-06;0.009077102838057342
1.88475e-06;0.009091173259514633
1.88500e-06;0.009105243680971936
1.88525e-06;0.009119314102429226
1.88550e-06;0.00913338452388653
1.88575e-06;0.00914745494534382
1.88600e-06;0.00916152536680111
1.88625e-06;0.009175595788258413
1.88650e-06;0.009189666209715704
1.88675e-06;0.009203736631173007
1.88700e-06;0.009217807052630297
1.88725e-06;0.009231877474087588
1.88750e-06;0.00924594789554489
1.88775e-06;0.00926001831700218
1.88800e-06;0.009274088738459483
1.88825e-06;0.009288159159916773
1.88850e-06;0.009302229581374076
1.88875e-06;0.009311560851687993
1.88900e-06;0.009303477799582618
1.88925e-06;0.009295394747477238
1.88950e-06;0.009287311695371864
1.88975e-06;0.009279228643266484
1.89000e-06;0.00927114559116111
1.89025e-06;0.009263062539055737
1.89050e-06;0.009254979486950355
1.89075e-06;0.009246896434844982
1.89100e-06;0.0092388133827396
1.89125e-06;0.009230730330634228
1.89150e-06;0.009222647278528853
1.89175e-06;0.009214564226423472
1.89200e-06;0.009206481174318099
1.89225e-06;0.009198398122212717
1.89250e-06;0.009190315070107345
1.89275e-06;0.009182232018001963
1.89300e-06;0.00917414896589659
1.89325e-06;0.009165385575620773
1.89350e-06;0.009154122238013578
1.89375e-06;0.009142858900406394
1.89400e-06;0.009131595562799199
1.89425e-06;0.009120332225192013
1.89450e-06;0.009109068887584828
1.89475e-06;0.009097805549977633
1.89500e-06;0.009086542212370449
1.89525e-06;0.009075278874763254
1.89550e-06;0.00906401553715607
1.89575e-06;0.009052752199548885
1.89600e-06;0.00904148886194169
1.89625e-06;0.009028136860195714
1.89650e-06;0.009007109924767316
1.89675e-06;0.008986082989338935
1.89700e-06;0.008965056053910537
1.89725e-06;0.008944029118482156
1.89750e-06;0.008923002183053775
1.89775e-06;0.008901975247625375
1.89800e-06;0.008880948312196994
1.89825e-06;0.008859921376768595
1.89850e-06;0.008838894441340214
1.89875e-06;0.008817867505911833
1.89900e-06;0.008796840570483435
1.89925e-06;0.008772518472388328
1.89950e-06;0.008736088082457493
1.89975e-06;0.008699657692526688
1.90000e-06;0.008663227302595883
1.90025e-06;0.008626796912665049
1.90050e-06;0.008590366522734243
1.90075e-06;0.008553936132803409
1.90100e-06;0.008517505742872604
1.90125e-06;0.008481075352941767
1.90150e-06;0.008444644963010964
1.90175e-06;0.008408214573080159
