Time(s);Current(A)
1.17500e-05;0.004333488240532277
1.17503e-05;0.004383451547454456
1.17505e-05;0.004428815789015777
1.17508e-05;0.004444688474875414
1.17510e-05;0.00446056116073505
1.17513e-05;0.0044734469805612
1.17515e-05;0.004467179490074868
1.17518e-05;0.004460911999588536
1.17520e-05;0.00445187858450411
1.17523e-05;0.004425108648419302
1.17525e-05;0.004398338712334494
1.17528e-05;0.004369027122599809
1.17530e-05;0.004323417151712306
1.17533e-05;0.004277807180824805
1.17535e-05;0.004229046749982275
1.17538e-05;0.004160083961056555
1.17540e-05;0.0040911211721308335
1.17543e-05;0.00402215838320558
1.17545e-05;0.0039531955942798585
1.17548e-05;0.0038842328053541376
1.17550e-05;0.003815270016428884
1.17553e-05;0.0037352249305533827
1.17555e-05;0.0036488071506538223
1.17558e-05;0.0035623893707548474
1.17560e-05;0.0034759715908552866
1.17563e-05;0.003389553810955726
1.17565e-05;0.0033031360310567513
1.17568e-05;0.003217007978505626
1.17570e-05;0.00313273780566852
1.17572e-05;0.0030484676328319856
1.17575e-05;0.00296419745999488
1.17578e-05;0.0028799272871577746
1.17580e-05;0.00279565711432124
1.17583e-05;0.002724006482223797
1.17585e-05;0.0026596125111084464
1.17588e-05;0.0025952185399930956
1.17590e-05;0.002530824568878181
1.17593e-05;0.0024664305977628305
1.17595e-05;0.0024048384586775563
1.17598e-05;0.0023612130973917483
1.17600e-05;0.0023191858707781086
1.17603e-05;0.00228740669981047
1.17605e-05;0.0022573022266016442
1.17608e-05;0.002237936770646312
1.17610e-05;0.0022202942432676866
1.17613e-05;0.002213700013778144
1.17615e-05;0.0022087492914238177
1.17618e-05;0.002214337576117495
1.17620e-05;0.002221848314099317
1.17623e-05;0.0022416868043123187
1.17625e-05;0.0022615252945253207
1.17628e-05;0.0022831779241628374
1.17630e-05;0.00231646374222556
1.17633e-05;0.0023513485482792463
1.17635e-05;0.0023964868818926142
1.17638e-05;0.002441625215506288
1.17640e-05;0.002488911854351007
1.17643e-05;0.0025499745234216515
1.17645e-05;0.0026110371924927102
1.17648e-05;0.0026720998615637685
1.17650e-05;0.002733162530634413
1.17653e-05;0.0027942251997054714
1.17655e-05;0.002856665192890567
1.17657e-05;0.002927937291659828
1.17660e-05;0.0029992093904295724
1.17663e-05;0.003070481489199317
1.17665e-05;0.003141753587968578
1.17668e-05;0.003213025686738322
1.17670e-05;0.003283022314857521
1.17673e-05;0.003344839973813081
1.17675e-05;0.0034066576327682224
1.17678e-05;0.0034684752917237822
1.17680e-05;0.0035302929506793425
1.17683e-05;0.0035921106096344834
1.17685e-05;0.0036539282685900433
1.17688e-05;0.0037157459275456036
1.17690e-05;0.0037775635865007445
1.17693e-05;0.003820006515394194
1.17695e-05;0.0038513083219107007
1.17698e-05;0.003882610128426996
1.17700e-05;0.003913911934943503
1.17703e-05;0.00394521374146001
1.17705e-05;0.003976515547976305
1.17708e-05;0.004007817354492812
1.17710e-05;0.0040391191610093195
1.17713e-05;0.004066006125524211
1.17715e-05;0.004064582868562287
1.17718e-05;0.004063159611600362
1.17720e-05;0.004061736354638447
1.17723e-05;0.004060313097676522
1.17725e-05;0.0040588898407145965
1.17728e-05;0.004057466583752682
1.17730e-05;0.004056043326790756
1.17733e-05;0.004054620069828831
1.17735e-05;0.004053196812866916
1.17738e-05;0.004036906635513082
1.17740e-05;0.00401206747817641
1.17742e-05;0.0039872283208399065
1.17745e-05;0.003962389163503235
1.17748e-05;0.003937550006166563
1.17750e-05;0.003912710848830059
1.17753e-05;0.003887871691493387
1.17755e-05;0.0038630325341567147
1.17758e-05;0.0038381933768200428
1.17760e-05;0.003812561603698577
1.17763e-05;0.00378184717339149
1.17765e-05;0.003751132743084403
1.17768e-05;0.003720418312777524
1.17770e-05;0.0036897038824704365
1.17773e-05;0.0036589894521633494
1.17775e-05;0.0036282750218564704
1.17778e-05;0.0035975605915493833
1.17780e-05;0.0035668461612422962
1.17783e-05;0.0035361317309354173
1.17785e-05;0.003511499586159062
1.17788e-05;0.0034903649604308687
1.17790e-05;0.003469230334702819
1.17793e-05;0.003448095708974626
1.17795e-05;0.003426961083246433
1.17798e-05;0.003405826457518383
1.17800e-05;0.0033846918317901897
1.17803e-05;0.0033635572060619966
1.17805e-05;0.003342422580333947
1.17808e-05;0.0033225568406557602
1.17810e-05;0.003310827846326574
1.17813e-05;0.0032990988519974677
1.17815e-05;0.0032873698576682815
1.17818e-05;0.0032756408633390958
1.17820e-05;0.003263911869009989
1.17823e-05;0.0032521828746808028
1.17825e-05;0.003240453880351617
1.17827e-05;0.0032287248860225102
1.17830e-05;0.0032169958916933245
1.17833e-05;0.0032052668973641383
1.17835e-05;0.0031935379030350315
1.17838e-05;0.0031818089087058458
1.17840e-05;0.0031700799143766596
1.17843e-05;0.0031583509200474734
1.17845e-05;0.003146621925718367
1.17848e-05;0.003134892931389181
1.17850e-05;0.0031238852015183405
1.17853e-05;0.00311750258769206
1.17855e-05;0.003111119973865736
1.17858e-05;0.003104737360039412
1.17860e-05;0.0030983547462131314
1.17863e-05;0.0030919721323868074
1.17865e-05;0.0030855895185604833
1.17868e-05;0.0030792069047342026
1.17870e-05;0.0030728242909078786
1.17873e-05;0.003066441677081555
1.17875e-05;0.0030600590632552742
1.17878e-05;0.00305367644942895
1.17880e-05;0.003047293835602626
1.17883e-05;0.0030409112217763454
1.17885e-05;0.0030345286079500214
1.17888e-05;0.0030281459941236977
1.17890e-05;0.0030217633802974166
1.17893e-05;0.0030142052375563104
1.17895e-05;0.0029991090030881884
1.17898e-05;0.0029840127686201682
1.17900e-05;0.0029689165341520458
1.17903e-05;0.0029538202996839233
1.17905e-05;0.0029387240652159036
1.17908e-05;0.002923627830747781
1.17910e-05;0.0029085315962796587
1.17912e-05;0.0028934353618116386
1.17915e-05;0.0028783391273435165
1.17918e-05;0.002863242892875394
1.17920e-05;0.002848146658407374
1.17923e-05;0.00283023266155711
1.17925e-05;0.002794249733318301
1.17928e-05;0.002758266805079492
1.17930e-05;0.0027222838768409265
1.17933e-05;0.0026863009486021174
1.17935e-05;0.0026503180203633083
1.17938e-05;0.002614335092124743
1.17940e-05;0.002578352163885934
1.17943e-05;0.0025423692356471247
1.17945e-05;0.0025063863074085593
1.17948e-05;0.00247040337916975
1.17950e-05;0.002434420450930941
1.17953e-05;0.00239735433774886
1.17955e-05;0.0023533422895387715
1.17958e-05;0.0023093302413286824
1.17960e-05;0.0022653181931188916
1.17963e-05;0.0022213061449088026
1.17965e-05;0.0021772940966987135
1.17968e-05;0.0021332820484889227
1.17970e-05;0.0020920293056390484
1.17973e-05;0.002052363256313353
1.17975e-05;0.0020126972069879263
1.17978e-05;0.001973031157662231
1.17980e-05;0.0019333651083365355
1.17983e-05;0.001893699059011109
1.17985e-05;0.001855245074313468
1.17988e-05;0.001824563467000014
1.17990e-05;0.0017938818596867677
1.17993e-05;0.001764374871460731
1.17995e-05;0.001742400140689696
1.17997e-05;0.0017216834081700352
1.18000e-05;0.001709033602884956
1.18003e-05;0.0016976409556203843
1.18005e-05;0.0016943098476016397
1.18008e-05;0.0016922214801853282
1.18010e-05;0.0016981022001674357
1.18013e-05;0.0017053119767973981
1.18015e-05;0.0017210443433890367
1.18018e-05;0.0017381520107326086
1.18020e-05;0.0017640788088490243
1.18023e-05;0.0017915517441742898
1.18025e-05;0.0018289393008811554
1.18028e-05;0.001866326857588021
1.18030e-05;0.0019053641354695489
1.18033e-05;0.001954980268021974
1.18035e-05;0.002004596400574399
1.18038e-05;0.0020556700430009755
1.18040e-05;0.0021160899830802273
1.18043e-05;0.002176509923159479
1.18045e-05;0.002238312003625566
1.18048e-05;0.0023089770741021973
1.18050e-05;0.002379642144578829
1.18053e-05;0.0024503072150549813
1.18055e-05;0.0025209722855316125
1.18058e-05;0.002591637356008244
1.18060e-05;0.002662713684119494
1.18063e-05;0.002736427206213485
1.18065e-05;0.002810140728307477
1.18068e-05;0.0028838542504009686
1.18070e-05;0.00295756777249496
1.18073e-05;0.0030312812945889516
1.18075e-05;0.0031021512134579246
1.18078e-05;0.003154786496244012
1.18080e-05;0.0032074217790300993
1.18082e-05;0.0032600570618158305
1.18085e-05;0.0033126923446019176
1.18088e-05;0.0033653276273880053
1.18090e-05;0.003417962910173736
1.18093e-05;0.0034705981929598236
1.18095e-05;0.003523233475745911
1.18098e-05;0.0035758687585319983
1.18100e-05;0.003628504041317729
1.18103e-05;0.003676266422411863
1.18105e-05;0.0036927812692976194
1.18108e-05;0.003709296116183264
1.18110e-05;0.0037258109630690203
1.18113e-05;0.0037423258099547768
1.18115e-05;0.003758840656840421
1.18118e-05;0.0037753555037261773
1.18120e-05;0.0037918703506119337
1.18123e-05;0.0038083851974975783
1.18125e-05;0.0038249000443833347
1.18128e-05;0.0038414148912690907
1.18130e-05;0.0038546793182073686
1.18133e-05;0.0038471003924710396
1.18135e-05;0.00383952146673471
1.18138e-05;0.0038319425409984328
1.18140e-05;0.0038243636152621033
1.18143e-05;0.0038167846895257743
1.18145e-05;0.0038092057637894965
1.18148e-05;0.0038016268380531675
1.18150e-05;0.0037940479123168384
1.18153e-05;0.0037864689865805606
1.18155e-05;0.003769531241197785
1.18158e-05;0.0037522155674178863
1.18160e-05;0.0037348998936381048
1.18163e-05;0.003717584219858206
1.18165e-05;0.0037002685460783076
1.18167e-05;0.003682952872298526
1.18170e-05;0.0036656371985186276
1.18173e-05;0.003648321524738729
1.18175e-05;0.003631005850958948
1.18178e-05;0.0036187944343082008
1.18180e-05;0.0036079606560145048
1.18183e-05;0.003597126877720809
1.18185e-05;0.003586293099427187
1.18188e-05;0.0035754593211334913
1.18190e-05;0.0035646255428397953
1.18193e-05;0.003553791764546173
1.18195e-05;0.0035429579862524775
1.18198e-05;0.003532124207958782
1.18200e-05;0.0035212904296651596
1.18203e-05;0.0035104566513714636
1.18205e-05;0.003499622873077768
1.18208e-05;0.0034887890947841458
1.18210e-05;0.0034779553164904498
1.18213e-05;0.003467121538196754
1.18215e-05;0.003456287759903132
1.18218e-05;0.0034464153301752617
1.18220e-05;0.003448931156633154
1.18223e-05;0.0034514469830910295
1.18225e-05;0.003453962809548922
1.18228e-05;0.0034564786360068143
1.18230e-05;0.0034589944624646898
1.18233e-05;0.003461510288922582
1.18235e-05;0.003464026115380474
1.18238e-05;0.0034665419418383496
1.18240e-05;0.003469057768296242
1.18243e-05;0.0034715735947541343
1.18245e-05;0.00347408942121201
1.18248e-05;0.003476605247669902
1.18250e-05;0.0034791210741277946
1.18252e-05;0.0034816369005856696
1.18255e-05;0.003484152727043562
1.18258e-05;0.0034866685535014544
1.18260e-05;0.0034903912602968486
1.18263e-05;0.003496291848493861
1.18265e-05;0.003502192436690874
1.18268e-05;0.0035080930248878868
1.18270e-05;0.0035139936130848593
1.18273e-05;0.0035198942012818722
1.18275e-05;0.003525794789478885
1.18278e-05;0.0035316953776758577
1.18280e-05;0.0035375959658728705
1.18283e-05;0.003543496554069883
1.18285e-05;0.003549397142266856
1.18288e-05;0.0035552977304638684
1.18290e-05;0.003561926448540484
1.18293e-05;0.0035698691167027163
1.18295e-05;0.0035778117848650026
1.18298e-05;0.003585754453027289
1.18300e-05;0.0035936971211895214
1.18303e-05;0.0036016397893518077
1.18305e-05;0.003609582457514094
1.18308e-05;0.0036175251256763265
1.18310e-05;0.0036254677938386127
1.18313e-05;0.003633410462000899
1.18315e-05;0.0036413531301631315
1.18318e-05;0.003649295798325418
1.18320e-05;0.0036606541073702908
1.18323e-05;0.00367817612670431
1.18325e-05;0.0036956981460384473
1.18328e-05;0.0037132201653725847
1.18330e-05;0.0037307421847066033
1.18333e-05;0.0037482642040407407
1.18335e-05;0.003765786223374878
1.18337e-05;0.003783308242708897
1.18340e-05;0.0038008302620430342
1.18343e-05;0.0038183522813771717
1.18345e-05;0.0038358743007111903
1.18348e-05;0.0038533963200453277
1.18350e-05;0.0038722069012413025
1.18352e-05;0.003893342762605663
1.18355e-05;0.003914478623970166
1.18358e-05;0.0039356144853346705
1.18360e-05;0.003956750346699174
1.18363e-05;0.003977886208063534
1.18365e-05;0.0039990220694280385
1.18368e-05;0.004020157930792542
1.18370e-05;0.004041293792156902
1.18373e-05;0.004062429653521406
1.18375e-05;0.00408356551488591
1.18378e-05;0.00410470137625027
1.18380e-05;0.004122477260811935
1.18383e-05;0.004134189883951174
1.18385e-05;0.004145902507090335
1.18388e-05;0.004157615130229575
1.18390e-05;0.004169327753368816
1.18393e-05;0.004181040376507976
1.18395e-05;0.004192752999647217
1.18398e-05;0.004204465622786456
1.18400e-05;0.004216178245925617
1.18403e-05;0.00421824515906137
1.18405e-05;0.004202905862336285
1.18408e-05;0.0041875665656113045
1.18410e-05;0.00417222726888622
1.18413e-05;0.004156887972161136
1.18415e-05;0.004141548675436156
1.18418e-05;0.004126209378711072
1.18420e-05;0.004110870081985987
1.18422e-05;0.004095530785261006
1.18425e-05;0.004070187574486852
1.18428e-05;0.00402679175511156
1.18430e-05;0.003983395935736564
1.18433e-05;0.003940000116361272
1.18435e-05;0.00389660429698598
1.18437e-05;0.0038532084776109828
1.18440e-05;0.0038098126582356913
1.18443e-05;0.0037664168388604
1.18445e-05;0.0037175273567526257
1.18448e-05;0.0036587242605722425
1.18450e-05;0.003599921164391461
1.18453e-05;0.003541118068210679
1.18455e-05;0.0034823149720302955
1.18458e-05;0.0034235118758495138
1.18460e-05;0.003364708779668732
1.18463e-05;0.003305905683488349
1.18465e-05;0.0032472053541562737
1.18468e-05;0.003188690473208505
1.18470e-05;0.0031301755922611327
1.18473e-05;0.003071660711313364
1.18475e-05;0.0030131458303655954
1.18478e-05;0.002954630949418223
1.18480e-05;0.0029007081958861832
1.18483e-05;0.0028550721867716994
1.18485e-05;0.0028094361776575248
1.18488e-05;0.0027638001685430405
1.18490e-05;0.0027181641594285566
1.18493e-05;0.002672528150314382
1.18495e-05;0.0026283052173663173
1.18498e-05;0.002586632257442573
1.18500e-05;0.0025449592975191116
1.18503e-05;0.0025032863375953674
1.18505e-05;0.0024616133776716232
1.18507e-05;0.0024199404177481613
1.18510e-05;0.002378267457824417
1.18513e-05;0.002336594497900673
1.18515e-05;0.002292024484163579
1.18518e-05;0.002242226578787398
1.18520e-05;0.002192428673411217
1.18522e-05;0.0021426307680353735
1.18525e-05;0.0020928328626591925
1.18528e-05;0.0020430349572830115
1.18530e-05;0.0019932370519068305
1.18533e-05;0.0019434391465309871
1.18535e-05;0.0018905777831532261
1.18538e-05;0.001832188242701958
1.18540e-05;0.0017737987022510852
1.18543e-05;0.0017154091617998168
1.18545e-05;0.0016570196213485486
1.18548e-05;0.001598630080897676
1.18550e-05;0.0015393470856230602
1.18553e-05;0.0014784518023822353
1.18555e-05;0.001417556519141823
1.18558e-05;0.001356661235900998
1.18560e-05;0.0012957659526601731
1.18563e-05;0.0012348706694197608
1.18565e-05;0.0011747987316586472
1.18568e-05;0.0011162125657288133
1.18570e-05;0.0010576263997993762
1.18573e-05;0.0010006832443305328
1.18575e-05;0.0009467049908641453
1.18578e-05;0.0008927267373981235
1.18580e-05;0.0008405254762954794
1.18583e-05;0.0007915308948475651
1.18585e-05;0.0007445604249420343
1.18588e-05;0.0007012425747285364
1.18590e-05;0.0006597727636425215
1.18592e-05;0.0006230052212287534
1.18595e-05;0.0005901121740876474
1.18598e-05;0.0005611863145356315
1.18600e-05;0.0005362920040981042
1.18603e-05;0.0005155033518783838
1.18605e-05;0.0004988962317989703
1.18607e-05;0.00048654633863019287
1.18610e-05;0.0004785260094114477
1.18613e-05;0.0004748785978859485
1.18615e-05;0.0004755734533936655
1.18618e-05;0.00048050863148023446
1.18620e-05;0.0004895644522321791
1.18623e-05;0.0005026273535859174
1.18625e-05;0.0005195848575857947
1.18628e-05;0.0005403244073139978
1.18630e-05;0.000564731274722908
1.18633e-05;0.0005926727112972037
1.18635e-05;0.0006245006336170075
1.18638e-05;0.0006593562540869055
1.18640e-05;0.000696171542785342
1.18643e-05;0.0007365231597025201
1.18645e-05;0.0007788444347727031
1.18648e-05;0.0008247200654243033
1.18650e-05;0.0008705956960762144
1.18653e-05;0.0009183923241262059
1.18655e-05;0.0009696554967709803
1.18658e-05;0.0010209186694161022
1.18660e-05;0.0010721818420612239
1.18663e-05;0.0011234450147059984
1.18665e-05;0.001174782385368685
1.18668e-05;0.0012262536504015725
1.18670e-05;0.0012777249154341112
1.18673e-05;0.0013291961804669985
1.18675e-05;0.001380667445499886
1.18678e-05;0.001430204160321772
1.18680e-05;0.0014762498737588723
1.18683e-05;0.0015222955871959725
1.18685e-05;0.0015655427797119715
1.18688e-05;0.0016037398885668215
1.18690e-05;0.0016419369974216716
1.18692e-05;0.0016775542567717512
1.18695e-05;0.0017085160369597356
1.18698e-05;0.0017394778171477198
1.18700e-05;0.0017670588335596657
1.18703e-05;0.0017885390773160594
1.18705e-05;0.0018100193210725986
1.18708e-05;0.001831499564829138
1.18710e-05;0.0018529798085855317
1.18713e-05;0.0018744600523420709
1.18715e-05;0.0018959402960986103
1.18718e-05;0.001917420539855004
1.18720e-05;0.0019389007836115432
1.18723e-05;0.001956435297863542
1.18725e-05;0.001966849527983322
1.18728e-05;0.001977263758103173
1.18730e-05;0.001987677988223024
1.18733e-05;0.0019980922183428043
1.18735e-05;0.002008506448462655
1.18738e-05;0.002018920678582506
1.18740e-05;0.0020293349087022864
1.18743e-05;0.0020397491388221374
1.18745e-05;0.0020477995194947305
1.18748e-05;0.002051584204890363
1.18750e-05;0.002055368890286021
1.18753e-05;0.002059153575681679
1.18755e-05;0.0020629382610773115
1.18758e-05;0.0020667229464729694
1.18760e-05;0.0020705076318686274
1.18763e-05;0.0020742923172642597
1.18765e-05;0.0020780770026599176
1.18768e-05;0.002081861688055576
1.18770e-05;0.002084655063031179
1.18773e-05;0.002085659564277095
1.18775e-05;0.002086664065523011
1.18777e-05;0.00208766856676892
1.18780e-05;0.0020886730680148356
1.18783e-05;0.0020896775692607517
1.18785e-05;0.0020906820705066673
1.18788e-05;0.0020916865717525764
1.18790e-05;0.0020926910729984925
1.18793e-05;0.0020936955742444086
1.18795e-05;0.002097677807349109
1.18798e-05;0.002107033520031118
1.18800e-05;0.0021163892327131263
1.18803e-05;0.002125744945395072
1.18805e-05;0.0021351006580770807
1.18808e-05;0.002144456370759089
1.18810e-05;0.0021538120834410346
1.18813e-05;0.0021631677961230435
1.18815e-05;0.002172523508805052
1.18818e-05;0.0021818792214869974
1.18820e-05;0.0021912349341690063
1.18823e-05;0.002200590646851015
1.18825e-05;0.0022099463595329602
1.18828e-05;0.0022314157622174004
1.18830e-05;0.0022549136827007513
1.18833e-05;0.0022784116031839426
1.18835e-05;0.0023019095236672935
1.18838e-05;0.0023254074441506445
1.18840e-05;0.002348905364633836
1.18843e-05;0.0023724032851171867
1.18845e-05;0.0023959012056005372
1.18848e-05;0.002419399126083729
1.18850e-05;0.0024428970465670795
1.18853e-05;0.0024663949670504304
1.18855e-05;0.0024898928875336217
1.18858e-05;0.0025146742739091178
1.18860e-05;0.002541771744501825
1.18862e-05;0.002568869215094349
1.18865e-05;0.0025959666856870565
1.18868e-05;0.002623064156279764
1.18870e-05;0.0026501616268724713
1.18873e-05;0.002677259097464995
1.18875e-05;0.002704356568057702
1.18878e-05;0.0027292314396297353
1.18880e-05;0.002750095510022739
1.18883e-05;0.002770959580415884
1.18885e-05;0.002791823650809029
1.18888e-05;0.002812687721202033
1.18890e-05;0.002833551791595178
1.18893e-05;0.002854415861988323
1.18895e-05;0.0028752799323813268
1.18898e-05;0.0028994375753933926
1.18900e-05;0.0029295386498661103
1.18903e-05;0.002959639724338624
1.18905e-05;0.0029897407988113416
1.18908e-05;0.0030198418732840593
1.18910e-05;0.003049942947756573
1.18913e-05;0.0030800440222292906
1.18915e-05;0.003110145096702008
1.18918e-05;0.003140246171174522
1.18920e-05;0.003170347245647239
1.18923e-05;0.003200448320119957
1.18925e-05;0.0032305493945924703
1.18928e-05;0.0032780394215500826
1.18930e-05;0.003328441344027411
1.18933e-05;0.003378843266504398
1.18935e-05;0.003429245188981726
1.18938e-05;0.003479647111459054
1.18940e-05;0.003530049033936041
1.18943e-05;0.0035804509564133693
1.18945e-05;0.0036308528788906976
1.18947e-05;0.003681254801367684
1.18950e-05;0.0037316567238450124
1.18953e-05;0.0037820586463223407
1.18955e-05;0.0038346260792471182
1.18958e-05;0.0038911012939069033
1.18960e-05;0.003947576508567071
1.18963e-05;0.004004051723227238
1.18965e-05;0.004060526937887023
1.18968e-05;0.004117002152547192
1.18970e-05;0.004173477367207359
1.18973e-05;0.004229952581867144
1.18975e-05;0.004276954198958432
1.18978e-05;0.004322369399251496
1.18980e-05;0.004367784599544252
1.18983e-05;0.004413199799837316
1.18985e-05;0.00445861500013038
1.18988e-05;0.004504030200423136
