Time(s);Current(A)
6.50000e-06;0.0011803118966213586
6.50025e-06;0.0011753171360434824
6.50050e-06;0.0011703223754655893
6.50075e-06;0.0011653276148877129
6.50100e-06;0.0011603328543098367
6.50125e-06;0.0011557998123926739
6.50150e-06;0.0011512816250982692
6.50175e-06;0.0011467634378038644
6.50200e-06;0.0011422452505094444
6.50225e-06;0.0011377270632150396
6.50250e-06;0.001133208875920635
6.50275e-06;0.001128690688626215
6.50300e-06;0.0011222889023885878
6.50325e-06;0.0011137530593564571
6.50350e-06;0.0011052172163243553
6.50375e-06;0.0010946930290104758
6.50400e-06;0.001081916111815018
6.50425e-06;0.001069141713847283
6.50450e-06;0.0010572502853691327
6.50475e-06;0.0010453588568909418
6.50500e-06;0.0010263639788021216
6.50525e-06;0.0010095632868313295
6.50550e-06;0.0009829239108883549
6.50575e-06;0.0009539035502812527
6.50600e-06;0.0009282874303116588
6.50625e-06;0.0009016918185437467
6.50650e-06;0.0008723395298109725
6.50675e-06;0.0008415796472711015
6.50700e-06;0.0008106622818453092
6.50725e-06;0.000779623481764665
6.50750e-06;0.0007419940108451548
6.50775e-06;0.0007043645399257721
6.50800e-06;0.0006667350690063894
6.50825e-06;0.0006290858734765597
6.50850e-06;0.0005900126547423346
6.50875e-06;0.0005509394360081095
6.50900e-06;0.000511866217273752
6.50925e-06;0.00047279299853952687
6.50950e-06;0.00043265957232068857
6.50975e-06;0.0003924056902237184
6.51000e-06;0.00035215180812688473
6.51025e-06;0.00031302384361227433
6.51050e-06;0.00027559907003562933
6.51075e-06;0.00023817429645911107
6.51100e-06;0.00020074952288259284
6.51125e-06;0.00016562994491378145
6.51150e-06;0.00013167616197088715
6.51175e-06;9.933077732552453e-05
6.51200e-06;6.892202852330129e-05
6.51225e-06;4.079031358982839e-05
6.51250e-06;1.5322798658013e-05
6.51275e-06;-8.143350396964495e-06
6.51300e-06;-3.014459839564296e-05
6.51325e-06;-5.089359350910792e-05
6.51350e-06;-7.053319956003282e-05
6.51375e-06;-8.872499276485607e-05
6.51400e-06;-0.00010529054840561702
6.51425e-06;-0.00012004385981085373
6.51450e-06;-0.00013276964264215783
6.51475e-06;-0.00014391030108141457
6.51500e-06;-0.00015382905441164361
6.51525e-06;-0.00016268627787785006
6.51550e-06;-0.000170598619799329
6.51575e-06;-0.00017738121265521497
6.51600e-06;-0.00018294947789811083
6.51625e-06;-0.000187214097277484
6.51650e-06;-0.00019006735602511378
6.51675e-06;-0.00019181360010029095
6.51700e-06;-0.0001927074891671467
6.51725e-06;-0.00019287661846794808
6.51750e-06;-0.00019209590089690627
6.51775e-06;-0.00019121553185346291
6.51800e-06;-0.00018899857688122991
6.51825e-06;-0.00018662976518864504
6.51850e-06;-0.00018293147616330676
6.51875e-06;-0.00017908213806348063
6.51900e-06;-0.00017450416887022723
6.51925e-06;-0.00016984341597726737
6.51950e-06;-0.00016466619875467054
6.51975e-06;-0.0001594303032401646
6.52000e-06;-0.00015419440772567638
6.52025e-06;-0.00014842904127888965
6.52050e-06;-0.00014260351879011107
6.52075e-06;-0.0001367779963013325
6.52100e-06;-0.00013111784728024264
6.52125e-06;-0.00012570786096733973
6.52150e-06;-0.00012029787465443685
6.52175e-06;-0.00011488788834151564
6.52200e-06;-0.00011008030887361817
6.52225e-06;-0.00010565600187647392
6.52250e-06;-0.00010137892168326875
6.52275e-06;-9.657676037117406e-05
6.52300e-06;-9.042531827300488e-05
6.52325e-06;-8.263745099905852e-05
6.52350e-06;-7.332278903134616e-05
6.52375e-06;-6.258558474003475e-05
6.52400e-06;-5.054584444742275e-05
6.52425e-06;-3.7322817550860966e-05
6.52450e-06;-2.2889924166529193e-05
6.52475e-06;-6.924800292388118e-06
6.52500e-06;1.0990012748936755e-05
6.52525e-06;3.093554443331125e-05
6.52550e-06;5.2744276468922397e-05
6.52575e-06;7.625207336968559e-05
6.52600e-06;0.00010128494922363648
6.52625e-06;0.00012766939170744964
6.52650e-06;0.0001553232339608409
6.52675e-06;0.00018434963305595127
6.52700e-06;0.00021491123233764153
6.52725e-06;0.00024695995713249267
6.52750e-06;0.00028076858336090833
6.52775e-06;0.0003147600092411393
6.52800e-06;0.000350530121712131
6.52825e-06;0.0003865023203389002
6.52850e-06;0.0004224745189655476
6.52875e-06;0.00045987640565716884
6.52900e-06;0.0004974407269036327
6.52925e-06;0.0005350050481500965
6.52950e-06;0.0005725693693966875
6.52975e-06;0.0006096951856589578
6.53000e-06;0.0006467711810101457
6.53025e-06;0.0006838471763614592
6.53050e-06;0.0007209231717126471
6.53075e-06;0.0007554316005435974
6.53100e-06;0.0007896483143248715
6.53125e-06;0.0008238650281060296
6.53150e-06;0.0008542813087326358
6.53175e-06;0.0008842658016965383
6.53200e-06;0.0009142502946603391
6.53225e-06;0.0009386697151963028
6.53250e-06;0.000962456857905281
6.53275e-06;0.0009862440006141785
6.53300e-06;0.0010043800882447212
6.53325e-06;0.0010218741290965129
6.53350e-06;0.0010393681699483045
6.53375e-06;0.0010510314197494303
6.53400e-06;0.0010620322020007886
6.53425e-06;0.0010730329842521466
6.53450e-06;0.001077904414419371
6.53475e-06;0.0010820794559111575
6.53500e-06;0.0010862544974029442
6.53525e-06;0.0010850277725222587
6.53550e-06;0.0010831873238943894
6.53575e-06;0.00108134687526652
6.53600e-06;0.0010743836726604707
6.53625e-06;0.0010668384464069015
6.53650e-06;0.0010592932201533324
6.53675e-06;0.001047259960886049
6.53700e-06;0.0010347167920358058
6.53725e-06;0.0010221736231855203
6.53750e-06;0.0010047429112552487
6.53775e-06;0.0009867568992534164
6.53800e-06;0.0009687708872515231
6.53825e-06;0.0009507848752496907
6.53850e-06;0.0009327988632478584
6.53875e-06;0.0009148128512459651
6.53900e-06;0.0008935152266049418
6.53925e-06;0.0008718413518306149
6.53950e-06;0.0008501674770562146
6.53975e-06;0.0008284936022818878
6.54000e-06;0.0008068197275075609
6.54025e-06;0.0007851458527331606
6.54050e-06;0.0007646826258748347
6.54075e-06;0.0007443569472413088
6.54100e-06;0.000724031268607714
6.54125e-06;0.000703705589974188
6.54150e-06;0.0006833799113405932
6.54175e-06;0.0006630542327070672
6.54200e-06;0.0006485397877738997
6.54225e-06;0.0006346855883743019
6.54250e-06;0.0006208313889747511
6.54275e-06;0.0006069771895752005
6.54300e-06;0.0005931229901756027
6.54325e-06;0.000579268790776052
6.54350e-06;0.0005705004172438525
6.54375e-06;0.0005623098717575384
6.54400e-06;0.0005568258458076594
6.54425e-06;0.0005516493221073029
6.54450e-06;0.000549258427208772
6.54475e-06;0.0005471840225891378
6.54500e-06;0.0005477269925755061
6.54525e-06;0.0005485673365761166
6.54550e-06;0.0005524679137464618
6.54575e-06;0.000556716180475692
6.54600e-06;0.0005609644472049078
6.54625e-06;0.0005686581528629975
6.54650e-06;0.0005767433133792273
6.54675e-06;0.0005848284738954298
6.54700e-06;0.0005958152831669204
6.54725e-06;0.0006071317643685578
6.54750e-06;0.0006184482455701569
6.54775e-06;0.0006328741887113691
6.54800e-06;0.0006476534145569299
6.54825e-06;0.0006624326404024407
6.54850e-06;0.0006772118662479515
6.54875e-06;0.0006919910920935123
6.54900e-06;0.000706770317939023
6.54925e-06;0.0007232452052841892
6.54950e-06;0.0007399127458574503
6.54975e-06;0.0007565802864306548
6.55000e-06;0.0007732478270039159
6.55025e-06;0.0007899153675771204
6.55050e-06;0.0008065829081503249
6.55075e-06;0.0008216038940325468
6.55100e-06;0.0008364378059754858
6.55125e-06;0.0008512717179184248
6.55150e-06;0.000866105629861414
6.55175e-06;0.000880939541804353
6.55200e-06;0.0008957734537472919
6.55225e-06;0.0009048714430345924
6.55250e-06;0.0009133177432816557
6.55275e-06;0.000921764043528719
6.55300e-06;0.0009302103437758108
6.55325e-06;0.000938656644022874
6.55350e-06;0.0009471029442699373
6.55375e-06;0.0009489529552417242
6.55400e-06;0.0009500535262917224
6.55425e-06;0.0009511540973417244
6.55450e-06;0.0009476041307814949
6.55475e-06;0.0009435257916170391
6.55500e-06;0.0009394474524525696
6.55525e-06;0.0009305633016389935
6.55550e-06;0.0009211331367020636
6.55575e-06;0.0009117029717651018
6.55600e-06;0.0008980026487978836
6.55625e-06;0.0008838171701975207
6.55650e-06;0.0008696316915971097
6.55675e-06;0.0008516368766736058
6.55700e-06;0.0008332092625509766
6.55725e-06;0.0008147816484282851
6.55750e-06;0.0007922785374482516
6.55775e-06;0.0007693123873385037
6.55800e-06;0.000746346237228678
6.55825e-06;0.0007233800871189302
6.55850e-06;0.0007004139370091044
6.55875e-06;0.0006763116657724472
6.55900e-06;0.0006504907685576632
6.55925e-06;0.0006246698713427917
6.55950e-06;0.0005988489741280077
6.55975e-06;0.0005730280769132236
6.56000e-06;0.0005472071796983521
6.56025e-06;0.0005220580715373668
6.56050e-06;0.0004969852889459158
6.56075e-06;0.0004719125063543799
6.56100e-06;0.00044683972376292897
6.56125e-06;0.00042474189514571636
6.56150e-06;0.0004029820670587002
6.56175e-06;0.00038122223897175776
6.56200e-06;0.00035946241088481533
6.56225e-06;0.00034135913221963494
6.56250e-06;0.00032367129381147026
6.56275e-06;0.00030818304318518466
6.56300e-06;0.0002929446995635805
6.56325e-06;0.000279188589686173
6.56350e-06;0.0002656008843607917
6.56375e-06;0.00025374139111010495
6.56400e-06;0.00024207824933329737
6.56425e-06;0.0002324362356030192
6.56450e-06;0.00022302385310649832
6.56475e-06;0.00021531292744496027
6.56500e-06;0.0002077953134505115
6.56525e-06;0.00020147632765977444
6.56550e-06;0.00019529352446946116
6.56575e-06;0.00019040996747816716
6.56600e-06;0.00018567402483922232
6.56625e-06;0.0001823673346896725
6.56650e-06;0.00017922302960669248
6.56675e-06;0.00017725423018939612
6.56700e-06;0.00017541898629653397
6.56725e-06;0.0001743908686009245
6.56750e-06;0.00017345445285597909
6.56775e-06;0.00017333478735419893
6.56800e-06;0.00017330791724272975
6.56825e-06;0.0001743014638777452
6.56850e-06;0.00017541094555050536
6.56875e-06;0.00017652042722326173
6.56900e-06;0.00017835408404983063
6.56925e-06;0.00018027001831263437
6.56950e-06;0.0001821859525754316
6.56975e-06;0.00018465640959806402
6.57000e-06;0.00018718986893550082
6.57025e-06;0.00018972332827292904
6.57050e-06;0.00019225678761035725
6.57075e-06;0.00019479024694779402
6.57100e-06;0.00019728172898025222
6.57125e-06;0.00019976844174520925
6.57150e-06;0.00020225515451015785
6.57175e-06;0.00020474186727510648
6.57200e-06;0.0002072285800400635
6.57225e-06;0.00020942259549210627
6.57250e-06;0.00021158335602734397
6.57275e-06;0.00021374411656258899
6.57300e-06;0.0002174808772311046
6.57325e-06;0.00022139669575565153
6.57350e-06;0.0002271278262572931
6.57375e-06;0.00023306520412132235
6.57400e-06;0.00024054745369855778
6.57425e-06;0.00024820522446452904
6.57450e-06;0.0002573973543232627
6.57475e-06;0.00026676381097532286
6.57500e-06;0.00027834517025242413
6.57525e-06;0.00029017817653569246
6.57550e-06;0.0003041802585206797
6.57575e-06;0.00031842878086845035
6.57600e-06;0.0003344495519980383
6.57625e-06;0.0003506716778487112
6.57650e-06;0.00036843203070468345
6.57675e-06;0.00038636714980832377
6.57700e-06;0.0004064294291605034
6.57725e-06;0.0004267333866352318
6.57750e-06;0.0004470373441099602
6.57775e-06;0.0004696536258711927
6.57800e-06;0.0004925326232377225
6.57825e-06;0.0005154116206042521
6.57850e-06;0.0005382906179708594
6.57875e-06;0.000561169615337389
6.57900e-06;0.0005844462675234383
6.57925e-06;0.0006083244575973038
6.57950e-06;0.0006322026476710885
6.57975e-06;0.0006560808377449541
6.58000e-06;0.0006799590278187388
6.58025e-06;0.0007038372178925235
6.58050e-06;0.0007241366323623655
6.58075e-06;0.0007440294428775444
6.58100e-06;0.0007639222533927232
6.58125e-06;0.0007838150639079696
6.58150e-06;0.0008037078744231484
6.58175e-06;0.0008236006849383274
6.58200e-06;0.0008434934954535736
6.58225e-06;0.0008633863059687526
6.58250e-06;0.0008803962355499577
6.58275e-06;0.0008930451916879863
6.58300e-06;0.000905694147825972
6.58325e-06;0.0009183431039639577
6.58350e-06;0.0009309920601019864
6.58375e-06;0.0009436410162399722
6.58400e-06;0.0009562899723780007
6.58425e-06;0.0009689389285159866
6.58450e-06;0.0009815878846539724
6.58475e-06;0.0009894264485934986
6.58500e-06;0.000996718477989612
6.58525e-06;0.0010040105073857253
6.58550e-06;0.0010113025367818635
6.58575e-06;0.001018594566177977
6.58600e-06;0.0010258865955740904
6.58625e-06;0.0010331786249702284
6.58650e-06;0.0010404706543663419
6.58675e-06;0.0010477626837624553
6.58700e-06;0.0010550547131585935
6.58725e-06;0.0010623467425547068
6.58750e-06;0.0010696387719508202
6.58775e-06;0.0010769308013469584
6.58800e-06;0.001084222830743072
6.58825e-06;0.0010915148601392099
6.58850e-06;0.0010988068895353234
6.58875e-06;0.0011060989189314368
6.58900e-06;0.001113390948327575
6.58925e-06;0.001116942288136116
6.58950e-06;0.001120068628071296
6.58975e-06;0.001123194968006487
6.59000e-06;0.0011263213079416672
6.59025e-06;0.0011294476478768472
6.59050e-06;0.0011325739878120381
6.59075e-06;0.0011357003277472184
6.59100e-06;0.0011388266676823986
6.59125e-06;0.0011419530076175893
6.59150e-06;0.0011450793475527696
6.59175e-06;0.0011482056874879498
6.59200e-06;0.0011513320274231407
6.59225e-06;0.0011544583673583208
6.59250e-06;0.0011575847072935116
6.59275e-06;0.001160711047228692
6.59300e-06;0.001163837387163872
6.59325e-06;0.0011669637270990628
6.59350e-06;0.001170090067034243
6.59375e-06;0.001166312874182839
6.59400e-06;0.0011617513338225709
6.59425e-06;0.001157189793462318
6.59450e-06;0.0011526282531020653
6.59475e-06;0.001148066712741797
6.59500e-06;0.001143505172381544
6.59525e-06;0.0011389436320212913
6.59550e-06;0.0011343820916610231
6.59575e-06;0.0011298205513007704
6.59600e-06;0.0011252590109405176
6.59625e-06;0.0011179756145339751
6.59650e-06;0.0011065748292368215
6.59675e-06;0.0010951740439396293
6.59700e-06;0.0010837732586424758
6.59725e-06;0.0010723724733453222
6.59750e-06;0.0010609716880481302
6.59775e-06;0.0010495709027509765
6.59800e-06;0.001038170117453823
6.59825e-06;0.0010267693321566308
6.59850e-06;0.0010153685468594772
6.59875e-06;0.0010039677615623238
6.59900e-06;0.000990581064516563
6.59925e-06;0.0009769687373506583
6.59950e-06;0.0009633564101847536
6.59975e-06;0.0009497440830188027
6.60000e-06;0.000936131755852898
6.60025e-06;0.0009225194286869934
6.60050e-06;0.0009089071015210425
6.60075e-06;0.000896280314004759
6.60100e-06;0.000885144365803741
6.60125e-06;0.0008740084176026852
6.60150e-06;0.0008628724694016672
6.60175e-06;0.0008517365212006114
6.60200e-06;0.0008406005729995934
6.60225e-06;0.0008294646247985753
6.60250e-06;0.0008183286765975195
6.60275e-06;0.0008089397589319363
6.60300e-06;0.0007997493308064268
6.60325e-06;0.0007905589026808862
6.60350e-06;0.0007813684745553766
6.60375e-06;0.0007721780464298671
6.60400e-06;0.0007629876183043265
6.60425e-06;0.000753797190178817
6.60450e-06;0.0007446067620533075
6.60475e-06;0.0007347493679940398
6.60500e-06;0.000723883045439394
6.60525e-06;0.0007130167228847483
6.60550e-06;0.0007021504003300657
6.60575e-06;0.0006912840777754199
6.60600e-06;0.0006804177552207373
6.60625e-06;0.0006695514326660915
6.60650e-06;0.0006586851101114458
6.60675e-06;0.0006478187875567633
6.60700e-06;0.000635234916692273
6.60725e-06;0.0006224559059220486
6.60750e-06;0.0006096768951517809
6.60775e-06;0.0005968978843815565
6.60800e-06;0.000584118873611332
6.60825e-06;0.0005713398628410642
6.60850e-06;0.0005585608520708398
6.60875e-06;0.000545743691209313
6.60900e-06;0.0005328688201825477
6.60925e-06;0.000519993949155826
6.60950e-06;0.0005071190781291044
6.60975e-06;0.0004942442071023391
6.61000e-06;0.0004813693360756174
6.61025e-06;0.00046849446504885215
6.61050e-06;0.00045561959402213046
6.61075e-06;0.00044424091636159445
6.61100e-06;0.0004330322292804471
6.61125e-06;0.00042182354219933766
6.61150e-06;0.0004106148551182283
6.61175e-06;0.0004005007573669295
6.61200e-06;0.0003920424598742034
6.61225e-06;0.0003835841623814773
6.61250e-06;0.0003751258648887225
6.61275e-06;0.00036666756739599644
6.61300e-06;0.0003615396834445098
6.61325e-06;0.0003567901856965136
6.61350e-06;0.0003546107198285791
6.61375e-06;0.00035272324911196857
6.61400e-06;0.0003533481052016956
6.61425e-06;0.00035425840025880606
6.61450e-06;0.00035772431399482886
6.61475e-06;0.00036148058532081196
6.61500e-06;0.00036805324580826493
6.61525e-06;0.0003749458914234413
6.61550e-06;0.00038453567427464597
6.61575e-06;0.0003944318934005948
6.61600e-06;0.0004067495825898519
6.61625e-06;0.00041934238802293893
6.61650e-06;0.0004341442811454237
6.61675e-06;0.00044919716060749326
6.61700e-06;0.0004668547829801323
6.61725e-06;0.00048480834421100533
6.61750e-06;0.0005027619054419392
6.61775e-06;0.0005231344365313717
6.61800e-06;0.0005437817998029359
6.61825e-06;0.0005644291630745701
6.61850e-06;0.0005870045096896344
6.61875e-06;0.0006097989048669205
6.61900e-06;0.0006325933000441293
6.61925e-06;0.0006553876952213381
6.61950e-06;0.0006781820903986241
6.61975e-06;0.0007009030432840736
6.62000e-06;0.0007235128990097506
6.62025e-06;0.0007461227547355042
6.62050e-06;0.0007687326104611812
6.62075e-06;0.0007913424661868582
6.62100e-06;0.0008139523219126117
6.62125e-06;0.0008308514140851978
6.62150e-06;0.0008471016756809618
6.62175e-06;0.0008633519372767808
6.62200e-06;0.0008796021988725447
6.62225e-06;0.0008958524604683086
6.62250e-06;0.0009121027220641275
6.62275e-06;0.0009283529836598914
6.62300e-06;0.0009446032452557103
6.62325e-06;0.0009608535068514742
6.62350e-06;0.000973575631369313
6.62375e-06;0.0009809606946485634
6.62400e-06;0.0009883457579277887
6.62425e-06;0.0009957308212070143
6.62450e-06;0.0010031158844862646
6.62475e-06;0.0010105009477654901
6.62500e-06;0.0010178860110447155
6.62525e-06;0.0010252710743239657
6.62550e-06;0.0010326561376031913
6.62575e-06;0.0010400412008824166
6.62600e-06;0.001041762729606305
6.62625e-06;0.0010428407936940833
6.62650e-06;0.0010439188577818616
6.62675e-06;0.0010449969218696436
6.62700e-06;0.001046074985957422
6.62725e-06;0.001047153050045204
6.62750e-06;0.0010482311141329823
6.62775e-06;0.0010493091782207606
6.62800e-06;0.0010503872423085424
6.62825e-06;0.0010514653063963208
6.62850e-06;0.0010495919127708072
6.62875e-06;0.0010473831881528417
6.62900e-06;0.0010451744635348835
6.62925e-06;0.0010429657389169256
6.62950e-06;0.00104075701429896
6.62975e-06;0.0010385482896810019
6.63000e-06;0.001036339565063044
6.63025e-06;0.0010341308404450782
6.63050e-06;0.0010319221158271203
6.63075e-06;0.001029713391209162
6.63100e-06;0.0010272906142199249
6.63125e-06;0.001024843517588994
6.63150e-06;0.0010223964209580547
6.63175e-06;0.0010199493243271238
6.63200e-06;0.0010175022276961928
6.63225e-06;0.0010142598464297295
6.63250e-06;0.001010927108596468
6.63275e-06;0.0010075943707632065
6.63300e-06;0.0010042616329299337
6.63325e-06;0.0010009288950966722
6.63350e-06;0.0009936630825831802
6.63375e-06;0.0009859504122916903
6.63400e-06;0.000978237742000227
6.63425e-06;0.0009675974626381674
6.63450e-06;0.0009566245618563499
6.63475e-06;0.0009456516610745694
6.63500e-06;0.0009306916045289478
6.63525e-06;0.0009152785457624212
6.63550e-06;0.000899865486995947
6.63575e-06;0.0008807335348508261
6.63600e-06;0.0008611790592180196
6.63625e-06;0.0008416245835852129
6.63650e-06;0.0008190362358247532
6.63675e-06;0.0007961031935269925
6.63700e-06;0.0007731701512292319
6.63725e-06;0.000746523006885885
6.63750e-06;0.0007194538834240425
6.63775e-06;0.0006923847599621999
6.63800e-06;0.0006653156365002657
6.63825e-06;0.0006382465130384231
6.63850e-06;0.0006088636565582664
6.63875e-06;0.00057921792441986
6.63900e-06;0.0005495721922815542
6.63925e-06;0.0005199264601432482
6.63950e-06;0.0004902807280048419
6.63975e-06;0.0004607860822803394
6.64000e-06;0.00043130860229618703
6.64025e-06;0.00040183112231213455
6.64050e-06;0.00037235364232808207
6.64075e-06;0.0003453233422654371
6.64100e-06;0.00031857107948173464
6.64125e-06;0.0002918188166980322
6.64150e-06;0.0002650665539142391
6.64175e-06;0.00024081470711870504
6.64200e-06;0.0002181880401765495
6.64225e-06;0.00019722715441177047
6.64250e-06;0.0001781124336638863
6.64275e-06;0.00016097388619477812
6.64300e-06;0.0001458751042124823
6.64325e-06;0.000132852212607863
6.64350e-06;0.00012194187572789134
6.64375e-06;0.00011318116294468173
6.64400e-06;0.00010660709373557673
6.64425e-06;0.00010225666782963737
6.64450e-06;0.00010015967687078834
6.64475e-06;0.00010031433989727275
6.64500e-06;0.00010267726460702942
6.64525e-06;0.00010718788286555404
6.64550e-06;0.00011378594428319651
6.64575e-06;0.00012241144611724937
