Time(s);Current(A)
7.25000e-06;0.0008695167445346379
7.25025e-06;0.0008562345462752521
7.25050e-06;0.0008429523480159112
7.25075e-06;0.0008296701497565253
7.25100e-06;0.0008163879514971844
7.25125e-06;0.0008031057532378437
7.25150e-06;0.0007918230140325465
7.25175e-06;0.0007812183099675642
7.25200e-06;0.000770613605902582
7.25225e-06;0.0007600089018375638
7.25250e-06;0.0007494041977725815
7.25275e-06;0.0007387994937075992
7.25300e-06;0.000728194789642581
7.25325e-06;0.0007177903152633362
7.25350e-06;0.0007074537406306618
7.25375e-06;0.0006971171659979523
7.25400e-06;0.0006842823868343704
7.25425e-06;0.0006706004433060163
7.25450e-06;0.0006569184997776158
7.25475e-06;0.0006412994150237256
7.25500e-06;0.0006250234276841539
7.25525e-06;0.0006087474403446375
7.25550e-06;0.0005897814628573293
7.25575e-06;0.0005699032847208388
7.25600e-06;0.0005477988561301334
7.25625e-06;0.0005249394853285356
7.25650e-06;0.0005003745932102445
7.25675e-06;0.00047523134296930026
7.25700e-06;0.0004486118513231706
7.25725e-06;0.0004214917525021912
7.25750e-06;0.00039253203529339414
7.25775e-06;0.0003629484863992421
7.25800e-06;0.00033185114022634164
7.25825e-06;0.0003002404513332172
7.25850e-06;0.0002677007327141251
7.25875e-06;0.0002348459714841858
7.25900e-06;0.0002013277702464804
7.25925e-06;0.00016758459033865424
7.25950e-06;0.00013384141043094237
7.25975e-06;9.964385081976342e-05
7.26000e-06;6.529220682985307e-05
7.26025e-06;3.107165342868242e-05
7.26050e-06;-2.8088178397698015e-06
7.26075e-06;-3.613736337538642e-05
7.26100e-06;-6.874451330703138e-05
7.26125e-06;-0.00010054434570709021
7.26150e-06;-0.00013146462681136524
7.26175e-06;-0.00016135623938589802
7.26200e-06;-0.00019001273036177175
7.26225e-06;-0.0002172166504698198
7.26250e-06;-0.00024275057217432018
7.26275e-06;-0.0002663975969192953
7.26300e-06;-0.00028760440199540155
7.26325e-06;-0.0003081504548331459
7.26350e-06;-0.0003274936113006563
7.26375e-06;-0.0003454416326646124
7.26400e-06;-0.0003630548779553165
7.26425e-06;-0.00037903593151099036
7.26450e-06;-0.00039446349368630896
7.26475e-06;-0.00040793926972891185
7.26500e-06;-0.00042075317696202213
7.26525e-06;-0.00043184824010614333
7.26550e-06;-0.0004423604272517937
7.26575e-06;-0.0004528726143974797
7.26600e-06;-0.00046181184507023125
7.26625e-06;-0.000470217671590406
7.26650e-06;-0.00047862349811060925
7.26675e-06;-0.00048515987670786297
7.26700e-06;-0.0004910623081474713
7.26725e-06;-0.0004969647395870997
7.26750e-06;-0.0005016770323518148
7.26775e-06;-0.000505985738035627
7.26800e-06;-0.0005102944437194246
7.26825e-06;-0.000512792469467445
7.26850e-06;-0.0005146764768282376
7.26875e-06;-0.0005165604841890238
7.26900e-06;-0.00051844449154981
7.26925e-06;-0.0005203284989106026
7.26950e-06;-0.0005222125062713888
7.26975e-06;-0.000524096513632175
7.27000e-06;-0.0005259805209929675
7.27025e-06;-0.0005264437785768511
7.27050e-06;-0.0005264252467128078
7.27075e-06;-0.0005264067148487644
7.27100e-06;-0.000526388182984721
7.27125e-06;-0.0005263696511206777
7.27150e-06;-0.0005263511192566344
7.27175e-06;-0.0005263325873925911
7.27200e-06;-0.0005263140555285476
7.27225e-06;-0.0005261324066394855
7.27250e-06;-0.0005258954432519068
7.27275e-06;-0.0005256584798643273
7.27300e-06;-0.0005247952809804079
7.27325e-06;-0.0005237197198220488
7.27350e-06;-0.0005201177002924792
7.27375e-06;-0.0005156589352588467
7.27400e-06;-0.0005084126246388489
7.27425e-06;-0.0005002210314146384
7.27450e-06;-0.0004895742772977465
7.27475e-06;-0.00047809495531410363
7.27500e-06;-0.0004640875123293777
7.27525e-06;-0.00044922276002743144
7.27550e-06;-0.0004318440897124629
7.27575e-06;-0.0004118685560985542
7.27600e-06;-0.0003896917820965209
7.27625e-06;-0.00036549407330600445
7.27650e-06;-0.0003394556627556763
7.27675e-06;-0.0003117566092275862
7.27700e-06;-0.00028248863752992415
7.27725e-06;-0.00025155994287405444
7.27750e-06;-0.00021885699793322376
7.27775e-06;-0.00018444658346934999
7.27800e-06;-0.00014852708190250623
7.27825e-06;-0.00011132193070910392
7.27850e-06;-7.305455999542885e-05
7.27875e-06;-3.394821784822512e-05
7.27900e-06;5.829153778111194e-06
7.27925e-06;4.6224584644376385e-05
7.27950e-06;8.734012650030769e-05
7.27975e-06;0.00012864723308531672
7.28000e-06;0.00017003803533241377
7.28025e-06;0.00021145721955585206
7.28050e-06;0.0002528764037794307
7.28075e-06;0.0002933061421489352
7.28100e-06;0.00033340035023763867
7.28125e-06;0.0003720703148534896
7.28150e-06;0.0004102573052766176
7.28175e-06;0.00044646272349935776
7.28200e-06;0.0004819961721807135
7.28225e-06;0.0005147645044776342
7.28250e-06;0.0005465951601213506
7.28275e-06;0.0005748543999888778
7.28300e-06;0.000601902539588961
7.28325e-06;0.0006245629230407215
7.28350e-06;0.0006457353776214579
7.28375e-06;0.0006621142639767177
7.28400e-06;0.0006768676068156756
7.28425e-06;0.000686712888176152
7.28450e-06;0.0006948938002945571
7.28475e-06;0.0006980602208925879
7.28500e-06;0.0006995261808326936
7.28525e-06;0.0006958650903006446
7.28550e-06;0.0006904653693244972
7.28575e-06;0.0006800831488682948
7.28600e-06;0.0006680113165522985
7.28625e-06;0.0006512840338208474
7.28650e-06;0.0006329780446056969
7.28675e-06;0.0006103487179972888
7.28700e-06;0.0005862533075161119
7.28725e-06;0.0005581627388600222
7.28750e-06;0.0005287173749528787
7.28775e-06;0.000495766111577405
7.28800e-06;0.00046162596512354007
7.28825e-06;0.00042458339948979587
7.28850e-06;0.00038655659654937286
7.28875e-06;0.00034623396263993846
7.28900e-06;0.0003051327911211232
7.28925e-06;0.0002623398231315913
7.28950e-06;0.00021897315124250227
7.28975e-06;0.0001745142619674718
7.29000e-06;0.00012968499163069482
7.29025e-06;8.485572129391785e-05
7.29050e-06;4.002645095698901e-05
7.29075e-06;-4.578927612638458e-06
7.29100e-06;-4.863169365853714e-05
7.29125e-06;-9.185377013038113e-05
7.29150e-06;-0.00013397573509911614
7.29175e-06;-0.00017471083795161363
7.29200e-06;-0.0002137637678440935
7.29225e-06;-0.0002508378729291958
7.29250e-06;-0.0002856365015482655
7.29275e-06;-0.0003178637590378714
7.29300e-06;-0.00034749409366454975
7.29325e-06;-0.0003750965690401747
7.29350e-06;-0.00040139672472551613
7.29375e-06;-0.00042665510549601114
7.29400e-06;-0.0004502497661433204
7.29425e-06;-0.00047336743344022174
7.29450e-06;-0.0004941612658657289
7.29475e-06;-0.0005141670642987726
7.29500e-06;-0.0005314666085138457
7.29525e-06;-0.0005478484367834565
7.29550e-06;-0.0005642302650531229
7.29575e-06;-0.0005787885760008783
7.29600e-06;-0.0005927285152849546
7.29625e-06;-0.0006066684545690781
7.29650e-06;-0.0006183727326962088
7.29675e-06;-0.0006293188773565227
7.29700e-06;-0.0006402650220168738
7.29725e-06;-0.0006494471852673692
7.29750e-06;-0.0006580311660350756
7.29775e-06;-0.0006666151468027527
7.29800e-06;-0.0006729154340331833
7.29825e-06;-0.0006784412995704796
7.29850e-06;-0.0006839671651077574
7.29875e-06;-0.000689493030645035
7.29900e-06;-0.0006950188961823315
7.29925e-06;-0.0007005447617196091
7.29950e-06;-0.0007060706272568869
7.29975e-06;-0.0007115964927941833
7.30000e-06;-0.0007163818007242288
7.30025e-06;-0.0007189066025280917
7.30050e-06;-0.0007214314043319631
7.30075e-06;-0.000723956206135826
7.30100e-06;-0.0007264810079396888
7.30125e-06;-0.0007290058097435602
7.30150e-06;-0.000731530611547423
7.30175e-06;-0.0007340554133512944
7.30200e-06;-0.0007365802151551573
7.30225e-06;-0.0007373208479034759
7.30250e-06;-0.000737456452350851
7.30275e-06;-0.0007375920567982259
7.30300e-06;-0.0007377276612456006
7.30325e-06;-0.0007378632656929758
7.30350e-06;-0.0007379988701403505
7.30375e-06;-0.0007381344745877252
7.30400e-06;-0.0007382700790351005
7.30425e-06;-0.0007384056834824752
7.30450e-06;-0.00073854128792985
7.30475e-06;-0.0007386768923772251
7.30500e-06;-0.0007388124968246
7.30525e-06;-0.0007389481012719747
7.30550e-06;-0.0007390837057193498
7.30575e-06;-0.0007392193101667246
7.30600e-06;-0.0007364771581383579
7.30625e-06;-0.000732759132155978
7.30650e-06;-0.0007290411061735981
7.30675e-06;-0.0007253230801912056
7.30700e-06;-0.0007216050542088256
7.30725e-06;-0.0007178870282264458
7.30750e-06;-0.0007141690022440532
7.30775e-06;-0.0007104509762616733
7.30800e-06;-0.0007067329502792934
7.30825e-06;-0.0007030149242969009
7.30850e-06;-0.0006992968983145209
7.30875e-06;-0.0006955788723321411
7.30900e-06;-0.0006918608463497485
7.30925e-06;-0.0006881428203673686
7.30950e-06;-0.0006844247943849888
7.30975e-06;-0.0006798160856573015
7.31000e-06;-0.0006749053381366748
7.31025e-06;-0.0006699945906160312
7.31050e-06;-0.0006650838430954044
7.31075e-06;-0.0006601730955747775
7.31100e-06;-0.0006552623480541339
7.31125e-06;-0.0006505437614036521
7.31150e-06;-0.0006464117338807775
7.31175e-06;-0.0006422797063578889
7.31200e-06;-0.0006381476788350143
7.31225e-06;-0.0006340156513121396
7.31250e-06;-0.000629883623789251
7.31275e-06;-0.0006257515962663764
7.31300e-06;-0.0006213705448591304
7.31325e-06;-0.0006169050471393704
7.31350e-06;-0.0006124395494196255
7.31375e-06;-0.0006048069556177089
7.31400e-06;-0.0005961003701135648
7.31425e-06;-0.0005873937846094502
7.31450e-06;-0.0005762941423256315
7.31475e-06;-0.0005643829922575869
7.31500e-06;-0.000550555601560277
7.31525e-06;-0.0005360783958646435
7.31550e-06;-0.0005188409421381223
7.31575e-06;-0.0005006674626630413
7.31600e-06;-0.0004798668433438864
7.31625e-06;-0.00045817533649894113
7.31650e-06;-0.0004343494476462684
7.31675e-06;-0.00040979977002740596
7.31700e-06;-0.0003833595084394187
7.31725e-06;-0.0003562781322649539
7.31750e-06;-0.00032779465944414644
7.31775e-06;-0.00031080927793999323
7.31800e-06;-0.0002710018623425136
7.31825e-06;-0.0002442255452667194
7.31850e-06;-0.00020407391296306258
7.31875e-06;-0.00017034491597709035
7.31900e-06;-0.00013410943015857173
7.31925e-06;-0.0001010221260997871
7.31950e-06;-6.403111862805367e-05
7.31975e-06;-3.0016518065978184e-05
7.32000e-06;7.079870454721099e-06
7.32025e-06;4.1610038013508854e-05
7.32050e-06;7.918949688848209e-05
7.32075e-06;0.00011523223988479064
7.32100e-06;0.00014686942677354738
7.32125e-06;0.00018320801059487212
7.32150e-06;0.00021574513336952673
7.32175e-06;0.00024718933218669415
7.32200e-06;0.0002773631432222491
7.32225e-06;0.00030609034727193855
7.32250e-06;0.000333697851804626
7.32275e-06;0.00035944168484891033
7.32300e-06;0.00038169540493877894
7.32325e-06;0.0004038949302991225
7.32350e-06;0.00042454287564729586
7.32375e-06;0.0004451496581205915
7.32400e-06;0.00046457795894709137
7.32425e-06;0.00048400625977359124
7.32450e-06;0.0005033456668636836
7.32475e-06;0.000520140071033849
7.32500e-06;0.0005369344752040146
7.32525e-06;0.000553685170504088
7.32550e-06;0.0005691844930240361
7.32575e-06;0.0005846838155439841
7.32600e-06;0.0006001146034618748
7.32625e-06;0.0006135832648074145
7.32650e-06;0.0006270519261529541
7.32675e-06;0.0006405205874985394
7.32700e-06;0.000653989248844079
7.32725e-06;0.0006674579101896643
7.32750e-06;0.000680926571535204
7.32775e-06;0.0006943952328807437
7.32800e-06;0.0007078638942263289
7.32825e-06;0.0007213325555718686
7.32850e-06;0.0007348012169174083
7.32875e-06;0.0007482698782629936
7.32900e-06;0.0007617385396085332
7.32925e-06;0.0007734281934144671
7.32950e-06;0.0007835638189035589
7.32975e-06;0.0007936994443926164
7.33000e-06;0.0008038350698816738
7.33025e-06;0.0008139706953707658
7.33050e-06;0.0008241063208598232
7.33075e-06;0.0008342419463488807
7.33100e-06;0.0008443775718379725
7.33125e-06;0.00085451319732703
7.33150e-06;0.0008646488228161219
7.33175e-06;0.0008747844483051793
7.33200e-06;0.0008849200737942368
7.33225e-06;0.0008949503854755414
7.33250e-06;0.0009019655921713862
7.33275e-06;0.0009089807988672309
7.33300e-06;0.0009158845969911749
7.33325e-06;0.0009195987987302328
7.33350e-06;0.0009231504162807132
7.33375e-06;0.000922047293794908
7.33400e-06;0.000920787051384122
7.33425e-06;0.0009150285092822917
7.33450e-06;0.0009091224625127628
7.33475e-06;0.0008989933981912449
7.33500e-06;0.0008886963826603791
7.33525e-06;0.0008735909707843349
7.33550e-06;0.0008582958822662007
7.33575e-06;0.0008375704043136203
7.33600e-06;0.0008166758730658448
7.33625e-06;0.0007909413930610871
7.33650e-06;0.0007650610831268719
7.33675e-06;0.0007350057029333552
7.33700e-06;0.0007048088834734816
7.33725e-06;0.0006705626972132316
7.33750e-06;0.0006361786608327335
7.33775e-06;0.0005978480139024711
7.33800e-06;0.0005594096356212776
7.33825e-06;0.0005178869387741815
7.33850e-06;0.00047627378903031774
7.33875e-06;0.0004320709980465258
7.33900e-06;0.00038786820706288364
7.33925e-06;0.00034359177762101724
7.33950e-06;0.00029720709963145176
7.33975e-06;0.0002508224216420434
7.34000e-06;0.00020443774365247783
7.34025e-06;0.00015805306566306945
7.34050e-06;0.0001116864158145833
7.34075e-06;6.586259684049575e-05
7.34100e-06;2.0836202182378927e-05
7.34125e-06;-2.3198026960815196e-05
7.34150e-06;-6.606664277217795e-05
7.34175e-06;-0.00010752420177752002
7.34200e-06;-0.00014727072687673962
7.34225e-06;-0.00018500428670241588
7.34250e-06;-0.00022041826154002242
7.34275e-06;-0.00025321479034978495
7.34300e-06;-0.0002830666337270845
7.34325e-06;-0.0003095691604192713
7.34350e-06;-0.0003323838351583364
7.34375e-06;-0.00035137494153287575
7.34400e-06;-0.00036651172905356993
7.34425e-06;-0.00037776701918154344
7.34450e-06;-0.00038511063968400214
7.34475e-06;-0.00038851791109663564
7.34500e-06;-0.000387945767395495
7.34525e-06;-0.0003833026629508181
7.34550e-06;-0.00037453850176229566
7.34575e-06;-0.0003617302306761283
7.34600e-06;-0.00034502059230265964
7.34625e-06;-0.00032455442880285803
7.34650e-06;-0.00030047482784899705
7.34675e-06;-0.00027292822769362055
7.34700e-06;-0.00024204962656674132
7.34725e-06;-0.000207943591945583
7.34750e-06;-0.0001707406765476835
7.34775e-06;-0.00013065099113417062
7.34800e-06;-8.792581660347649e-05
7.34825e-06;-4.2817803499222466e-05
7.34850e-06;4.42155977010748e-06
7.34875e-06;5.353866641755921e-05
7.34900e-06;0.00010428714303942752
7.34925e-06;0.00015645446036123916
7.34950e-06;0.00021017669713237569
7.34975e-06;0.000263937037066011
7.35000e-06;0.0003187882599271342
7.35025e-06;0.0003736394827880715
7.35050e-06;0.0004284504438257081
7.35075e-06;0.0004821087200789593
7.35100e-06;0.0005357669963320287
7.35125e-06;0.0005893208019807867
7.35150e-06;0.0006398836433330334
7.35175e-06;0.0006903087062688081
7.35200e-06;0.0007367892115303783
7.35225e-06;0.0007830830929863481
7.35250e-06;0.0008240339868764606
7.35275e-06;0.0008647679309362844
7.35300e-06;0.0008992906617934183
7.35325e-06;0.000933640415261193
7.35350e-06;0.0009630378742635042
7.35375e-06;0.0009922712295340034
7.35400e-06;0.001016806340685639
7.35425e-06;0.0010411559772654894
7.35450e-06;0.0010601955285273019
7.35475e-06;0.0010789985255336434
7.35500e-06;0.0010910290401117085
7.35525e-06;0.0011030595546897331
7.35550e-06;0.0011148641567221534
7.35575e-06;0.0011202009455155764
7.35600e-06;0.0011255377343089813
7.35625e-06;0.0011306520864164666
7.35650e-06;0.0011293981381799573
7.35675e-06;0.001128144189943452
7.35700e-06;0.0011266945314222837
7.35725e-06;0.0011196417419800425
7.35750e-06;0.0011125889525378013
7.35775e-06;0.001105327627229047
7.35800e-06;0.0010920959781655195
7.35825e-06;0.0010788643291019919
7.35850e-06;0.0010656326800384194
7.35875e-06;0.0010524010309748918
7.35900e-06;0.0010391693819113642
7.35925e-06;0.0010257791880031125
7.35950e-06;0.0010078498993668402
7.35975e-06;0.0009899206107305682
7.36000e-06;0.0009719913220942352
7.36025e-06;0.0009540620334579631
7.36050e-06;0.000936132744821691
7.36075e-06;0.0009182516387478738
7.36100e-06;0.000901749986013626
7.36125e-06;0.0008852483332793782
7.36150e-06;0.0008687466805450744
7.36175e-06;0.0008522450278108265
7.36200e-06;0.0008357433750765228
7.36225e-06;0.0008192417223422749
7.36250e-06;0.000802740069608027
7.36275e-06;0.0007862384168737232
7.36300e-06;0.0007737535084919687
7.36325e-06;0.0007647773735821057
7.36350e-06;0.0007558012386722124
7.36375e-06;0.0007468251037623494
7.36400e-06;0.0007378489688524865
7.36425e-06;0.0007288728339425931
7.36450e-06;0.0007198966990327302
7.36475e-06;0.0007109205641228672
7.36500e-06;0.0007021231042953794
7.36525e-06;0.0006984410622889762
7.36550e-06;0.000694759020282573
7.36575e-06;0.0006912169565888296
7.36600e-06;0.0006916824329812145
7.36625e-06;0.000692147909373601
7.36650e-06;0.0006926133857659859
7.36675e-06;0.0006930788621583708
7.36700e-06;0.0006935443385507573
7.36725e-06;0.0006940098149431423
7.36750e-06;0.0006944752913355272
7.36775e-06;0.0006949407677279137
7.36800e-06;0.0006976848102779493
7.36825e-06;0.0007024192639135673
7.36850e-06;0.0007071537175492015
7.36875e-06;0.0007118881711848195
7.36900e-06;0.0007166226248204375
7.36925e-06;0.0007213570784560716
7.36950e-06;0.0007260915320916896
7.36975e-06;0.0007308259857273076
7.37000e-06;0.0007356000156520308
7.37025e-06;0.0007415071037045122
7.37050e-06;0.0007474141917570135
7.37075e-06;0.000753321279809495
7.37100e-06;0.0007592283678619764
7.37125e-06;0.0007651354559144778
7.37150e-06;0.0007710425439669593
7.37175e-06;0.0007768920224230305
7.37200e-06;0.0007810921541884784
7.37225e-06;0.0007852922859539122
7.37250e-06;0.0007894924177193459
7.37275e-06;0.0007936925494847939
7.37300e-06;0.0007978926812502276
7.37325e-06;0.0008020928130156612
7.37350e-06;0.0008060503869808089
7.37375e-06;0.0008030635987212834
7.37400e-06;0.0008000768104617578
7.37425e-06;0.0007970900222022221
7.37450e-06;0.0007941032339426965
7.37475e-06;0.0007911164456831609
7.37500e-06;0.0007881296574236352
7.37525e-06;0.0007851428691641097
7.37550e-06;0.0007821560809045739
7.37575e-06;0.0007791692926450484
7.37600e-06;0.0007712032905876847
7.37625e-06;0.0007588877627085513
7.37650e-06;0.0007465722348294597
7.37675e-06;0.0007342567069503681
7.37700e-06;0.0007219411790712348
7.37725e-06;0.0007096256511921431
7.37750e-06;0.0006973101233130515
7.37775e-06;0.0006849945954339182
7.37800e-06;0.0006726790675548266
7.37825e-06;0.0006601958691636242
7.37850e-06;0.0006429123107413794
7.37875e-06;0.0006256287523191932
7.37900e-06;0.0006083451938969483
7.37925e-06;0.0005910616354747622
7.37950e-06;0.0005737780770525758
7.37975e-06;0.0005560623242264654
7.38000e-06;0.0005379690337416954
7.38025e-06;0.0005198757432569255
7.38050e-06;0.0005017824527720942
7.38075e-06;0.00048368916228732435
7.38100e-06;0.00046563763914929266
7.38125e-06;0.0004487819035070209
7.38150e-06;0.0004319261678648063
7.38175e-06;0.0004151380592381895
7.38200e-06;0.0004002860932190402
7.38225e-06;0.00038543412719994126
7.38250e-06;0.0003706651404559069
7.38275e-06;0.0003582718272286435
7.38300e-06;0.0003459676960293661
7.38325e-06;0.00033621682143268513
7.38350e-06;0.00032656908960086327
7.38375e-06;0.00031987430637707035
7.38400e-06;0.0003132583055962128
7.38425e-06;0.000308950708604796
7.38450e-06;0.00030621033392876323
7.38475e-06;0.00030504557925907635
7.38500e-06;0.0003054752741530691
7.38525e-06;0.00030754116118098397
7.38550e-06;0.00031129822877089584
7.38575e-06;0.000317400734492979
7.38600e-06;0.0003236056806702825
7.38625e-06;0.00033274346852647503
7.38650e-06;0.00034197559179175775
7.38675e-06;0.00035390851152498405
7.38700e-06;0.0003659291895130754
7.38725e-06;0.0003804623618746281
7.38750e-06;0.0003950743112768458
7.38775e-06;0.0004119416253929438
7.38800e-06;0.00042888743529838564
7.38825e-06;0.0004480805577723065
7.38850e-06;0.0004672736802461623
7.38875e-06;0.0004865468698821629
7.38900e-06;0.0005081123600516866
7.38925e-06;0.0005296778502211372
7.38950e-06;0.0005512433403905879
7.38975e-06;0.0005728088305601115
7.39000e-06;0.0005943893914103502
7.39025e-06;0.0006164014216504984
7.39050e-06;0.0006384134518907213
7.39075e-06;0.0006604254821308696
7.39100e-06;0.0006824375123710179
7.39125e-06;0.0007043460062225101
7.39150e-06;0.0007232902821266125
7.39175e-06;0.0007422345580307791
7.39200e-06;0.0007611788339348814
7.39225e-06;0.0007801231098389837
7.39250e-06;0.0007990673857431502
7.39275e-06;0.0008140318025489755
7.39300e-06;0.0008255196665068609
7.39325e-06;0.0008370075304647853
7.39350e-06;0.0008484953944226708
7.39375e-06;0.0008599832583805562
7.39400e-06;0.0008712076792813629
7.39425e-06;0.0008748897988979807
7.39450e-06;0.0008785719185145984
