Time(s);Current(A)
1.27500e-05;0.00021025327878326162
1.27503e-05;0.00019220970425447826
1.27505e-05;0.0001745357397919552
1.27508e-05;0.00015740365357827708
1.27510e-05;0.00014054897115187284
1.27513e-05;0.00012473116360889105
1.27515e-05;0.0001097494491822116
1.27518e-05;9.531197253847951e-05
1.27520e-05;8.101993170130311e-05
1.27523e-05;6.676663591250979e-05
1.27525e-05;5.266889489544631e-05
1.27528e-05;3.886408530003894e-05
1.27530e-05;2.5489536907422103e-05
1.27533e-05;1.2671738669220653e-05
1.27535e-05;4.5114113223501896e-07
1.27538e-05;-1.1329832624499484e-05
1.27540e-05;-2.2895707934625598e-05
1.27543e-05;-3.428803612385119e-05
1.27545e-05;-4.540836099896178e-05
1.27548e-05;-5.614535201903892e-05
1.27550e-05;-6.638771993508271e-05
1.27553e-05;-7.603096809912887e-05
1.27555e-05;-8.502450705390122e-05
1.27558e-05;-9.344178988990267e-05
1.27560e-05;-0.00010139819299176464
1.27563e-05;-0.00010889446946233144
1.27565e-05;-0.00011584367567120766
1.27568e-05;-0.00012215082213256327
1.27570e-05;-0.00012772093067588044
1.27573e-05;-0.00013245552343197072
1.27575e-05;-0.0001365077758630604
1.27577e-05;-0.0001405600282941226
1.27580e-05;-0.0001449192737290386
1.27583e-05;-0.00015017298806372395
1.27585e-05;-0.00015570033773875107
1.27588e-05;-0.00016202496389483716
1.27590e-05;-0.0001685122356177641
1.27593e-05;-0.00017547339892576988
1.27595e-05;-0.0001827006086250513
1.27598e-05;-0.00019070298329551958
1.27600e-05;-0.00019920483611551629
1.27603e-05;-0.00020916199138641643
1.27605e-05;-0.00021953166608550692
1.27608e-05;-0.0002311032763155281
1.27610e-05;-0.00024296029200732806
1.27613e-05;-0.0002556488781464482
1.27615e-05;-0.00026863005712538966
1.27618e-05;-0.0002824637480256515
1.27620e-05;-0.0002967517793751372
1.27623e-05;-0.00031236359790107735
1.27625e-05;-0.00032797541642691177
1.27628e-05;-0.0003439381708592015
1.27630e-05;-0.0003609234282482254
1.27633e-05;-0.0003779086856371342
1.27635e-05;-0.0003948939430261581
1.27638e-05;-0.000411879200415182
1.27640e-05;-0.0004289328855092823
1.27643e-05;-0.0004461859447046369
1.27645e-05;-0.0004634390038999915
1.27648e-05;-0.00048069206309522914
1.27650e-05;-0.0004979451222905838
1.27653e-05;-0.0005145883204152521
1.27655e-05;-0.0005294545993452953
1.27658e-05;-0.0005443208782754392
1.27660e-05;-0.000559187157205583
1.27662e-05;-0.0005740534361356262
1.27665e-05;-0.0005889197150657701
1.27668e-05;-0.0005996320144137325
1.27670e-05;-0.00060900009294289
1.27673e-05;-0.0006183681714719839
1.27675e-05;-0.0006277362500011413
1.27678e-05;-0.0006371043285302988
1.27680e-05;-0.0006450707204154311
1.27683e-05;-0.0006489530937881535
1.27685e-05;-0.000652835467160876
1.27688e-05;-0.0006556684065072176
1.27690e-05;-0.0006554436667284298
1.27693e-05;-0.0006552189269496418
1.27695e-05;-0.0006539368060040187
1.27698e-05;-0.0006495738507802398
1.27700e-05;-0.0006452108955564611
1.27703e-05;-0.0006399065289160444
1.27705e-05;-0.0006318592227819894
1.27708e-05;-0.0006238119166479344
1.27710e-05;-0.0006148720122881271
1.27713e-05;-0.0006033313927869039
1.27715e-05;-0.0005917907732856808
1.27718e-05;-0.0005794990820831104
1.27720e-05;-0.000565019033913418
1.27723e-05;-0.0005505389857437256
1.27725e-05;-0.0005354674630938699
1.27728e-05;-0.0005186725932624171
1.27730e-05;-0.0005018777234309643
1.27733e-05;-0.0004845470175305899
1.27735e-05;-0.00046565507507608786
1.27738e-05;-0.0004467631326215859
1.27740e-05;-0.0004278711901672119
1.27743e-05;-0.00040897924771270995
1.27745e-05;-0.00038990202930426325
1.27747e-05;-0.00037028498237636295
1.27750e-05;-0.00035066793544832973
1.27753e-05;-0.0003310508885202965
1.27755e-05;-0.0003114338415922633
1.27758e-05;-0.00029206768063334056
1.27760e-05;-0.0002734325125438092
1.27763e-05;-0.00025479734445427784
1.27765e-05;-0.00023644232793883907
1.27768e-05;-0.00021908384211652353
1.27770e-05;-0.00020245494907419263
1.27773e-05;-0.00018658656828728285
1.27775e-05;-0.00017101439370096035
1.27778e-05;-0.00015417070880982672
1.27780e-05;-0.00013421873863657583
1.27783e-05;-0.00011050716864934052
1.27785e-05;-8.324494070080374e-05
1.27788e-05;-5.2718319907017075e-05
1.27790e-05;-1.9213548746355946e-05
1.27793e-05;1.70228208993865e-05
1.27795e-05;5.605443406066762e-05
1.27798e-05;9.863607492738492e-05
1.27800e-05;0.0001456909658780608
1.27803e-05;0.00019739970469487573
1.27805e-05;0.00025340402465192404
1.27808e-05;0.0003132972470922262
1.27810e-05;0.0003766727190653662
1.27813e-05;0.0004431486986153615
1.27815e-05;0.0005125377612730613
1.27818e-05;0.0005850853532085724
1.27820e-05;0.0006611424778309229
1.27823e-05;0.0007405948946640709
1.27825e-05;0.000822990832375368
1.27828e-05;0.0009078481879409443
1.27830e-05;0.0009946850291051954
1.27832e-05;0.0010830348397480572
1.27835e-05;0.0011725530769798596
1.27838e-05;0.0012631662584108993
1.27840e-05;0.0013548670706122433
1.27843e-05;0.0014473567276788925
1.27845e-05;0.0015401249292166014
1.27848e-05;0.001632642597333043
1.27850e-05;0.0017243807110592173
1.27853e-05;0.001814820008685635
1.27855e-05;0.0019035176881262064
1.27858e-05;0.0019902005981280346
1.27860e-05;0.0020746369811858447
1.27863e-05;0.002156412899676564
1.27865e-05;0.0022349816988969343
1.27868e-05;0.002309785105319156
1.27870e-05;0.0023802645633659455
1.27873e-05;0.002445872145979668
1.27875e-05;0.0025061499124545117
1.27878e-05;0.0025608898718368135
1.27880e-05;0.002610090490589703
1.27883e-05;0.002653711700277604
1.27885e-05;0.0026916289887038932
1.27888e-05;0.0027237088197881775
1.27890e-05;0.002749816855386864
1.27893e-05;0.002769825578386899
1.27895e-05;0.002783663876374839
1.27898e-05;0.0027914177578551086
1.27900e-05;0.0027933016136140357
1.27903e-05;0.0027888107610328826
1.27905e-05;0.002778143159432557
1.27908e-05;0.002764761354048777
1.27910e-05;0.002743471319993139
1.27913e-05;0.0027190395725998056
1.27915e-05;0.0026854539850833786
1.27917e-05;0.002651868397567179
1.27920e-05;0.002615588506343339
1.27923e-05;0.0025714583682217938
1.27925e-05;0.0025255439756064835
1.27928e-05;0.0024744308972361397
1.27930e-05;0.0024218397102338815
1.27933e-05;0.002364941838106289
1.27935e-05;0.00230714608288068
1.27938e-05;0.0022462783270228567
1.27940e-05;0.0021837367476135795
1.27943e-05;0.002119946641884612
1.27945e-05;0.0020553129956215124
1.27948e-05;0.00199023791248368
1.27950e-05;0.0019251239515170532
1.27953e-05;0.0018603747036798637
1.27955e-05;0.0017964080972510822
1.27958e-05;0.0017336802535195587
1.27960e-05;0.0016726789398394505
1.27963e-05;0.0016142724411904177
1.27965e-05;0.001558896291942461
1.27968e-05;0.0015053048433776542
1.27970e-05;0.0014569133806082949
1.27973e-05;0.0014105352909202248
1.27975e-05;0.0013700234574163825
1.27978e-05;0.0013305257543902527
1.27980e-05;0.0012939828684537036
1.27983e-05;0.0012583339193121114
1.27985e-05;0.0012252895854319651
1.27988e-05;0.0011922452515520426
1.27990e-05;0.0011607926064576453
1.27993e-05;0.0011339775788382436
1.27995e-05;0.0011071625512190238
1.27998e-05;0.0010812311484470994
1.28000e-05;0.0010578743155727815
1.28002e-05;0.0010345174826986217
1.28005e-05;0.001011808914381308
1.28008e-05;0.0009909891594206716
1.28010e-05;0.0009701694044600352
1.28013e-05;0.0009507627050387651
1.28015e-05;0.0009354731490697823
1.28018e-05;0.0009201835931007995
1.28020e-05;0.0009048940371319202
1.28023e-05;0.0008896044811629374
1.28025e-05;0.0008743149251939546
1.28028e-05;0.0008590253692250753
1.28030e-05;0.0008437358132560924
1.28033e-05;0.0008284462572871096
1.28035e-05;0.0008131567013182305
1.28038e-05;0.0007978671453492476
1.28040e-05;0.0007871205678362394
1.28043e-05;0.0007778440905267374
1.28045e-05;0.0007685676132171727
1.28048e-05;0.000759291135907608
1.28050e-05;0.0007500146585981061
1.28053e-05;0.0007407381812885414
1.28055e-05;0.0007314617039789765
1.28058e-05;0.0007221852266694747
1.28060e-05;0.00071290874935991
1.28063e-05;0.0007036322720503452
1.28065e-05;0.0006952583504401317
1.28068e-05;0.0006895141565267166
1.28070e-05;0.0006840534197115737
1.28073e-05;0.0006796686957691989
1.28075e-05;0.0006768283810678223
1.28078e-05;0.0006763645824256623
1.28080e-05;0.0006775458195462327
1.28083e-05;0.0006835201083432589
1.28085e-05;0.0006911184917170032
1.28087e-05;0.0007034489115665658
1.28090e-05;0.0007172954851848322
1.28093e-05;0.0007355595939879554
1.28095e-05;0.0007554978598906988
1.28098e-05;0.000780314026732887
1.28100e-05;0.0008070701237743663
1.28103e-05;0.0008394784904526489
1.28105e-05;0.0008736382348538093
1.28108e-05;0.0009129008737467877
1.28110e-05;0.0009536718580825515
1.28113e-05;0.0009988376269067633
1.28115e-05;0.0010454353088195398
1.28118e-05;0.0010962050784061625
1.28120e-05;0.0011480740222920784
1.28123e-05;0.0012037931413342636
1.28125e-05;0.0012619638090605116
1.28128e-05;0.0013222618954684354
1.28130e-05;0.0013843631541415697
1.28133e-05;0.0014479508074776387
1.28135e-05;0.0015127658168308294
1.28138e-05;0.0015786740853567143
1.28140e-05;0.0016455631851542796
1.28143e-05;0.0017131720615060325
1.28145e-05;0.0017811353363470657
1.28148e-05;0.0018490785882559232
1.28150e-05;0.0019166273091418334
1.28153e-05;0.0019834116312918487
1.28155e-05;0.0020490978143676095
1.28158e-05;0.002113430747748412
1.28160e-05;0.0021761682887062967
1.28163e-05;0.002236975852628257
1.28165e-05;0.00229506497720048
1.28168e-05;0.0023500633005218226
1.28170e-05;0.002402866606796566
1.28172e-05;0.002449274410689341
1.28175e-05;0.0024956822145824303
1.28178e-05;0.0025399209399435143
1.28180e-05;0.0025778397385689835
1.28183e-05;0.0026157585371941955
1.28185e-05;0.002651655242203413
1.28188e-05;0.002681660282471516
1.28190e-05;0.002711665322739416
1.28193e-05;0.0027385620742645523
1.28195e-05;0.0027564023730885846
1.28198e-05;0.0027742426719124962
1.28200e-05;0.002792082970736529
1.28203e-05;0.002809923269560561
1.28205e-05;0.002827763568384473
1.28208e-05;0.002842310369936191
1.28210e-05;0.002847261086717316
1.28213e-05;0.0028522118034984075
1.28215e-05;0.0028571625202795325
1.28218e-05;0.002862113237060658
1.28220e-05;0.0028670639538417495
1.28223e-05;0.0028698123499413175
1.28225e-05;0.0028661439634521594
1.28228e-05;0.0028624755769630266
1.28230e-05;0.0028588071904738686
1.28233e-05;0.002855138803984711
1.28235e-05;0.002850220561843981
1.28238e-05;0.0028416606829284215
1.28240e-05;0.0028331008040128614
1.28243e-05;0.0028245409250973593
1.28245e-05;0.0028159810461817997
1.28248e-05;0.002807045618030386
1.28250e-05;0.0027970159723937765
1.28253e-05;0.0027869133003199727
1.28255e-05;0.00277659785506821
1.28257e-05;0.002766414244101378
1.28260e-05;0.002756614751555952
1.28263e-05;0.0027471085248531356
1.28265e-05;0.0027384567709656015
1.28268e-05;0.002730207242529354
1.28270e-05;0.0027231296566235636
1.28273e-05;0.00271655394527872
1.28275e-05;0.0027114405186828283
1.28278e-05;0.002707007363342561
1.28280e-05;0.0027045562775465967
1.28283e-05;0.002702105191750649
1.28285e-05;0.0027005084111579826
1.28288e-05;0.0027014007734048975
1.28290e-05;0.0027022931356518063
1.28293e-05;0.002704576042686234
1.28295e-05;0.0027109105048176794
1.28298e-05;0.0027172449669490817
1.28300e-05;0.0027235794290805266
1.28303e-05;0.002729913891211972
1.28305e-05;0.0027362483533433742
1.28308e-05;0.0027425828154748195
1.28310e-05;0.002753799653141196
1.28313e-05;0.0027665964193374286
1.28315e-05;0.002779393185533748
1.28318e-05;0.002792189951730067
1.28320e-05;0.0028049867179262998
1.28323e-05;0.002817783484122619
1.28325e-05;0.0028317216312542482
1.28328e-05;0.0028489853582506553
1.28330e-05;0.002866249085247179
1.28333e-05;0.0028835128122437033
1.28335e-05;0.0029007765392401103
1.28338e-05;0.002918040266236634
1.28340e-05;0.0029353039932331583
1.28342e-05;0.0029528866823691933
1.28345e-05;0.0029713987142309076
1.28348e-05;0.0029899107460926214
1.28350e-05;0.0030084227779543352
1.28353e-05;0.0030269348098159237
1.28355e-05;0.003045446841677638
1.28358e-05;0.003063958873539352
1.28360e-05;0.003082100632822812
1.28363e-05;0.003099163548932771
1.28365e-05;0.00311622646504273
1.28368e-05;0.003132872243038658
1.28370e-05;0.0031483026282855308
1.28373e-05;0.0031632222151707083
1.28375e-05;0.003176653516511078
1.28378e-05;0.003189121731515867
1.28380e-05;0.003198783853981537
1.28383e-05;0.0032073211908397767
1.28385e-05;0.0032125813007412227
1.28388e-05;0.0032165052003620344
1.28390e-05;0.003216535856396782
1.28393e-05;0.0032165665124315296
1.28395e-05;0.003214874676592073
1.28398e-05;0.0032081641093909263
1.28400e-05;0.003201453542189734
1.28403e-05;0.003192660779574359
1.28405e-05;0.003177801236858165
1.28408e-05;0.0031629416941418706
1.28410e-05;0.003148082151425576
1.28413e-05;0.00313122226437993
1.28415e-05;0.003108534082309079
1.28418e-05;0.0030858459002382275
1.28420e-05;0.0030631577181675297
1.28423e-05;0.0030389786267704545
1.28425e-05;0.0030104555535492078
1.28427e-05;0.002981932480328155
1.28430e-05;0.0029526859942319576
1.28433e-05;0.0029213317391889875
1.28435e-05;0.0028896682744459752
1.28438e-05;0.0028569257630675342
1.28440e-05;0.0028235257189256156
1.28443e-05;0.0027896412979362493
1.28445e-05;0.002755500472124081
1.28448e-05;0.0027213356116083925
1.28450e-05;0.0026873796608797014
1.28453e-05;0.002653862719086998
1.28455e-05;0.002620996420658721
1.28458e-05;0.002588953387223444
1.28460e-05;0.0025579008460461204
1.28463e-05;0.0025280562747110745
1.28465e-05;0.002499671205217808
1.28468e-05;0.0024729997799201107
1.28470e-05;0.002448296943235046
1.28473e-05;0.002425813257721311
1.28475e-05;0.0024057648611236944
1.28478e-05;0.002388268739961796
1.28480e-05;0.0023733512614339466
1.28483e-05;0.0023610397429619312
1.28485e-05;0.002351388454635067
1.28488e-05;0.0023444545589451546
1.28490e-05;0.0023402955650612335
1.28493e-05;0.002339331496689381
1.28495e-05;0.0023415642261467072
1.28498e-05;0.00234521283559536
1.28500e-05;0.0023529868179563455
1.28503e-05;0.0023624162843619454
1.28505e-05;0.002376669245043764
1.28508e-05;0.0023909222057256793
1.28510e-05;0.002407564032204108
1.28512e-05;0.002431166167683398
1.28515e-05;0.0024547683031628485
1.28518e-05;0.002478370438642299
1.28520e-05;0.002501972574121749
1.28523e-05;0.0025278506476720786
1.28525e-05;0.00256035999882128
1.28528e-05;0.0025928693499704812
1.28530e-05;0.0026253787011194622
1.28533e-05;0.0026578880522686635
1.28535e-05;0.002691543441552403
1.28538e-05;0.0027285379801325303
1.28540e-05;0.0027655325187129084
1.28543e-05;0.0028028485620077703
1.28545e-05;0.002841101356191302
1.28548e-05;0.0028793819926337897
1.28550e-05;0.0029177437515588104
1.28553e-05;0.0029559345304590134
1.28555e-05;0.002993627134114173
1.28558e-05;0.003030928429101439
1.28560e-05;0.00306708958919772
1.28563e-05;0.0031026295635161083
1.28565e-05;0.0031363596224469226
1.28568e-05;0.003169482119268705
1.28570e-05;0.00320035369984468
1.28573e-05;0.0032289000497269633
1.28575e-05;0.0032547522838295736
1.28578e-05;0.0032787576778516617
1.28580e-05;0.0032973820338681784
1.28583e-05;0.003313915007914274
1.28585e-05;0.003324354435483818
1.28588e-05;0.003332752394875825
1.28590e-05;0.003335202238908343
1.28593e-05;0.0033356083540671223
1.28595e-05;0.003330059766998188
1.28597e-05;0.0033222368897872267
1.28600e-05;0.0033077875364573403
1.28603e-05;0.003290596702264132
1.28605e-05;0.003265418163628759
1.28608e-05;0.0032402396249935563
1.28610e-05;0.0032124259593536123
1.28613e-05;0.003176934466754363
1.28615e-05;0.003141442974155355
1.28618e-05;0.003099439533014893
1.28620e-05;0.0030553288362520927
1.28623e-05;0.003009806691653096
1.28625e-05;0.002959490131007659
1.28628e-05;0.002906589825246256
1.28630e-05;0.0028514391878509833
1.28633e-05;0.0027943665754823085
1.28635e-05;0.002735661516755274
1.28638e-05;0.0026755320346555224
1.28640e-05;0.0026141836182411995
1.28643e-05;0.002551935319258061
1.28645e-05;0.0024891813118680262
1.28648e-05;0.0024263225304386135
1.28650e-05;0.0023637599093386196
1.28653e-05;0.002301891110876515
1.28655e-05;0.00224108933124099
1.28658e-05;0.0021816770600911837
1.28660e-05;0.002123974791060843
1.28663e-05;0.0020683741376815745
1.28665e-05;0.0020153141303879693
1.28668e-05;0.001965237613064579
1.28670e-05;0.0019185874593409655
1.28673e-05;0.0018757893470893571
1.28675e-05;0.0018371244234624726
1.28678e-05;0.0018025140695202275
1.28680e-05;0.0017716807796787255
1.28682e-05;0.0017445567657207574
1.28685e-05;0.0017212688339314256
1.28688e-05;0.0017019634917090948
1.28690e-05;0.0016867870731132808
1.28693e-05;0.0016758750251665315
1.28695e-05;0.0016692722065808463
1.28698e-05;0.0016667984444269552
1.28700e-05;0.0016681487322437241
1.28703e-05;0.0016731492363023113
1.28705e-05;0.001681748501696556
1.28708e-05;0.0016939070662010112
1.28710e-05;0.0017104427172876424
1.28713e-05;0.0017320741198720562
1.28715e-05;0.0017537055224563234
1.28718e-05;0.0017775619558014378
1.28720e-05;0.001807901340873828
1.28723e-05;0.0018382407259460126
1.28725e-05;0.0018700739899861795
1.28728e-05;0.0019062598883385939
1.28730e-05;0.0019434523319358345
1.28733e-05;0.0019835774919482285
1.28735e-05;0.002024478353350432
1.28738e-05;0.0020676393339174753
1.28740e-05;0.002111266345111743
1.28743e-05;0.0021562512045261418
1.28745e-05;0.0022014573444555643
1.28748e-05;0.0022473082174490336
1.28750e-05;0.002293145496519193
1.28753e-05;0.0023389431677102767
1.28755e-05;0.0023844489116295405
1.28758e-05;0.0024291040828525253
1.28760e-05;0.002473139615089515
1.28763e-05;0.002515369738743523
1.28765e-05;0.002556387554135411
1.28767e-05;0.002593873132543001
1.28770e-05;0.0026313587109508445
1.28773e-05;0.0026672830208216594
1.28775e-05;0.0026986583470378803
1.28778e-05;0.0027300336732538886
1.28780e-05;0.0027607888349717325
1.28783e-05;0.002789737056948291
1.28785e-05;0.0028186852789246534
1.28788e-05;0.0028467197103034772
1.28790e-05;0.0028720916794635837
1.28793e-05;0.002897463648623518
1.28795e-05;0.0029228356177836245
1.28798e-05;0.002948207586943731
1.28800e-05;0.0029717956212592035
1.28803e-05;0.0029948063772518014
1.28805e-05;0.0030178171332443994
1.28808e-05;0.0030408278892368416
1.28810e-05;0.0030632197969431506
1.28813e-05;0.0030838085998838556
1.28815e-05;0.0031043974028244214
1.28818e-05;0.003124986205765127
1.28820e-05;0.003145575008705832
1.28823e-05;0.0031661638116463977
1.28825e-05;0.0031867526145871027
1.28828e-05;0.003207341417527808
1.28830e-05;0.003227930220468374
1.28833e-05;0.0032467686834150786
1.28835e-05;0.0032650407392759064
1.28838e-05;0.0032833127951366107
1.28840e-05;0.0033015848509974385
1.28843e-05;0.003319856906858267
1.28845e-05;0.0033381289627189706
1.28848e-05;0.003356401018579799
1.28850e-05;0.0033746730744406267
1.28853e-05;0.0033922934975650224
1.28855e-05;0.0034080152936454924
1.28858e-05;0.0034237370897259624
1.28860e-05;0.003439458885806433
1.28863e-05;0.003455180681886796
1.28865e-05;0.0034702830472038075
1.28868e-05;0.0034835806106225534
1.28870e-05;0.0034968781740412095
1.28873e-05;0.0035101757374599554
1.28875e-05;0.0035234733008787014
1.28878e-05;0.0035369265021833744
1.28880e-05;0.003550833177175135
1.28883e-05;0.003564739852166896
1.28885e-05;0.003578646527158563
1.28888e-05;0.003592553202150324
1.28890e-05;0.003606459877142085
1.28893e-05;0.0036203665521337513
1.28895e-05;0.003635141648930494
1.28898e-05;0.0036524470193507116
1.28900e-05;0.0036697523897708116
1.28903e-05;0.003687057760191029
1.28905e-05;0.0037043631306112467
1.28908e-05;0.003721668501031347
1.28910e-05;0.0037389738714515646
1.28913e-05;0.003757284835244148
1.28915e-05;0.0037785257420339035
1.28918e-05;0.0037997666488238024
1.28920e-05;0.0038210075556137013
1.28923e-05;0.003842248462403456
1.28925e-05;0.003863489369193355
1.28928e-05;0.003884730275983254
1.28930e-05;0.003905971182773009
1.28933e-05;0.003927212089562908
1.28935e-05;0.003948781438495811
1.28938e-05;0.003971307751529027
1.28940e-05;0.003993834064562395
1.28943e-05;0.004016360377595765
1.28945e-05;0.004038886690629133
1.28948e-05;0.00406141300366235
1.28950e-05;0.004083939316695718
1.28953e-05;0.004106465629729088
1.28955e-05;0.004128991942762303
1.28958e-05;0.004151003821812233
1.28960e-05;0.004171516822399856
1.28963e-05;0.00419202982298734
1.28965e-05;0.004211974595597947
1.28968e-05;0.0042302637530978165
