Time(s);Current(A)
1.15000e-05;-0.0012302893523750361
1.15003e-05;-0.0012369718835747014
1.15005e-05;-0.001243243409792162
1.15007e-05;-0.0012495149360095801
1.15010e-05;-0.0012557864622270408
1.15013e-05;-0.0012620579884445014
1.15015e-05;-0.0012677644464971001
1.15018e-05;-0.0012729838609281698
1.15020e-05;-0.0012782032753592394
1.15023e-05;-0.001283422689790309
1.15025e-05;-0.0012886421042213431
1.15028e-05;-0.0012938615186524128
1.15030e-05;-0.0012990809330834824
1.15033e-05;-0.0013036544085853763
1.15035e-05;-0.0013076711363266518
1.15038e-05;-0.0013116878640679274
1.15040e-05;-0.0013157045918091757
1.15043e-05;-0.001319721319550451
1.15045e-05;-0.0013237380472917266
1.15048e-05;-0.0013277547750329749
1.15050e-05;-0.0013312671859352398
1.15053e-05;-0.0013343449160060394
1.15055e-05;-0.0013373282655895953
1.15058e-05;-0.0013408371904747092
1.15060e-05;-0.0013448692351461851
1.15063e-05;-0.00135011071933706
1.15065e-05;-0.0013563946437862952
1.15068e-05;-0.0013642029741043305
1.15070e-05;-0.0013733252205149664
1.15073e-05;-0.0013824474669256641
1.15075e-05;-0.0013915697133363618
1.15078e-05;-0.0014031639532103624
1.15080e-05;-0.0014168888539924708
1.15083e-05;-0.001430613754774579
1.15085e-05;-0.0014443386555565943
1.15088e-05;-0.0014607336790063508
1.15090e-05;-0.0014794301349121857
1.15092e-05;-0.0014981265908178938
1.15095e-05;-0.0015168230467237287
1.15098e-05;-0.001535682225023456
1.15100e-05;-0.0015587670987707942
1.15103e-05;-0.0015818519725182886
1.15105e-05;-0.001604936846265783
1.15108e-05;-0.0016280217200132776
1.15110e-05;-0.0016524401614574416
1.15113e-05;-0.0016780080317341114
1.15115e-05;-0.001703575902010781
1.15118e-05;-0.0017296866502669473
1.15120e-05;-0.001756265315977933
1.15123e-05;-0.0017828439816889186
1.15125e-05;-0.001809486547272484
1.15128e-05;-0.0018361841894423768
1.15130e-05;-0.0018628818316122695
1.15133e-05;-0.001888894853129581
1.15135e-05;-0.0019143177863305762
1.15138e-05;-0.0019397407195315712
1.15140e-05;-0.001963948950748061
1.15143e-05;-0.00198711020588171
1.15145e-05;-0.002010271461015359
1.15148e-05;-0.002031475475134331
1.15150e-05;-0.0020509925038386164
1.15153e-05;-0.002070509532542902
1.15155e-05;-0.002088239303064329
1.15158e-05;-0.0021044285997941915
1.15160e-05;-0.0021201333954340438
1.15163e-05;-0.002135420589834966
1.15165e-05;-0.0021507077842359917
1.15168e-05;-0.0021650872503075967
1.15170e-05;-0.002178684327066247
1.15173e-05;-0.0021922814038249894
1.15175e-05;-0.0022058784805837318
1.15177e-05;-0.0022188263358856866
1.15180e-05;-0.002231214614150239
1.15183e-05;-0.0022436028924147913
1.15185e-05;-0.0022559911706792595
1.15188e-05;-0.00226807278443707
1.15190e-05;-0.0022798900778856503
1.15193e-05;-0.002291707371334231
1.15195e-05;-0.0023035246647827314
1.15198e-05;-0.002315325928972881
1.15200e-05;-0.0023267109335264108
1.15203e-05;-0.0023380959380798635
1.15205e-05;-0.0023494809426333934
1.15208e-05;-0.0023608659471869237
1.15210e-05;-0.0023718436987744647
1.15213e-05;-0.0023824704308357714
1.15215e-05;-0.002393097162897078
1.15218e-05;-0.0024037238949583127
1.15220e-05;-0.0024143506270196194
1.15223e-05;-0.0024249773590809256
1.15225e-05;-0.0024356040911421603
1.15228e-05;-0.002446165382389021
1.15230e-05;-0.0024550272581714315
1.15233e-05;-0.002463889133953782
1.15235e-05;-0.0024727510097361923
1.15238e-05;-0.0024816128855186027
1.15240e-05;-0.0024904747613009527
1.15243e-05;-0.002499336637083363
1.15245e-05;-0.0025081985128657734
1.15248e-05;-0.002516232508065883
1.15250e-05;-0.0025232800801249147
1.15253e-05;-0.0025297831015064958
1.15255e-05;-0.0025354737578805694
1.15258e-05;-0.0025396075058079027
1.15260e-05;-0.0025412918973406256
1.15262e-05;-0.0025400877258071716
1.15265e-05;-0.0025352634887045662
1.15268e-05;-0.0025284962660467435
1.15270e-05;-0.0025189273278333917
1.15273e-05;-0.0025069435346044863
1.15275e-05;-0.0024920524222142573
1.15278e-05;-0.002474655432935762
1.15280e-05;-0.0024536769245666924
1.15283e-05;-0.0024296114328233066
1.15285e-05;-0.0024029542447734325
1.15288e-05;-0.002372497236972554
1.15290e-05;-0.0023392454130893884
1.15293e-05;-0.002303423420161847
1.15295e-05;-0.002265176943532354
1.15298e-05;-0.0022244641848357034
1.15300e-05;-0.0021811854832500467
1.15303e-05;-0.002135419106837211
1.15305e-05;-0.0020874154820870326
1.15308e-05;-0.0020374699287712306
1.15310e-05;-0.001985877818461692
1.15313e-05;-0.0019329339707344346
1.15315e-05;-0.0018788834316122761
1.15318e-05;-0.00182385415495444
1.15320e-05;-0.0017679376605380336
1.15323e-05;-0.0017113368866438863
1.15325e-05;-0.0016543626497046487
1.15328e-05;-0.001597353888612369
1.15330e-05;-0.0015406495508936081
1.15333e-05;-0.001484588137771205
1.15335e-05;-0.0014294770198893584
1.15338e-05;-0.0013755501516426916
1.15340e-05;-0.0013230187096838944
1.15343e-05;-0.0012721636430353483
1.15345e-05;-0.0012233334016416419
1.15347e-05;-0.0011768941116902275
1.15350e-05;-0.0011332118368432805
1.15353e-05;-0.0010926486478396978
1.15355e-05;-0.0010552291527519786
1.15358e-05;-0.0010201413065373424
1.15360e-05;-0.0009861987802780154
1.15362e-05;-0.0009528254582010407
1.15365e-05;-0.00092010643178429
1.15368e-05;-0.0008883064833608103
1.15370e-05;-0.0008576903413724361
1.15373e-05;-0.0008285202645498706
1.15375e-05;-0.0008008471452345092
1.15378e-05;-0.0007741977395199504
1.15380e-05;-0.0007478643830153787
1.15383e-05;-0.0007215217352048987
1.15385e-05;-0.0006952586788531423
1.15388e-05;-0.0006694311639955342
1.15390e-05;-0.0006439100732756854
1.15393e-05;-0.0006191548744257727
1.15395e-05;-0.0005950598131908061
1.15398e-05;-0.0005713117307655997
1.15400e-05;-0.0005477907664777845
1.15403e-05;-0.0005242077871397007
1.15405e-05;-0.0005007093954142995
1.15408e-05;-0.0004772839114545726
1.15410e-05;-0.0004542898610535436
1.15413e-05;-0.0004316676719182529
1.15415e-05;-0.0004096407431311634
1.15418e-05;-0.0003881268812168334
1.15420e-05;-0.0003666130193023577
1.15423e-05;-0.000345373915377836
1.15425e-05;-0.00032437163089399417
1.15428e-05;-0.0003038430854982713
1.15430e-05;-0.00028372286535585466
1.15432e-05;-0.00026434335540660096
1.15435e-05;-0.00024560227847803754
1.15438e-05;-0.0002275519547969901
1.15440e-05;-0.0002100970052402585
1.15443e-05;-0.00019311572443177845
1.15445e-05;-0.00017693463424213923
1.15447e-05;-0.00016154839022732386
1.15450e-05;-0.00014707822439289007
1.15453e-05;-0.00013364565010423062
1.15455e-05;-0.00012139599881899762
1.15458e-05;-0.00011052128408797986
1.15460e-05;-0.00010120034837070955
1.15463e-05;-9.352305130199894e-05
1.15465e-05;-8.751012810435826e-05
1.15468e-05;-8.316585704076932e-05
1.15470e-05;-8.049448511221356e-05
1.15473e-05;-7.950042776266005e-05
1.15475e-05;-8.020302849676814e-05
1.15478e-05;-8.265085497703561e-05
1.15480e-05;-8.688422512614551e-05
1.15483e-05;-9.288770898512977e-05
1.15485e-05;-0.00010060257999807472
1.15488e-05;-0.00010995980279986964
1.15490e-05;-0.00012089032855290376
1.15493e-05;-0.00013332521392918014
1.15495e-05;-0.00014720486795916093
1.15498e-05;-0.00016248801833018754
1.15500e-05;-0.00017912821797572481
1.15503e-05;-0.0001970440985795319
1.15505e-05;-0.0002163954599402393
1.15508e-05;-0.0002364937503464068
1.15510e-05;-0.00025754177762056215
1.15513e-05;-0.00027940840221336556
1.15515e-05;-0.00030212752269869906
1.15517e-05;-0.00032558142654870816
1.15520e-05;-0.00034903533039887615
1.15523e-05;-0.00037301018181710316
1.15525e-05;-0.0003974340484272908
1.15528e-05;-0.000421857915037644
1.15530e-05;-0.00044621086081322983
1.15532e-05;-0.00047050267849399783
1.15535e-05;-0.0004943873142437878
1.15538e-05;-0.0005179209916932377
1.15540e-05;-0.0005407524270482707
1.15543e-05;-0.0005629785858104707
1.15545e-05;-0.0005841658401842104
1.15548e-05;-0.0006044576419590847
1.15550e-05;-0.0006233634823799486
1.15553e-05;-0.0006410747348197158
1.15555e-05;-0.0006570240670654174
1.15558e-05;-0.0006714547648398342
1.15560e-05;-0.0006838028082010384
1.15563e-05;-0.0006943557698131587
1.15565e-05;-0.0007027399966305579
1.15568e-05;-0.0007092549472859807
1.15570e-05;-0.0007135637423308329
1.15573e-05;-0.0007159710074593926
1.15575e-05;-0.0007161166109969592
1.15578e-05;-0.0007143128428967362
1.15580e-05;-0.0007102265457079419
1.15583e-05;-0.0007041728907652598
1.15585e-05;-0.0006959628339534054
1.15588e-05;-0.0006858941309763229
1.15590e-05;-0.000673825618332785
1.15593e-05;-0.0006600334294946607
1.15595e-05;-0.0006448341304457004
1.15598e-05;-0.0006275270726879218
1.15600e-05;-0.0006086004411633049
1.15602e-05;-0.0005881588569260083
1.15605e-05;-0.0005663273008619106
1.15608e-05;-0.0005432352893333538
1.15610e-05;-0.0005190122362828556
1.15613e-05;-0.0004937874990803979
1.15615e-05;-0.00046768731371897956
1.15617e-05;-0.0004408336984294864
1.15620e-05;-0.00041335679928579784
1.15623e-05;-0.0003854059106593801
1.15625e-05;-0.0003571430565253221
1.15628e-05;-0.0003287330071407782
1.15630e-05;-0.00030034053492066225
1.15633e-05;-0.00027213037885995956
1.15635e-05;-0.00024426526020324526
1.15638e-05;-0.00021690527365816716
1.15640e-05;-0.00019021559632862638
1.15643e-05;-0.0001643733643792386
1.15645e-05;-0.0001395637031271864
1.15648e-05;-0.0001159734363878178
1.15650e-05;-9.378936588721666e-05
1.15653e-05;-7.31982259704203e-05
1.15655e-05;-5.4377194341161055e-05
1.15658e-05;-3.746488566772902e-05
1.15660e-05;-2.2541797751672436e-05
1.15663e-05;-9.65065776656945e-06
1.15665e-05;1.1739817891529098e-06
1.15668e-05;9.897000542719648e-06
1.15670e-05;1.6483298264926772e-05
1.15673e-05;2.089783270132519e-05
1.15675e-05;2.311154755463388e-05
1.15678e-05;2.3119550995821343e-05
1.15680e-05;2.0953354841651567e-05
1.15683e-05;1.6668132299987474e-05
1.15685e-05;1.0324176225126144e-05
1.15687e-05;1.981421602666075e-06
1.15690e-05;-8.3001859628287e-06
1.15693e-05;-2.0460665882757676e-05
1.15695e-05;-3.4436289658454225e-05
1.15698e-05;-5.0148197883128396e-05
1.15700e-05;-6.749472923569332e-05
1.15702e-05;-8.635940541868963e-05
1.15705e-05;-0.00010662255190730783
1.15708e-05;-0.00012816473048900205
1.15710e-05;-0.00015086649068845115
1.15713e-05;-0.00017483958355672604
1.15715e-05;-0.0001994678560696537
1.15718e-05;-0.0002249943948949956
1.15720e-05;-0.0002512951675313253
1.15723e-05;-0.0002775959401678333
1.15725e-05;-0.00030431245796442967
1.15728e-05;-0.00033138731488068873
1.15730e-05;-0.00035840210935562255
1.15733e-05;-0.00038536513480353507
1.15735e-05;-0.00041192633196659507
1.15738e-05;-0.00043814118524495633
1.15740e-05;-0.0004635849727647897
1.15743e-05;-0.0004883641631903828
1.15745e-05;-0.0005119863642012585
1.15748e-05;-0.0005346113327523578
1.15750e-05;-0.0005556934194942394
1.15753e-05;-0.0005754456653562763
1.15755e-05;-0.0005931468524372254
1.15758e-05;-0.0006090801906793899
1.15760e-05;-0.0006250135289216625
1.15763e-05;-0.0006388940368599833
1.15765e-05;-0.0006510051690482908
1.15768e-05;-0.0006631163012366805
1.15770e-05;-0.0006729198581295975
1.15772e-05;-0.0006807344694378212
1.15775e-05;-0.0006885490807460978
1.15778e-05;-0.000694222671172739
1.15780e-05;-0.0006980508726156787
1.15783e-05;-0.0007018790740586443
1.15785e-05;-0.0007038739785666351
1.15787e-05;-0.0007042887275531954
1.15790e-05;-0.0007047034765397584
1.15793e-05;-0.0007032994238168703
1.15795e-05;-0.0007003277092991343
1.15798e-05;-0.0006973559947814186
1.15800e-05;-0.0006929792333562103
1.15803e-05;-0.0006873914337263928
1.15805e-05;-0.0006818036340966132
1.15808e-05;-0.000675069523687741
1.15810e-05;-0.0006673473849501022
1.15813e-05;-0.0006596252462125157
1.15815e-05;-0.0006511087149282391
1.15818e-05;-0.0006419074807216818
1.15820e-05;-0.0006323332263189558
1.15823e-05;-0.000622437458302379
1.15825e-05;-0.0006123221360754325
1.15828e-05;-0.0006020175756563303
1.15830e-05;-0.0005916113975579901
1.15833e-05;-0.0005811176331370189
1.15835e-05;-0.0005706747478955816
1.15838e-05;-0.000560275716442747
1.15840e-05;-0.0005501566689722591
1.15843e-05;-0.0005402789453306324
1.15845e-05;-0.0005308555235236208
1.15848e-05;-0.0005218236736103217
1.15850e-05;-0.000513398278506531
1.15853e-05;-0.0005054955990072922
1.15855e-05;-0.0004984422188434959
1.15857e-05;-0.0004921208668683362
1.15860e-05;-0.0004873160531145589
1.15863e-05;-0.0004838183741728143
1.15865e-05;-0.0004803206952310935
1.15868e-05;-0.00047839121784963926
1.15870e-05;-0.00047781340495166454
1.15872e-05;-0.0004784770049548339
1.15875e-05;-0.0004802106037198256
1.15878e-05;-0.00048328654529742764
1.15880e-05;-0.0004875194791586455
1.15883e-05;-0.0004934281095470024
1.15885e-05;-0.0005007810564940207
1.15888e-05;-0.0005081340034410389
1.15890e-05;-0.0005172537631108426
1.15893e-05;-0.0005278963742220464
1.15895e-05;-0.0005385389853332502
1.15898e-05;-0.0005507686204353508
1.15900e-05;-0.0005643661434528267
1.15903e-05;-0.0005779636664703027
1.15905e-05;-0.0005928579963464384
1.15908e-05;-0.0006088700701513733
1.15910e-05;-0.0006248821439563081
1.15913e-05;-0.0006417670262473501
1.15915e-05;-0.0006594041997373281
1.15918e-05;-0.0006770413732273059
1.15920e-05;-0.000695187088414399
1.15923e-05;-0.0007137711259244562
1.15925e-05;-0.0007323551634345135
1.15928e-05;-0.0007509546861386434
1.15930e-05;-0.0007695675558434064
1.15933e-05;-0.0007881804255481695
1.15935e-05;-0.0008062967582283415
1.15938e-05;-0.000823985115654816
1.15940e-05;-0.0008416734730812904
1.15942e-05;-0.000858581208946422
1.15945e-05;-0.0008748161113786104
1.15948e-05;-0.0008901238091511991
1.15950e-05;-0.0009046323305682566
1.15953e-05;-0.0009179078564233072
1.15955e-05;-0.0009301206385902054
1.15957e-05;-0.0009403732827835411
1.15960e-05;-0.000948936444611165
1.15963e-05;-0.0009544759190675952
1.15965e-05;-0.0009574092165291282
1.15968e-05;-0.0009603425139906412
1.15970e-05;-0.0009597214070854286
1.15973e-05;-0.000956036687526615
1.15975e-05;-0.0009523519679678264
1.15978e-05;-0.0009454991871326366
1.15980e-05;-0.0009359157905283194
1.15983e-05;-0.0009236896933916566
1.15985e-05;-0.0009091857994835433
1.15988e-05;-0.0008922888803528169
1.15990e-05;-0.0008733293646248889
1.15993e-05;-0.0008527414650569184
1.15995e-05;-0.0008297224412041346
1.15998e-05;-0.0008047831288115258
1.16000e-05;-0.0007779354678354501
1.16003e-05;-0.0007492723570636712
1.16005e-05;-0.0007189592394638307
1.16008e-05;-0.0006871799973530194
1.16010e-05;-0.0006541185356777548
1.16013e-05;-0.0006199584823417482
1.16015e-05;-0.0005848642735477128
1.16018e-05;-0.0005489569478093711
1.16020e-05;-0.0005123500231848077
1.16023e-05;-0.0004752077802923827
1.16025e-05;-0.00043773990467694824
1.16027e-05;-0.0004001675989229762
1.16030e-05;-0.0003627120521414271
1.16033e-05;-0.00032559432839535205
1.16035e-05;-0.00028902341055523766
1.16038e-05;-0.00025318107979622204
1.16040e-05;-0.00021824439868039507
1.16042e-05;-0.00018442221788940233
1.16045e-05;-0.00015195182970409622
1.16048e-05;-0.00012107772866800436
1.16050e-05;-9.20443691675408e-05
1.16053e-05;-6.509437345801714e-05
1.16055e-05;-4.031021575282986e-05
1.16058e-05;-1.7371369507010113e-05
1.16060e-05;4.239373764064442e-06
1.16063e-05;2.4771726994909473e-05
1.16065e-05;4.417240006812654e-05
1.16068e-05;6.230466585125568e-05
1.16070e-05;7.903182132909326e-05
1.16073e-05;9.421832810196001e-05
1.16075e-05;0.00010782897807058211
1.16078e-05;0.00012008100181685646
1.16080e-05;0.00013131479649760203
1.16083e-05;0.00014170316531392517
1.16085e-05;0.0001512291221408802
1.16088e-05;0.0001598234311240754
1.16090e-05;0.00016741685990800988
1.16093e-05;0.00017394090622026293
1.16095e-05;0.0001791723454097449
1.16098e-05;0.00018372887748580833
1.16100e-05;0.0001876028118331685
1.16103e-05;0.00019088840146109007
1.16105e-05;0.0001935562740834885
1.16108e-05;0.00019569172398751288
1.16110e-05;0.00019715169612170643
1.16113e-05;0.00019802946037232095
1.16115e-05;0.00019819521440388524
1.16118e-05;0.00019774727249868623
1.16120e-05;0.00019729933059349026
1.16123e-05;0.0001964077264118088
1.16125e-05;0.0001951337207854776
1.16127e-05;0.0001938597151591551
1.16130e-05;0.00019219917365915487
1.16133e-05;0.00019020546911073882
1.16135e-05;0.00018821176456232277
1.16138e-05;0.00018608699076675775
1.16140e-05;0.00018384924574932357
1.16143e-05;0.00018161150073188942
1.16145e-05;0.00017952022418486215
1.16148e-05;0.0001775551917600844
1.16150e-05;0.00017559015933530666
1.16153e-05;0.0001741518338814939
1.16155e-05;0.0001731674877657634
1.16158e-05;0.0001721831416500329
1.16160e-05;0.00017119879553430907
1.16163e-05;0.00017021444941857854
1.16165e-05;0.00016923010330284805
1.16168e-05;0.0001682457571871242
1.16170e-05;0.0001672614110713937
1.16173e-05;0.00016725979611124185
1.16175e-05;0.0001681052169112706
1.16178e-05;0.00016895063771130505
1.16180e-05;0.0001697960585113395
1.16183e-05;0.00017064147931136823
1.16185e-05;0.0001714869001114027
1.16188e-05;0.00017233232091143716
1.16190e-05;0.00017317774171146587
1.16193e-05;0.00017485222726843367
1.16195e-05;0.00017724130042412098
1.16198e-05;0.00017963037357979211
1.16200e-05;0.00018201944673547945
1.16203e-05;0.00018440851989116677
1.16205e-05;0.0001867975930468379
1.16208e-05;0.00018918666620252523
1.16210e-05;0.0001920307043972942
1.16212e-05;0.00019526688611530346
1.16215e-05;0.00019850306783333467
1.16218e-05;0.0002017392495513659
1.16220e-05;0.0002049754312693971
1.16223e-05;0.0002082116129874064
1.16225e-05;0.0002114477947054376
1.16228e-05;0.0002142206672659904
1.16230e-05;0.00021668042940278963
1.16233e-05;0.00021989384062620312
1.16235e-05;0.0002231072518496166
1.16238e-05;0.0002263208093109077
1.16240e-05;0.00022956209424011497
1.16243e-05;0.00023280337916932226
1.16245e-05;0.00023604466409850755
1.16248e-05;0.0002388600564184803
1.16250e-05;0.00024150248514350793
1.16253e-05;0.00024392921593242276
1.16255e-05;0.0002458751726739137
1.16258e-05;0.0002463281327695048
1.16260e-05;0.0002439050393088589
1.16263e-05;0.00023779319117624406
1.16265e-05;0.0002279676207826245
1.16268e-05;0.00021468469334521735
1.16270e-05;0.00019819557555518855
1.16273e-05;0.00017867813421407395
1.16275e-05;0.00015644999047493706
1.16278e-05;0.0001393771697752318
1.16280e-05;0.00010934786660059012
1.16283e-05;7.333739833069278e-05
1.16285e-05;3.2053113668764044e-05
1.16288e-05;-1.3248982951353503e-05
1.16290e-05;-5.917268316314452e-05
1.16293e-05;-0.00010800945303687707
1.16295e-05;-0.00015980154718604116
1.16297e-05;-0.00021459967891101302
1.16300e-05;-0.00027244277394540377
1.16303e-05;-0.00033348980488764136
1.16305e-05;-0.0003995863169457962
1.16308e-05;-0.00046838123559557454
1.16310e-05;-0.0005381687055172652
1.16313e-05;-0.0006080290162766605
1.16315e-05;-0.0006798006125807561
1.16318e-05;-0.0007527787863294215
1.16320e-05;-0.0008271044371495099
1.16323e-05;-0.0009015465639372044
1.16325e-05;-0.000978114104580643
1.16328e-05;-0.0010548520437452513
1.16330e-05;-0.0011295482379029265
1.16333e-05;-0.0012040546841564348
1.16335e-05;-0.0012768583816621785
1.16338e-05;-0.0013470553009308514
1.16340e-05;-0.001417024401808494
1.16343e-05;-0.0014840162618107865
1.16345e-05;-0.001547614166593857
1.16348e-05;-0.0016109220409642234
1.16350e-05;-0.0016667311642818005
1.16353e-05;-0.0017218425268802635
1.16355e-05;-0.0017689815106746137
1.16358e-05;-0.0018153786625657558
1.16360e-05;-0.001855152321524857
1.16363e-05;-0.001894309662759243
1.16365e-05;-0.0019277586553067647
1.16368e-05;-0.0019606764845369693
1.16370e-05;-0.0019861554717793928
1.16373e-05;-0.0020109422728568182
1.16375e-05;-0.002028353282908355
1.16378e-05;-0.0020450779737032996
1.16380e-05;-0.0020543535625282836
1.16382e-05;-0.0020629360104941845
1.16385e-05;-0.0020715184584601436
1.16388e-05;-0.002074735539353113
1.16390e-05;-0.002072895276810325
1.16393e-05;-0.0020706308823854767
1.16395e-05;-0.002062802560058879
1.16398e-05;-0.0020544565128064337
1.16400e-05;-0.0020426290299909835
1.16403e-05;-0.0020285409117102153
1.16405e-05;-0.002012625803837596
1.16408e-05;-0.001994774994884213
1.16410e-05;-0.0019748702061408913
1.16413e-05;-0.0019531473136159072
1.16415e-05;-0.0019297401586271122
1.16418e-05;-0.0019049125496345778
1.16420e-05;-0.0018790188777371326
1.16423e-05;-0.0018523402111417073
1.16425e-05;-0.001825171107339977
1.16428e-05;-0.0017975414941323918
