Time(s);Current(A)
1.50000e-06;0.012118513875299768
1.50025e-06;0.012111399291853628
1.50050e-06;0.012104284708407494
1.50075e-06;0.012096312879450895
1.50100e-06;0.012087180510540191
1.50125e-06;0.012078048141629494
1.50150e-06;0.01206891577271879
1.50175e-06;0.012059783403808092
1.50200e-06;0.012050651034897388
1.50225e-06;0.01204151866598669
1.50250e-06;0.012032386297075993
1.50275e-06;0.012023253928165289
1.50300e-06;0.012014121559254591
1.50325e-06;0.012004989190343887
1.50350e-06;0.01199585682143319
1.50375e-06;0.011986724452522492
1.50400e-06;0.011977592083611788
1.50425e-06;0.01196845971470109
1.50450e-06;0.011959327345790386
1.50475e-06;0.011946175242132099
1.50500e-06;0.011932696484428094
1.50525e-06;0.011919217726724078
1.50550e-06;0.011905738969020072
1.50575e-06;0.011892260211316055
1.50600e-06;0.011878781453612049
1.50625e-06;0.011865302695908032
1.50650e-06;0.011851823938204028
1.50675e-06;0.011838345180500021
1.50700e-06;0.011824866422796005
1.50725e-06;0.011811387665091998
1.50750e-06;0.011797908907387982
1.50775e-06;0.011784430149683977
1.50800e-06;0.011770951391979971
1.50825e-06;0.011757472634275954
1.50850e-06;0.011743993876571948
1.50875e-06;0.011730515118867932
1.50900e-06;0.01172415007547752
1.50925e-06;0.011718363110917262
1.50950e-06;0.011712576146357002
1.50975e-06;0.011706789181796745
1.51000e-06;0.011701002217236484
1.51025e-06;0.011695215252676227
1.51050e-06;0.011689428288115967
1.51075e-06;0.01168364132355571
1.51100e-06;0.011677854358995455
1.51125e-06;0.011672067394435192
1.51150e-06;0.011666280429874937
1.51175e-06;0.011660493465314675
1.51200e-06;0.01165470650075442
1.51225e-06;0.011648919536194163
1.51250e-06;0.011643132571633902
1.51275e-06;0.011637345607073645
1.51300e-06;0.011631558642513385
1.51325e-06;0.011638456628134718
1.51350e-06;0.011646385425626992
1.51375e-06;0.011654314223119274
1.51400e-06;0.011662243020611548
1.51425e-06;0.011670171818103828
1.51450e-06;0.011678100615596102
1.51475e-06;0.011686029413088383
1.51500e-06;0.011693958210580658
1.51525e-06;0.011701887008072932
1.51550e-06;0.011709815805565214
1.51575e-06;0.011717744603057488
1.51600e-06;0.011725673400549768
1.51625e-06;0.011733602198042042
1.51650e-06;0.011742831305426847
1.51675e-06;0.011753820773833605
1.51700e-06;0.011764810242240353
1.51725e-06;0.01177579971064711
1.51750e-06;0.01178678917905386
1.51775e-06;0.011797778647460606
1.51800e-06;0.011808768115867363
1.51825e-06;0.011819757584274112
1.51850e-06;0.01183074705268087
1.51875e-06;0.011841736521087618
1.51900e-06;0.011852725989494375
1.51925e-06;0.011863715457901124
1.51950e-06;0.011874704926307872
1.51975e-06;0.01188569439471463
1.52000e-06;0.011896746744678903
1.52025e-06;0.01190780420456124
1.52050e-06;0.011918861664443567
1.52075e-06;0.011929919124325894
1.52100e-06;0.011940976584208231
1.52125e-06;0.01195203404409056
1.52150e-06;0.011963091503972897
1.52175e-06;0.01198547962078127
1.52200e-06;0.012008788496086583
1.52225e-06;0.012032097371391914
1.52250e-06;0.012055406246697226
1.52275e-06;0.012078715122002558
1.52300e-06;0.01210202399730787
1.52325e-06;0.012125332872613201
1.52350e-06;0.012163703024826954
1.52375e-06;0.01220329709536938
1.52400e-06;0.012242891165911837
1.52425e-06;0.012282485236454262
1.52450e-06;0.012322079306996721
1.52475e-06;0.012361673377539146
1.52500e-06;0.01240126744808157
1.52525e-06;0.012440861518624028
1.52550e-06;0.012480455589166453
1.52575e-06;0.012520049659708911
1.52600e-06;0.01256262216433271
1.52625e-06;0.012609226876427291
1.52650e-06;0.012655831588521913
1.52675e-06;0.012702436300616493
1.52700e-06;0.012749041012711114
1.52725e-06;0.012795645724805696
1.52750e-06;0.012842250436900316
1.52775e-06;0.012888855148994897
1.52800e-06;0.012935459861089479
1.52825e-06;0.0129820645731841
1.52850e-06;0.01302866928527868
1.52875e-06;0.01307105742390184
1.52900e-06;0.01309910091475769
1.52925e-06;0.013126006567021758
1.52950e-06;0.01315291221928585
1.52975e-06;0.013179817871549917
1.53000e-06;0.01320672352381401
1.53025e-06;0.013233629176078078
1.53050e-06;0.013260534828342146
1.53075e-06;0.013287440480606236
1.53100e-06;0.013314346132870305
1.53125e-06;0.013341251785134395
1.53150e-06;0.013368157437398463
1.53175e-06;0.013395063089662554
1.53200e-06;0.013421968741926622
1.53225e-06;0.01344887439419069
1.53250e-06;0.01346862856135543
1.53275e-06;0.013478701039801897
1.53300e-06;0.013488773518248374
1.53325e-06;0.01349884599669484
1.53350e-06;0.013508918475141308
1.53375e-06;0.013518990953587785
1.53400e-06;0.013529063432034251
1.53425e-06;0.013539135910480728
1.53450e-06;0.013549208388927194
1.53475e-06;0.013559280867373662
1.53500e-06;0.01356935334582014
1.53525e-06;0.013579425824266605
1.53550e-06;0.013589498302713082
1.53575e-06;0.01359957078115955
1.53600e-06;0.013609643259606025
1.53625e-06;0.013613244674711722
1.53650e-06;0.013616320234468307
1.53675e-06;0.013619395794224895
1.53700e-06;0.01362247135398148
1.53725e-06;0.013625546913738068
1.53750e-06;0.013628622473494655
1.53775e-06;0.01363169803325124
1.53800e-06;0.013634773593007828
1.53825e-06;0.013637849152764414
1.53850e-06;0.013640924712521001
1.53875e-06;0.013644000272277588
1.53900e-06;0.013647075832034172
1.53925e-06;0.01365015139179076
1.53950e-06;0.013653226951547347
1.53975e-06;0.013653586146964164
1.54000e-06;0.013653724603586923
1.54025e-06;0.013653863060209683
1.54050e-06;0.01364036424196703
1.54075e-06;0.013625757223486332
1.54100e-06;0.013611150205005623
1.54125e-06;0.013596543186524923
1.54150e-06;0.013581936168044213
1.54175e-06;0.013567329149563516
1.54200e-06;0.013529811647121486
1.54225e-06;0.013490432379478558
1.54250e-06;0.013451053111835662
1.54275e-06;0.013411673844192734
1.54300e-06;0.013372294576549837
1.54325e-06;0.013332915308906942
1.54350e-06;0.013268117741165951
1.54375e-06;0.01320125461659669
1.54400e-06;0.013134391492027372
1.54425e-06;0.013067528367458111
1.54450e-06;0.013000665242888851
1.54475e-06;0.012933802118319532
1.54500e-06;0.012866938993750273
1.54525e-06;0.012791911086024389
1.54550e-06;0.012705829685510744
1.54575e-06;0.012619748284997028
1.54600e-06;0.012533666884483383
1.54625e-06;0.01244758548396974
1.54650e-06;0.012361504083456022
1.54675e-06;0.012275422682942377
1.54700e-06;0.012189341282428661
1.54725e-06;0.012100330387923346
1.54750e-06;0.012011081435157087
1.54775e-06;0.011921832482390751
1.54800e-06;0.01183654793884465
1.54825e-06;0.011751585553448416
1.54850e-06;0.011666623168052254
1.54875e-06;0.011588856897422468
1.54900e-06;0.011511675401696293
1.54925e-06;0.011434493905970185
1.54950e-06;0.011377974210880257
1.54975e-06;0.011323133547166188
1.55000e-06;0.011268292883452073
1.55025e-06;0.011213452219738004
1.55050e-06;0.011158611556023936
1.55075e-06;0.011103770892309822
1.55100e-06;0.011048930228595754
1.55125e-06;0.011026112661139325
1.55150e-06;0.011005897373334721
1.55175e-06;0.010985682085530118
1.55200e-06;0.010965466797725499
1.55225e-06;0.010945251509920895
1.55250e-06;0.010925036222116274
1.55275e-06;0.01090482093431167
1.55300e-06;0.010919906016704563
1.55325e-06;0.010937859698508462
1.55350e-06;0.010955813380312346
1.55375e-06;0.010973767062116245
1.55400e-06;0.01099172074392013
1.55425e-06;0.01100967442572403
1.55450e-06;0.011027628107527913
1.55475e-06;0.011045581789331798
1.55500e-06;0.011063535471135698
1.55525e-06;0.011081489152939581
1.55550e-06;0.01111016361476754
1.55575e-06;0.011153351880868878
1.55600e-06;0.011196540146970219
1.55625e-06;0.011239728413071593
1.55650e-06;0.011282916679172934
1.55675e-06;0.01132610494527431
1.55700e-06;0.011369293211375649
1.55725e-06;0.011412481477476989
1.55750e-06;0.011455669743578364
1.55775e-06;0.011498858009679704
1.55800e-06;0.011542046275781079
1.55825e-06;0.011582516147267612
1.55850e-06;0.011622765114974804
1.55875e-06;0.011663014082681961
1.55900e-06;0.011703263050389118
1.55925e-06;0.01174351201809631
1.55950e-06;0.011783760985803467
1.55975e-06;0.011824009953510657
1.56000e-06;0.011847170281461471
1.56025e-06;0.01186894194233434
1.56050e-06;0.011890713603207226
1.56075e-06;0.011912485264080093
1.56100e-06;0.011934256924952981
1.56125e-06;0.011956028585825848
1.56150e-06;0.011977800246698717
1.56175e-06;0.011974250728444049
1.56200e-06;0.011968643545663146
1.56225e-06;0.01196303636288224
1.56250e-06;0.011957429180101339
1.56275e-06;0.01195182199732043
1.56300e-06;0.01194621481453953
1.56325e-06;0.011940607631758627
1.56350e-06;0.01193500044897772
1.56375e-06;0.01192939326619682
1.56400e-06;0.011923786083415914
1.56425e-06;0.011907853147489164
1.56450e-06;0.011877941195129828
1.56475e-06;0.01184802924277047
1.56500e-06;0.011818117290411134
1.56525e-06;0.011788205338051775
1.56550e-06;0.01175829338569244
1.56575e-06;0.011728381433333105
1.56600e-06;0.011698469480973746
1.56625e-06;0.01166855752861441
1.56650e-06;0.011638645576255052
1.56675e-06;0.011608733623895716
1.56700e-06;0.011572716327118267
1.56725e-06;0.011536202894257889
1.56750e-06;0.011499689461397513
1.56775e-06;0.011463176028537105
1.56800e-06;0.011426662595676729
1.56825e-06;0.011390149162816322
1.56850e-06;0.011353635729955945
1.56875e-06;0.011320575788398802
1.56900e-06;0.011292191187322335
1.56925e-06;0.011263806586245893
1.56950e-06;0.011235421985169426
1.56975e-06;0.011207037384092984
1.57000e-06;0.011178652783016541
1.57025e-06;0.011150268181940075
1.57050e-06;0.011121883580863632
1.57075e-06;0.011111870427187776
1.57100e-06;0.011103350184857586
1.57125e-06;0.011094829942527388
1.57150e-06;0.011086309700197198
1.57175e-06;0.011077789457867008
1.57200e-06;0.01106926921553681
1.57225e-06;0.01106074897320662
1.57250e-06;0.011052228730876421
1.57275e-06;0.01104370848854623
1.57300e-06;0.01103518824621604
1.57325e-06;0.011026668003885843
1.57350e-06;0.011018147761555653
1.57375e-06;0.011009627519225455
1.57400e-06;0.011001107276895263
1.57425e-06;0.010992587034565073
1.57450e-06;0.010984066792234876
1.57475e-06;0.010975546549904685
1.57500e-06;0.010967026307574488
1.57525e-06;0.010964411776708729
1.57550e-06;0.010969792404785489
1.57575e-06;0.010975173032862252
1.57600e-06;0.010980553660939012
1.57625e-06;0.010985934289015776
1.57650e-06;0.010991314917092536
1.57675e-06;0.0109966955451693
1.57700e-06;0.01100207617324606
1.57725e-06;0.011007456801322818
1.57750e-06;0.011012837429399583
1.57775e-06;0.011018218057476341
1.57800e-06;0.011023598685553106
1.57825e-06;0.011028979313629865
1.57850e-06;0.011034359941706625
1.57875e-06;0.011039740569783388
1.57900e-06;0.011045121197860148
1.57925e-06;0.011050501825936912
1.57950e-06;0.011055882454013672
1.57975e-06;0.01106126308209043
1.58000e-06;0.011069746728539442
1.58025e-06;0.011078482534289336
1.58050e-06;0.011087218340039236
1.58075e-06;0.011095954145789129
1.58100e-06;0.011104689951539029
1.58125e-06;0.011113425757288922
1.58150e-06;0.011122161563038815
1.58175e-06;0.011144435119166345
1.58200e-06;0.011167808787913635
1.58225e-06;0.011191182456660943
1.58250e-06;0.011214556125408231
1.58275e-06;0.01123792979415552
1.58300e-06;0.01126130346290283
1.58325e-06;0.011284677131650118
1.58350e-06;0.011325452061482364
1.58375e-06;0.011367641062809831
1.58400e-06;0.011409830064137299
1.58425e-06;0.011452019065464803
1.58450e-06;0.01149420806679227
1.58475e-06;0.011536397068119774
1.58500e-06;0.011578586069447241
1.58525e-06;0.011620775070774744
1.58550e-06;0.011662964072102211
1.58575e-06;0.011705153073429678
1.58600e-06;0.011750899577621248
1.58625e-06;0.01180146223326317
1.58650e-06;0.011852024888905134
1.58675e-06;0.011902587544547054
1.58700e-06;0.011953150200188976
1.58725e-06;0.01200371285583094
1.58750e-06;0.01205427551147286
1.58775e-06;0.012104838167114825
1.58800e-06;0.012155400822756747
1.58825e-06;0.012205963478398668
1.58850e-06;0.012256526134040631
1.58875e-06;0.012294491543671583
1.58900e-06;0.01233143326850099
1.58925e-06;0.012368374993330366
1.58950e-06;0.012405316718159773
1.58975e-06;0.012442258442989148
1.59000e-06;0.012479200167818524
1.59025e-06;0.012516141892647931
1.59050e-06;0.012553083617477307
1.59075e-06;0.01256669528356642
1.59100e-06;0.012578411088724439
1.59125e-06;0.012590126893882458
1.59150e-06;0.012601842699040485
1.59175e-06;0.012613558504198505
1.59200e-06;0.012625274309356534
1.59225e-06;0.012636990114514553
1.59250e-06;0.012648705919672572
1.59275e-06;0.012632858221140466
1.59300e-06;0.012614770640988286
1.59325e-06;0.012596683060836092
1.59350e-06;0.012578595480683913
1.59375e-06;0.012560507900531719
1.59400e-06;0.01254242032037954
1.59425e-06;0.01252433274022736
1.59450e-06;0.012506245160075166
1.59475e-06;0.012488157579922986
1.59500e-06;0.012470069999770792
1.59525e-06;0.012451982419618613
1.59550e-06;0.01242598864622568
1.59575e-06;0.012389291459372072
1.59600e-06;0.012352594272518495
1.59625e-06;0.01231589708566489
1.59650e-06;0.012279199898811313
1.59675e-06;0.012242502711957736
1.59700e-06;0.01220580552510413
1.59725e-06;0.012169108338250554
1.59750e-06;0.012132411151396946
1.59775e-06;0.012095713964543372
1.59800e-06;0.012059016777689764
1.59825e-06;0.012022319590836187
1.59850e-06;0.011990396834080208
1.59875e-06;0.011958862059865934
1.59900e-06;0.011927327285651684
1.59925e-06;0.01189579251143741
1.59950e-06;0.01186425773722316
1.59975e-06;0.011832722963008913
1.60000e-06;0.011801188188794639
1.60025e-06;0.011769653414580389
1.60050e-06;0.011754298089828768
1.60075e-06;0.011739461625260943
1.60100e-06;0.011724625160693117
1.60125e-06;0.01170978869612528
1.60150e-06;0.011694952231557455
1.60175e-06;0.011680115766989617
1.60200e-06;0.011665279302421791
1.60225e-06;0.011650734159715959
1.60250e-06;0.011658289774539131
1.60275e-06;0.011665845389362304
1.60300e-06;0.011673401004185483
1.60325e-06;0.011680956619008658
1.60350e-06;0.011688512233831837
1.60375e-06;0.01169606784865501
1.60400e-06;0.011703623463478184
1.60425e-06;0.011711179078301364
1.60450e-06;0.011718734693124537
1.60475e-06;0.011726290307947716
1.60500e-06;0.01173384592277089
1.60525e-06;0.011741401537594063
1.60550e-06;0.011748957152417243
1.60575e-06;0.011756512767240416
1.60600e-06;0.011775547389418052
1.60625e-06;0.011796222682932908
1.60650e-06;0.011816897976447782
1.60675e-06;0.011837573269962638
1.60700e-06;0.011858248563477494
1.60725e-06;0.011878923856992367
1.60750e-06;0.011899599150507223
1.60775e-06;0.011920274444022097
1.60800e-06;0.011940949737536953
1.60825e-06;0.011961625031051809
1.60850e-06;0.011982300324566682
1.60875e-06;0.012002975618081538
1.60900e-06;0.012023650911596412
1.60925e-06;0.012044326205111268
1.60950e-06;0.01205633131055596
1.60975e-06;0.012065240549265312
1.61000e-06;0.012074149787974655
1.61025e-06;0.012083059026684006
1.61050e-06;0.012091968265393351
1.61075e-06;0.012100877504102702
1.61100e-06;0.012109786742812045
1.61125e-06;0.012118695981521389
1.61150e-06;0.012127605220230741
1.61175e-06;0.012121145496878143
1.61200e-06;0.012109197973489536
1.61225e-06;0.012097250450100938
1.61250e-06;0.01208530292671234
1.61275e-06;0.012073355403323733
1.61300e-06;0.012061407879935135
1.61325e-06;0.012049460356546526
1.61350e-06;0.012037512833157928
1.61375e-06;0.012025565309769332
1.61400e-06;0.011998849886289775
1.61425e-06;0.01196686128415817
1.61450e-06;0.011934872682026539
1.61475e-06;0.011902884079894933
1.61500e-06;0.011870895477763328
1.61525e-06;0.011838906875631695
1.61550e-06;0.01180691827350009
1.61575e-06;0.011774929671368457
1.61600e-06;0.011742941069236852
1.61625e-06;0.011710952467105221
1.61650e-06;0.011678963864973616
1.61675e-06;0.01164697526284201
1.61700e-06;0.011612820721601889
1.61725e-06;0.011577892787814582
1.61750e-06;0.011542964854027246
1.61775e-06;0.01150803692023994
1.61800e-06;0.011473108986452634
1.61825e-06;0.011438181052665298
1.61850e-06;0.011403253118877993
1.61875e-06;0.011368325185090657
1.61900e-06;0.01133339725130335
1.61925e-06;0.011298469317516043
1.61950e-06;0.011263541383728709
1.61975e-06;0.011228613449941402
1.62000e-06;0.01120850455321751
1.62025e-06;0.011193687094640055
1.62050e-06;0.011178869636062589
1.62075e-06;0.011164052177485135
1.62100e-06;0.01114923471890768
1.62125e-06;0.011134417260330213
1.62150e-06;0.011119599801752759
1.62175e-06;0.011104782343175293
1.62200e-06;0.011109456620888495
1.62225e-06;0.011121090818905914
1.62250e-06;0.011132725016923343
1.62275e-06;0.011144359214940761
1.62300e-06;0.011155993412958188
1.62325e-06;0.011167627610975606
1.62350e-06;0.011179261808993025
1.62375e-06;0.011190896007010454
1.62400e-06;0.011221441573254996
1.62425e-06;0.011258739827599801
1.62450e-06;0.011296038081944574
1.62475e-06;0.01133333633628938
1.62500e-06;0.011370634590634152
1.62525e-06;0.011407932844978924
1.62550e-06;0.01144523109932373
1.62575e-06;0.011482529353668502
1.62600e-06;0.011519827608013306
1.62625e-06;0.011557125862358079
1.62650e-06;0.011594424116702853
1.62675e-06;0.01163305629367829
1.62700e-06;0.01167598572923205
1.62725e-06;0.011718915164785845
1.62750e-06;0.011761844600339605
1.62775e-06;0.011804774035893363
1.62800e-06;0.01184770347144716
1.62825e-06;0.01189063290700092
1.62850e-06;0.011933562342554715
1.62875e-06;0.011976491778108476
1.62900e-06;0.01201942121366227
1.62925e-06;0.012062350649216031
1.62950e-06;0.01210528008476979
1.62975e-06;0.012132139894059202
1.63000e-06;0.012153261716929894
1.63025e-06;0.012174383539800606
1.63050e-06;0.0121955053626713
1.63075e-06;0.012216627185541992
1.63100e-06;0.012237749008412704
1.63125e-06;0.01225126290419586
1.63150e-06;0.012240267709879939
1.63175e-06;0.012229272515564028
1.63200e-06;0.012218277321248116
1.63225e-06;0.012207282126932196
1.63250e-06;0.012196286932616285
1.63275e-06;0.012185291738300364
1.63300e-06;0.012147633068934119
1.63325e-06;0.01210045366428792
1.63350e-06;0.012053274259641762
1.63375e-06;0.012006094854995604
1.63400e-06;0.011958915450349406
1.63425e-06;0.011911736045703248
1.63450e-06;0.01186455664105705
1.63475e-06;0.011817377236410891
1.63500e-06;0.011750268080855475
1.63525e-06;0.011676042602981133
1.63550e-06;0.011601817125106854
1.63575e-06;0.011527591647232511
1.63600e-06;0.011453366169358232
1.63625e-06;0.011379140691483953
1.63650e-06;0.011304915213609611
1.63675e-06;0.011230689735735332
1.63700e-06;0.011151120696839985
1.63725e-06;0.011069643630958892
1.63750e-06;0.01098816656507773
1.63775e-06;0.01090819541392763
1.63800e-06;0.010828761980216102
1.63825e-06;0.010749328546504507
1.63850e-06;0.010674252726299094
1.63875e-06;0.010600732880495452
1.63900e-06;0.010527213034691875
1.63925e-06;0.010461288873641157
1.63950e-06;0.010398076906093368
1.63975e-06;0.010334864938545633
1.64000e-06;0.010290078452475121
1.64025e-06;0.010251871158772113
1.64050e-06;0.010213663865069104
1.64075e-06;0.010175456571366063
1.64100e-06;0.010137249277663055
1.64125e-06;0.010099041983960015
1.64150e-06;0.01007015352273006
1.64175e-06;0.010071285867700397
1.64200e-06;0.010072418212670733
1.64225e-06;0.01007355055764107
1.64250e-06;0.010074682902611407
1.64275e-06;0.010075815247581743
1.64300e-06;0.01007694759255208
1.64325e-06;0.010110295279167706
1.64350e-06;0.010155146107783952
1.64375e-06;0.010199996936400234
1.64400e-06;0.010244847765016479
1.64425e-06;0.010289698593632763
1.64450e-06;0.010334549422249007
1.64475e-06;0.010379400250865251
1.64500e-06;0.010424251079481533
1.64525e-06;0.010469101908097779
1.64550e-06;0.010520716083672837
1.64575e-06;0.01059411851747604
1.64600e-06;0.010667520951279307
1.64625e-06;0.01074092338508251
1.64650e-06;0.010814325818885714
1.64675e-06;0.01088772825268898
1.64700e-06;0.010961130686492184
1.64725e-06;0.01103453312029545
1.64750e-06;0.011107935554098653
1.64775e-06;0.011181337987901857
1.64800e-06;0.011251131908496071
1.64825e-06;0.011319637336163143
1.64850e-06;0.011388142763830274
1.64875e-06;0.011456648191497347
1.64900e-06;0.01152515361916442
1.64925e-06;0.011593659046831552
1.64950e-06;0.011662164474498624
1.64975e-06;0.011708565788946372
1.65000e-06;0.011747074380853737
1.65025e-06;0.011785582972761102
1.65050e-06;0.0118240915646685
1.65075e-06;0.011862600156575864
1.65100e-06;0.011901108748483262
1.65125e-06;0.011939617340390627
1.65150e-06;0.01194612302367574
1.65175e-06;0.011941201418486098
