Time(s);Current(A)
6.50000e-06;-0.0010268362517850786
6.50025e-06;-0.0010112198771867658
6.50050e-06;-0.000996514967145752
6.50075e-06;-0.0009833545933630129
6.50100e-06;-0.0009707971062786384
6.50125e-06;-0.0009592612501042943
6.50150e-06;-0.0009470794222941473
6.50175e-06;-0.0009338029533317164
6.50200e-06;-0.0009191072412547157
6.50225e-06;-0.0009020065289702699
6.50250e-06;-0.0008837373497252799
6.50275e-06;-0.0008634881268542951
6.50300e-06;-0.0008419240843272229
6.50325e-06;-0.0008181319939670671
6.50350e-06;-0.0007943399036069919
6.50375e-06;-0.0007684025851556191
6.50400e-06;-0.0007388300375092795
6.50425e-06;-0.0007075819297138364
6.50450e-06;-0.0006734944757450134
6.50475e-06;-0.000638110639319248
6.50500e-06;-0.0006005299980998556
6.50525e-06;-0.0005617703914091657
6.50550e-06;-0.0005210129506799609
6.50575e-06;-0.0004788398851501812
6.50600e-06;-0.00043426795088230265
6.50625e-06;-0.0003885763644881888
6.50650e-06;-0.0003409874543955891
6.50675e-06;-0.0002927114913034352
6.50700e-06;-0.0002432712720033999
6.50725e-06;-0.00019341257445193696
6.50750e-06;-0.00014284473815478815
6.50775e-06;-9.196137408682407e-05
6.50800e-06;-4.043096274343657e-05
6.50825e-06;1.1285505399458677e-05
6.50850e-06;6.287354057480827e-05
6.50875e-06;0.00011401869884669345
6.50900e-06;0.00016440830602298316
6.50925e-06;0.0002137697289187149
6.50950e-06;0.0002619399032779064
6.50975e-06;0.00030880953470321807
6.51000e-06;0.00035417538983389317
6.51025e-06;0.00039773351610793373
6.51050e-06;0.0004391557096294145
6.51075e-06;0.00047811382050667997
6.51100e-06;0.0005142788830842616
6.51125e-06;0.0005473084484273353
6.51150e-06;0.000576846477977686
6.51175e-06;0.0006026037677795681
6.51200e-06;0.0006244326584724076
6.51225e-06;0.0006422755030339978
6.51250e-06;0.0006560911120423236
6.51275e-06;0.0006658383326810292
6.51300e-06;0.0006714754936889271
6.51325e-06;0.0006729525494156452
6.51350e-06;0.0006702109211643735
6.51375e-06;0.0006632338957740543
6.51400e-06;0.0006520934345830664
6.51425e-06;0.0006369178588098848
6.51450e-06;0.0006178458106968203
6.51475e-06;0.0005950160291075707
6.51500e-06;0.0005685667824548209
6.51525e-06;0.0005386311672632066
6.51550e-06;0.0005053369414353281
6.51575e-06;0.00046883799514266337
6.51600e-06;0.0004293438820329885
6.51625e-06;0.00038709938375256126
6.51650e-06;0.00034235572456575405
6.51675e-06;0.00029536413953784265
6.51700e-06;0.00024637565521780526
6.51725e-06;0.0001956379651375922
6.51750e-06;0.0001433954024811498
6.51775e-06;8.990871625480783e-05
6.51800e-06;3.5473421767109604e-05
6.51825e-06;-1.9592831216879e-05
6.51850e-06;-7.492864740683616e-05
6.51875e-06;-0.00013026446359679333
6.51900e-06;-0.0001852035907535677
6.51925e-06;-0.0002394705129876596
6.51950e-06;-0.00029314486071779403
6.51975e-06;-0.00034525363032418576
6.52000e-06;-0.00039571544268833167
6.52025e-06;-0.0004441672794993373
6.52050e-06;-0.0004902436074472753
6.52075e-06;-0.0005335789115256068
6.52100e-06;-0.0005738097505076485
6.52125e-06;-0.000610626670100226
6.52150e-06;-0.000643891699288172
6.52175e-06;-0.0006736266923120954
6.52200e-06;-0.0006998397135292818
6.52225e-06;-0.0007224604235257715
6.52250e-06;-0.0007413942630524709
6.52275e-06;-0.0007565467328757573
6.52300e-06;-0.0007678245698589839
6.52325e-06;-0.0007744635880321285
6.52350e-06;-0.0007774318877004108
6.52375e-06;-0.0007776901242791729
6.52400e-06;-0.0007733559818475414
6.52425e-06;-0.0007664532037947728
6.52450e-06;-0.0007551977048192194
6.52475e-06;-0.000741485629943362
6.52500e-06;-0.0007236107266649366
6.52525e-06;-0.0007034502371189084
6.52550e-06;-0.0006794166722775336
6.52575e-06;-0.0006534133729677835
6.52600e-06;-0.0006240722298774062
6.52625e-06;-0.0005930494241080747
6.52650e-06;-0.0005591769310310052
6.52675e-06;-0.0005238924476680032
6.52700e-06;-0.0004862152544910706
6.52725e-06;-0.0004474325854175016
6.52750e-06;-0.00040677661519318445
6.52775e-06;-0.00036541241673237584
6.52800e-06;-0.000322848079241318
6.52825e-06;-0.00027995527985705027
6.52850e-06;-0.00023650588032988798
6.52875e-06;-0.00019304016598731792
6.52900e-06;-0.00014965890804883794
6.52925e-06;-0.00010667979754819788
6.52950e-06;-6.428663315333597e-05
6.52975e-06;-3.349016102406091e-05
6.53000e-06;5.141484211082733e-06
6.53025e-06;4.60097574589786e-05
6.53050e-06;7.929129869858469e-05
6.53075e-06;0.00010781256438420127
6.53100e-06;0.00013865234206244067
6.53125e-06;0.0001685704161765688
6.53150e-06;0.00019479927978731745
6.53175e-06;0.00021759099626456762
6.53200e-06;0.00023674929320355824
6.53225e-06;0.0002522184503014297
6.53250e-06;0.0002643315800921056
6.53275e-06;0.0002731957755619705
6.53300e-06;0.00027781239978429167
6.53325e-06;0.00027759522844094677
6.53350e-06;0.000273059573174762
6.53375e-06;0.00026452584457260217
6.53400e-06;0.000252033603148363
6.53425e-06;0.00023571046949620835
6.53450e-06;0.00021592757884778913
6.53475e-06;0.0001929144874603328
6.53500e-06;0.00016620812657134774
6.53525e-06;0.00013560383389376197
6.53550e-06;0.00010158691903253876
6.53575e-06;6.452056906272741e-05
6.53600e-06;2.45920430812152e-05
6.53625e-06;-1.795626935882018e-05
6.53650e-06;-6.272943570651327e-05
6.53675e-06;-0.0001094212531403017
6.53700e-06;-0.00015815936864155042
6.53725e-06;-0.00020890957059049574
6.53750e-06;-0.0002615137518432439
6.53775e-06;-0.00031487438807287075
6.53800e-06;-0.00036914392695631276
6.53825e-06;-0.00042405402686626403
6.53850e-06;-0.0004789641267762153
6.53875e-06;-0.0005335344811592339
6.53900e-06;-0.0005878653954405425
6.53925e-06;-0.0006421963097218512
6.53950e-06;-0.0006946419214313532
6.53975e-06;-0.0007457588415076637
6.54000e-06;-0.0007968757615839743
6.54025e-06;-0.0008449504050654871
6.54050e-06;-0.0008908809643467469
6.54075e-06;-0.0009333925177167472
6.54100e-06;-0.0009734944819764032
6.54125e-06;-0.0010095676260690634
6.54150e-06;-0.0010428014064830422
6.54175e-06;-0.0010760351868969082
6.54200e-06;-0.0011060669075441713
6.54225e-06;-0.0011338419347125593
6.54250e-06;-0.001161616961880853
6.54275e-06;-0.0011855707595338789
6.54300e-06;-0.0012068314957336677
6.54325e-06;-0.0012280922319333845
6.54350e-06;-0.0012461425089091893
6.54375e-06;-0.0012619301727788026
6.54400e-06;-0.0012777178366483624
6.54425e-06;-0.0012889923543284582
6.54450e-06;-0.0012970861732342488
6.54475e-06;-0.0013051799921400121
6.54500e-06;-0.0013132738110457755
6.54525e-06;-0.0013213676299515661
6.54550e-06;-0.0013294614488573294
6.54575e-06;-0.0013375552677631203
6.54600e-06;-0.0013456490866688836
6.54625e-06;-0.0013489503493903016
6.54650e-06;-0.001348873995491098
6.54675e-06;-0.0013487976415918947
6.54700e-06;-0.0013487212876926915
6.54725e-06;-0.001348644933793488
6.54750e-06;-0.0013485685798942848
6.54775e-06;-0.0013484922259950816
6.54800e-06;-0.001348415872095878
6.54825e-06;-0.0013462562242171523
6.54850e-06;-0.001342628347672988
6.54875e-06;-0.0013390004711288114
6.54900e-06;-0.0013353725945846472
6.54925e-06;-0.001331744718040483
6.54950e-06;-0.0013281168414963063
6.54975e-06;-0.001324488964952142
6.55000e-06;-0.0013208610884079654
6.55025e-06;-0.0013172332118638011
6.55050e-06;-0.0013144391275149404
6.55075e-06;-0.0013122326691152398
6.55100e-06;-0.0013100262107155465
6.55125e-06;-0.0013078197523158533
6.55150e-06;-0.0013056132939161527
6.55175e-06;-0.0013034068355164594
6.55200e-06;-0.0013012003771167664
6.55225e-06;-0.0012989939187170658
6.55250e-06;-0.0012967874603173725
6.55275e-06;-0.0012976789158640103
6.55300e-06;-0.0013007536667609025
6.55325e-06;-0.0013038284176577846
6.55350e-06;-0.0013069031685546664
6.55375e-06;-0.0013099779194515589
6.55400e-06;-0.0013130526703484407
6.55425e-06;-0.001316127421245333
6.55450e-06;-0.001319202172142215
6.55475e-06;-0.0013222769230390968
6.55500e-06;-0.0013253516739359893
6.55525e-06;-0.001328426424832871
6.55550e-06;-0.001334310039912479
6.55575e-06;-0.0013421732387428283
6.55600e-06;-0.001350036437573151
6.55625e-06;-0.0013578996364034738
6.55650e-06;-0.0013657628352338233
6.55675e-06;-0.0013736260340641462
6.55700e-06;-0.001381489232894469
6.55725e-06;-0.0013893524317248184
6.55750e-06;-0.0013972156305551411
6.55775e-06;-0.0014050788293854639
6.55800e-06;-0.0014129420282158133
6.55825e-06;-0.0014214425093274107
6.55850e-06;-0.0014303921234574016
6.55875e-06;-0.0014393417375873623
6.55900e-06;-0.0014482913517173228
6.55925e-06;-0.0014572409658473136
6.55950e-06;-0.0014655939043848483
6.55975e-06;-0.0014735263279988138
6.56000e-06;-0.0014814587516128062
6.56025e-06;-0.0014893911752267717
6.56050e-06;-0.0014973235988407373
6.56075e-06;-0.0015043919026796607
6.56100e-06;-0.0015108512068112282
6.56125e-06;-0.0015160921457644414
6.56150e-06;-0.0015204744259316484
6.56175e-06;-0.0015212266495962785
6.56200e-06;-0.0015194205434883481
6.56225e-06;-0.0015176144373804116
6.56250e-06;-0.0015113471951363694
6.56275e-06;-0.0015019359088840971
6.56300e-06;-0.001492524622631857
6.56325e-06;-0.0014785869166568674
6.56350e-06;-0.0014614591572125924
6.56375e-06;-0.0014443313977683756
6.56400e-06;-0.0014218936334599878
6.56425e-06;-0.0013957135738108487
6.56450e-06;-0.0013695335141617985
6.56475e-06;-0.001338911052125437
6.56500e-06;-0.0013051577489352501
6.56525e-06;-0.0012714044457451778
6.56550e-06;-0.0012335868067960972
6.56575e-06;-0.001192904774091606
6.56600e-06;-0.0011522227413872526
6.56625e-06;-0.0011085432633368892
6.56650e-06;-0.0010627512964961091
6.56675e-06;-0.0010152914569364025
6.56700e-06;-0.000966656162275312
6.56725e-06;-0.0009168674104370944
6.56750e-06;-0.0008662657445751898
6.56775e-06;-0.0008147854647525775
6.56800e-06;-0.0007626859702562171
6.56825e-06;-0.0007102956530877935
6.56850e-06;-0.000657751420321636
6.56875e-06;-0.0006054779376005487
6.56900e-06;-0.0005537885910684051
6.56925e-06;-0.0005029691962930195
6.56950e-06;-0.00045323814910164896
6.56975e-06;-0.0004047907200926699
6.57000e-06;-0.00035788502329597225
6.57025e-06;-0.00031284245619717777
6.57050e-06;-0.000270001457159896
6.57075e-06;-0.00022970041642071456
6.57100e-06;-0.0001922774254554462
6.57125e-06;-0.00015780214592899541
6.57150e-06;-0.00012564973016656542
6.57175e-06;-9.485226767954726e-05
6.57200e-06;-6.49238769909818e-05
6.57225e-06;-3.593357441104516e-05
6.57250e-06;-8.106584159035238e-06
6.57275e-06;1.833190397828241e-05
6.57300e-06;4.3156931667406565e-05
6.57325e-06;6.631168948950474e-05
6.57350e-06;8.817438288287069e-05
6.57375e-06;0.00010933807975136524
6.57400e-06;0.00013009385038897903
6.57425e-06;0.00015038517988595523
6.57450e-06;0.00016981224612519703
6.57475e-06;0.00018878412370523995
6.57500e-06;0.0002066460138601855
6.57525e-06;0.00022372562586755012
6.57550e-06;0.00024009611540181403
6.57575e-06;0.0002559668416034973
6.57600e-06;0.00027154840965969287
6.57625e-06;0.0002869261897330673
6.57650e-06;0.0003016205493310445
6.57675e-06;0.00031583325941543814
6.57700e-06;0.0003300459694998799
6.57725e-06;0.0003433074239759038
6.57750e-06;0.0003558984686272482
6.57775e-06;0.00036848951327863525
6.57800e-06;0.0003803253408742063
6.57825e-06;0.0003916289193776362
6.57850e-06;0.00040293249788110434
6.57875e-06;0.00041423607638453423
6.57900e-06;0.0004255396548879641
6.57925e-06;0.0004355779063692565
6.57950e-06;0.0004447244020914907
6.57975e-06;0.00045387089781375595
6.58000e-06;0.0004630173935359902
6.58025e-06;0.00047216388925822446
6.58050e-06;0.00048061105845970906
6.58075e-06;0.0004882628852598927
6.58100e-06;0.0004953607065281447
6.58125e-06;0.0005016439530399868
6.58150e-06;0.0005063729747538348
6.58175e-06;0.0005086419748918843
6.58200e-06;0.0005079923594122934
6.58225e-06;0.0005044170001968238
6.58250e-06;0.0004980309155834445
6.58275e-06;0.0004889491239100857
6.58300e-06;0.00047728643864996135
6.58325e-06;0.0004630352246025352
6.58350e-06;0.0004458877550830002
6.58375e-06;0.00042543233491559423
6.58400e-06;0.0004015374053496129
6.58425e-06;0.0003743541818469714
6.58450e-06;0.00034411040188091945
6.58475e-06;0.00031103378585259757
6.58500e-06;0.0002753519055551814
6.58525e-06;0.0002372156512320191
6.58550e-06;0.00019658792290748258
6.58575e-06;0.00015336648400830435
6.58600e-06;0.00010762460015100068
6.58625e-06;5.9612671622288936e-05
6.58650e-06;9.629001628489494e-06
6.58675e-06;-4.2028139295245096e-05
6.58700e-06;-9.506058052603873e-05
6.58725e-06;-0.00014921822111916002
6.58750e-06;-0.00020462040245336586
6.58775e-06;-0.0002605979095986996
6.58800e-06;-0.00031724949310756804
6.58825e-06;-0.00037437614074529774
6.58850e-06;-0.00043150278838283385
6.58875e-06;-0.00048786735030265386
6.58900e-06;-0.0005436948223513442
6.58925e-06;-0.0005995222943998453
6.58950e-06;-0.0006535927547731598
6.58975e-06;-0.0007064249382014475
6.59000e-06;-0.0007571103432689368
6.59025e-06;-0.0008062827782247721
6.59050e-06;-0.0008524539436910082
6.59075e-06;-0.0008965099252525498
6.59100e-06;-0.0009367800050959431
6.59125e-06;-0.0009743819212155268
6.59150e-06;-0.0010085694579526302
6.59175e-06;-0.0010403506661884007
6.59200e-06;-0.001069303818132678
6.59225e-06;-0.0010962638604379688
6.59250e-06;-0.0011200763597780565
6.59275e-06;-0.0011416705870697002
6.59300e-06;-0.0011589755370382923
6.59325e-06;-0.0011732575627456056
6.59350e-06;-0.0011875395884528702
6.59375e-06;-0.001197614100659641
6.59400e-06;-0.0012047233127278852
6.59425e-06;-0.0012118325247961052
6.59450e-06;-0.0012150367631650178
6.59475e-06;-0.0012154889202749951
6.59500e-06;-0.001215941077384971
6.59525e-06;-0.0012126930573189414
6.59550e-06;-0.0012068372890208122
6.59575e-06;-0.0012009815207227029
6.59600e-06;-0.0011924216279625484
6.59625e-06;-0.0011819559681404861
6.59650e-06;-0.0011714903083184592
6.59675e-06;-0.0011586785139112111
6.59700e-06;-0.0011442132504873906
6.59725e-06;-0.0011297479870635704
6.59750e-06;-0.0011136608772145348
6.59775e-06;-0.0010964307498973248
6.59800e-06;-0.0010792006225801148
6.59825e-06;-0.0010612198933558966
6.59850e-06;-0.001042710167626272
6.59875e-06;-0.0010242004418966478
6.59900e-06;-0.0010055097863941806
6.59925e-06;-0.0009866916182693756
6.59950e-06;-0.0009678734501445708
6.59975e-06;-0.000949812633084065
6.60000e-06;-0.0009322855690859816
6.60025e-06;-0.0009147585050878984
6.60050e-06;-0.0008987835310466081
6.60075e-06;-0.0008839024126906682
6.60100e-06;-0.0008690212943347285
6.60125e-06;-0.0008572352513887436
6.60150e-06;-0.0008476305032953693
6.60175e-06;-0.0008380257552019624
6.60200e-06;-0.0008284210071085881
6.60225e-06;-0.0008188162590152138
6.60250e-06;-0.0008092115109218069
6.60275e-06;-0.0007996067628284326
6.60300e-06;-0.0007900020147350583
6.60325e-06;-0.0007803972666416514
6.60350e-06;-0.0007713077416894488
6.60375e-06;-0.00076765301745738
6.60400e-06;-0.0007639982932252989
6.60425e-06;-0.0007603435689932299
6.60450e-06;-0.0007566888447611611
6.60475e-06;-0.00075303412052908
6.60500e-06;-0.000749379396297011
6.60525e-06;-0.0007457246720649422
6.60550e-06;-0.0007420699478328611
6.60575e-06;-0.0007384152236007921
6.60600e-06;-0.0007369296583117549
6.60625e-06;-0.0007369728361419083
6.60650e-06;-0.0007370160139720617
6.60675e-06;-0.0007370591918022153
6.60700e-06;-0.0007371023696323687
6.60725e-06;-0.0007371455474625221
6.60750e-06;-0.0007371887252926756
6.60775e-06;-0.000737231903122829
6.60800e-06;-0.0007372750809529824
6.60825e-06;-0.0007374388960913218
6.60850e-06;-0.0007388752467133888
6.60875e-06;-0.000740311597335456
6.60900e-06;-0.0007417479479575279
6.60925e-06;-0.0007431842985795949
6.60950e-06;-0.000744620649201662
6.60975e-06;-0.0007460569998237339
6.61000e-06;-0.000747493350445801
6.61025e-06;-0.000748929701067873
6.61050e-06;-0.00075036605168994
6.61075e-06;-0.0007510390310974127
6.61100e-06;-0.0007511740146630715
6.61125e-06;-0.0007513089982287298
6.61150e-06;-0.0007514439817943882
6.61175e-06;-0.0007515789653600469
6.61200e-06;-0.0007517139489257053
6.61225e-06;-0.0007489210387477742
6.61250e-06;-0.0007440646571824254
6.61275e-06;-0.0007392082756170929
6.61300e-06;-0.0007343518940517605
6.61325e-06;-0.0007294955124864117
6.61350e-06;-0.0007246391309210793
6.61375e-06;-0.0007170132388742674
6.61400e-06;-0.0007074354981143358
6.61425e-06;-0.0006978577573544365
6.61450e-06;-0.0006864939824039721
6.61475e-06;-0.000673871476511904
6.61500e-06;-0.0006612489706198358
6.61525e-06;-0.0006471181134079673
6.61550e-06;-0.0006319242258873858
6.61575e-06;-0.0006167303383668043
6.61600e-06;-0.0005997036774731106
6.61625e-06;-0.0005813853455880381
6.61650e-06;-0.0005630670137029656
6.61675e-06;-0.000544748681817831
6.61700e-06;-0.0005264303499327585
6.61725e-06;-0.0005079456980693902
6.61750e-06;-0.0004877066297894383
6.61775e-06;-0.00046746756150955505
6.61800e-06;-0.00044722849322967177
6.61825e-06;-0.00042698942494971996
6.61850e-06;-0.00040675035666983667
6.61875e-06;-0.00038668247156407637
6.61900e-06;-0.0003667352300379793
6.61925e-06;-0.00034678798851188225
6.61950e-06;-0.0003276539180206847
6.61975e-06;-0.00030909294044562596
6.62000e-06;-0.00029053196287056725
6.62025e-06;-0.0002730494761789006
6.62050e-06;-0.0002563270700346467
6.62075e-06;-0.00024082386986866918
6.62100e-06;-0.00022617992105239092
6.62125e-06;-0.0002128328219780569
6.62150e-06;-0.0002003996947107707
6.62175e-06;-0.00018861724369331306
6.62200e-06;-0.00017765454193106121
6.62225e-06;-0.00016757079928485894
6.62250e-06;-0.00015792712137170813
6.62275e-06;-0.0001489904874077841
6.62300e-06;-0.00014107849229023938
6.62325e-06;-0.00013405640768440044
6.62350e-06;-0.00012781822530930477
6.62375e-06;-0.00012219012802632567
6.62400e-06;-0.00011707927370638989
6.62425e-06;-0.0001124902723123486
6.62450e-06;-0.0001084554835234282
6.62475e-06;-0.00010500726604331915
6.62500e-06;-0.00010217790951511088
6.62525e-06;-0.00010011385642951203
6.62550e-06;-9.840497045456281e-05
6.62575e-06;-9.705872720635398e-05
6.62600e-06;-9.626806006854017e-05
6.62625e-06;-9.568882108287503e-05
6.62650e-06;-9.552625791802435e-05
6.62675e-06;-9.565735248433834e-05
6.62700e-06;-9.621550695660919e-05
6.62725e-06;-9.707463747977966e-05
6.62750e-06;-9.828479247633044e-05
6.62775e-06;-9.97423365587957e-05
6.62800e-06;-0.00010119988064126592
6.62825e-06;-0.00010295378728188599
6.62850e-06;-0.00010491655930916568
6.62875e-06;-0.000106879331336452
6.62900e-06;-0.00010884210336373169
6.62925e-06;-0.0001108194835944605
6.62950e-06;-0.00011295095759186777
6.62975e-06;-0.00011508243158926784
6.63000e-06;-0.0001172139055866679
6.63025e-06;-0.0001193453795840752
6.63050e-06;-0.00012130528333262005
6.63075e-06;-0.0001231442707056685
6.63100e-06;-0.00012487638906931797
6.63125e-06;-0.00012653319010168606
6.63150e-06;-0.00012852563225184096
6.63175e-06;-0.00013135111137418612
6.63200e-06;-0.00013524725786590185
6.63225e-06;-0.00014020842443106954
6.63250e-06;-0.0001461603270381441
6.63275e-06;-0.00015302867214401808
6.63300e-06;-0.0001607392917259514
6.63325e-06;-0.00016928823403732237
6.63350e-06;-0.0001788465132626221
6.63375e-06;-0.0001896537131233751
6.63400e-06;-0.00020179894834098362
6.63425e-06;-0.00021521416875480543
6.63450e-06;-0.00023008225422029818
6.63475e-06;-0.00024561762425958614
6.63500e-06;-0.0002622204552040869
6.63525e-06;-0.00027957559317444425
6.63550e-06;-0.0002980428227027859
6.63575e-06;-0.0003172938132929317
6.63600e-06;-0.00033786967600142083
6.63625e-06;-0.00035937925965281943
6.63650e-06;-0.00038088884330429094
6.63675e-06;-0.0004036067799361955
6.63700e-06;-0.0004271763191255342
6.63725e-06;-0.00045074585831495276
6.63750e-06;-0.0004743153975042914
6.63775e-06;-0.0004978849366936301
6.63800e-06;-0.0005218485128618098
6.63825e-06;-0.0005460897917411542
6.63850e-06;-0.0005703310706204987
6.63875e-06;-0.0005945723494999252
6.63900e-06;-0.0006188136283792697
6.63925e-06;-0.000641950429842706
6.63950e-06;-0.0006643088364107279
6.63975e-06;-0.0006866672429786739
6.64000e-06;-0.0007090256495466957
6.64025e-06;-0.0007291712429955134
6.64050e-06;-0.0007477573274749795
6.64075e-06;-0.0007663434119545085
6.64100e-06;-0.0007849294964339746
6.64125e-06;-0.0008015994291136684
6.64150e-06;-0.0008156798124891809
6.64175e-06;-0.0008288869124717182
6.64200e-06;-0.0008420940124542556
6.64225e-06;-0.0008553011124368377
6.64250e-06;-0.000868508212419375
6.64275e-06;-0.0008817153124019123
