Time(s);Current(A)
4.75000e-06;0.0010107850013078602
4.75025e-06;0.0009581188740063159
4.75050e-06;0.0009059006391152936
4.75075e-06;0.0008536824042244483
4.75100e-06;0.000801464169333603
4.75125e-06;0.0007538611133203291
4.75150e-06;0.0007119674299464011
4.75175e-06;0.0006723107916012238
4.75200e-06;0.000635421570081992
4.75225e-06;0.0005997095968917386
4.75250e-06;0.0005654539809904206
4.75275e-06;0.0005327274349074402
4.75300e-06;0.0005018924795113096
4.75325e-06;0.0004729804627935171
4.75350e-06;0.00044644728636953533
4.75375e-06;0.00042129410153854673
4.75400e-06;0.0003978480848263531
4.75425e-06;0.00037512190167228975
4.75450e-06;0.00035328621445126183
4.75475e-06;0.0003323944724949215
4.75500e-06;0.00031267047190034283
4.75525e-06;0.0002941408143889426
4.75550e-06;0.0002770886618455561
4.75575e-06;0.00026089442463122706
4.75600e-06;0.00024576150235944353
4.75625e-06;0.00023107674820987663
4.75650e-06;0.0002169464165175908
4.75675e-06;0.00020340842326094498
4.75700e-06;0.00019060320352126946
4.75725e-06;0.00017835825979594332
4.75750e-06;0.00016732952314466485
4.75775e-06;0.00015694790305840098
4.75800e-06;0.0001469263558676526
4.75825e-06;0.0001373502497728649
4.75850e-06;0.0001281013020165219
4.75875e-06;0.00011925707722221976
4.75900e-06;0.00011073330426267065
4.75925e-06;0.00010285961449409405
4.75950e-06;9.564427547822749e-05
4.75975e-06;8.885518129181654e-05
4.76000e-06;8.226860920443107e-05
4.76025e-06;7.603003330955809e-05
4.76050e-06;7.002926274314552e-05
4.76075e-06;6.431054012210158e-05
4.76100e-06;5.891809436653201e-05
4.76125e-06;5.389613124405831e-05
4.76150e-06;4.932215147972593e-05
4.76175e-06;4.537876428945233e-05
4.76200e-06;4.231721022261757e-05
4.76225e-06;4.029665259358512e-05
4.76250e-06;3.934003212696267e-05
4.76275e-06;3.9422966149677815e-05
4.76300e-06;4.052103569286365e-05
4.76325e-06;4.2609810102626174e-05
4.76350e-06;4.5685719403654636e-05
4.76375e-06;4.981102204339961e-05
4.76400e-06;5.509095801283653e-05
4.76425e-06;6.157308319887169e-05
4.76450e-06;6.921962155755211e-05
4.76475e-06;7.796314957248466e-05
4.76500e-06;8.773623041609868e-05
4.76525e-06;9.847142323730641e-05
4.76550e-06;0.00011011435543495432
4.76575e-06;0.00012265189065981447
4.76600e-06;0.00013609781438713976
4.76625e-06;0.00015059920871723204
4.76650e-06;0.0001657815856728679
4.76675e-06;0.00018155731256897596
4.76700e-06;0.00019806706430004013
4.76725e-06;0.0002150886016174561
4.76750e-06;0.0002327432616589599
4.76775e-06;0.0002503979217004039
4.76800e-06;0.00026845682873399406
4.76825e-06;0.00028701582401489267
4.76850e-06;0.0003055748192957284
4.76875e-06;0.000324133814576627
4.76900e-06;0.00034269280985746274
4.76925e-06;0.0003605846546507402
4.76950e-06;0.0003784391690791049
4.76975e-06;0.00039629368350740913
4.77000e-06;0.0004141481979357133
4.77025e-06;0.00043107598183173224
4.77050e-06;0.0004468573204688061
4.77075e-06;0.0004626386591058799
4.77100e-06;0.000477185706187934
4.77125e-06;0.000490205828611702
4.77150e-06;0.00050322595103547
4.77175e-06;0.0005162093860873249
4.77200e-06;0.0005291474357092049
4.77225e-06;0.000542085485331085
4.77250e-06;0.0005561345638768332
4.77275e-06;0.0005715580806197183
4.77300e-06;0.0005869815973626556
4.77325e-06;0.000603130040963782
4.77350e-06;0.0006201752813473772
4.77375e-06;0.0006372205217310302
4.77400e-06;0.0006558210811840768
4.77425e-06;0.0006763457039013282
4.77450e-06;0.0006968703266186492
4.77475e-06;0.0007188223049335256
4.77500e-06;0.0007425400447080607
4.77525e-06;0.0007662577844826761
4.77550e-06;0.0007917509295300697
4.77575e-06;0.0008194404033768609
4.77600e-06;0.000847129877223746
4.77625e-06;0.0008748193510705372
4.77650e-06;0.0009025088249173285
4.77675e-06;0.0009301982987642134
4.77700e-06;0.0009578877726110046
4.77725e-06;0.0009886808546596846
4.77750e-06;0.0010196475989163838
4.77775e-06;0.0010506143431730831
4.77800e-06;0.0010815810874298874
4.77825e-06;0.0011125478316865865
4.77850e-06;0.0011435145759432859
4.77875e-06;0.0011739182961353289
4.77900e-06;0.0012036255072050916
4.77925e-06;0.0012333327182748543
4.77950e-06;0.0012630399293447176
4.77975e-06;0.0012927471404144803
4.78000e-06;0.001322454351484243
4.78025e-06;0.001349279929939637
4.78050e-06;0.0013725406813683404
4.78075e-06;0.0013958014327970438
4.78100e-06;0.001419062184225826
4.78125e-06;0.0014423229356545296
4.78150e-06;0.001465583687083233
4.78175e-06;0.00148465501817444
4.78200e-06;0.0014985436765092514
4.78225e-06;0.00151243233484411
4.78250e-06;0.00152259820498937
4.78275e-06;0.0015281586664211118
4.78300e-06;0.0015337191278528724
4.78325e-06;0.0015354953605884202
4.78350e-06;0.0015325901774271217
4.78375e-06;0.0015296849942658135
4.78400e-06;0.0015228260399148847
4.78425e-06;0.001511075931042034
4.78450e-06;0.0014993258221691435
4.78475e-06;0.0014839347648328593
4.78500e-06;0.0014640395415530653
4.78525e-06;0.0014441443182732037
4.78550e-06;0.0014210271631527052
4.78575e-06;0.0013939242016373183
4.78600e-06;0.0013668212401218396
4.78625e-06;0.0013369459622178655
4.78650e-06;0.0013036410908473575
4.78675e-06;0.0012703362194769626
4.78700e-06;0.0012345444473294406
4.78725e-06;0.001195676165339019
4.78750e-06;0.0011568078833487294
4.78775e-06;0.0011179396013584397
4.78800e-06;0.0010790713193680184
4.78825e-06;0.001038996106102241
4.78850e-06;0.0009974278151943514
4.78875e-06;0.000955859524286321
4.78900e-06;0.0009142912333784314
4.78925e-06;0.0008727229424705418
4.78950e-06;0.0008319646740429336
4.78975e-06;0.0007922084729905162
4.79000e-06;0.0007524522719380989
4.79025e-06;0.000714088664547988
4.79050e-06;0.000677447815117874
4.79075e-06;0.0006424805993636726
4.79100e-06;0.0006095838122026651
4.79125e-06;0.0005788472347456585
4.79150e-06;0.0005507830222165747
4.79175e-06;0.0005246136604107616
4.79200e-06;0.0005021365875551539
4.79225e-06;0.00048270155105275224
4.79250e-06;0.0004663614995588095
4.79275e-06;0.0004531629118904946
4.79300e-06;0.00044315221482619344
4.79325e-06;0.00043637579678730326
4.79350e-06;0.00043287799683034437
4.79375e-06;0.00043268590400324155
4.79400e-06;0.00043578204347801205
4.79425e-06;0.0004420992526588402
4.79450e-06;0.0004515460393896439
4.79475e-06;0.00046402685579496824
4.79500e-06;0.00047944612798009605
4.79525e-06;0.0004977082628715774
4.79550e-06;0.0005192913725120876
4.79575e-06;0.0005430741787503277
4.79600e-06;0.0005690120038197607
4.79625e-06;0.0005976157722615868
4.79650e-06;0.0006280541564862868
4.79675e-06;0.000660762117995291
4.79700e-06;0.0006952821017636741
4.79725e-06;0.0007320437126877544
4.79750e-06;0.0007688053236117102
4.79775e-06;0.0008072631227060963
4.79800e-06;0.0008478192522400313
4.79825e-06;0.0008883753817738288
4.79850e-06;0.0009289315113076263
4.79875e-06;0.0009694876408415611
4.79900e-06;0.0010098891265976604
4.79925e-06;0.0010500993047197211
4.79950e-06;0.0010903094828416456
4.79975e-06;0.0011305196609635699
4.80000e-06;0.0011707298390856305
4.80025e-06;0.0012088668181541834
4.80050e-06;0.0012444390719426944
4.80075e-06;0.0012800113257313258
4.80100e-06;0.0013126886770042346
4.80125e-06;0.0013417847852446204
4.80150e-06;0.0013708808934851048
4.80175e-06;0.0013960394493023882
4.80200e-06;0.0014163269146065245
4.80225e-06;0.0014366143799107295
4.80250e-06;0.0014525090398000856
4.80275e-06;0.001462969422127523
4.80300e-06;0.0014734298044549957
4.80325e-06;0.0014793344824975646
4.80350e-06;0.0014796033630858783
4.80375e-06;0.0014798722436741912
4.80400e-06;0.001475558619982474
4.80425e-06;0.001465576044940888
4.80450e-06;0.0014555934698993354
4.80475e-06;0.001441389852259569
4.80500e-06;0.0014219644424134953
4.80525e-06;0.0014025390325674875
4.80550e-06;0.0013793351703340262
4.80575e-06;0.0013514570379956066
4.80600e-06;0.0013235789056572813
4.80625e-06;0.0012925279661288064
4.80650e-06;0.0012575519916185746
4.80675e-06;0.001222576017108461
4.80700e-06;0.0011846741249425775
4.80725e-06;0.0011431526213523894
4.80750e-06;0.001101631117762342
4.80775e-06;0.001060109614172154
4.80800e-06;0.0010185881105821066
4.80825e-06;0.0009755839115722705
4.80850e-06;0.000930745490991046
4.80875e-06;0.0008859070704099734
4.80900e-06;0.0008410686498289009
4.80925e-06;0.0007962302292476764
4.80950e-06;0.0007521758394884921
4.80975e-06;0.0007090913631901498
4.81000e-06;0.0006660068868916618
4.81025e-06;0.0006244248408703965
4.81050e-06;0.000584701430133627
4.81075e-06;0.0005467937841152432
4.81100e-06;0.0005111323949953201
4.81125e-06;0.0004771639719754596
4.81150e-06;0.00044691182651987053
4.81175e-06;0.000418666151607984
4.81200e-06;0.0003914528229161509
4.81225e-06;0.0003660422263252752
4.81250e-06;0.0003418836706174533
4.81275e-06;0.000319147503596692
4.81300e-06;0.00029800405388868457
4.81325e-06;0.00027862366621301496
4.81350e-06;0.0002610945940420731
4.81375e-06;0.0002452280880253029
4.81400e-06;0.00023059817539999834
4.81425e-06;0.00021691177468930313
4.81450e-06;0.00020415569760131466
4.81475e-06;0.00019242144503673229
4.81500e-06;0.00018180050797098068
4.81525e-06;0.00017238435169619518
4.81550e-06;0.00016421302218216758
4.81575e-06;0.00015715305884131883
4.81600e-06;0.00015092242964218362
4.81625e-06;0.00014532236193687105
4.81650e-06;0.00014032940304878566
4.81675e-06;0.00013598569069778234
4.81700e-06;0.00013233336535212477
4.81725e-06;0.00012941451765553127
4.81750e-06;0.0001273603660398337
4.81775e-06;0.0001258582227625076
4.81800e-06;0.00012469213646296712
4.81825e-06;0.00012394178150613162
4.81850e-06;0.00012351905865805703
4.81875e-06;0.0001235016448661671
4.81900e-06;0.00012348423107427713
4.81925e-06;0.00012388377403512008
4.81950e-06;0.00012479912830809127
4.81975e-06;0.00012571448258106248
4.82000e-06;0.0001266298368540368
4.82025e-06;0.000127545191127008
4.82050e-06;0.00012848052451324272
4.82075e-06;0.00012941697582953681
4.82100e-06;0.00013035342714583093
4.82125e-06;0.0001312898784621282
4.82150e-06;0.00013205637025158067
4.82175e-06;0.00013261260750990818
4.82200e-06;0.00013316884476823756
4.82225e-06;0.00013346275430722222
4.82250e-06;0.00013343214192822016
4.82275e-06;0.00013340152954921799
4.82300e-06;0.0001331120131719321
4.82325e-06;0.00013250221031364896
4.82350e-06;0.00013189240745536376
4.82375e-06;0.00013099735594338535
4.82400e-06;0.0001297494273491463
4.82425e-06;0.00012850149875490301
4.82450e-06;0.00012696182099034773
4.82475e-06;0.00012506122444619474
4.82500e-06;0.0001231606279020482
4.82525e-06;0.0001210154608036109
4.82550e-06;0.00011856773892538074
4.82575e-06;0.00011612001704715886
4.82600e-06;0.00011344379810687112
4.82625e-06;0.00011048490867709317
4.82650e-06;0.00010752601924732524
4.82675e-06;0.00010434787053404126
4.82700e-06;0.0001008984792566909
4.82725e-06;9.744908797935222e-05
4.82750e-06;9.399969670201354e-05
4.82775e-06;9.055030542466317e-05
4.82800e-06;8.710091414732449e-05
4.82825e-06;8.343090336425613e-05
4.82850e-06;7.974854783021348e-05
4.82875e-06;7.60661922961833e-05
4.82900e-06;7.238383676214066e-05
4.82925e-06;6.870148122811048e-05
4.82950e-06;6.510437317492493e-05
4.82975e-06;6.161272357671942e-05
4.83000e-06;5.812107397852576e-05
4.83025e-06;5.4721732041567175e-05
4.83050e-06;5.149935281612127e-05
4.83075e-06;4.8428093165729144e-05
4.83100e-06;4.55318837149727e-05
4.83125e-06;4.2834656714649556e-05
4.83150e-06;4.056668850154207e-05
4.83175e-06;3.962455182103846e-05
4.83200e-06;4.138774889429795e-05
4.83225e-06;4.6745267928944236e-05
4.83250e-06;5.578967988037874e-05
4.83275e-06;6.833055929061518e-05
4.83300e-06;8.417741106084322e-05
4.83325e-06;0.00010313974582619528
4.83350e-06;0.00012515633772500946
4.83375e-06;0.0001505833018456083
4.83400e-06;0.00018007919165386786
4.83425e-06;0.00021399525982201837
4.83450e-06;0.00025218386642146854
4.83475e-06;0.00029432011084106445
4.83500e-06;0.00034007909246921433
4.83525e-06;0.00038913589118019196
4.83550e-06;0.0004412465871584438
4.83575e-06;0.0004964287110740708
4.83600e-06;0.0005548892014996835
4.83625e-06;0.0006172612497178857
4.83650e-06;0.0006821559231324141
4.83675e-06;0.0007491599383000579
4.83700e-06;0.000818773390369755
4.83725e-06;0.0008904494706733044
4.83750e-06;0.000964677199244029
4.83775e-06;0.001038904927814502
4.83800e-06;0.0011131326563849752
4.83825e-06;0.0011873603849556998
4.83850e-06;0.001263270205417612
4.83875e-06;0.001339274147228434
4.83900e-06;0.0014152780890395135
4.83925e-06;0.0014912820308503353
4.83950e-06;0.001565279916412417
4.83975e-06;0.0016367961381122747
4.84000e-06;0.00170831235981189
4.84025e-06;0.001776536327869382
4.84050e-06;0.0018406874954287264
4.84075e-06;0.0019048386629878535
4.84100e-06;0.0019637809175762086
4.84125e-06;0.0020162792994717097
4.84150e-06;0.0020687776813670335
4.84175e-06;0.0021156015589198413
4.84200e-06;0.002155405587266976
4.84225e-06;0.00219022398389725
4.84250e-06;0.0022188747259215304
4.84275e-06;0.0022423858533441284
4.84300e-06;0.0022595388361080744
4.84325e-06;0.0022714051425495596
4.84350e-06;0.0022767313763537855
4.84375e-06;0.0022767083831672277
4.84400e-06;0.002270067936794875
4.84425e-06;0.0022570561862061203
4.84450e-06;0.0022361625851263387
4.84475e-06;0.002215268984046486
4.84500e-06;0.002187350314985323
4.84525e-06;0.0021507410335099776
4.84550e-06;0.0021141317520345084
4.84575e-06;0.002071310526572637
4.84600e-06;0.00202080459291021
4.84625e-06;0.0019702986592479545
4.84650e-06;0.0019147959575599516
4.84675e-06;0.0018531118246956648
4.84700e-06;0.001791427691831587
4.84725e-06;0.0017254919984872696
4.84750e-06;0.0016542967596997883
4.84775e-06;0.001583101520912548
4.84800e-06;0.001511906282125308
4.84825e-06;0.0014407110433378267
4.84850e-06;0.001365440040945754
4.84875e-06;0.00128994097945066
4.84900e-06;0.00121444191795531
4.84925e-06;0.0011389428564602159
4.84950e-06;0.0010647595359563045
4.84975e-06;0.0009922039000555116
4.85000e-06;0.0009196482641549644
4.85025e-06;0.0008496198634593381
4.85050e-06;0.0007827178697543784
4.85075e-06;0.0007179991779836173
4.85100e-06;0.0006577346582799745
4.85125e-06;0.0006016154556874369
4.85150e-06;0.0005501126382894325
4.85175e-06;0.0005035753273221983
4.85200e-06;0.00046217018220241573
4.85225e-06;0.00042597061109578857
4.85250e-06;0.0003950639854947343
4.85275e-06;0.000369556172124956
4.85300e-06;0.0003495529825885929
4.85325e-06;0.00033516016719578026
4.85350e-06;0.0003264657669619875
4.85375e-06;0.00032348138519493734
4.85400e-06;0.00032610432060691343
4.85425e-06;0.00033417349381788144
4.85450e-06;0.00034753655108389506
4.85475e-06;0.0003660527079236891
4.85500e-06;0.00038958119836263476
4.85525e-06;0.00041798118588083947
4.85550e-06;0.00045110075585711075
4.85575e-06;0.0004887401118190381
4.85600e-06;0.0005306279024345134
4.85625e-06;0.0005764561619629568
4.85650e-06;0.000626633119873492
4.85675e-06;0.0006796107933502334
4.85700e-06;0.0007351672378156731
4.85725e-06;0.0007939138434615383
4.85750e-06;0.0008550565161166706
4.85775e-06;0.0009191633294381817
4.85800e-06;0.0009832701427596926
4.85825e-06;0.0010489356576759224
4.85850e-06;0.0011165294203269829
4.85875e-06;0.0011841231829782723
4.85900e-06;0.0012517169456293326
4.85925e-06;0.001319310708280393
4.85950e-06;0.0013840268171428386
4.85975e-06;0.0014485819070636221
4.86000e-06;0.0015131369969844056
4.86025e-06;0.0015776920869054077
4.86050e-06;0.0016381987990485168
4.86075e-06;0.0016936973202026423
4.86100e-06;0.001749195841356956
4.86125e-06;0.0017995996227223579
4.86150e-06;0.0018437007734287683
4.86175e-06;0.001887801924135328
4.86200e-06;0.001927463330403541
4.86225e-06;0.0019616323915129645
4.86250e-06;0.001995801452622504
4.86275e-06;0.002025468877783876
4.86300e-06;0.002049567392673635
4.86325e-06;0.002073665907563312
4.86350e-06;0.0020930056453217225
4.86375e-06;0.002106458367081445
4.86400e-06;0.002119911088841122
4.86425e-06;0.002129526641069503
4.86450e-06;0.0021343952850487514
4.86475e-06;0.0021392639290279828
4.86500e-06;0.002140334744827985
4.86525e-06;0.0021367073210100604
4.86550e-06;0.0021330798971921474
4.86575e-06;0.0021243519954374504
4.86600e-06;0.002109314364442281
4.86625e-06;0.002094276733447163
4.86650e-06;0.002079239102452045
4.86675e-06;0.002064201471456876
4.86700e-06;0.002049163840461758
4.86725e-06;0.0020341262094665893
4.86750e-06;0.0020190885784714713
4.86775e-06;0.0019955308785114304
4.86800e-06;0.001971496438614811
4.86825e-06;0.0019474619987182723
4.86850e-06;0.0019234275588217338
4.86875e-06;0.001899393118925114
4.86900e-06;0.0018753586790285757
4.86925e-06;0.0018513242391320372
4.86950e-06;0.0018275503114670419
4.86975e-06;0.001804098659805594
4.87000e-06;0.001780647008144146
4.87025e-06;0.0017571953564826186
4.87050e-06;0.0017337437048211704
4.87075e-06;0.0017102920531597225
4.87100e-06;0.0016868404014981951
4.87125e-06;0.0016726073405399257
4.87150e-06;0.0016588901052589655
4.87175e-06;0.001645172869978052
4.87200e-06;0.0016314556346971381
4.87225e-06;0.0016177383994161782
4.87250e-06;0.0016040211641352644
4.87275e-06;0.001595377479501399
4.87300e-06;0.0015930102127371475
4.87325e-06;0.001590642945972904
4.87350e-06;0.0015916950983952715
4.87375e-06;0.001596977366012972
4.87400e-06;0.0016022596336306546
4.87425e-06;0.00161104562333233
4.87450e-06;0.0016241660181533426
4.87475e-06;0.001637286412974311
4.87500e-06;0.001653519995839981
4.87525e-06;0.0016736048596790992
4.87550e-06;0.0016936897235181494
4.87575e-06;0.0017180188021043094
4.87600e-06;0.0017475983388275484
4.87625e-06;0.0017771778755507877
4.87650e-06;0.001806757412274127
4.87675e-06;0.001836336948997366
4.87700e-06;0.001865916485720605
4.87725e-06;0.0018954960224439443
4.87750e-06;0.0019282330372085844
4.87775e-06;0.001964876123475954
4.87800e-06;0.002001519209743447
4.87825e-06;0.002038162296010816
4.87850e-06;0.002074805382278185
4.87875e-06;0.0021114484685456785
4.87900e-06;0.0021480915548130475
4.87925e-06;0.0021837961717570756
4.87950e-06;0.0022183398215521472
4.87975e-06;0.002252883471347102
4.88000e-06;0.002287427121142174
4.88025e-06;0.0023219707709371284
4.88050e-06;0.0023565144207320834
4.88075e-06;0.002391058070527155
4.88100e-06;0.002413857009472105
4.88125e-06;0.002435998773842406
4.88150e-06;0.0024581405382127814
4.88175e-06;0.0024802823025830817
4.88200e-06;0.002502424066953382
4.88225e-06;0.0025245658313237575
4.88250e-06;0.0025396982274232174
4.88275e-06;0.002546159433005041
4.88300e-06;0.002552620638586887
4.88325e-06;0.002554268252806872
4.88350e-06;0.0025499610411197048
4.88375e-06;0.0025456538294325224
4.88400e-06;0.002536294098789179
4.88425e-06;0.002520683968285352
4.88450e-06;0.0025050738377815785
4.88475e-06;0.002484811158734646
4.88500e-06;0.0024587928775777397
4.88525e-06;0.0024327745964209217
4.88550e-06;0.002400607260862759
4.88575e-06;0.0023608330169278173
4.88600e-06;0.0023210587729930107
4.88625e-06;0.0022812845290582037
4.88650e-06;0.002241510285123262
4.88675e-06;0.0022017360411884556
4.88700e-06;0.0021619617972536485
4.88725e-06;0.002111034425114579
4.88750e-06;0.00205948298037205
4.88775e-06;0.0020079315356295218
4.88800e-06;0.0019563800908868182
4.88825e-06;0.0019048286461442897
4.88850e-06;0.0018532772014015863
4.88875e-06;0.0018010703764878553
4.88900e-06;0.001748052790018205
4.88925e-06;0.001695035203548375
4.88950e-06;0.0016420176170787249
4.88975e-06;0.0015890000306090744
4.89000e-06;0.001539161527214616
4.89025e-06;0.0014932558226045663
4.89050e-06;0.0014473501179945165
4.89075e-06;0.0014014444133843113
4.89100e-06;0.0013555387087742616
4.89125e-06;0.001314440975333294
4.89150e-06;0.0012792911151373594
4.89175e-06;0.0012441412549415438
4.89200e-06;0.0012113621101744936
4.89225e-06;0.0011815157439899393
4.89250e-06;0.001151669377805486
4.89275e-06;0.00112406163516424
4.89300e-06;0.0010992232620992452
4.89325e-06;0.0010743848890342504
4.89350e-06;0.0010519884552038787
4.89375e-06;0.0010326129099207202
4.89400e-06;0.0010132373646375614
4.89425e-06;0.0009952527391027751
4.89450e-06;0.0009789888007490678
4.89475e-06;0.0009627248623953604
4.89500e-06;0.0009481122981118747
4.89525e-06;0.0009355426253733623
4.89550e-06;0.00092297295263485
4.89575e-06;0.0009125246773120036
4.89600e-06;0.0009047007527779808
4.89625e-06;0.000896876828243958
4.89650e-06;0.0008890529037099086
4.89675e-06;0.0008812289791758858
