Time(s);Current(A)
5.50000e-06;-0.0005034135652101896
5.50025e-06;-0.0004976460703223596
5.50050e-06;-0.0004918785754345297
5.50075e-06;-0.0004861110805466802
5.50100e-06;-0.0004803435856588502
5.50125e-06;-0.00047457609077102025
5.50150e-06;-0.00046880859588317074
5.50175e-06;-0.00046304110099534075
5.50200e-06;-0.00045727360610751076
5.50225e-06;-0.00045150611121966126
5.50250e-06;-0.00044573861633183127
5.50275e-06;-0.0004399711214440013
5.50300e-06;-0.00043420362655615177
5.50325e-06;-0.00042851277204255665
5.50350e-06;-0.00042416527990777025
5.50375e-06;-0.0004198177877729986
5.50400e-06;-0.00041547029563822693
5.50425e-06;-0.0004111228035034405
5.50450e-06;-0.00040677531136866887
5.50475e-06;-0.0004024278192338972
5.50500e-06;-0.0003980803270991108
5.50525e-06;-0.00039373283496433914
5.50550e-06;-0.0003893853428295675
5.50575e-06;-0.0003850378506947811
5.50600e-06;-0.0003806903585600094
5.50625e-06;-0.0003763428664252377
5.50650e-06;-0.0003720518060677233
5.50675e-06;-0.0003687498891909155
5.50700e-06;-0.00036544797231410767
5.50725e-06;-0.0003621743775960227
5.50750e-06;-0.000359397217334265
5.50775e-06;-0.00035670435124988156
5.50800e-06;-0.0003554890043938388
5.50825e-06;-0.00035441271815124097
5.50850e-06;-0.00035592070420559067
5.50875e-06;-0.0003600018179352166
5.50900e-06;-0.0003642206351143157
5.50925e-06;-0.00037093886994888975
5.50950e-06;-0.0003792881681572837
5.50975e-06;-0.000389886502641086
5.51000e-06;-0.0004006419288556793
5.51025e-06;-0.00041432747311021244
5.51050e-06;-0.0004311083779536844
5.51075e-06;-0.0004481004977248747
5.51100e-06;-0.0004687948200268809
5.51125e-06;-0.000489667771969283
5.51150e-06;-0.0005136717673189951
5.51175e-06;-0.0005378429781515488
5.51200e-06;-0.000564945163564882
5.51225e-06;-0.000592256715607643
5.51250e-06;-0.0006232380729722478
5.51275e-06;-0.0006542194303369577
5.51300e-06;-0.0006853766053631497
5.51325e-06;-0.0007196155350682232
5.51350e-06;-0.0007538544647734126
5.51375e-06;-0.0007881971536441747
5.51400e-06;-0.0008243585465713445
5.51425e-06;-0.0008605199394986368
5.51450e-06;-0.0008967234233587209
5.51475e-06;-0.0009336646825268093
5.51500e-06;-0.000970605941695023
5.51525e-06;-0.0010074856572464639
5.51550e-06;-0.0010432866283372575
5.51575e-06;-0.0010790875994281723
5.51600e-06;-0.0011147423088729272
5.51625e-06;-0.0011478333252972382
5.51650e-06;-0.0011809243417214373
5.51675e-06;-0.0012137706162409954
5.51700e-06;-0.0012423270230494884
5.51725e-06;-0.0012708834298578845
5.51750e-06;-0.0012991197344616543
5.51775e-06;-0.0013217452462843322
5.51800e-06;-0.0013443707581069332
5.51825e-06;-0.0013666972875421562
5.51850e-06;-0.0013837832150807878
5.51875e-06;-0.0014008691426193615
5.51900e-06;-0.0014179550701579353
5.51925e-06;-0.001435040997696567
5.51950e-06;-0.0014517487942171693
5.51975e-06;-0.0014618286614236833
5.52000e-06;-0.0014719085286302312
5.52025e-06;-0.0014819883958367452
5.52050e-06;-0.0014920682630432931
5.52075e-06;-0.0015017305604234645
5.52100e-06;-0.001504073639964343
5.52125e-06;-0.0015064167195052295
5.52150e-06;-0.001508759799046108
5.52175e-06;-0.0015111028785869866
5.52200e-06;-0.001513445958127873
5.52225e-06;-0.0015157890376687516
5.52250e-06;-0.0015181321172096302
5.52275e-06;-0.0015204751967505166
5.52300e-06;-0.0015228182762913951
5.52325e-06;-0.0015248315580731308
5.52350e-06;-0.0015210641021450905
5.52375e-06;-0.0015172966462170627
5.52400e-06;-0.0015135291902890352
5.52425e-06;-0.0015097617343609948
5.52450e-06;-0.001505994278432967
5.52475e-06;-0.0015022268225049267
5.52500e-06;-0.0014984593665768992
5.52525e-06;-0.0014946919106488714
5.52550e-06;-0.0014909244547208311
5.52575e-06;-0.0014871154808846394
5.52600e-06;-0.0014825787757930438
5.52625e-06;-0.0014780420707014327
5.52650e-06;-0.001473505365609837
5.52675e-06;-0.0014689686605182414
5.52700e-06;-0.0014644319554266304
5.52725e-06;-0.0014598952503350347
5.52750e-06;-0.001455358545243439
5.52775e-06;-0.0014509970148362664
5.52800e-06;-0.0014497059689172057
5.52825e-06;-0.001448414922998145
5.52850e-06;-0.0014471238770790797
5.52875e-06;-0.001445832831160019
5.52900e-06;-0.001444541785240954
5.52925e-06;-0.0014432507393218933
5.52950e-06;-0.0014419596934028326
5.52975e-06;-0.0014409616145772124
5.53000e-06;-0.0014450987007935728
5.53025e-06;-0.001449235787009933
5.53050e-06;-0.0014533728732263075
5.53075e-06;-0.0014575099594426677
5.53100e-06;-0.0014616470456590282
5.53125e-06;-0.0014657841318754024
5.53150e-06;-0.0014699212180917629
5.53175e-06;-0.001474058304308123
5.53200e-06;-0.0014781953905244974
5.53225e-06;-0.0014825694130679828
5.53250e-06;-0.0014910964861458403
5.53275e-06;-0.0014996235592237266
5.53300e-06;-0.0015081506323015841
5.53325e-06;-0.0015166777053794707
5.53350e-06;-0.0015252047784573282
5.53375e-06;-0.0015337318515351857
5.53400e-06;-0.001542258924613072
5.53425e-06;-0.0015507859976909295
5.53450e-06;-0.001559313070768787
5.53475e-06;-0.0015678830254114602
5.53500e-06;-0.001577204613658233
5.53525e-06;-0.0015865262019050057
5.53550e-06;-0.00159584779015181
5.53575e-06;-0.0016051693783985827
5.53600e-06;-0.0016144909666453552
5.53625e-06;-0.00162371801732043
5.53650e-06;-0.0016312880012324409
5.53675e-06;-0.001638857985144452
5.53700e-06;-0.0016464279690564885
5.53725e-06;-0.0016539979529684996
5.53750e-06;-0.0016615679368805105
5.53775e-06;-0.0016690283570279002
5.53800e-06;-0.0016745683293630004
5.53825e-06;-0.0016801083016981194
5.53850e-06;-0.0016856482740332196
5.53875e-06;-0.0016911882463683198
5.53900e-06;-0.0016967282187034386
5.53925e-06;-0.0017022681910385388
5.53950e-06;-0.001707808163373639
5.53975e-06;-0.001713348135708758
5.54000e-06;-0.0017188881080438582
5.54025e-06;-0.0017244215157265015
5.54050e-06;-0.0017298398573333752
5.54075e-06;-0.0017352581989402305
5.54100e-06;-0.001740676540547086
5.54125e-06;-0.0017460948821539598
5.54150e-06;-0.0017515132237608151
5.54175e-06;-0.0017569315653676704
5.54200e-06;-0.0017623499069745444
5.54225e-06;-0.0017677682485813997
5.54250e-06;-0.0017731865901882734
5.54275e-06;-0.0017786156655134222
5.54300e-06;-0.0017842328828385357
5.54325e-06;-0.0017898501001636683
5.54350e-06;-0.0017954673174887818
5.54375e-06;-0.0018010845348138953
5.54400e-06;-0.001806701752139028
5.54425e-06;-0.0018123189694641414
5.54450e-06;-0.0018179361867892549
5.54475e-06;-0.0018235534041143875
5.54500e-06;-0.0018287444357026898
5.54525e-06;-0.001833592325797488
5.54550e-06;-0.0018384402158923027
5.54575e-06;-0.0018432881059871008
5.54600e-06;-0.0018481359960818991
5.54625e-06;-0.0018529838861767137
5.54650e-06;-0.0018578317762715118
5.54675e-06;-0.0018626796663663264
5.54700e-06;-0.001867469386535168
5.54725e-06;-0.0018712394967325334
5.54750e-06;-0.0018749511923300518
5.54775e-06;-0.001877638989280392
5.54800e-06;-0.0018800956410979332
5.54825e-06;-0.0018785007511888988
5.54850e-06;-0.0018765222132217743
5.54875e-06;-0.0018678190425670997
5.54900e-06;-0.001859115871912396
5.54925e-06;-0.0018499981609638257
5.54950e-06;-0.0018336143342311902
5.54975e-06;-0.0018172305074984991
5.55000e-06;-0.0018003442452543886
5.55025e-06;-0.0017746512285067549
5.55050e-06;-0.0017489582117590342
5.55075e-06;-0.0017227645983733189
5.55100e-06;-0.0016877964624947568
5.55125e-06;-0.001652828326616313
5.55150e-06;-0.0016175211793423964
5.55175e-06;-0.0015762717965669797
5.55200e-06;-0.0015347463628671255
5.55225e-06;-0.0014883822729273822
5.55250e-06;-0.0014418213910679695
5.55275e-06;-0.001391701605730265
5.55300e-06;-0.0013395696880507612
5.55325e-06;-0.0012857382194515431
5.55350e-06;-0.001230519011844084
5.55375e-06;-0.0011742007868911534
5.55400e-06;-0.0011169308834107139
5.55425e-06;-0.001058742739341659
5.55450e-06;-0.000999805728509679
5.55475e-06;-0.0009404477150038037
5.55500e-06;-0.0008810237592728429
5.55525e-06;-0.0008218888116326473
5.55550e-06;-0.0007633972663396229
5.55575e-06;-0.0007058889706145537
5.55600e-06;-0.0006496152890435247
5.55625e-06;-0.0005947560401897104
5.55650e-06;-0.0005415764804465315
5.55675e-06;-0.0004904408639995731
5.55700e-06;-0.0004417306099432254
5.55725e-06;-0.00039582686989493424
5.55750e-06;-0.00035311032209942776
5.55775e-06;-0.0003139441329219039
5.55800e-06;-0.00027856185831154383
5.55825e-06;-0.0002470129407826301
5.55850e-06;-0.0002193156390907713
5.55875e-06;-0.0001955430568496256
5.55900e-06;-0.0001757829956032522
5.55925e-06;-0.00016012317508216526
5.55950e-06;-0.00014865094472462506
5.55975e-06;-0.00014144266372489571
5.56000e-06;-0.00013849353670674898
5.56025e-06;-0.0001396833942392204
5.56050e-06;-0.00014487257511926514
5.56075e-06;-0.00015395575414532258
5.56100e-06;-0.00016683681356117745
5.56125e-06;-0.00018341959509629772
5.56150e-06;-0.00020360771313029406
5.56175e-06;-0.00022729788930254044
5.56200e-06;-0.00025433602778746186
5.56225e-06;-0.0002844957530720907
5.56250e-06;-0.0003175385279357525
5.56275e-06;-0.00035324728134332456
5.56300e-06;-0.00039146595179440774
5.56325e-06;-0.00043278447071907464
5.56350e-06;-0.00047429964804600864
5.56375e-06;-0.0005192618792323795
5.56400e-06;-0.00056438495450956
5.56425e-06;-0.0006123273257724182
5.56450e-06;-0.000660269697035439
5.56475e-06;-0.0007082802783549856
5.56500e-06;-0.0007574864543515971
5.56525e-06;-0.0008066926303483753
5.56550e-06;-0.0008558529748333619
5.56575e-06;-0.0009042099786674604
5.56600e-06;-0.0009524514664836342
5.56625e-06;-0.0009986681746259444
5.56650e-06;-0.001044635574047609
5.56675e-06;-0.001086233058037843
5.56700e-06;-0.0011278305420279362
5.56725e-06;-0.0011689971662454117
5.56750e-06;-0.0012026116247617657
5.56775e-06;-0.0012362260832780058
5.56800e-06;-0.0012694409973240685
5.56825e-06;-0.0012956526443304412
5.56850e-06;-0.0013218642913368137
5.56875e-06;-0.001347703960219264
5.56900e-06;-0.001367023548537731
5.56925e-06;-0.0013863431368561982
5.56950e-06;-0.0014052485849083544
5.56975e-06;-0.00141689492892435
5.57000e-06;-0.0014285412729403456
5.57025e-06;-0.0014398547033735287
5.57050e-06;-0.0014453327815625242
5.57075e-06;-0.0014508108597515196
5.57100e-06;-0.0014559687372981032
5.57125e-06;-0.0014555140966612619
5.57150e-06;-0.0014550594560244203
5.57175e-06;-0.0014543126837447678
5.57200e-06;-0.0014484453903297976
5.57225e-06;-0.0014425780969148075
5.57250e-06;-0.0014364965056306047
5.57275e-06;-0.0014266586736391906
5.57300e-06;-0.0014168208416477429
5.57325e-06;-0.0014067955367197383
5.57350e-06;-0.0013934841819658664
5.57375e-06;-0.0013801728272119496
5.57400e-06;-0.001366740565482956
5.57425e-06;-0.0013511890306911684
5.57450e-06;-0.0013356374958993283
5.57475e-06;-0.0013200306650525708
5.57500e-06;-0.0013034545978184917
5.57525e-06;-0.0012868785305843566
5.57550e-06;-0.0012702956272650024
5.57575e-06;-0.0012535929001607756
5.57600e-06;-0.0012368901730564924
5.57625e-06;-0.0012202593798324353
5.57650e-06;-0.0012048894529426456
5.57675e-06;-0.0011895195260529083
5.57700e-06;-0.0011743885753776617
5.57725e-06;-0.0011634464306283711
5.57750e-06;-0.0011525042858791178
5.57775e-06;-0.0011415621411298644
5.57800e-06;-0.0011306199963805738
5.57825e-06;-0.0011196778516313205
5.57850e-06;-0.001108735706882067
5.57875e-06;-0.0011021262841244455
5.57900e-06;-0.0010990053326266607
5.57925e-06;-0.0010958843811288757
5.57950e-06;-0.0010927634296310803
5.57975e-06;-0.0010896424781332956
5.58000e-06;-0.0010865215266355108
5.58025e-06;-0.0010838863005357626
5.58050e-06;-0.0010897649318900185
5.58075e-06;-0.0010956435632442944
5.58100e-06;-0.0011015221945985503
5.58125e-06;-0.0011074008259528065
5.58150e-06;-0.0011132794573070824
5.58175e-06;-0.0011191580886613383
5.58200e-06;-0.0011250367200155943
5.58225e-06;-0.0011309153513698704
5.58250e-06;-0.0011407510260940696
5.58275e-06;-0.0011537726961568194
5.58300e-06;-0.0011667943662196133
5.58325e-06;-0.001179816036282363
5.58350e-06;-0.0011928377063451128
5.58375e-06;-0.0012058593764079067
5.58400e-06;-0.0012188810464706563
5.58425e-06;-0.001231902716533406
5.58450e-06;-0.0012450330173157964
5.58475e-06;-0.0012600674113679587
5.58500e-06;-0.0012751018054201718
5.58525e-06;-0.0012901361994723342
5.58550e-06;-0.0013051705935244965
5.58575e-06;-0.0013202049875767096
5.58600e-06;-0.001335239381628872
5.58625e-06;-0.0013488531518888241
5.58650e-06;-0.001361323113411733
5.58675e-06;-0.0013737930749345996
5.58700e-06;-0.0013862630364574664
5.58725e-06;-0.0013987329979803754
5.58750e-06;-0.0014112029595032421
5.58775e-06;-0.001423331696090664
5.58800e-06;-0.0014294793979826221
5.58825e-06;-0.0014356270998745597
5.58850e-06;-0.001441774801766497
5.58875e-06;-0.0014479225036584554
5.58900e-06;-0.0014540702055503927
5.58925e-06;-0.001460217907442351
5.58950e-06;-0.0014663656093342884
5.58975e-06;-0.0014725133112262257
5.59000e-06;-0.001478661013118184
5.59025e-06;-0.0014848087150101214
5.59050e-06;-0.001490956416902059
5.59075e-06;-0.0014971041187940171
5.59100e-06;-0.0015032518206859547
5.59125e-06;-0.0015091185398153609
5.59150e-06;-0.0015100601568305812
5.59175e-06;-0.0015110017738457983
5.59200e-06;-0.0015119433908610152
5.59225e-06;-0.0015128850078762355
5.59250e-06;-0.0015138266248914524
5.59275e-06;-0.0015147682419066695
5.59300e-06;-0.0015157098589218898
5.59325e-06;-0.0015166514759371067
5.59350e-06;-0.001517593092952327
5.59375e-06;-0.001518534709967544
5.59400e-06;-0.001519476326982761
5.59425e-06;-0.0015204179439979814
5.59450e-06;-0.0015213595610131983
5.59475e-06;-0.0015222139700094245
5.59500e-06;-0.001521539785597658
5.59525e-06;-0.001520865601185894
5.59550e-06;-0.0015201914167741297
5.59575e-06;-0.0015195172323623633
5.59600e-06;-0.0015188333542811307
5.59625e-06;-0.001517979564310852
5.59650e-06;-0.0015171257743405704
5.59675e-06;-0.0015162719843702917
5.59700e-06;-0.001515418194400013
5.59725e-06;-0.0015145684727801212
5.59750e-06;-0.0015137900617307254
5.59775e-06;-0.0015129282510691197
5.59800e-06;-0.001510604601245454
5.59825e-06;-0.0015080398003451075
5.59850e-06;-0.00150124807226204
5.59875e-06;-0.0014941615767470897
5.59900e-06;-0.0014819083596584104
5.59925e-06;-0.0014696551425696892
5.59950e-06;-0.0014570697679716848
5.59975e-06;-0.0014386622936997317
5.60000e-06;-0.0014202548194277164
5.60025e-06;-0.0014014085811582576
5.60050e-06;-0.0013748716309375934
5.60075e-06;-0.001348334680716839
5.60100e-06;-0.001321419104780821
5.60125e-06;-0.0012878669284617584
5.60150e-06;-0.001254314752142582
5.60175e-06;-0.0012204927106752737
5.60200e-06;-0.0011819404380759527
5.60225e-06;-0.001143159332548165
5.60250e-06;-0.0011003672139280375
5.60275e-06;-0.0010573940898435299
5.60300e-06;-0.001011248278632212
5.60325e-06;-0.0009650038374127427
5.60350e-06;-0.0009169838028034151
5.60375e-06;-0.0008681033341356544
5.60400e-06;-0.0008184773389588092
5.60425e-06;-0.0007681082815002637
5.60450e-06;-0.0007171268878888184
5.60475e-06;-0.0006658151987356467
5.60500e-06;-0.0006144812001992186
5.60525e-06;-0.000563433031070425
5.60550e-06;-0.0005129780836601187
5.60575e-06;-0.0004634098740262754
5.60600e-06;-0.00041493608967155287
5.60625e-06;-0.0003676937677107323
5.60650e-06;-0.00032190055656657323
5.60675e-06;-0.00027786857215677814
5.60700e-06;-0.00023592636448165551
5.60725e-06;-0.00019640242533426516
5.60750e-06;-0.00015962556607497923
5.60775e-06;-0.0001259332526687737
5.60800e-06;-9.569785723745722e-05
5.60825e-06;-6.92530803047173e-05
5.60850e-06;-4.6768183969799976e-05
5.60875e-06;-2.8297950049678996e-05
5.60900e-06;-1.3881841891684003e-05
5.60925e-06;-3.5592791874541185e-06
5.60950e-06;2.6301252734919653e-06
5.60975e-06;4.6413388338158855e-06
5.61000e-06;2.407487279046939e-06
5.61025e-06;-4.114062303286784e-06
5.61050e-06;-1.4862939003755576e-05
5.61075e-06;-2.9707064959731488e-05
5.61100e-06;-4.850476507333519e-05
5.61125e-06;-7.111434855285617e-05
5.61150e-06;-9.739424578446419e-05
5.61175e-06;-0.00012720629629890483
5.61200e-06;-0.0001604260069141897
5.61225e-06;-0.00019691371706515026
5.61250e-06;-0.00023646526606931856
5.61275e-06;-0.00027883156184074705
5.61300e-06;-0.00032375752385710194
5.61325e-06;-0.0003710369177192973
5.61350e-06;-0.0004211244062086925
5.61375e-06;-0.0004714109543180505
5.61400e-06;-0.0005251866451244592
5.61425e-06;-0.0005789623359310502
5.61450e-06;-0.0006328505582518892
5.61475e-06;-0.0006887112474724075
5.61500e-06;-0.0007445719366927367
5.61525e-06;-0.0008004098295373187
5.61550e-06;-0.0008558481445676938
5.61575e-06;-0.0009111868619819563
5.61600e-06;-0.000964779819538204
5.61625e-06;-0.0010182001690823912
5.61650e-06;-0.0010685950231250703
5.61675e-06;-0.001118658522856059
5.61700e-06;-0.0011629140014742547
5.61725e-06;-0.0012071694800923002
5.61750e-06;-0.001250988648288751
5.61775e-06;-0.0012871601111413813
5.61800e-06;-0.0013229093525262553
5.61825e-06;-0.0013512578415698687
5.61850e-06;-0.001379606330613578
5.61875e-06;-0.0014074435206889206
5.61900e-06;-0.001426318596503609
5.61925e-06;-0.0014451936723182339
5.61950e-06;-0.0014635165520329113
5.61975e-06;-0.0014721604672888052
5.62000e-06;-0.0014808043825446696
5.62025e-06;-0.0014889611701742558
5.62050e-06;-0.0014885795219441984
5.62075e-06;-0.0014881978737141424
5.62100e-06;-0.0014873586182690337
5.62125e-06;-0.0014784983645400773
5.62150e-06;-0.0014696381108111512
5.62175e-06;-0.00146036461530678
5.62200e-06;-0.0014438477646663477
5.62225e-06;-0.0014273309140259713
5.62250e-06;-0.0014105415917698972
5.62275e-06;-0.0013889763518933156
5.62300e-06;-0.001367224787851693
5.62325e-06;-0.0013422073098139828
5.62350e-06;-0.001317031216376114
5.62375e-06;-0.0012890748917466284
5.62400e-06;-0.0012610090358145898
5.62425e-06;-0.0012310233010873561
5.62450e-06;-0.0012009758939379638
5.62475e-06;-0.0011698474846192324
5.62500e-06;-0.0011386953343554545
5.62525e-06;-0.0011071270497433055
5.62550e-06;-0.001075574391366486
5.62575e-06;-0.0010442956316597206
5.62600e-06;-0.001013061008057026
5.62625e-06;-0.000982678627471725
5.62650e-06;-0.0009536743030113228
5.62675e-06;-0.0009248586374360975
5.62700e-06;-0.0008993498091300613
5.62725e-06;-0.0008738409808241115
5.62750e-06;-0.0008486024470166681
5.62775e-06;-0.0008281016700378376
5.62800e-06;-0.0008076008930590071
5.62825e-06;-0.0007872296917313916
5.62850e-06;-0.0007691297091294907
5.62875e-06;-0.0007510297265275898
5.62900e-06;-0.0007330731394019518
5.62925e-06;-0.0007176300066773388
5.62950e-06;-0.0007021868739527259
5.62975e-06;-0.0006869415341359053
5.63000e-06;-0.0006751631339145314
5.63025e-06;-0.0006633847336931575
5.63050e-06;-0.0006516063334717437
5.63075e-06;-0.0006398279332503698
5.63100e-06;-0.0006280495330289959
5.63125e-06;-0.0006162711328075821
5.63150e-06;-0.0006044927325862083
5.63175e-06;-0.0005928937493664281
5.63200e-06;-0.0005844396104876952
5.63225e-06;-0.0005759854716089623
5.63250e-06;-0.0005675313327302007
5.63275e-06;-0.0005590771938514678
5.63300e-06;-0.0005506230549727349
5.63325e-06;-0.0005421689160939733
5.63350e-06;-0.0005337147772152404
5.63375e-06;-0.0005253799870869389
5.63400e-06;-0.0005191371572462874
5.63425e-06;-0.0005128943274056571
5.63450e-06;-0.0005066514975650268
5.63475e-06;-0.0005004086677243754
5.63500e-06;-0.0004941658378837451
5.63525e-06;-0.0004879230080431148
5.63550e-06;-0.00048176711815495476
5.63575e-06;-0.0004771351229647537
5.63600e-06;-0.000472503127774537
5.63625e-06;-0.0004678711325843359
5.63650e-06;-0.00046323913739413486
5.63675e-06;-0.0004586071422039181
5.63700e-06;-0.000453975147013717
5.63725e-06;-0.0004493995942575063
5.63750e-06;-0.00044581337176223133
5.63775e-06;-0.0004422271492669685
5.63800e-06;-0.00043856610315808227
5.63825e-06;-0.0004335935391015497
5.63850e-06;-0.00042846938422489464
5.63875e-06;-0.0004206881259063214
5.63900e-06;-0.00041290686758772176
5.63925e-06;-0.0004050006527924233
5.63950e-06;-0.0003949041847610169
5.63975e-06;-0.00038469634131755513
5.64000e-06;-0.0003725362952914445
5.64025e-06;-0.00036021976778528387
5.64050e-06;-0.00034516041272098863
5.64075e-06;-0.0003299611896547017
5.64100e-06;-0.0003123103422149877
5.64125e-06;-0.0002945474659139668
5.64150e-06;-0.00027482093328613837
5.64175e-06;-0.0002549889223908002
5.64200e-06;-0.00023330807482375968
5.64225e-06;-0.00021153635735173803
5.64250e-06;-0.00018811755191770922
