Time(s);Current(A)
5.50000e-06;-0.0004758918536914606
5.50025e-06;-0.0004612832150975336
5.50050e-06;-0.00044727861153277164
5.50075e-06;-0.00043587955791348984
5.50100e-06;-0.00042513893125905244
5.50125e-06;-0.00041723847820284365
5.50150e-06;-0.00040994826317333803
5.50175e-06;-0.0004052903551798053
5.50200e-06;-0.00040115437260294825
5.50225e-06;-0.00039926975406171607
5.50250e-06;-0.00039790317208220343
5.50275e-06;-0.0003987711792736603
5.50300e-06;-0.00040015657397147043
5.50325e-06;-0.0004037737580917008
5.50350e-06;-0.0004078434187038329
5.50375e-06;-0.00041386487025809406
5.50400e-06;-0.00042033145603651223
5.50425e-06;-0.0004287181613401053
5.50450e-06;-0.00043710486664367
5.50475e-06;-0.000445953409077368
5.50500e-06;-0.0004567941202612507
5.50525e-06;-0.0004676348314450967
5.50550e-06;-0.0004787948559629837
5.50575e-06;-0.0004913322622548389
5.50600e-06;-0.0005038696685466515
5.50625e-06;-0.0005165490490827614
5.50650e-06;-0.0005298408460626113
5.50675e-06;-0.0005431326430424162
5.50700e-06;-0.0005564339521979985
5.50725e-06;-0.000569776292830075
5.50750e-06;-0.0005831186334621063
5.50775e-06;-0.0005962822109166876
5.50800e-06;-0.0006086746801328257
5.50825e-06;-0.0006210671493489639
5.50850e-06;-0.0006331799332109705
5.50875e-06;-0.0006440862735324964
5.50900e-06;-0.0006545763146678416
5.50925e-06;-0.000663270618355533
5.50950e-06;-0.0006719649220431949
5.50975e-06;-0.0006798875929196283
5.51000e-06;-0.0006844817683751147
5.51025e-06;-0.0006890759438305857
5.51050e-06;-0.0006928243426248421
5.51075e-06;-0.0006929244209965064
5.51100e-06;-0.0006930244993681702
5.51125e-06;-0.000692259221697981
5.51150e-06;-0.0006877611664932166
5.51175e-06;-0.0006832631112884675
5.51200e-06;-0.0006778553123225227
5.51225e-06;-0.0006685232660993391
5.51250e-06;-0.0006591912198761557
5.51275e-06;-0.0006490578723471307
5.51300e-06;-0.000635468052143449
5.51325e-06;-0.0006218782319397672
5.51350e-06;-0.0006076843173696787
5.51375e-06;-0.0005908845968998164
5.51400e-06;-0.0005736470570871167
5.51425e-06;-0.000554520951033461
5.51450e-06;-0.0005352303869531061
5.51475e-06;-0.0005176305651286938
5.51500e-06;-0.0004959270767996346
5.51525e-06;-0.0004768552128603392
5.51550e-06;-0.0004583344356504504
5.51575e-06;-0.0004323143375189746
5.51600e-06;-0.0004064534709564043
5.51625e-06;-0.00038221814567452076
5.51650e-06;-0.00035831261468572935
5.51675e-06;-0.00033440680942521455
5.51700e-06;-0.00031052541396130195
5.51725e-06;-0.0002868846428758489
5.51750e-06;-0.0002630276618061865
5.51775e-06;-0.00023874713157334823
5.51800e-06;-0.0002154304752091782
5.51825e-06;-0.00019385396044518976
5.51850e-06;-0.00017352821550777948
5.51875e-06;-0.0001542846254632956
5.51900e-06;-0.0001362839653017111
5.51925e-06;-0.00011965079074564082
5.51950e-06;-0.00010382901031574697
5.51975e-06;-8.806052510973873e-05
5.52000e-06;-7.26547391877903e-05
5.52025e-06;-5.791867166902852e-05
5.52050e-06;-4.354846727802659e-05
5.52075e-06;-2.9463286668847473e-05
5.52100e-06;-1.578862169748449e-05
5.52125e-06;-2.6272765079362584e-06
5.52150e-06;1.0344301489812729e-05
5.52175e-06;2.3576162379043547e-05
5.52200e-06;3.684965616482382e-05
5.52225e-06;4.997534159890137e-05
5.52250e-06;6.304975358040764e-05
5.52275e-06;7.604015472764015e-05
5.52300e-06;8.898782074016694e-05
5.52325e-06;0.00010193548675269375
5.52350e-06;0.00011498512386028684
5.52375e-06;0.00012808663223554408
5.52400e-06;0.00014118814061080134
5.52425e-06;0.00015428964898610298
5.52450e-06;0.00016739115736136024
5.52475e-06;0.00018039535498872732
5.52500e-06;0.00019335005200162863
5.52525e-06;0.00020630474901452993
5.52550e-06;0.00021925944602747512
5.52575e-06;0.00023221414304037643
5.52600e-06;0.0002449700189400447
5.52625e-06;0.00025762475732438655
5.52650e-06;0.00027003651784697307
5.52675e-06;0.00028232467893475426
5.52700e-06;0.00029420782869260374
5.52725e-06;0.0003058849548599458
5.52750e-06;0.000317237956218228
5.52775e-06;0.0003282610659221725
5.52800e-06;0.0003389144993406577
5.52825e-06;0.0003489368586129462
5.52850e-06;0.0003587121367714652
5.52875e-06;0.00036753562383636884
5.52900e-06;0.00037587494810397825
5.52925e-06;0.00038421427237155935
5.52950e-06;0.00039157308147456786
5.52975e-06;0.00039843311624771736
5.53000e-06;0.0004052931510208436
5.53025e-06;0.0004108994807632093
5.53050e-06;0.00041586806831743223
5.53075e-06;0.0004208366558716383
5.53100e-06;0.00042580524342584444
5.53125e-06;0.0004307738309800673
5.53150e-06;0.00043574241853427346
5.53175e-06;0.00044071100608847954
5.53200e-06;0.0004456795936427024
5.53225e-06;0.00045064818119690855
5.53250e-06;0.00045528739753830086
5.53275e-06;0.00045823317390538125
5.53300e-06;0.0004611789502724516
5.53325e-06;0.00046412472663953197
5.53350e-06;0.00046707050300660234
5.53375e-06;0.00047001627937367276
5.53400e-06;0.0004729620557407531
5.53425e-06;0.0004759078321078235
5.53450e-06;0.0004788536084748939
5.53475e-06;0.00048179938484197425
5.53500e-06;0.00048404987296393764
5.53525e-06;0.0004859466776947446
5.53550e-06;0.0004878434824255581
5.53575e-06;0.0004897402871563651
5.53600e-06;0.0004916370918871722
5.53625e-06;0.0004935338966179856
5.53650e-06;0.0004954307013487927
5.53675e-06;0.0004969359735398899
5.53700e-06;0.0004982420786123714
5.53725e-06;0.0004995481836848483
5.53750e-06;0.0005008542887573254
5.53775e-06;0.0005021603938298069
5.53800e-06;0.0005034664989022839
5.53825e-06;0.0005047726039747653
5.53850e-06;0.0005059077260039401
5.53875e-06;0.0005069121197133109
5.53900e-06;0.0005078445643543734
5.53925e-06;0.0005086771523357154
5.53950e-06;0.0005092312464620532
5.53975e-06;0.0005091316255968954
5.54000e-06;0.000508072145299618
5.54025e-06;0.0005059814633402499
5.54050e-06;0.0005029018482243945
5.54075e-06;0.0004988861942520887
5.54100e-06;0.0004937087059282892
5.54125e-06;0.0004880978075583469
5.54150e-06;0.00048120803214066644
5.54175e-06;0.00047366770988252927
5.54200e-06;0.0004641564900268675
5.54225e-06;0.000453642702170542
5.54250e-06;0.0004431289143141809
5.54275e-06;0.0004309075489201108
5.54300e-06;0.0004178175627513314
5.54325e-06;0.00040329690629099856
5.54350e-06;0.00038804848789341794
5.54375e-06;0.00037280006949583737
5.54400e-06;0.0003558255254111782
5.54425e-06;0.0003379729253681595
5.54450e-06;0.00032012032532514087
5.54475e-06;0.00030107468285741766
5.54500e-06;0.00028142215641980227
5.54525e-06;0.00026176962998218693
5.54550e-06;0.00024142067182110114
5.54575e-06;0.00022071744859761359
5.54600e-06;0.00020001422537412606
5.54625e-06;0.00017903585037138363
5.54650e-06;0.0001579175095128149
5.54675e-06;0.00013679916865417459
5.54700e-06;0.0001159933692549521
5.54725e-06;9.53465553181877e-05
5.54750e-06;7.511100535712847e-05
5.54775e-06;5.5418716803740066e-05
5.54800e-06;3.62909201799216e-05
5.54825e-06;1.7844676430657364e-05
5.54850e-06;2.1450618268434502e-07
5.54875e-06;-1.646344520524334e-05
5.54900e-06;-3.205335519155052e-05
5.54925e-06;-4.642237337721419e-05
5.54950e-06;-5.946818664568477e-05
5.54975e-06;-7.114735735642043e-05
5.55000e-06;-8.144801166623553e-05
5.55025e-06;-9.035028176860424e-05
5.55050e-06;-9.782458808605295e-05
5.55075e-06;-0.00010384004208395519
5.55100e-06;-0.00010836595851206816
5.55125e-06;-0.00011137352349978105
5.55150e-06;-0.00011285305175262555
5.55175e-06;-0.00011283174085128489
5.55200e-06;-0.00011135656038881549
5.55225e-06;-0.00010846947298473724
5.55250e-06;-0.00010420635618413107
5.55275e-06;-9.860226184086258e-05
5.55300e-06;-9.169236912620489e-05
5.55325e-06;-8.351303649009844e-05
5.55350e-06;-7.411259529826181e-05
5.55375e-06;-6.356248006982672e-05
5.55400e-06;-5.19465073326834e-05
5.55425e-06;-3.9345348899692364e-05
5.55450e-06;-2.583586211818724e-05
5.55475e-06;-1.1494383128139944e-05
5.55500e-06;3.602677211056784e-06
5.55525e-06;1.9378174332825123e-05
5.55550e-06;3.5747468858419423e-05
5.55575e-06;5.261145409776605e-05
5.55600e-06;6.994550758505242e-05
5.55625e-06;8.743988191823477e-05
5.55650e-06;0.00010511330665800686
5.55675e-06;0.00012290689278327067
5.55700e-06;0.00014067661794681143
5.55725e-06;0.0001583198379890966
5.55750e-06;0.00017572922678256244
5.55775e-06;0.00019278840347540676
5.55800e-06;0.00020937614410480884
5.55825e-06;0.0002253724569032342
5.55850e-06;0.00024065888609697166
5.55875e-06;0.00025511715912827286
5.55900e-06;0.0002686290026015778
5.55925e-06;0.0002810797943328595
5.55950e-06;0.0002923904580886677
5.55975e-06;0.00030254389284584175
5.56000e-06;0.0003115454750107953
5.56025e-06;0.0003193812197765681
5.56050e-06;0.00032561478578456177
5.56075e-06;0.00033123467723809614
5.56100e-06;0.0003351817050326238
5.56125e-06;0.00033827777051661113
5.56150e-06;0.00033968657172438296
5.56175e-06;0.00034023708522938915
5.56200e-06;0.0003392071864589926
5.56225e-06;0.00033737335410191383
5.56250e-06;0.00033403860704937923
5.56275e-06;0.0003299403657155295
5.56300e-06;0.0003244104638265005
5.56325e-06;0.0003181522962671983
5.56350e-06;0.00031057129746535947
5.56375e-06;0.0003023173929401409
5.56400e-06;0.00029292535738576316
5.56425e-06;0.00028295437051937096
5.56450e-06;0.00027180365512761317
5.56475e-06;0.00026005282836027787
5.56500e-06;0.0002483020015929425
5.56525e-06;0.0002354745655221857
5.56550e-06;0.0002220994733796137
5.56575e-06;0.0002087243812370417
5.56600e-06;0.00019476097292221394
5.56625e-06;0.00018049829641156453
5.56650e-06;0.0001662356199009151
5.56675e-06;0.00015188558800529613
5.56700e-06;0.00013749111964906182
5.56725e-06;0.00012309665129282748
5.56750e-06;0.00010900917827746106
5.56775e-06;9.507786949177479e-05
5.56800e-06;8.152576811708657e-05
5.56825e-06;6.85059336415219e-05
5.56850e-06;5.6061669190467136e-05
5.56875e-06;4.4288881572551606e-05
5.56900e-06;3.328346556069032e-05
5.56925e-06;2.3095082283752737e-05
5.56950e-06;1.3393242583703849e-05
5.56975e-06;3.3506263205535127e-06
5.57000e-06;-7.707273737825297e-06
5.57025e-06;-1.991828931043262e-05
5.57050e-06;-3.316925695277959e-05
5.57075e-06;-4.73169944390465e-05
5.57100e-06;-6.221832972664302e-05
5.57125e-06;-7.775905295473958e-05
5.57150e-06;-9.406308970581009e-05
5.57175e-06;-0.00011156553589853375
5.57200e-06;-0.00013060573135699965
5.57225e-06;-0.00015118683222872228
5.57250e-06;-0.00017315476123529056
5.57275e-06;-0.00019633666320039046
5.57300e-06;-0.00022055969538151447
5.57325e-06;-0.0002459684361920071
5.57350e-06;-0.0002718117572467153
5.57375e-06;-0.0002991252385644553
5.57400e-06;-0.0003271865698142288
5.57425e-06;-0.0003568964968378151
5.57450e-06;-0.00038744504143852453
5.57475e-06;-0.0004179935860391305
5.57500e-06;-0.0004495636259936717
5.57525e-06;-0.00048165328632600817
5.57550e-06;-0.0005137429466582359
5.57575e-06;-0.000546420919947572
5.57600e-06;-0.0005793981597973505
5.57625e-06;-0.0006123753996470173
5.57650e-06;-0.0006451978497414794
5.57675e-06;-0.0006779415604555612
5.57700e-06;-0.0007106852711696431
5.57725e-06;-0.0007421812113263298
5.57750e-06;-0.0007730424280788093
5.57775e-06;-0.0008039036448312888
5.57800e-06;-0.0008328228648896185
5.57825e-06;-0.0008607542184325722
5.57850e-06;-0.0008886855719755259
5.57875e-06;-0.0009135489220922613
5.57900e-06;-0.0009368516218419297
5.57925e-06;-0.0009601543215915981
5.57950e-06;-0.0009797035369621843
5.57975e-06;-0.000997343407407118
5.58000e-06;-0.0010149832778520516
5.58025e-06;-0.0010290048027305023
5.58050e-06;-0.0010411857259043271
5.58075e-06;-0.0010533666490781933
5.58100e-06;-0.0010615960094571112
5.58125e-06;-0.0010678152651950716
5.58150e-06;-0.001074034520933053
5.58175e-06;-0.0010765185542935026
5.58200e-06;-0.0010771025323528937
5.58225e-06;-0.0010776865104122869
5.58250e-06;-0.0010748897804174473
5.58275e-06;-0.0010703733315918496
5.58300e-06;-0.0010658568827662364
5.58325e-06;-0.001058162536989868
5.58350e-06;-0.0010488516395501498
5.58375e-06;-0.0010395407421104
5.58400e-06;-0.001028057348077322
5.58425e-06;-0.0010154688354592272
5.58450e-06;-0.0010014270661826072
5.58475e-06;-0.000986646045600885
5.58500e-06;-0.0009706096152861737
5.58525e-06;-0.0009539345756259881
5.58550e-06;-0.0009362779598042558
5.58575e-06;-0.0009181220299388788
5.58600e-06;-0.0008994766334157984
5.58625e-06;-0.000880363686765208
5.58650e-06;-0.0008609930257377088
5.58675e-06;-0.000841473169709583
5.58700e-06;-0.000821912713879822
5.58725e-06;-0.0008024221838725854
5.58750e-06;-0.0007831293288334179
5.58775e-06;-0.0007641885835337273
5.58800e-06;-0.0007457567224629995
5.58825e-06;-0.0007279740618991718
5.58850e-06;-0.0007112881672530839
5.58875e-06;-0.0006950410994197095
5.58900e-06;-0.000680231238260317
5.58925e-06;-0.0006661524640036375
5.58950e-06;-0.0006542664738810854
5.58975e-06;-0.0006434959223311938
5.59000e-06;-0.0006327253707812657
5.59025e-06;-0.0006247911010052659
5.59050e-06;-0.0006182996080372132
5.59075e-06;-0.0006118081150691386
5.59100e-06;-0.0006077897665431179
5.59125e-06;-0.0006050294719511099
5.59150e-06;-0.0006047853789713643
5.59175e-06;-0.0006058212425049804
5.59200e-06;-0.0006068571060385964
5.59225e-06;-0.0006107405815035498
5.59250e-06;-0.0006160725972687598
5.59275e-06;-0.0006214046130339698
5.59300e-06;-0.0006293368549102058
5.59325e-06;-0.0006385917953852326
5.59350e-06;-0.0006478467358602907
5.59375e-06;-0.0006593671933924703
5.59400e-06;-0.0006720400877163359
5.59425e-06;-0.0006847129820402443
5.59450e-06;-0.000699176555655694
5.59475e-06;-0.0007145510227429827
5.59500e-06;-0.0007299254898303235
5.59525e-06;-0.0007465911576018793
5.59550e-06;-0.0007639136410744053
5.59575e-06;-0.0007812361245469901
5.59600e-06;-0.0007992664534942414
5.59625e-06;-0.0008176568535189933
5.59650e-06;-0.0008360472535438074
5.59675e-06;-0.0008545025351168878
5.59700e-06;-0.0008729908210247425
5.59725e-06;-0.0008914791069326597
5.59750e-06;-0.0009093712156480694
5.59775e-06;-0.000926960057376995
5.59800e-06;-0.0009445488991058611
5.59825e-06;-0.0009608192628929499
5.59850e-06;-0.0009764189354203657
5.59875e-06;-0.0009920186079477285
5.59900e-06;-0.0010055603200696895
5.59925e-06;-0.0010180551765614167
5.59950e-06;-0.0010305500330531016
5.59975e-06;-0.0010403838329631732
5.60000e-06;-0.001048863990666363
5.60025e-06;-0.0010573441483695243
5.60050e-06;-0.001062946729025709
5.60075e-06;-0.0010670855265473144
5.60100e-06;-0.0010712243240689056
5.60125e-06;-0.0010723736576316173
5.60150e-06;-0.001072002292754988
5.60175e-06;-0.0010716309278783601
5.60200e-06;-0.001068318377602273
5.60225e-06;-0.0010635096875137823
5.60250e-06;-0.0010587009974252918
5.60275e-06;-0.0010512013113607493
5.60300e-06;-0.0010423327533388663
5.60325e-06;-0.001033464195316983
5.60350e-06;-0.0010221949557039653
5.60375e-06;-0.0010097045229945098
5.60400e-06;-0.0009972140902850543
5.60425e-06;-0.000983034859676488
5.60450e-06;-0.0009679965612335282
5.60475e-06;-0.0009518716865493306
5.60500e-06;-0.0009351940857520083
5.60525e-06;-0.000917658659575777
5.60550e-06;-0.0008996868696457612
5.60575e-06;-0.0008811030968893276
5.60600e-06;-0.0008622080170419023
5.60625e-06;-0.0008429858608855953
5.60650e-06;-0.0008235973255927762
5.60675e-06;-0.0008041775970005552
5.60700e-06;-0.0007847420008138217
5.60725e-06;-0.0007655714608632601
5.60750e-06;-0.000746535751307068
5.60775e-06;-0.000728072034651599
5.60800e-06;-0.0007098992827722795
5.60825e-06;-0.000692629844088882
5.60850e-06;-0.0006758199081744724
5.60875e-06;-0.0006602514925835182
5.60900e-06;-0.0006453146209897001
5.60925e-06;-0.0006319620873591133
5.60950e-06;-0.0006194154842568764
5.60975e-06;-0.0006087624706842301
5.61000e-06;-0.0005990726995795932
5.61025e-06;-0.0005913974523236714
5.61050e-06;-0.0005847469651298111
5.61075e-06;-0.0005801586115947622
5.61100e-06;-0.0005766192365652579
5.61125e-06;-0.000575191186854082
5.61150e-06;-0.0005748371387565758
5.61175e-06;-0.0005766225227413124
5.61200e-06;-0.0005794962058567896
5.61225e-06;-0.0005844194642897489
5.61250e-06;-0.0005903853129759224
5.61275e-06;-0.0005987151584928988
5.61300e-06;-0.0006082475360823928
5.61325e-06;-0.0006177799136718868
5.61350e-06;-0.0006298713635661311
5.61375e-06;-0.0006432645776938009
5.61400e-06;-0.0006566577918214706
5.61425e-06;-0.0006721611931076034
5.61450e-06;-0.0006887380170412744
5.61475e-06;-0.0007053148409750014
5.61500e-06;-0.0007234421088540522
5.61525e-06;-0.0007423580658491917
5.61550e-06;-0.0007612740228443953
5.61575e-06;-0.000781157312926018
5.61600e-06;-0.0008015326717981336
5.61625e-06;-0.0008219080306703182
5.61650e-06;-0.000842560894805077
5.61675e-06;-0.0008633549219795897
5.61700e-06;-0.0008841489491541726
5.61725e-06;-0.0009044955315655962
5.61750e-06;-0.0009246145050939416
5.61775e-06;-0.0009447334786223552
5.61800e-06;-0.0009636487033054102
5.61825e-06;-0.0009819515978132555
5.61850e-06;-0.0010002544923211627
5.61875e-06;-0.0010169487102471408
5.61900e-06;-0.0010328246169306991
5.61925e-06;-0.0010469187052512994
5.61950e-06;-0.0010601064075308373
5.61975e-06;-0.0010700398339657244
5.62000e-06;-0.001078317855865087
5.62025e-06;-0.0010865958777644493
5.62050e-06;-0.001090602288857497
5.62075e-06;-0.0010924357913711638
5.62100e-06;-0.0010942692938848307
5.62125e-06;-0.001091779434680242
5.62150e-06;-0.001087090341932375
5.62175e-06;-0.0010824012491845079
5.62200e-06;-0.0010731351586635595
5.62225e-06;-0.001061540813491313
5.62250e-06;-0.0010499464683190669
5.62275e-06;-0.0010348662028126802
5.62300e-06;-0.001018012698464134
5.62325e-06;-0.0009986639230715453
5.62350e-06;-0.0009780458382534205
5.62375e-06;-0.0009556245222322994
5.62400e-06;-0.0009311432151525062
5.62425e-06;-0.0009050384574657984
5.62450e-06;-0.0008774686515511516
5.62475e-06;-0.0008485954603790314
5.62500e-06;-0.0008185804298346344
5.62525e-06;-0.000787582231131562
5.62550e-06;-0.0007557372490472018
5.62575e-06;-0.0007231582297245117
5.62600e-06;-0.000689980376326327
5.62625e-06;-0.0006563814688142156
5.62650e-06;-0.0006225575846693634
5.62675e-06;-0.0005887068052319867
5.62700e-06;-0.000555027152964399
5.62725e-06;-0.0005217148369896504
5.62750e-06;-0.0004889520455248485
5.62775e-06;-0.00045690624019770475
5.62800e-06;-0.000425758856331988
5.62825e-06;-0.0003957180401060574
5.62850e-06;-0.0003670033171160657
5.62875e-06;-0.0003398355076014469
5.62900e-06;-0.00031443539355508225
5.62925e-06;-0.0002910149694866768
5.62950e-06;-0.00026970426418835853
5.62975e-06;-0.0002504973850681767
5.63000e-06;-0.0002333540739067012
5.63025e-06;-0.0002182936933044648
5.63050e-06;-0.00020537196378205073
5.63075e-06;-0.00019464961048179709
5.63100e-06;-0.000186187310318786
5.63125e-06;-0.00018004025636600372
5.63150e-06;-0.0001762122516880058
5.63175e-06;-0.00017462199027992568
5.63200e-06;-0.00017516665323231078
5.63225e-06;-0.00017778074254177437
5.63250e-06;-0.00018242155613501618
5.63275e-06;-0.00018904950332472237
5.63300e-06;-0.00019762500273392284
5.63325e-06;-0.00020810499606186374
5.63350e-06;-0.00022041425612839507
5.63375e-06;-0.00023442425640168624
5.63400e-06;-0.0002499929901458653
5.63425e-06;-0.0002674330991775776
5.63450e-06;-0.00028556584784193435
5.63475e-06;-0.0003052879404446919
5.63500e-06;-0.0003258185100446333
5.63525e-06;-0.00034789943999650655
5.63550e-06;-0.0003707690165413954
5.63575e-06;-0.0003936385930862067
5.63600e-06;-0.000417564825769069
5.63625e-06;-0.0004420285646271479
5.63650e-06;-0.00046649230348522685
5.63675e-06;-0.0004911409772621671
5.63700e-06;-0.0005158837248415579
5.63725e-06;-0.0005406264724209487
5.63750e-06;-0.0005648610154998708
5.63775e-06;-0.0005888370420684325
5.63800e-06;-0.0006115342912577236
5.63825e-06;-0.0006335810443079369
5.63850e-06;-0.0006556277973580754
5.63875e-06;-0.0006752548094597882
5.63900e-06;-0.0006936509332379255
5.63925e-06;-0.0007120470570160005
5.63950e-06;-0.0007275823739225132
5.63975e-06;-0.0007416624384490095
5.64000e-06;-0.0007557425029754582
5.64025e-06;-0.0007672142392343653
5.64050e-06;-0.0007773591554422054
5.64075e-06;-0.0007875040716500454
5.64100e-06;-0.0007947513354687674
5.64125e-06;-0.0008005246041088087
5.64150e-06;-0.0008062978727488501
5.64175e-06;-0.0008094012881803029
5.64200e-06;-0.0008111465866851323
5.64225e-06;-0.0008128918851899617
5.64250e-06;-0.0008122471635110616
5.64275e-06;-0.0008103866720452844
5.64300e-06;-0.0008085261805795072
