Time(s);Current(A)
4.50000e-06;-0.0041566368929511
4.50025e-06;-0.004171988143718862
4.50050e-06;-0.004187339394486572
4.50075e-06;-0.004202690645254282
4.50100e-06;-0.004215908276199856
4.50125e-06;-0.004216825270734863
4.50150e-06;-0.004217742265269869
4.50175e-06;-0.004218659259804878
4.50200e-06;-0.004219576254339883
4.50225e-06;-0.00422049324887489
4.50250e-06;-0.004221410243409899
4.50275e-06;-0.004222327237944905
4.50300e-06;-0.0042232442324799105
4.50325e-06;-0.00422416122701492
4.50350e-06;-0.004225078221549926
4.50375e-06;-0.004225995216084932
4.50400e-06;-0.004226912210619941
4.50425e-06;-0.0042270341753270916
4.50450e-06;-0.0042225726745333805
4.50475e-06;-0.004218111173739685
4.50500e-06;-0.00421364967294599
4.50525e-06;-0.004209188172152279
4.50550e-06;-0.004204726671358584
4.50575e-06;-0.0042002651705648885
4.50600e-06;-0.004195803669771178
4.50625e-06;-0.004191342168977483
4.50650e-06;-0.004186880668183787
4.50675e-06;-0.004182419167390076
4.50700e-06;-0.004177957666596381
4.50725e-06;-0.0041734961658026854
4.50750e-06;-0.004169675434775416
4.50775e-06;-0.004169548836993439
4.50800e-06;-0.004169422239211463
4.50825e-06;-0.004169295641429487
4.50850e-06;-0.00416916904364751
4.50875e-06;-0.004169042445865534
4.50900e-06;-0.004168915848083558
4.50925e-06;-0.004168789250301582
4.50950e-06;-0.004168662652519605
4.50975e-06;-0.00416853605473763
4.51000e-06;-0.0041684094569556535
4.51025e-06;-0.004168282859173677
4.51050e-06;-0.004168156261391701
4.51075e-06;-0.004168029663609725
4.51100e-06;-0.004167903065827748
4.51125e-06;-0.004167776468045772
4.51150e-06;-0.004167649870263796
4.51175e-06;-0.0041675232724818195
4.51200e-06;-0.004167396674699843
4.51225e-06;-0.004167270076917868
4.51250e-06;-0.004167143479135891
4.51275e-06;-0.004167016881353915
4.51300e-06;-0.004166890283571938
4.51325e-06;-0.0041683295984145255
4.51350e-06;-0.004170620217330878
4.51375e-06;-0.004172910836247237
4.51400e-06;-0.00417520145516359
4.51425e-06;-0.004177492074079942
4.51450e-06;-0.004179782692996303
4.51475e-06;-0.004182073311912655
4.51500e-06;-0.004184363930829008
4.51525e-06;-0.004186654549745368
4.51550e-06;-0.00418894516866172
4.51575e-06;-0.004191235787578073
4.51600e-06;-0.004193526406494433
4.51625e-06;-0.004195817025410786
4.51650e-06;-0.004198107644327138
4.51675e-06;-0.0042003982632434975
4.51700e-06;-0.00420268888215985
4.51725e-06;-0.00420497950107621
4.51750e-06;-0.004207270119992563
4.51775e-06;-0.004209560738908915
4.51800e-06;-0.0042118513578252754
4.51825e-06;-0.004214141976741628
4.51850e-06;-0.00421643259565798
4.51875e-06;-0.004217716659908765
4.51900e-06;-0.004213197786433016
4.51925e-06;-0.0042086789129572675
4.51950e-06;-0.004204160039481504
4.51975e-06;-0.004199641166005756
4.52000e-06;-0.004195122292530007
4.52025e-06;-0.004190603419054244
4.52050e-06;-0.004186084545578495
4.52075e-06;-0.004181565672102747
4.52100e-06;-0.004177046798626983
4.52125e-06;-0.004172527925151235
4.52150e-06;-0.0041680090516754715
4.52175e-06;-0.004163490178199723
4.52200e-06;-0.004158971304723974
4.52225e-06;-0.00415445243124821
4.52250e-06;-0.004144323228931125
4.52275e-06;-0.004131143986834025
4.52300e-06;-0.004117964744736881
4.52325e-06;-0.004104785502639781
4.52350e-06;-0.004091606260542681
4.52375e-06;-0.004078427018445537
4.52400e-06;-0.004065247776348437
4.52425e-06;-0.004052068534251337
4.52450e-06;-0.004038889292154193
4.52475e-06;-0.004025710050057093
4.52500e-06;-0.0040125308079599934
4.52525e-06;-0.003999351565862849
4.52550e-06;-0.003986172323765749
4.52575e-06;-0.003972993081668604
4.52600e-06;-0.003960636122919352
4.52625e-06;-0.003953019750273385
4.52650e-06;-0.003945403377627395
4.52675e-06;-0.003937787004981428
4.52700e-06;-0.003930170632335463
4.52725e-06;-0.003922554259689471
4.52750e-06;-0.003914937887043506
4.52775e-06;-0.00390732151439754
4.52800e-06;-0.0038997051417515487
4.52825e-06;-0.003892088769105583
4.52850e-06;-0.0038844723964596177
4.52875e-06;-0.003876856023813626
4.52900e-06;-0.0038692396511676606
4.52925e-06;-0.003861623278521695
4.52950e-06;-0.0038567956692603573
4.52975e-06;-0.003868045696715747
4.53000e-06;-0.003879295724171174
4.53025e-06;-0.0038905457516265635
4.53050e-06;-0.003901795779081953
4.53075e-06;-0.003913045806537381
4.53100e-06;-0.00392429583399277
4.53125e-06;-0.00393554586144816
4.53150e-06;-0.003946795888903587
4.53175e-06;-0.003958045916358977
4.53200e-06;-0.003969295943814366
4.53225e-06;-0.003980545971269794
4.53250e-06;-0.0039917959987251835
4.53275e-06;-0.004003046026180573
4.53300e-06;-0.004016134743176274
4.53325e-06;-0.004039823779518505
4.53350e-06;-0.004063512815860736
4.53375e-06;-0.004087201852203047
4.53400e-06;-0.004110890888545277
4.53425e-06;-0.004134579924887589
4.53450e-06;-0.004158268961229819
4.53475e-06;-0.00418195799757205
4.53500e-06;-0.004205647033914361
4.53525e-06;-0.0042293360702565915
4.53550e-06;-0.004253025106598822
4.53575e-06;-0.004276381982923893
4.53600e-06;-0.004297823907224954
4.53625e-06;-0.004319265831526015
4.53650e-06;-0.004340707755827148
4.53675e-06;-0.004362149680128209
4.53700e-06;-0.00438359160442927
4.53725e-06;-0.004405033528730403
4.53750e-06;-0.004426475453031464
4.53775e-06;-0.004447917377332525
4.53800e-06;-0.004469359301633658
4.53825e-06;-0.004490801225934719
4.53850e-06;-0.004510658448538413
4.53875e-06;-0.004521379629580725
4.53900e-06;-0.004532100810623036
4.53925e-06;-0.004542821991665384
4.53950e-06;-0.0045535431727076955
4.53975e-06;-0.004564264353750008
4.54000e-06;-0.0045749855347923555
4.54025e-06;-0.004585706715834667
4.54050e-06;-0.004596427896876978
4.54075e-06;-0.004607149077919326
4.54100e-06;-0.004617870258961638
4.54125e-06;-0.0046285914400039496
4.54150e-06;-0.004639312621046297
4.54175e-06;-0.004650033802088609
4.54200e-06;-0.00466075498313092
4.54225e-06;-0.004671476164173268
4.54250e-06;-0.00468219734521558
4.54275e-06;-0.004692918526257928
4.54300e-06;-0.004703639707300239
4.54325e-06;-0.0047143608883425505
4.54350e-06;-0.004725082069384898
4.54375e-06;-0.004731916359205256
4.54400e-06;-0.0047366375513485685
4.54425e-06;-0.004741358743491896
4.54450e-06;-0.004746079935635208
4.54475e-06;-0.00475080112777852
4.54500e-06;-0.004755522319921848
4.54525e-06;-0.004760243512065159
4.54550e-06;-0.004764964704208472
4.54575e-06;-0.004769685896351799
4.54600e-06;-0.004774407088495112
4.54625e-06;-0.004779128280638424
4.54650e-06;-0.004783849472781751
4.54675e-06;-0.004788570664925064
4.54700e-06;-0.004793291857068391
4.54725e-06;-0.004798013049211703
4.54750e-06;-0.004802734241355015
4.54775e-06;-0.004807455433498343
4.54800e-06;-0.004812176625641655
4.54825e-06;-0.004816897817784967
4.54850e-06;-0.004821619009928294
4.54875e-06;-0.004824996129170697
4.54900e-06;-0.004820624467743932
4.54925e-06;-0.004816252806317151
4.54950e-06;-0.004811881144890386
4.54975e-06;-0.0048075094834636204
4.55000e-06;-0.0048031378220368395
4.55025e-06;-0.004798766160610074
4.55050e-06;-0.004794394499183309
4.55075e-06;-0.004790022837756528
4.55100e-06;-0.0047856511763297626
4.55125e-06;-0.0047812795149029825
4.55150e-06;-0.004776907853476217
4.55175e-06;-0.004772536192049451
4.55200e-06;-0.004768164530622671
4.55225e-06;-0.004762295750264532
4.55250e-06;-0.004747795856054261
4.55275e-06;-0.0047332959618439415
4.55300e-06;-0.004718796067633671
4.55325e-06;-0.004704296173423401
4.55350e-06;-0.004689796279213081
4.55375e-06;-0.004675296385002811
4.55400e-06;-0.00466079649079254
4.55425e-06;-0.0046462965965822205
4.55450e-06;-0.00463179670237195
4.55475e-06;-0.00461729680816168
4.55500e-06;-0.00460279691395136
4.55525e-06;-0.00458829701974109
4.55550e-06;-0.00457379712553077
4.55575e-06;-0.004560094746830505
4.55600e-06;-0.004550990163950279
4.55625e-06;-0.0045418855810700235
4.55650e-06;-0.0045327809981897975
4.55675e-06;-0.004523676415309572
4.55700e-06;-0.004514571832429317
4.55725e-06;-0.004505467249549091
4.55750e-06;-0.004496362666668865
4.55775e-06;-0.004487258083788609
4.55800e-06;-0.004478153500908384
4.55825e-06;-0.0044690489180281585
4.55850e-06;-0.004459944335147902
4.55875e-06;-0.004450839752267677
4.55900e-06;-0.004441735169387452
4.55925e-06;-0.004432630586507195
4.55950e-06;-0.00442352600362697
4.55975e-06;-0.0044144214207467135
4.56000e-06;-0.004405316837866488
4.56025e-06;-0.0044044829069064045
4.56050e-06;-0.004408145293017267
4.56075e-06;-0.004411807679128118
4.56100e-06;-0.004415470065238968
4.56125e-06;-0.004419132451349831
4.56150e-06;-0.004422794837460681
4.56175e-06;-0.004426457223571532
4.56200e-06;-0.004430119609682395
4.56225e-06;-0.004433781995793245
4.56250e-06;-0.004437444381904096
4.56275e-06;-0.004441106768014958
4.56300e-06;-0.004444769154125809
4.56325e-06;-0.004448431540236659
4.56350e-06;-0.004452093926347522
4.56375e-06;-0.0044557563124583725
4.56400e-06;-0.004459418698569235
4.56425e-06;-0.004463081084680086
4.56450e-06;-0.004467351453403359
4.56475e-06;-0.004475126932532769
4.56500e-06;-0.004482902411662153
4.56525e-06;-0.004490677890791537
4.56550e-06;-0.004498453369920947
4.56575e-06;-0.004506228849050331
4.56600e-06;-0.004514004328179715
4.56625e-06;-0.004521779807309125
4.56650e-06;-0.0045295552864385085
4.56675e-06;-0.004537330765567892
4.56700e-06;-0.0045451062446973025
4.56725e-06;-0.004554279429152
4.56750e-06;-0.004564212472245907
4.56775e-06;-0.004574145515339847
4.56800e-06;-0.004584078558433754
4.56825e-06;-0.004594011601527694
4.56850e-06;-0.004603944644621601
4.56875e-06;-0.004613877687715508
4.56900e-06;-0.0046238107308094484
4.56925e-06;-0.0046337437739033555
4.56950e-06;-0.004643676816997262
4.56975e-06;-0.004655541929989234
4.57000e-06;-0.004678545713997558
4.57025e-06;-0.004701549498005882
4.57050e-06;-0.004724553282014285
4.57075e-06;-0.004747557066022609
4.57100e-06;-0.004770560850030933
4.57125e-06;-0.004793564634039335
4.57150e-06;-0.004816568418047659
4.57175e-06;-0.004839572202055983
4.57200e-06;-0.004862575986064386
4.57225e-06;-0.00488557977007271
4.57250e-06;-0.004908583554081111
4.57275e-06;-0.004933229552393123
4.57300e-06;-0.00496734316100425
4.57325e-06;-0.0050014567696154925
4.57350e-06;-0.005035570378226619
4.57375e-06;-0.005069683986837746
4.57400e-06;-0.005103797595448988
4.57425e-06;-0.0051379112040601145
4.57450e-06;-0.005172024812671242
4.57475e-06;-0.005206138421282484
4.57500e-06;-0.005240252029893611
4.57525e-06;-0.005274365638504737
4.57550e-06;-0.00530847924711598
4.57575e-06;-0.005341886638154411
4.57600e-06;-0.005371222579596446
4.57625e-06;-0.005400558521038579
4.57650e-06;-0.005429894462480614
4.57675e-06;-0.0054592304039227475
4.57700e-06;-0.005488566345364782
4.57725e-06;-0.005517902286806817
4.57750e-06;-0.0055472382282489505
4.57775e-06;-0.005576574169690985
4.57800e-06;-0.00560591011113302
4.57825e-06;-0.0056352460525751534
4.57850e-06;-0.0056628306042641055
4.57875e-06;-0.00568031813291335
4.57900e-06;-0.005697805661562652
4.57925e-06;-0.0057152931902118955
4.57950e-06;-0.005732780718861139
4.57975e-06;-0.005750268247510442
4.58000e-06;-0.005767755776159685
4.58025e-06;-0.005785243304808929
4.58050e-06;-0.005802730833458231
4.58075e-06;-0.0058202183621074745
4.58100e-06;-0.005837705890756778
4.58125e-06;-0.005854060150648805
4.58150e-06;-0.005863880947198126
4.58175e-06;-0.005873701743747479
4.58200e-06;-0.005883522540296799
4.58225e-06;-0.005893343336846119
4.58250e-06;-0.005903164133395473
4.58275e-06;-0.0059129849299447935
4.58300e-06;-0.005922805726494114
4.58325e-06;-0.005932626523043467
4.58350e-06;-0.005942447319592787
4.58375e-06;-0.005952268116142107
4.58400e-06;-0.005962088912691461
4.58425e-06;-0.005971909709240782
4.58450e-06;-0.005981730505790102
4.58475e-06;-0.005991551302339455
4.58500e-06;-0.006000783985888555
4.58525e-06;-0.006006626110310966
4.58550e-06;-0.006012468234733358
4.58575e-06;-0.006018310359155748
4.58600e-06;-0.00602415248357816
4.58625e-06;-0.006029994608000551
4.58650e-06;-0.006035836732422942
4.58675e-06;-0.006041678856845353
4.58700e-06;-0.006047520981267745
4.58725e-06;-0.0060533631056901354
4.58750e-06;-0.006059205230112547
4.58775e-06;-0.006065047354534938
4.58800e-06;-0.006070889478957329
4.58825e-06;-0.00607673160337974
4.58850e-06;-0.006082573727802132
4.58875e-06;-0.00608716323998607
4.58900e-06;-0.006084531255867157
4.58925e-06;-0.006081899271748252
4.58950e-06;-0.006079267287629339
4.58975e-06;-0.006076635303510435
4.59000e-06;-0.00607400331939153
4.59025e-06;-0.006071371335272617
4.59050e-06;-0.006068739351153713
4.59075e-06;-0.006066107367034808
4.59100e-06;-0.006063475382915895
4.59125e-06;-0.006060843398796991
4.59150e-06;-0.006058211414678086
4.59175e-06;-0.006055579430559173
4.59200e-06;-0.006052947446440269
4.59225e-06;-0.006048964985849077
4.59250e-06;-0.0060371968270577165
4.59275e-06;-0.006025428668266396
4.59300e-06;-0.0060136605094750755
4.59325e-06;-0.006001892350683715
4.59350e-06;-0.005990124191892395
4.59375e-06;-0.005978356033101034
4.59400e-06;-0.005966587874309713
4.59425e-06;-0.005954819715518393
4.59450e-06;-0.005943051556727032
4.59475e-06;-0.005931283397935711
4.59500e-06;-0.00591951523914439
4.59525e-06;-0.00590774708035303
4.59550e-06;-0.005895978921561709
4.59575e-06;-0.0058845201781575485
4.59600e-06;-0.005874845260589656
4.59625e-06;-0.005865170343021796
4.59650e-06;-0.0058554954254539365
4.59675e-06;-0.005845820507886043
4.59700e-06;-0.005836145590318183
4.59725e-06;-0.005826470672750324
4.59750e-06;-0.005816795755182431
4.59775e-06;-0.00580712083761457
4.59800e-06;-0.005797445920046678
4.59825e-06;-0.005787771002478818
4.59850e-06;-0.005779773348453413
4.59875e-06;-0.005781445368804763
4.59900e-06;-0.005783117389156108
4.59925e-06;-0.005784789409507453
4.59950e-06;-0.005786461429858804
4.59975e-06;-0.005788133450210149
4.60000e-06;-0.005789805470561494
4.60025e-06;-0.005791477490912844
4.60050e-06;-0.005793149511264189
4.60075e-06;-0.005794821531615534
4.60100e-06;-0.005796493551966884
4.60125e-06;-0.005799206687039319
4.60150e-06;-0.0058088414075756515
4.60175e-06;-0.005823776628566564
4.60200e-06;-0.005838711849557426
4.60225e-06;-0.005853647070548339
4.60250e-06;-0.005868582291539201
4.60275e-06;-0.005883517512530063
4.60300e-06;-0.005898452733520976
4.60325e-06;-0.0059133879545118385
4.60350e-06;-0.0059283231755027
4.60375e-06;-0.005943258396493613
4.60400e-06;-0.0059581936174844755
4.60425e-06;-0.005973128838475337
4.60450e-06;-0.00598806405946625
4.60475e-06;-0.006002999280457113
4.60500e-06;-0.006018160743635615
4.60525e-06;-0.006034626526754872
4.60550e-06;-0.0060510923098740736
4.60575e-06;-0.006067558092993275
4.60600e-06;-0.006084023876112533
4.60625e-06;-0.006100489659231735
4.60650e-06;-0.006116955442350992
4.60675e-06;-0.006133421225470194
4.60700e-06;-0.006149887008589395
4.60725e-06;-0.006166352791708653
4.60750e-06;-0.006182818574827854
4.60775e-06;-0.006199284357947056
4.60800e-06;-0.006215750141066314
4.60825e-06;-0.006232215924185516
4.60850e-06;-0.006246649306476762
4.60875e-06;-0.006249365594999209
4.60900e-06;-0.006252081883521647
4.60925e-06;-0.0062547981720440845
4.60950e-06;-0.006257514460566531
4.60975e-06;-0.006260230749088968
4.61000e-06;-0.006262947037611406
4.61025e-06;-0.006265663326133852
4.61050e-06;-0.0062683796146562895
4.61075e-06;-0.006271095903178737
4.61100e-06;-0.006273812191701174
4.61125e-06;-0.006276528480223611
4.61150e-06;-0.006279244768746058
4.61175e-06;-0.0062819610572684955
4.61200e-06;-0.006275787314247593
4.61225e-06;-0.006264780530139603
4.61250e-06;-0.006253773746031652
4.61275e-06;-0.006242766961923701
4.61300e-06;-0.006231760177815712
4.61325e-06;-0.006220753393707761
4.61350e-06;-0.006209746609599809
4.61375e-06;-0.006198739825491821
4.61400e-06;-0.006187733041383869
4.61425e-06;-0.006176726257275918
4.61450e-06;-0.006165719473167929
4.61475e-06;-0.006154712689059978
4.61500e-06;-0.006143705904951989
4.61525e-06;-0.006132495503404129
4.61550e-06;-0.006120111216959689
4.61575e-06;-0.0061077269305152065
4.61600e-06;-0.0060953426440707665
4.61625e-06;-0.006082958357626326
4.61650e-06;-0.006070574071181844
4.61675e-06;-0.006058189784737404
4.61700e-06;-0.006045805498292963
4.61725e-06;-0.006033421211848481
4.61750e-06;-0.00602103692540404
4.61775e-06;-0.0060111945150738266
4.61800e-06;-0.0060027339886701715
4.61825e-06;-0.005994273462266545
4.61850e-06;-0.0059858129358629185
4.61875e-06;-0.005977352409459263
4.61900e-06;-0.005968891883055637
4.61925e-06;-0.005960431356651982
4.61950e-06;-0.005951970830248355
4.61975e-06;-0.005943510303844729
4.62000e-06;-0.005934557043061362
4.62025e-06;-0.0059227630951221456
4.62050e-06;-0.005910969147182929
4.62075e-06;-0.005899175199243673
4.62100e-06;-0.005887381251304456
4.62125e-06;-0.00587558730336524
4.62150e-06;-0.005863793355425984
4.62175e-06;-0.0058519994074867675
4.62200e-06;-0.00584020545954755
4.62225e-06;-0.005828411511608294
4.62250e-06;-0.005816617563669078
4.62275e-06;-0.005804823615729862
4.62300e-06;-0.005793029667790605
4.62325e-06;-0.005781235719851389
4.62350e-06;-0.0057694417719121325
4.62375e-06;-0.005756535623624776
4.62400e-06;-0.005743024830691117
4.62425e-06;-0.005729514037757411
4.62450e-06;-0.005716003244823751
4.62475e-06;-0.005702492451890091
4.62500e-06;-0.005688981658956386
4.62525e-06;-0.005675470866022726
4.62550e-06;-0.005661960073089067
4.62575e-06;-0.0056484492801553605
4.62600e-06;-0.005634938487221701
4.62625e-06;-0.005621427694288041
4.62650e-06;-0.005607916901354336
4.62675e-06;-0.005594406108420676
4.62700e-06;-0.005580895315487016
4.62725e-06;-0.005568963806690986
4.62750e-06;-0.0055661371063859206
4.62775e-06;-0.005563310406080854
4.62800e-06;-0.005560483705775778
4.62825e-06;-0.005557657005470712
4.62850e-06;-0.005554830305165636
4.62875e-06;-0.00555200360486057
4.62900e-06;-0.005549176904555504
4.62925e-06;-0.005546350204250428
4.62950e-06;-0.005543523503945362
4.62975e-06;-0.005540696803640295
4.63000e-06;-0.005537870103335219
4.63025e-06;-0.005535043403030153
4.63050e-06;-0.005532216702725087
4.63075e-06;-0.005529390002420012
4.63100e-06;-0.005526563302114945
4.63125e-06;-0.005523736601809879
4.63150e-06;-0.005520909901504803
4.63175e-06;-0.005518083201199737
4.63200e-06;-0.005515256500894671
4.63225e-06;-0.005512429800589595
4.63250e-06;-0.0055148679146079975
4.63275e-06;-0.005520168230386446
4.63300e-06;-0.005525468546164876
4.63325e-06;-0.005530768861943307
4.63350e-06;-0.005536069177721755
4.63375e-06;-0.005541369493500185
4.63400e-06;-0.005546669809278615
4.63425e-06;-0.005551970125057064
4.63450e-06;-0.005557270440835494
4.63475e-06;-0.0055625707566139245
4.63500e-06;-0.005567871072392373
4.63525e-06;-0.005573171388170804
4.63550e-06;-0.005578471703949234
4.63575e-06;-0.005583772019727682
4.63600e-06;-0.005589072335506112
4.63625e-06;-0.005594372651284543
4.63650e-06;-0.005599672967062991
4.63675e-06;-0.005604973282841421
4.63700e-06;-0.00561027359861987
4.63725e-06;-0.0056155739143983
4.63750e-06;-0.005621544043207448
4.63775e-06;-0.005631375743991946
4.63800e-06;-0.005641207444776411
4.63825e-06;-0.005651039145560876
4.63850e-06;-0.005660870846345373
4.63875e-06;-0.0056707025471298385
4.63900e-06;-0.005680534247914303
4.63925e-06;-0.005690365948698801
4.63950e-06;-0.0057001976494832655
4.63975e-06;-0.00571002935026773
4.64000e-06;-0.005719861051052228
4.64025e-06;-0.005729692751836693
4.64050e-06;-0.005741461183458772
4.64075e-06;-0.005764395157079185
4.64100e-06;-0.0057873291306995206
4.64125e-06;-0.005810263104319933
4.64150e-06;-0.005833197077940269
4.64175e-06;-0.005856131051560604
4.64200e-06;-0.005879065025181017
4.64225e-06;-0.005901998998801353
4.64250e-06;-0.005924932972421687
4.64275e-06;-0.0059478669460421
4.64300e-06;-0.005970800919662436
4.64325e-06;-0.005993734893282771
4.64350e-06;-0.006017738258174501
4.64375e-06;-0.006047906823164664
4.64400e-06;-0.0060780753881548265
4.64425e-06;-0.006108243953145092
4.64450e-06;-0.0061384125181352545
4.64475e-06;-0.006168581083125417
4.64500e-06;-0.006198749648115683
4.64525e-06;-0.006228918213105845
4.64550e-06;-0.006259086778096111
4.64575e-06;-0.0062892553430862735
4.64600e-06;-0.006318685164597015
4.64625e-06;-0.0063438560198212325
