Time(s);Current(A)
1.55000e-06;0.013964374266803706
1.55025e-06;0.013957860528310584
1.55050e-06;0.013946483243386393
1.55075e-06;0.013935105958462195
1.55100e-06;0.013923728673538005
1.55125e-06;0.013912351388613804
1.55150e-06;0.013900974103689614
1.55175e-06;0.013889596818765424
1.55200e-06;0.013877062833340519
1.55225e-06;0.01384979501220738
1.55250e-06;0.013822527191074222
1.55275e-06;0.013795259369941085
1.55300e-06;0.013767991548807947
1.55325e-06;0.013740723727674788
1.55350e-06;0.013713455906541652
1.55375e-06;0.013686188085408491
1.55400e-06;0.013658920264275355
1.55425e-06;0.013631652443142194
1.55450e-06;0.01360365655624834
1.55475e-06;0.013566386703192861
1.55500e-06;0.013529116850137354
1.55525e-06;0.013491846997081875
1.55550e-06;0.013454577144026368
1.55575e-06;0.01341730729097089
1.55600e-06;0.013380037437915413
1.55625e-06;0.013342767584859904
1.55650e-06;0.013305497731804427
1.55675e-06;0.013268227878748918
1.55700e-06;0.01323124418348154
1.55725e-06;0.013197905512862708
1.55750e-06;0.013164566842243848
1.55775e-06;0.013131228171625016
1.55800e-06;0.013097889501006156
1.55825e-06;0.013064550830387324
1.55850e-06;0.013031212159768463
1.55875e-06;0.01299787348914963
1.55900e-06;0.012965960472179398
1.55925e-06;0.012952207166058754
1.55950e-06;0.01293845385993812
1.55975e-06;0.012924700553817474
1.56000e-06;0.01291094724769684
1.56025e-06;0.012897193941576205
1.56050e-06;0.01288344063545556
1.56075e-06;0.012869687329334925
1.56100e-06;0.012858112751326053
1.56125e-06;0.012874290406523733
1.56150e-06;0.012890468061721413
1.56175e-06;0.012906645716919107
1.56200e-06;0.012922823372116787
1.56225e-06;0.01293900102731448
1.56250e-06;0.01295517868251216
1.56275e-06;0.012971356337709855
1.56300e-06;0.012989416162146541
1.56325e-06;0.01303145070805988
1.56350e-06;0.013073485253973253
1.56375e-06;0.013115519799886592
1.56400e-06;0.013157554345799967
1.56425e-06;0.013199588891713306
1.56450e-06;0.013241623437626644
1.56475e-06;0.013283657983540018
1.56500e-06;0.013326607135028668
1.56525e-06;0.013381206362118349
1.56550e-06;0.013435805589207981
1.56575e-06;0.013490404816297616
1.56600e-06;0.013545004043387295
1.56625e-06;0.013599603270476927
1.56650e-06;0.013654202497566607
1.56675e-06;0.013708801724656241
1.56700e-06;0.01376340095174592
1.56725e-06;0.013818000178835554
1.56750e-06;0.013865516990914534
1.56775e-06;0.013907751489333828
1.56800e-06;0.013949985987753086
1.56825e-06;0.013992220486172378
1.56850e-06;0.014034454984591637
1.56875e-06;0.014076689483010895
1.56900e-06;0.014118923981430187
1.56925e-06;0.014161158479849447
1.56950e-06;0.014203392978268739
1.56975e-06;0.014243415083630608
1.57000e-06;0.014255256137978994
1.57025e-06;0.01426709719232739
1.57050e-06;0.014278938246675775
1.57075e-06;0.014290779301024169
1.57100e-06;0.014302620355372555
1.57125e-06;0.01431446140972095
1.57150e-06;0.014326302464069336
1.57175e-06;0.014338143518417721
1.57200e-06;0.014333611491248744
1.57225e-06;0.014316867845300223
1.57250e-06;0.014300124199351687
1.57275e-06;0.014283380553403165
1.57300e-06;0.014266636907454645
1.57325e-06;0.01424989326150611
1.57350e-06;0.014233149615557588
1.57375e-06;0.014216405969609052
1.57400e-06;0.014198215395187865
1.57425e-06;0.014161594115173351
1.57450e-06;0.014124972835158804
1.57475e-06;0.01408835155514429
1.57500e-06;0.014051730275129744
1.57525e-06;0.01401510899511523
1.57550e-06;0.013978487715100714
1.57575e-06;0.013941866435086167
1.57600e-06;0.013905245155071654
1.57625e-06;0.013868623875057107
1.57650e-06;0.013831927582494213
1.57675e-06;0.013794275794050855
1.57700e-06;0.013756624005607527
1.57725e-06;0.013718972217164201
1.57750e-06;0.013681320428720842
1.57775e-06;0.013643668640277514
1.57800e-06;0.013606016851834156
1.57825e-06;0.01356836506339083
1.57850e-06;0.013530713274947502
1.57875e-06;0.013493061486504143
1.57900e-06;0.013457051416330095
1.57925e-06;0.013441953247923705
1.57950e-06;0.01342685507951733
1.57975e-06;0.013411756911110954
1.58000e-06;0.013396658742704565
1.58025e-06;0.01338156057429819
1.58050e-06;0.0133664624058918
1.58075e-06;0.013351364237485425
1.58100e-06;0.013336266069079035
1.58125e-06;0.01332116790067266
1.58150e-06;0.013306069732266284
1.58175e-06;0.013290971563859895
1.58200e-06;0.01327587339545352
1.58225e-06;0.01326077522704713
1.58250e-06;0.013245677058640755
1.58275e-06;0.013230578890234379
1.58300e-06;0.01321548072182799
1.58325e-06;0.013200382553421614
1.58350e-06;0.013185284385015227
1.58375e-06;0.01317018621660885
1.58400e-06;0.013155088048202474
1.58425e-06;0.013139989879796084
1.58450e-06;0.013132968129307416
1.58475e-06;0.01313197005472873
1.58500e-06;0.013130971980150046
1.58525e-06;0.01312997390557136
1.58550e-06;0.013128975830992677
1.58575e-06;0.013127977756413991
1.58600e-06;0.013126979681835307
1.58625e-06;0.013125981607256622
1.58650e-06;0.013124983532677936
1.58675e-06;0.013123985458099252
1.58700e-06;0.013122987383520569
1.58725e-06;0.013121989308941883
1.58750e-06;0.0131209912343632
1.58775e-06;0.013119993159784514
1.58800e-06;0.013118995085205828
1.58825e-06;0.013117997010627144
1.58850e-06;0.013116998936048459
1.58875e-06;0.013116000861469775
1.58900e-06;0.01311500278689109
1.58925e-06;0.013114004712312406
1.58950e-06;0.01311300663773372
1.58975e-06;0.01311159544406651
1.59000e-06;0.013104922016338004
1.59025e-06;0.01309824858860949
1.59050e-06;0.013091575160880985
1.59075e-06;0.013084901733152474
1.59100e-06;0.013078228305423968
1.59125e-06;0.01307155487769546
1.59150e-06;0.01306488144996695
1.59175e-06;0.013058208022238444
1.59200e-06;0.013051534594509931
1.59225e-06;0.013044861166781425
1.59250e-06;0.01303818773905292
1.59275e-06;0.013031514311324406
1.59300e-06;0.013024282272300068
1.59325e-06;0.013009934746556718
1.59350e-06;0.012995587220813381
1.59375e-06;0.01298123969507003
1.59400e-06;0.012966892169326692
1.59425e-06;0.012952544643583355
1.59450e-06;0.012938197117840005
1.59475e-06;0.012923849592096668
1.59500e-06;0.012909502066353317
1.59525e-06;0.01289515454060998
1.59550e-06;0.012880807014866642
1.59575e-06;0.012866459489123292
1.59600e-06;0.012852111963379953
1.59625e-06;0.01283775029369001
1.59650e-06;0.012823208461040821
1.59675e-06;0.012808666628391632
1.59700e-06;0.01279412479574243
1.59725e-06;0.012779582963093242
1.59750e-06;0.01276504113044404
1.59775e-06;0.012750499297794851
1.59800e-06;0.01273595746514565
1.59825e-06;0.012721415632496461
1.59850e-06;0.012706873799847272
1.59875e-06;0.012692331967198071
1.59900e-06;0.012677790134548882
1.59925e-06;0.012669253786972588
1.59950e-06;0.012665196540914704
1.59975e-06;0.01266113929485682
1.60000e-06;0.012657082048798932
1.60025e-06;0.01265302480274105
1.60050e-06;0.012648967556683162
1.60075e-06;0.012644910310625278
1.60100e-06;0.012640853064567394
1.60125e-06;0.012636795818509508
1.60150e-06;0.012632738572451624
1.60175e-06;0.012628681326393736
1.60200e-06;0.012625776797634491
1.60225e-06;0.012637555367281747
1.60250e-06;0.01264933393692899
1.60275e-06;0.012661112506576234
1.60300e-06;0.012672891076223488
1.60325e-06;0.012684669645870733
1.60350e-06;0.012696448215517986
1.60375e-06;0.01270822678516523
1.60400e-06;0.012720005354812474
1.60425e-06;0.012731783924459728
1.60450e-06;0.012743562494106972
1.60475e-06;0.012755341063754226
1.60500e-06;0.01276711963340147
1.60525e-06;0.012778898203048714
1.60550e-06;0.012791011280916543
1.60575e-06;0.012807385262239105
1.60600e-06;0.012823759243561678
1.60625e-06;0.01284013322488424
1.60650e-06;0.012856507206206815
1.60675e-06;0.012872881187529377
1.60700e-06;0.012889255168851936
1.60725e-06;0.012905629150174512
1.60750e-06;0.012922003131497073
1.60775e-06;0.012938377112819647
1.60800e-06;0.012954751094142208
1.60825e-06;0.01297112507546477
1.60850e-06;0.012987499056787345
1.60875e-06;0.013003873038109905
1.60900e-06;0.013019924967839179
1.60925e-06;0.013031874664313785
1.60950e-06;0.01304382436078839
1.60975e-06;0.013055774057263004
1.61000e-06;0.01306772375373761
1.61025e-06;0.013079673450212225
1.61050e-06;0.013091623146686831
1.61075e-06;0.013103572843161446
1.61100e-06;0.01311552253963605
1.61125e-06;0.01312781395617613
1.61150e-06;0.013144458139308528
1.61175e-06;0.013161102322440912
1.61200e-06;0.01317774650557331
1.61225e-06;0.013194390688705693
1.61250e-06;0.013211034871838076
1.61275e-06;0.013227679054970473
1.61300e-06;0.013244323238102857
1.61325e-06;0.013260967421235255
1.61350e-06;0.013277996662756914
1.61375e-06;0.01329993070637297
1.61400e-06;0.013321864749989044
1.61425e-06;0.0133437987936051
1.61450e-06;0.013365732837221176
1.61475e-06;0.013387666880837232
1.61500e-06;0.013409600924453289
1.61525e-06;0.013431534968069364
1.61550e-06;0.013453469011685421
1.61575e-06;0.013475403055301496
1.61600e-06;0.013497337098917553
1.61625e-06;0.013519271142533627
1.61650e-06;0.013540923733734929
1.61675e-06;0.013558991236462039
1.61700e-06;0.013577058739189166
1.61725e-06;0.013595126241916278
1.61750e-06;0.013613193744643403
1.61775e-06;0.013631261247370515
1.61800e-06;0.013649328750097625
1.61825e-06;0.013667396252824753
1.61850e-06;0.013685463755551864
1.61875e-06;0.01370353125827899
1.61900e-06;0.013721598761006102
1.61925e-06;0.013739666263733212
1.61950e-06;0.013757076829011752
1.61975e-06;0.01376611944734232
1.62000e-06;0.013775162065672895
1.62025e-06;0.013784204684003463
1.62050e-06;0.01379324730233404
1.62075e-06;0.013802289920664608
1.62100e-06;0.013811332538995176
1.62125e-06;0.01382037515732575
1.62150e-06;0.013829417775656319
1.62175e-06;0.013838460393986896
1.62200e-06;0.013847503012317464
1.62225e-06;0.013856545630648032
1.62250e-06;0.013865588248978607
1.62275e-06;0.013874630867309175
1.62300e-06;0.013883673485639752
1.62325e-06;0.01389271610397032
1.62350e-06;0.013901508419188626
1.62375e-06;0.013907112419950735
1.62400e-06;0.01391271642071284
1.62425e-06;0.01391832042147495
1.62450e-06;0.013923924422237055
1.62475e-06;0.013929528422999165
1.62500e-06;0.01393513242376127
1.62525e-06;0.013940736424523375
1.62550e-06;0.013946340425285485
1.62575e-06;0.01395194442604759
1.62600e-06;0.013957548426809699
1.62625e-06;0.013963152427571804
1.62650e-06;0.013968756428333909
1.62675e-06;0.013974360429096019
1.62700e-06;0.013979964429858124
1.62725e-06;0.013985568430620234
1.62750e-06;0.013990897786477758
1.62775e-06;0.013992728766659452
1.62800e-06;0.013994559746841148
1.62825e-06;0.013996390727022842
1.62850e-06;0.013998221707204538
1.62875e-06;0.014000052687386232
1.62900e-06;0.014001883667567926
1.62925e-06;0.01400371464774962
1.62950e-06;0.014005545627931314
1.62975e-06;0.01400737660811301
1.63000e-06;0.014009207588294704
1.63025e-06;0.014005071606949089
1.63050e-06;0.013996485256298074
1.63075e-06;0.01398789890564706
1.63100e-06;0.013979312554996038
1.63125e-06;0.013970726204345023
1.63150e-06;0.013962139853694001
1.63175e-06;0.013953553503042986
1.63200e-06;0.013944967152391971
1.63225e-06;0.01393638080174095
1.63250e-06;0.013927794451089935
1.63275e-06;0.013918253814945372
1.63300e-06;0.013896557667803336
1.63325e-06;0.013874861520661282
1.63350e-06;0.013853165373519247
1.63375e-06;0.013831469226377213
1.63400e-06;0.01380977307923516
1.63425e-06;0.013788076932093123
1.63450e-06;0.01376638078495107
1.63475e-06;0.013744684637809035
1.63500e-06;0.013722988490667
1.63525e-06;0.013701292343524947
1.63550e-06;0.01367959619638291
1.63575e-06;0.013657900049240857
1.63600e-06;0.013636203902098822
1.63625e-06;0.013614507754956788
1.63650e-06;0.013592811607814734
1.63675e-06;0.013571115460672698
1.63700e-06;0.013552347134959338
1.63725e-06;0.013535762481213342
1.63750e-06;0.01351917782746733
1.63775e-06;0.013502593173721331
1.63800e-06;0.013486008519975334
1.63825e-06;0.013469423866229322
1.63850e-06;0.013452839212483325
1.63875e-06;0.013436254558737313
1.63900e-06;0.013419669904991315
1.63925e-06;0.013403085251245318
1.63950e-06;0.013386500597499306
1.63975e-06;0.01336991594375331
1.64000e-06;0.013353331290007297
1.64025e-06;0.013336746636261299
1.64050e-06;0.013320161982515302
1.64075e-06;0.01330357732876929
1.64100e-06;0.013288629864153268
1.64125e-06;0.013294536609944707
1.64150e-06;0.013300443355736142
1.64175e-06;0.013306350101527581
1.64200e-06;0.013312256847319017
1.64225e-06;0.013318163593110452
1.64250e-06;0.013324070338901893
1.64275e-06;0.013329977084693327
1.64300e-06;0.013335883830484768
1.64325e-06;0.013341790576276203
1.64350e-06;0.013347697322067637
1.64375e-06;0.013353604067859078
1.64400e-06;0.013359510813650513
1.64425e-06;0.01337273496820574
1.64450e-06;0.013391416703006078
1.64475e-06;0.013410098437806418
1.64500e-06;0.013428780172606774
1.64525e-06;0.013447461907407114
1.64550e-06;0.013466143642207468
1.64575e-06;0.013484825377007808
1.64600e-06;0.013503507111808163
1.64625e-06;0.013522188846608501
1.64650e-06;0.013540870581408841
1.64675e-06;0.013559552316209197
1.64700e-06;0.013578234051009537
1.64725e-06;0.01359651835700174
1.64750e-06;0.013609740288809877
1.64775e-06;0.013622962220618012
1.64800e-06;0.013636184152426158
1.64825e-06;0.013649406084234292
1.64850e-06;0.01366262801604244
1.64875e-06;0.013675849947850574
1.64900e-06;0.01368907187965871
1.64925e-06;0.013702293811466856
1.64950e-06;0.013715515743274991
1.64975e-06;0.013728737675083136
1.65000e-06;0.013741959606891273
1.65025e-06;0.013755181538699408
1.65050e-06;0.013768403470507553
1.65075e-06;0.013781625402315688
1.65100e-06;0.013794847334123835
1.65125e-06;0.01380806926593197
1.65150e-06;0.013820844073422631
1.65175e-06;0.01382792349458173
1.65200e-06;0.01383500291574083
1.65225e-06;0.013842082336899935
1.65250e-06;0.013849161758059034
1.65275e-06;0.013856241179218139
1.65300e-06;0.013863320600377238
1.65325e-06;0.013870400021536337
1.65350e-06;0.013877479442695443
1.65375e-06;0.013884558863854542
1.65400e-06;0.013891638285013646
1.65425e-06;0.013898717706172745
1.65450e-06;0.013905797127331844
1.65475e-06;0.01391287654849095
1.65500e-06;0.013919955969650049
1.65525e-06;0.013927035390809155
1.65550e-06;0.013934114811968254
1.65575e-06;0.013941084474005987
1.65600e-06;0.013946656044785581
1.65625e-06;0.013952227615565178
1.65650e-06;0.013957799186344778
1.65675e-06;0.013963370757124375
1.65700e-06;0.013968942327903976
1.65725e-06;0.013974513898683571
1.65750e-06;0.013979938533773313
1.65775e-06;0.013983491529395474
1.65800e-06;0.013987044525017632
1.65825e-06;0.013990597520639794
1.65850e-06;0.013994150516261952
1.65875e-06;0.01399770351188411
1.65900e-06;0.01400125650750627
1.65925e-06;0.01400403710550373
1.65950e-06;0.013996979046327915
1.65975e-06;0.013989920987152106
1.66000e-06;0.013982862927976292
1.66025e-06;0.013975804868800483
1.66050e-06;0.013968746809624673
1.66075e-06;0.01396168875044886
1.66100e-06;0.01395463069127305
1.66125e-06;0.013936381337865055
1.66150e-06;0.013909785124484557
1.66175e-06;0.01388318891110406
1.66200e-06;0.01385659269772354
1.66225e-06;0.013829996484343042
1.66250e-06;0.013803400270962524
1.66275e-06;0.013776804057582026
1.66300e-06;0.01374878349838297
1.66325e-06;0.013702619887268907
1.66350e-06;0.013656456276154883
1.66375e-06;0.013610292665040819
1.66400e-06;0.013564129053926793
1.66425e-06;0.013517965442812729
1.66450e-06;0.013471801831698703
1.66475e-06;0.01342563822058468
1.66500e-06;0.013379474609470613
1.66525e-06;0.01333331099835659
1.66550e-06;0.013286686539702082
1.66575e-06;0.01323419189085808
1.66600e-06;0.013181697242014076
1.66625e-06;0.013129202593170027
1.66650e-06;0.013076707944326024
1.66675e-06;0.013024213295481975
1.66700e-06;0.012971718646637972
1.66725e-06;0.012919223997793968
1.66750e-06;0.01286672934894992
1.66775e-06;0.012814234700105917
1.66800e-06;0.012762825854824135
1.66825e-06;0.012725247773210041
1.66850e-06;0.012687669691595915
1.66875e-06;0.01265009160998182
1.66900e-06;0.012612513528367727
1.66925e-06;0.0125749354467536
1.66950e-06;0.012537357365139506
1.66975e-06;0.01249977928352538
1.67000e-06;0.012462201201911285
1.67025e-06;0.01242462312029719
1.67050e-06;0.012393304923903286
1.67075e-06;0.012366655569583464
1.67100e-06;0.01234000621526362
1.67125e-06;0.012313356860943798
1.67150e-06;0.012286707506623975
1.67175e-06;0.01226005815230413
1.67200e-06;0.012233408797984308
1.67225e-06;0.012206759443664464
1.67250e-06;0.012180110089344642
1.67275e-06;0.01215378077800742
1.67300e-06;0.01213152811461055
1.67325e-06;0.012109275451213677
1.67350e-06;0.012087022787816785
1.67375e-06;0.012064770124419914
1.67400e-06;0.012042517461023023
1.67425e-06;0.01202026479762615
1.67450e-06;0.01199801213422928
1.67475e-06;0.011975759470832388
1.67500e-06;0.011953506807435515
1.67525e-06;0.011931254144038625
1.67550e-06;0.011909001480641753
1.67575e-06;0.011886748817244882
1.67600e-06;0.01186488583633267
1.67625e-06;0.011847986558375084
1.67650e-06;0.011831087280417483
1.67675e-06;0.011814188002459898
1.67700e-06;0.011797288724502296
1.67725e-06;0.011780389446544711
1.67750e-06;0.011763490168587125
1.67775e-06;0.011746590890629524
1.67800e-06;0.011729691612671938
1.67825e-06;0.011712792334714337
1.67850e-06;0.011695893056756751
1.67875e-06;0.011678993778799166
1.67900e-06;0.011662094500841566
1.67925e-06;0.011646116236462892
1.67950e-06;0.011641869671614806
1.67975e-06;0.011637623106766724
1.68000e-06;0.011633376541918641
1.68025e-06;0.011629129977070555
1.68050e-06;0.011624883412222472
1.68075e-06;0.011620636847374386
1.68100e-06;0.011616390282526303
1.68125e-06;0.011612143717678217
1.68150e-06;0.011607897152830135
1.68175e-06;0.011603650587982052
1.68200e-06;0.01160823837569196
1.68225e-06;0.011619415133561226
1.68250e-06;0.011630591891430501
1.68275e-06;0.011641768649299767
1.68300e-06;0.011652945407169032
1.68325e-06;0.011664122165038308
1.68350e-06;0.011675298922907574
1.68375e-06;0.01168647568077685
1.68400e-06;0.011697652438646115
1.68425e-06;0.01170882919651538
1.68450e-06;0.011720638775768856
1.68475e-06;0.011740509116019862
1.68500e-06;0.011760379456270884
1.68525e-06;0.01178024979652189
1.68550e-06;0.011800120136772911
1.68575e-06;0.011819990477023918
1.68600e-06;0.011839860817274922
1.68625e-06;0.011859731157525946
1.68650e-06;0.011879601497776952
1.68675e-06;0.011899471838027973
1.68700e-06;0.01191934217827898
1.68725e-06;0.011939212518529984
1.68750e-06;0.011959082858781007
1.68775e-06;0.011978311025492627
1.68800e-06;0.011989359305195301
1.68825e-06;0.012000407584897965
1.68850e-06;0.012011455864600628
1.68875e-06;0.0120225041443033
1.68900e-06;0.012033552424005963
1.68925e-06;0.012044600703708637
1.68950e-06;0.0120556489834113
1.68975e-06;0.012066697263113964
1.69000e-06;0.012077745542816636
1.69025e-06;0.0120887938225193
1.69050e-06;0.012099842102221972
1.69075e-06;0.012110890381924635
1.69100e-06;0.012120448245609905
1.69125e-06;0.012111021467496503
1.69150e-06;0.012101594689383103
1.69175e-06;0.012092167911269694
1.69200e-06;0.012082741133156293
1.69225e-06;0.012073314355042884
1.69250e-06;0.012063887576929484
1.69275e-06;0.012054460798816082
1.69300e-06;0.012045034020702674
1.69325e-06;0.012035607242589274
1.69350e-06;0.012026180464475865
1.69375e-06;0.012016753686362463
1.69400e-06;0.012007326908249063
1.69425e-06;0.011997900130135655
1.69450e-06;0.01198180094990063
1.69475e-06;0.01196072525801078
1.69500e-06;0.011939649566120947
1.69525e-06;0.011918573874231096
1.69550e-06;0.011897498182341263
1.69575e-06;0.01187642249045143
1.69600e-06;0.011855346798561579
1.69625e-06;0.011834271106671746
1.69650e-06;0.011813195414781897
1.69675e-06;0.011792119722892062
1.69700e-06;0.01177104403100223
1.69725e-06;0.01174996833911238
1.69750e-06;0.011728892647222546
1.69775e-06;0.01170818826338114
1.69800e-06;0.011692213532343648
1.69825e-06;0.011676238801306159
1.69850e-06;0.011660264070268654
1.69875e-06;0.011644289339231164
1.69900e-06;0.01162831460819366
1.69925e-06;0.01161233987715617
1.69950e-06;0.011596365146118665
1.69975e-06;0.011580390415081175
1.70000e-06;0.011564415684043684
1.70025e-06;0.011556661702532282
1.70050e-06;0.011555039044505435
1.70075e-06;0.011553416386478587
1.70100e-06;0.011551793728451741
1.70125e-06;0.011550171070424897
1.70150e-06;0.011548548412398048
1.70175e-06;0.011546925754371202
1.70200e-06;0.011545303096344356
