Time(s);Current(A)
2.75000e-06;0.003922601273791869
2.75025e-06;0.004018630663806538
2.75050e-06;0.004085332703002488
2.75075e-06;0.004152034742198438
2.75100e-06;0.004218736781394275
2.75125e-06;0.004285438820590224
2.75150e-06;0.004352140859786174
2.75175e-06;0.004418842898982124
2.75200e-06;0.00446586259195918
2.75225e-06;0.00449798071445171
2.75250e-06;0.004530098836944241
2.75275e-06;0.004562216959436717
2.75300e-06;0.004594335081929248
2.75325e-06;0.004626453204421779
2.75350e-06;0.004658571326914255
2.75375e-06;0.004690689449406786
2.75400e-06;0.004722807571899316
2.75425e-06;0.004754925694391847
2.75450e-06;0.004785036553947902
2.75475e-06;0.004788113776780514
2.75500e-06;0.0047911909996131265
2.75525e-06;0.004794268222445734
2.75550e-06;0.004797345445278346
2.75575e-06;0.004800422668110958
2.75600e-06;0.004803499890943571
2.75625e-06;0.004806577113776178
2.75650e-06;0.00480965433660879
2.75675e-06;0.004812731559441403
2.75700e-06;0.00481580878227401
2.75725e-06;0.004812018363889094
2.75750e-06;0.004803028431252673
2.75775e-06;0.004794038498616268
2.75800e-06;0.004785048565979846
2.75825e-06;0.004776058633343425
2.75850e-06;0.004767068700707005
2.75875e-06;0.004758078768070599
2.75900e-06;0.004749043513533691
2.75925e-06;0.004739397867716571
2.75950e-06;0.004729752221899468
2.75975e-06;0.004720106576082348
2.76000e-06;0.004710460930265228
2.76025e-06;0.004700815284448108
2.76050e-06;0.004691169638631005
2.76075e-06;0.004681523992813885
2.76100e-06;0.004664234484167465
2.76125e-06;0.0046411577812778635
2.76150e-06;0.004618081078388223
2.76175e-06;0.004595004375498582
2.76200e-06;0.00457192767260898
2.76225e-06;0.004548850969719338
2.76250e-06;0.004525774266829697
2.76275e-06;0.004502697563940056
2.76300e-06;0.004479620861050454
2.76325e-06;0.004454461570768506
2.76350e-06;0.004401254180758144
2.76375e-06;0.004348046790747873
2.76400e-06;0.004294839400737511
2.76425e-06;0.00424163201072715
2.76450e-06;0.0041884246207167875
2.76475e-06;0.0041352172307065165
2.76500e-06;0.004082009840696154
2.76525e-06;0.004028802450685793
2.76550e-06;0.003975595060675521
2.76575e-06;0.003910975229611935
2.76600e-06;0.003837715001063204
2.76625e-06;0.003764454772514597
2.76650e-06;0.0036911945439658655
2.76675e-06;0.0036179343154171344
2.76700e-06;0.0035446740868684034
2.76725e-06;0.0034714138583197963
2.76750e-06;0.0033969979119818743
2.76775e-06;0.003321706967820715
2.76800e-06;0.0032464160236596825
2.76825e-06;0.003171125079498523
2.76850e-06;0.0030958341353373633
2.76875e-06;0.0030205431911763314
2.76900e-06;0.0029452522470151715
2.76925e-06;0.0028791514914105827
2.76950e-06;0.0028200086584558516
2.76975e-06;0.0027608658255012207
2.77000e-06;0.002701722992546489
2.77025e-06;0.002642580159591758
2.77050e-06;0.0025834373266371267
2.77075e-06;0.0025242944936823956
2.77100e-06;0.00246654341771488
2.77125e-06;0.002427536399705063
2.77150e-06;0.002388529381695312
2.77175e-06;0.0023495223636854946
2.77200e-06;0.0023105153456756773
2.77225e-06;0.0022715083276659263
2.77250e-06;0.0022325013096561094
2.77275e-06;0.002193494291646292
2.77300e-06;0.0021621973191872797
2.77325e-06;0.0021367376481329055
2.77350e-06;0.0021112779770785313
2.77375e-06;0.0020858183060241575
2.77400e-06;0.0020603586349698263
2.77425e-06;0.0020348989639154525
2.77450e-06;0.0020094392928610783
2.77475e-06;0.0019839796218067474
2.77500e-06;0.0019585199507523732
2.77525e-06;0.001933060279697999
2.77550e-06;0.001907600608643625
2.77575e-06;0.0018872524543284183
2.77600e-06;0.0018707742465194144
2.77625e-06;0.0018542960387104104
2.77650e-06;0.0018378178309014345
2.77675e-06;0.0018213396230924305
2.77700e-06;0.0018048614152834266
2.77725e-06;0.0017883832074744505
2.77750e-06;0.0017719049996654467
2.77775e-06;0.0017554267918564429
2.77800e-06;0.0017389485840474388
2.77825e-06;0.001722470376238463
2.77850e-06;0.0017091707658894303
2.77875e-06;0.0016982776823626774
2.77900e-06;0.001687384598835943
2.77925e-06;0.00167649151530919
2.77950e-06;0.0016655984317824372
2.77975e-06;0.0016547053482556843
2.78000e-06;0.0016438122647289498
2.78025e-06;0.001632919181202197
2.78050e-06;0.0016230746766509388
2.78075e-06;0.0016140240547670105
2.78100e-06;0.0016049734328830668
2.78125e-06;0.0015959228109991232
2.78150e-06;0.0015868721891151949
2.78175e-06;0.0015778215672312512
2.78200e-06;0.0015687709453473075
2.78225e-06;0.0015597203234633638
2.78250e-06;0.0015484682084607973
2.78275e-06;0.0015355493356173854
2.78300e-06;0.0015226304627739735
2.78325e-06;0.0015097115899305837
2.78350e-06;0.0014967927170871718
2.78375e-06;0.0014838738442437599
2.78400e-06;0.0014709549714003482
2.78425e-06;0.0014580360985569582
2.78450e-06;0.0014451172257135463
2.78475e-06;0.0014321983528701346
2.78500e-06;0.0014192794800267446
2.78525e-06;0.0014038071315691464
2.78550e-06;0.0013864015381400468
2.78575e-06;0.001368995944710977
2.78600e-06;0.0013515903512818775
2.78625e-06;0.0013341847578527781
2.78650e-06;0.0013167791644236786
2.78675e-06;0.0012993735709946087
2.78700e-06;0.0012819679775655092
2.78725e-06;0.0012645623841364099
2.78750e-06;0.00124715679070734
2.78775e-06;0.0012297511972782405
2.78800e-06;0.0012123928635090961
2.78825e-06;0.001195070310187377
2.78850e-06;0.0011777477568656871
2.78875e-06;0.001160425203543968
2.78900e-06;0.0011431026502222489
2.78925e-06;0.0011272829654105513
2.78950e-06;0.0011126011073999613
2.78975e-06;0.001097919249389371
2.79000e-06;0.001083237391378806
2.79025e-06;0.0010685555333682158
2.79050e-06;0.0010563962255602734
2.79075e-06;0.0010461467489908732
2.79100e-06;0.0010358972724214906
2.79125e-06;0.0010299295561385859
2.79150e-06;0.0010272035749626842
2.79175e-06;0.0010284845761887034
2.79200e-06;0.0010327992772615788
2.79225e-06;0.0010408633316242957
2.79250e-06;0.0010517660339670238
2.79275e-06;0.0010665421835501744
2.79300e-06;0.0010842509330605222
2.79325e-06;0.0011065831926062068
2.79350e-06;0.0011324159271425425
2.79375e-06;0.0011626153707785516
2.79400e-06;0.0011961208645535617
2.79425e-06;0.001233413410207704
2.79450e-06;0.0012735731455706808
2.79475e-06;0.0013180699302760815
2.79500e-06;0.0013658503096186177
2.79525e-06;0.0014136306889610728
2.79550e-06;0.0014662413242934524
2.79575e-06;0.001522508962673781
2.79600e-06;0.0015787766010540146
2.79625e-06;0.0016392803727227647
2.79650e-06;0.0017029913351449568
2.79675e-06;0.0017667022975671489
2.79700e-06;0.0018304132599892332
2.79725e-06;0.0018941242224114253
2.79750e-06;0.0019578351848336174
2.79775e-06;0.002022256921362533
2.79800e-06;0.0020872167873572847
2.79825e-06;0.002152176653352036
2.79850e-06;0.0022171365193466774
2.79875e-06;0.002282096385341429
2.79900e-06;0.0023470562513361803
2.79925e-06;0.002403861362540577
2.79950e-06;0.002454492481478818
2.79975e-06;0.002505123600417145
2.80000e-06;0.002555754719355472
2.80025e-06;0.0026063858382937132
2.80050e-06;0.00265701695723204
2.80075e-06;0.002707648076170367
2.80100e-06;0.0027582791951086937
2.80125e-06;0.0027982630464596964
2.80150e-06;0.0028301858157268084
2.80175e-06;0.0028621085849939204
2.80200e-06;0.0028940313542609782
2.80225e-06;0.0029259541235280902
2.80250e-06;0.0029578768927952023
2.80275e-06;0.00298979966206226
2.80300e-06;0.003021722431329372
2.80325e-06;0.003047178236166445
2.80350e-06;0.0030677378804930128
2.80375e-06;0.0030882975248195457
2.80400e-06;0.0031088571691461134
2.80425e-06;0.003129416813472681
2.80450e-06;0.003149976457799214
2.80475e-06;0.0031705361021257816
2.80500e-06;0.0031910957464523493
2.80525e-06;0.003211655390778917
2.80550e-06;0.0032322150351054495
2.80575e-06;0.003248498546328228
2.80600e-06;0.003261544582802635
2.80625e-06;0.0032745906192770194
2.80650e-06;0.0032876366557514263
2.80675e-06;0.003300682692225833
2.80700e-06;0.0033137287287002175
2.80725e-06;0.0033267747651746244
2.80750e-06;0.003339820801649031
2.80775e-06;0.0033528668381234378
2.80800e-06;0.0033659128745978225
2.80825e-06;0.0033773848061417694
2.80850e-06;0.0033861877131167993
2.80875e-06;0.003393872178222382
2.80900e-06;0.0034015566433279777
2.80925e-06;0.0034092411084335732
2.80950e-06;0.0034169255735391688
2.80975e-06;0.0034246100386447517
2.81000e-06;0.0034322945037503472
2.81025e-06;0.0034399789688559427
2.81050e-06;0.0034476634339615257
2.81075e-06;0.0034555210298831667
2.81100e-06;0.00346571033607017
2.81125e-06;0.003475899642257156
2.81150e-06;0.003486088948444159
2.81175e-06;0.0034962782546311623
2.81200e-06;0.0035064675608181654
2.81225e-06;0.003516656867005151
2.81250e-06;0.0035268461731921543
2.81275e-06;0.003537035479379158
2.81300e-06;0.0035472247855661437
2.81325e-06;0.003564364223235195
2.81350e-06;0.003586765628814567
2.81375e-06;0.0036091670343939386
2.81400e-06;0.003631568439973272
2.81425e-06;0.003653969845552644
2.81450e-06;0.0036763712511320157
2.81475e-06;0.0036987726567113493
2.81500e-06;0.003721174062290721
2.81525e-06;0.0037435754678700928
2.81550e-06;0.0037659768734494264
2.81575e-06;0.003788378279028798
2.81600e-06;0.0038112844237518546
2.81625e-06;0.0038409883498849253
2.81650e-06;0.0038706922760179457
2.81675e-06;0.0039003962021510164
2.81700e-06;0.003930100128284087
2.81725e-06;0.003959804054417107
2.81750e-06;0.003989507980550178
2.81775e-06;0.004019211906683248
2.81800e-06;0.0040489158328163195
2.81825e-06;0.0040786197589493395
2.81850e-06;0.004108323685082411
2.81875e-06;0.004138027611215481
2.81900e-06;0.004163215128236872
2.81925e-06;0.004184983256736268
2.81950e-06;0.0042067513852356644
2.81975e-06;0.004228519513735023
2.82000e-06;0.0042502876422344195
2.82025e-06;0.004272055770733816
2.82050e-06;0.004293823899233212
2.82075e-06;0.004315592027732571
2.82100e-06;0.004337360156231967
2.82125e-06;0.004359128284731363
2.82150e-06;0.00436677358084452
2.82175e-06;0.004363726433078764
2.82200e-06;0.004360679285313007
2.82225e-06;0.00435763213754725
2.82250e-06;0.004354584989781499
2.82275e-06;0.004351537842015742
2.82300e-06;0.004348490694249986
2.82325e-06;0.004345443546484234
2.82350e-06;0.004342396398718477
2.82375e-06;0.004339349250952721
2.82400e-06;0.004321323176398475
2.82425e-06;0.004291956506015127
2.82450e-06;0.00426258983563178
2.82475e-06;0.0042332231652484325
2.82500e-06;0.004203856494865135
2.82525e-06;0.0041744898244817875
2.82550e-06;0.00414512315409844
2.82575e-06;0.0041157564837151425
2.82600e-06;0.004086389813331795
2.82625e-06;0.00404927334064903
2.82650e-06;0.0040062894665913
2.82675e-06;0.003963305592533642
2.82700e-06;0.0039203217184759125
2.82725e-06;0.0038773378444181827
2.82750e-06;0.0038343539703605254
2.82775e-06;0.0037913700963027952
2.82800e-06;0.0037483862222450655
2.82825e-06;0.003705402348187408
2.82850e-06;0.003663374653464952
2.82875e-06;0.0036220708853318285
2.82900e-06;0.0035807671171987046
2.82925e-06;0.003539463349065651
2.82950e-06;0.003498159580932527
2.82975e-06;0.0034568558127994033
2.83000e-06;0.0034207901167958373
2.83025e-06;0.0033886901828114584
2.83050e-06;0.003356590248827079
2.83075e-06;0.0033244903148427003
2.83100e-06;0.0032923903808583757
2.83125e-06;0.003260290446873997
2.83150e-06;0.0032230893217542306
2.83175e-06;0.0031820260676760676
2.83200e-06;0.003140962813597835
2.83225e-06;0.0030998995595196022
2.83250e-06;0.0030588363054414396
2.83275e-06;0.0030177730513632067
2.83300e-06;0.0029767097972849743
2.83325e-06;0.002935646543206742
2.83350e-06;0.0028945832891285788
2.83375e-06;0.002853520035050346
2.83400e-06;0.002811071277228646
2.83425e-06;0.002749962679541442
2.83450e-06;0.0026888540818541347
2.83475e-06;0.0026277454841668268
2.83500e-06;0.0025666368864795193
2.83525e-06;0.002505528288792315
2.83550e-06;0.0024444196911050076
2.83575e-06;0.0023833110934176997
2.83600e-06;0.002322202495730496
2.83625e-06;0.002261093898043188
2.83650e-06;0.0021999853003558806
2.83675e-06;0.002134208530909608
2.83700e-06;0.0020648974729301868
2.83725e-06;0.0019955864149507657
2.83750e-06;0.0019262753569713447
2.83775e-06;0.001856964298992041
2.83800e-06;0.0017879110068584041
2.83825e-06;0.0017223292819640965
2.83850e-06;0.0016567475570699
2.83875e-06;0.0015911658321755924
2.83900e-06;0.001525584107281285
2.83925e-06;0.0014600023823869773
2.83950e-06;0.0013993859433762933
2.83975e-06;0.0013425287390011254
2.84000e-06;0.0012856715346259578
2.84025e-06;0.0012335560486625365
2.84050e-06;0.0011850305336500934
2.84075e-06;0.001141043723409723
2.84100e-06;0.001100493181811442
2.84125e-06;0.001064041450812738
2.84150e-06;0.0010306929430992115
2.84175e-06;0.0010015316289698928
2.84200e-06;0.0009755404531805509
2.84225e-06;0.0009540817874037978
2.84250e-06;0.0009360547001959142
2.84275e-06;0.0009226476281182618
2.84300e-06;0.0009127383850281752
2.84325e-06;0.00090689784004411
2.84350e-06;0.0009041377200750824
2.84375e-06;0.0009052258873470953
2.84400e-06;0.0009092276058272386
2.84425e-06;0.0009170181816105339
2.84450e-06;0.0009276773139961514
2.84475e-06;0.0009419043462235255
2.84500e-06;0.0009588326474163455
2.84525e-06;0.0009793540747037727
2.84550e-06;0.001002595869837572
2.84575e-06;0.0010258376649713713
2.84600e-06;0.0010526445607106985
2.84625e-06;0.0010821506061042944
2.84650e-06;0.0011116566514979402
2.84675e-06;0.0011443959878727368
2.84700e-06;0.0011795832597196489
2.84725e-06;0.0012147705315666206
2.84750e-06;0.0012499578034135923
2.84775e-06;0.0012851450752605045
2.84800e-06;0.0013204105351980096
2.84825e-06;0.0013567290253103737
2.84850e-06;0.0013930475154227378
2.84875e-06;0.0014293660055350404
2.84900e-06;0.0014656844956474045
2.84925e-06;0.0015020029857597686
2.84950e-06;0.0015350125019495532
2.84975e-06;0.001565516782857799
2.85000e-06;0.001596021063766045
2.85025e-06;0.001626525344674291
2.85050e-06;0.0016566510633340633
2.85075e-06;0.0016816783396612714
2.85100e-06;0.0017067056159884792
2.85125e-06;0.001731732892315645
2.85150e-06;0.0017567601686428527
2.85175e-06;0.0017846100854400416
2.85200e-06;0.0018145970328268268
2.85225e-06;0.001844583980213663
2.85250e-06;0.001874570927600499
2.85275e-06;0.0019045578749873348
2.85300e-06;0.00193454482237412
2.85325e-06;0.001964531769760956
2.85350e-06;0.0019945187171477924
2.85375e-06;0.0020245056645345773
2.85400e-06;0.0020544926119214135
2.85425e-06;0.002084479559308249
2.85450e-06;0.0021144665066950854
2.85475e-06;0.0021498475159949975
2.85500e-06;0.002189312387704543
2.85525e-06;0.0022287772594140887
2.85550e-06;0.002268242131123567
2.85575e-06;0.0023077070028331126
2.85600e-06;0.002347171874542658
2.85625e-06;0.0023866367462521366
2.85650e-06;0.002426101617961682
2.85675e-06;0.0024655664896712274
2.85700e-06;0.002505031361380773
2.85725e-06;0.0025444962330902514
2.85750e-06;0.002583961104799797
2.85775e-06;0.0026232912850558993
2.85800e-06;0.0026625194899596912
2.85825e-06;0.002701747694863549
2.85850e-06;0.002740975899767407
2.85875e-06;0.0027802041046712652
2.85900e-06;0.0028194323095750567
2.85925e-06;0.002858660514478915
2.85950e-06;0.0028918792253954987
2.85975e-06;0.0029205481282098384
2.86000e-06;0.0029492170310242267
2.86025e-06;0.002977885933838615
2.86050e-06;0.0030065548366529546
2.86075e-06;0.003035223739467343
2.86100e-06;0.003063892642281731
2.86125e-06;0.0030831462616692754
2.86150e-06;0.0030952715383192535
2.86175e-06;0.003107396814969252
2.86200e-06;0.0031122245546079757
2.86225e-06;0.003111527304440447
2.86250e-06;0.0031108300542729175
2.86275e-06;0.003102622768074249
2.86300e-06;0.0030887296083469853
2.86325e-06;0.0030748364486197456
2.86350e-06;0.0030531040582666966
2.86375e-06;0.0030254365600506637
2.86400e-06;0.0029977690618346775
2.86425e-06;0.002963231056439806
2.86450e-06;0.0029234913669605343
2.86475e-06;0.00288375167748133
2.86500e-06;0.0028349619889735233
2.86525e-06;0.0027793205157742033
2.86550e-06;0.002723679042574884
2.86575e-06;0.0026680375693756584
2.86600e-06;0.0026123960961763385
2.86625e-06;0.002556754622977019
2.86650e-06;0.002500270362082029
2.86675e-06;0.0024324355122544734
2.86700e-06;0.0023646006624269177
2.86725e-06;0.0022967658125993616
2.86750e-06;0.002228930962771921
2.86775e-06;0.0021610961129443647
2.86800e-06;0.002093261263116809
2.86825e-06;0.0020259283095880975
2.86850e-06;0.001958975343434476
2.86875e-06;0.0018920223772808543
2.86900e-06;0.001825069411127346
2.86925e-06;0.0017581164449737244
2.86950e-06;0.0016977211915052022
2.86975e-06;0.0016422908043584312
2.87000e-06;0.0015868604172117541
2.87025e-06;0.0015314300300649833
2.87050e-06;0.0014759996429182123
2.87075e-06;0.001428104031087651
2.87100e-06;0.001385913022981777
2.87125e-06;0.001343722014875903
2.87150e-06;0.0013042752962319879
2.87175e-06;0.0012669062883664632
2.87200e-06;0.0012295372805008753
2.87225e-06;0.0011958008309682457
2.87250e-06;0.00116481460356273
2.87275e-06;0.0011338283761571622
2.87300e-06;0.0011055468845090548
2.87325e-06;0.0010793131573966868
2.87350e-06;0.0010530794302842743
2.87375e-06;0.001028519988735334
2.87400e-06;0.0010052281544157028
2.87425e-06;0.000981936320096111
2.87450e-06;0.0009620958521058379
2.87475e-06;0.0009448684251675618
2.87500e-06;0.0009276409982293149
2.87525e-06;0.0009104135712910389
2.87550e-06;0.0008931861443527628
2.87575e-06;0.0008759587174144868
2.87600e-06;0.00085873129047624
2.87625e-06;0.000841503863537964
2.87650e-06;0.000824658957280758
2.87675e-06;0.0008129658051747953
2.87700e-06;0.000801272653068813
2.87725e-06;0.0007895795009628306
2.87750e-06;0.000777886348856868
2.87775e-06;0.0007661931967508856
2.87800e-06;0.0007545000446449032
2.87825e-06;0.0007428068925389207
2.87850e-06;0.0007311137404329583
2.87875e-06;0.0007212047725728574
2.87900e-06;0.00071264661660407
2.87925e-06;0.0007040884606352971
2.87950e-06;0.0006956166511262369
2.87975e-06;0.0006883077479759782
2.88000e-06;0.0006809988448257195
2.88025e-06;0.0006736899416754733
2.88050e-06;0.0006673589326453318
2.88075e-06;0.0006617682905414017
2.88100e-06;0.0006584507441805469
2.88125e-06;0.0006596732455605994
2.88150e-06;0.0006660095287532796
2.88175e-06;0.0006774406496335877
2.88200e-06;0.000693719816706997
2.88225e-06;0.0007146002455841131
2.88250e-06;0.0007398375048377535
2.88275e-06;0.0007694546800166404
2.88300e-06;0.0008040986390412218
2.88325e-06;0.0008446046054134615
2.88350e-06;0.0008912291240726671
2.88375e-06;0.0009436774981716189
2.88400e-06;0.001001512330265535
2.88425e-06;0.0010655273156334603
2.88450e-06;0.0011325256139132877
2.88475e-06;0.0012044183684156986
2.88500e-06;0.0012800167321802827
2.88525e-06;0.001360797326899877
2.88550e-06;0.0014455014060994593
2.88575e-06;0.0015353177739972897
2.88600e-06;0.0016290046728569697
2.88625e-06;0.0017226915717168082
2.88650e-06;0.0018210376761174192
2.88675e-06;0.0019229112806981793
2.88700e-06;0.0020247848852787665
2.88725e-06;0.0021266584898595267
2.88750e-06;0.002228532094440287
2.88775e-06;0.0023310669945571538
2.88800e-06;0.002434102563748133
2.88825e-06;0.002537138132939112
2.88850e-06;0.002640173702130091
2.88875e-06;0.0027432092713208954
2.88900e-06;0.002841524049566167
2.88925e-06;0.0029362647011140757
2.88950e-06;0.003031005352661824
2.88975e-06;0.003118817900123953
2.89000e-06;0.0032013851566888483
2.89025e-06;0.003283952413253604
2.89050e-06;0.003356761234264988
2.89075e-06;0.0034221819109086374
2.89100e-06;0.003487602587552287
2.89125e-06;0.003544780148507883
2.89150e-06;0.003595716818860898
2.89175e-06;0.0036466534892139134
2.89200e-06;0.00368911745129837
2.89225e-06;0.0037251666974655135
2.89250e-06;0.003761215943632657
2.89275e-06;0.003781876466872284
2.89300e-06;0.003790886136242782
2.89325e-06;0.003799895805613296
2.89350e-06;0.0038089054749838097
2.89375e-06;0.003817915144354308
2.89400e-06;0.0038269248137248217
2.89425e-06;0.0038359344830953355
2.89450e-06;0.003844944152465834
2.89475e-06;0.0038519138024157157
2.89500e-06;0.0038314086541556772
2.89525e-06;0.0038109035058956383
2.89550e-06;0.0037903983576356346
2.89575e-06;0.003769893209375596
2.89600e-06;0.0037493880611155577
2.89625e-06;0.003728882912855554
2.89650e-06;0.003708377764595515
2.89675e-06;0.0036878726163354766
2.89700e-06;0.003659566091671964
2.89725e-06;0.0036253531187032013
2.89750e-06;0.0035911401457343808
2.89775e-06;0.00355692717276556
2.89800e-06;0.0035227141997967973
2.89825e-06;0.0034885012268279767
2.89850e-06;0.003454288253859156
