Time(s);Current(A)
1.05000e-06;0.013817318717103812
1.05025e-06;0.013759004116629283
1.05050e-06;0.013700425168449352
1.05075e-06;0.013641846220269472
1.05100e-06;0.013585420793985177
1.05125e-06;0.01353048642148058
1.05150e-06;0.013475552048976026
1.05175e-06;0.013433777596498907
1.05200e-06;0.013401114798998802
1.05225e-06;0.013368452001498696
1.05250e-06;0.013335789203998564
1.05275e-06;0.013303126406498457
1.05300e-06;0.013270463608998324
1.05325e-06;0.013237800811498219
1.05350e-06;0.013205138013998086
1.05375e-06;0.01317247521649798
1.05400e-06;0.013139812418997875
1.05425e-06;0.01310714962149774
1.05450e-06;0.013074486823997635
1.05475e-06;0.013041824026497503
1.05500e-06;0.013009161228997397
1.05525e-06;0.012976498431497292
1.05550e-06;0.01294383563399716
1.05575e-06;0.012911172836497054
1.05600e-06;0.012892919482969986
1.05625e-06;0.01288464292881674
1.05650e-06;0.012876366374663495
1.05675e-06;0.012868089820510242
1.05700e-06;0.012859813266356995
1.05725e-06;0.012851536712203742
1.05750e-06;0.012843260158050497
1.05775e-06;0.012834983603897244
1.05800e-06;0.012826707049743997
1.05825e-06;0.012818430495590751
1.05850e-06;0.012810153941437499
1.05875e-06;0.012801877387284253
1.05900e-06;0.012793600833130999
1.05925e-06;0.012785324278977753
1.05950e-06;0.012777047724824507
1.05975e-06;0.012768771170671255
1.06000e-06;0.012760494616518007
1.06025e-06;0.012756395573292272
1.06050e-06;0.0127551889517646
1.06075e-06;0.012753982330236929
1.06100e-06;0.012752775708709255
1.06125e-06;0.012751569087181584
1.06150e-06;0.01275036246565391
1.06175e-06;0.01274915584412624
1.06200e-06;0.012747949222598566
1.06225e-06;0.012746742601070895
1.06250e-06;0.012745535979543223
1.06275e-06;0.01274432935801555
1.06300e-06;0.012743122736487878
1.06325e-06;0.012741916114960205
1.06350e-06;0.012740709493432534
1.06375e-06;0.01273950287190486
1.06400e-06;0.012738296250377189
1.06425e-06;0.012737089628849516
1.06450e-06;0.012735883007321844
1.06475e-06;0.012734676385794171
1.06500e-06;0.0127334697642665
1.06525e-06;0.012734065249849854
1.06550e-06;0.012735908476923404
1.06575e-06;0.012737751703996955
1.06600e-06;0.012739594931070505
1.06625e-06;0.012741438158144058
1.06650e-06;0.012743281385217608
1.06675e-06;0.012745124612291159
1.06700e-06;0.01274696783936471
1.06725e-06;0.01274881106643826
1.06750e-06;0.012750654293511812
1.06775e-06;0.012752497520585363
1.06800e-06;0.012754340747658912
1.06825e-06;0.012756183974732464
1.06850e-06;0.012758027201806015
1.06875e-06;0.012759870428879567
1.06900e-06;0.012761713655953116
1.06925e-06;0.012763556883026666
1.06950e-06;0.012765400110100219
1.06975e-06;0.012767243337173769
1.07000e-06;0.01276908656424732
1.07025e-06;0.012771008545764939
1.07050e-06;0.012772985055221989
1.07075e-06;0.01277496156467904
1.07100e-06;0.012776938074136088
1.07125e-06;0.012778914583593138
1.07150e-06;0.012780891093050188
1.07175e-06;0.012782867602507238
1.07200e-06;0.012784844111964289
1.07225e-06;0.012786820621421337
1.07250e-06;0.012788797130878389
1.07275e-06;0.012790773640335438
1.07300e-06;0.012791963747979338
1.07325e-06;0.012785287460872494
1.07350e-06;0.012778611173765648
1.07375e-06;0.012771934886658797
1.07400e-06;0.012765258599551951
1.07425e-06;0.0127585823124451
1.07450e-06;0.012751906025338254
1.07475e-06;0.012745229738231403
1.07500e-06;0.01273855345112456
1.07525e-06;0.012731877164017713
1.07550e-06;0.012725200876910862
1.07575e-06;0.012718524589804017
1.07600e-06;0.012703697401369974
1.07625e-06;0.012683226698349282
1.07650e-06;0.01266275599532859
1.07675e-06;0.01264228529230788
1.07700e-06;0.012621814589287189
1.07725e-06;0.01260134388626648
1.07750e-06;0.012580873183245788
1.07775e-06;0.012560402480225096
1.07800e-06;0.012539931777204387
1.07825e-06;0.012519461074183695
1.07850e-06;0.012498990371162986
1.07875e-06;0.012478519668142294
1.07900e-06;0.012455316844721625
1.07925e-06;0.012430222357948611
1.07950e-06;0.012405127871175597
1.07975e-06;0.012380033384402562
1.08000e-06;0.012354938897629548
1.08025e-06;0.012329844410856513
1.08050e-06;0.0123047499240835
1.08075e-06;0.012279655437310485
1.08100e-06;0.01225456095053745
1.08125e-06;0.012229466463764436
1.08150e-06;0.0122043719769914
1.08175e-06;0.012179277490218385
1.08200e-06;0.012159161087594529
1.08225e-06;0.012142491406919644
1.08250e-06;0.012125821726244775
1.08275e-06;0.012109152045569891
1.08300e-06;0.01209248236489502
1.08325e-06;0.012075812684220151
1.08350e-06;0.012059143003545266
1.08375e-06;0.012043910043543816
1.08400e-06;0.012043048632250468
1.08425e-06;0.01204218722095712
1.08450e-06;0.012041325809663772
1.08475e-06;0.012040464398370424
1.08500e-06;0.012039602987077076
1.08525e-06;0.012038741575783728
1.08550e-06;0.01203788016449038
1.08575e-06;0.012048788012168556
1.08600e-06;0.01206784465002465
1.08625e-06;0.012086901287880742
1.08650e-06;0.012105957925736852
1.08675e-06;0.012125014563592947
1.08700e-06;0.012144071201449055
1.08725e-06;0.012163127839305149
1.08750e-06;0.012182184477161241
1.08775e-06;0.012201241115017351
1.08800e-06;0.012220297752873446
1.08825e-06;0.012239354390729554
1.08850e-06;0.01226531073664253
1.08875e-06;0.012296044296939179
1.08900e-06;0.0123267778572358
1.08925e-06;0.012357511417532423
1.08950e-06;0.01238824497782907
1.08975e-06;0.012418978538125694
1.09000e-06;0.012449712098422341
1.09025e-06;0.012480445658718963
1.09050e-06;0.012511179219015586
1.09075e-06;0.012541912779312233
1.09100e-06;0.012572646339608856
1.09125e-06;0.012599587600626141
1.09150e-06;0.012623903152480812
1.09175e-06;0.012648218704335482
1.09200e-06;0.012672534256190172
1.09225e-06;0.012696849808044842
1.09250e-06;0.012721165359899533
1.09275e-06;0.012745480911754203
1.09300e-06;0.012769796463608894
1.09325e-06;0.012783159114135741
1.09350e-06;0.012788938203541874
1.09375e-06;0.012794717292948012
1.09400e-06;0.012800496382354145
1.09425e-06;0.012806275471760283
1.09450e-06;0.012812054561166415
1.09475e-06;0.012817833650572548
1.09500e-06;0.012823612739978686
1.09525e-06;0.012815217078617758
1.09550e-06;0.012797007114580802
1.09575e-06;0.01277879715054386
1.09600e-06;0.012760587186506918
1.09625e-06;0.012742377222469962
1.09650e-06;0.01272416725843302
1.09675e-06;0.012705957294396063
1.09700e-06;0.012687747330359121
1.09725e-06;0.012669537366322165
1.09750e-06;0.012651327402285223
1.09775e-06;0.012622861427795347
1.09800e-06;0.012587294404935266
1.09825e-06;0.012551727382075217
1.09850e-06;0.012516160359215137
1.09875e-06;0.012480593336355086
1.09900e-06;0.012445026313495037
1.09925e-06;0.012409459290634956
1.09950e-06;0.012373892267774906
1.09975e-06;0.012338325244914825
1.10000e-06;0.012302758222054776
1.10025e-06;0.012266961673627076
1.10050e-06;0.012231006206469152
1.10075e-06;0.012195050739311259
1.10100e-06;0.012159095272153335
1.10125e-06;0.01212313980499544
1.10150e-06;0.012087184337837516
1.10175e-06;0.012051228870679623
1.10200e-06;0.012015273403521728
1.10225e-06;0.011979317936363804
1.10250e-06;0.011955135789308182
1.10275e-06;0.01193910524427217
1.10300e-06;0.011923074699236173
1.10325e-06;0.011907044154200174
1.10350e-06;0.011891013609164162
1.10375e-06;0.011874983064128165
1.10400e-06;0.011858952519092154
1.10425e-06;0.011842921974056154
1.10450e-06;0.011826891429020157
1.10475e-06;0.01182936149893052
1.10500e-06;0.011844641009920305
1.10525e-06;0.011859920520910103
1.10550e-06;0.011875200031899888
1.10575e-06;0.011890479542889687
1.10600e-06;0.011905759053879472
1.10625e-06;0.011921038564869257
1.10650e-06;0.011936318075859055
1.10675e-06;0.011966682581244031
1.10700e-06;0.012007491623064533
1.10725e-06;0.012048300664884999
1.10750e-06;0.012089109706705466
1.10775e-06;0.012129918748525967
1.10800e-06;0.012170727790346433
1.10825e-06;0.012211536832166935
1.10850e-06;0.012252345873987401
1.10875e-06;0.012300509115122605
1.10900e-06;0.012353764250937004
1.10925e-06;0.012407019386751355
1.10950e-06;0.012460274522565751
1.10975e-06;0.012513529658380103
1.11000e-06;0.012566784794194501
1.11025e-06;0.012620039930008852
1.11050e-06;0.01267287548763524
1.11075e-06;0.012721513995359087
1.11100e-06;0.012770152503082891
1.11125e-06;0.012818791010806739
1.11150e-06;0.012867429518530545
1.11175e-06;0.01291606802625435
1.11200e-06;0.012964706533978196
1.11225e-06;0.013013345041702002
1.11250e-06;0.013053433040265508
1.11275e-06;0.013087600844089456
1.11300e-06;0.013121768647913404
1.11325e-06;0.01315593645173738
1.11350e-06;0.013190104255561328
1.11375e-06;0.013221117388272747
1.11400e-06;0.013249946292305453
1.11425e-06;0.013278775196338185
1.11450e-06;0.013307604100370891
1.11475e-06;0.013336433004403599
1.11500e-06;0.013363078915782287
1.11525e-06;0.013388213368441438
1.11550e-06;0.013413347821100608
1.11575e-06;0.01343848227375976
1.11600e-06;0.013463616726418909
1.11625e-06;0.01348875117907808
1.11650e-06;0.01351388563173723
1.11675e-06;0.0135390200843964
1.11700e-06;0.013564154537055551
1.11725e-06;0.0135892889897147
1.11750e-06;0.013614423442373872
1.11775e-06;0.013639339282026612
1.11800e-06;0.01366206833093698
1.11825e-06;0.01368479737984733
1.11850e-06;0.013707526428757699
1.11875e-06;0.013730255477668048
1.11900e-06;0.013752984526578397
1.11925e-06;0.013775713575488764
1.11950e-06;0.013798442624399115
1.11975e-06;0.013821171673309483
1.12000e-06;0.013843900722219832
1.12025e-06;0.01386662977113018
1.12050e-06;0.013889358820040549
1.12075e-06;0.013908141337480024
1.12100e-06;0.01392419135859514
1.12125e-06;0.013940241379710243
1.12150e-06;0.013956291400825346
1.12175e-06;0.013972341421940463
1.12200e-06;0.013988391443055566
1.12225e-06;0.014004441464170682
1.12250e-06;0.014020491485285787
1.12275e-06;0.01403654150640089
1.12300e-06;0.014051022488443074
1.12325e-06;0.014049808337907642
1.12350e-06;0.014048594187372207
1.12375e-06;0.014047380036836775
1.12400e-06;0.01404616588630134
1.12425e-06;0.014044951735765906
1.12450e-06;0.014043737585230474
1.12475e-06;0.01404252343469504
1.12500e-06;0.014041309284159607
1.12525e-06;0.014040095133624173
1.12550e-06;0.014024776800083915
1.12575e-06;0.013999693023520509
1.12600e-06;0.01397460924695708
1.12625e-06;0.013949525470393674
1.12650e-06;0.013924441693830248
1.12675e-06;0.013899357917266842
1.12700e-06;0.013874274140703436
1.12725e-06;0.013849190364140009
1.12750e-06;0.013824106587576603
1.12775e-06;0.013799022811013176
1.12800e-06;0.013765151124263755
1.12825e-06;0.013725194871241768
1.12850e-06;0.013685238618219811
1.12875e-06;0.013645282365197856
1.12900e-06;0.013605326112175867
1.12925e-06;0.01356536985915391
1.12950e-06;0.013525413606131922
1.12975e-06;0.013485457353109966
1.13000e-06;0.013445501100088011
1.13025e-06;0.013405544847066022
1.13050e-06;0.013365645010181022
1.13075e-06;0.013325784234656073
1.13100e-06;0.013285923459131155
1.13125e-06;0.013246062683606239
1.13150e-06;0.013206201908081288
1.13175e-06;0.013167109501182562
1.13200e-06;0.013135703102658595
1.13225e-06;0.013104296704134655
1.13250e-06;0.013072890305610688
1.13275e-06;0.013041483907086749
1.13300e-06;0.013010077508562808
1.13325e-06;0.01298718371383459
1.13350e-06;0.01297018386895899
1.13375e-06;0.012953184024083375
1.13400e-06;0.012936184179207773
1.13425e-06;0.012919184334332173
1.13450e-06;0.01290218448945656
1.13475e-06;0.012885184644580957
1.13500e-06;0.012868184799705343
1.13525e-06;0.012851184954829743
1.13550e-06;0.012834185109954141
1.13575e-06;0.012817185265078527
1.13600e-06;0.012800185420202927
1.13625e-06;0.01278318557532731
1.13650e-06;0.01276618573045171
1.13675e-06;0.012749185885576095
1.13700e-06;0.012732186040700495
1.13725e-06;0.012715186195824894
1.13750e-06;0.01269818635094928
1.13775e-06;0.012687502555890065
1.13800e-06;0.012681191862384322
1.13825e-06;0.012674881168878584
1.13850e-06;0.012668570475372846
1.13875e-06;0.012662259781867103
1.13900e-06;0.012655949088361367
1.13925e-06;0.012649638394855623
1.13950e-06;0.012643327701349885
1.13975e-06;0.012637017007844148
1.14000e-06;0.012630706314338404
1.14025e-06;0.012624395620832668
1.14050e-06;0.012618084927326925
1.14075e-06;0.012611774233821187
1.14100e-06;0.012605463540315444
1.14125e-06;0.012599152846809706
1.14150e-06;0.012592842153303968
1.14175e-06;0.012586531459798227
1.14200e-06;0.012580220766292489
1.14225e-06;0.012576867750016756
1.14250e-06;0.012575562567951473
1.14275e-06;0.01257425738588619
1.14300e-06;0.012572952203820906
1.14325e-06;0.012571647021755623
1.14350e-06;0.01257034183969034
1.14375e-06;0.012569036657625057
1.14400e-06;0.012576192788349
1.14425e-06;0.012589207356098852
1.14450e-06;0.012602221923848692
1.14475e-06;0.012615236491598545
1.14500e-06;0.012628251059348386
1.14525e-06;0.012641265627098238
1.14550e-06;0.012654280194848079
1.14575e-06;0.012679440083649506
1.14600e-06;0.012713009140190261
1.14625e-06;0.012746578196730989
1.14650e-06;0.012780147253271746
1.14675e-06;0.012813716309812474
1.14700e-06;0.012847285366353201
1.14725e-06;0.012880854422893957
1.14750e-06;0.012914423479434684
1.14775e-06;0.01294799253597544
1.14800e-06;0.012981561592516167
1.14825e-06;0.013022946282628504
1.14850e-06;0.013069742354902991
1.14875e-06;0.013116538427177438
1.14900e-06;0.013163334499451923
1.14925e-06;0.01321013057172637
1.14950e-06;0.013256926644000857
1.14975e-06;0.013303722716275303
1.15000e-06;0.013350518788549749
1.15025e-06;0.013397314860824235
1.15050e-06;0.013444110933098682
1.15075e-06;0.01348731763559327
1.15100e-06;0.013528039133091722
1.15125e-06;0.013568760630590175
1.15150e-06;0.013609482128088662
1.15175e-06;0.013650203625587115
1.15200e-06;0.013690925123085602
1.15225e-06;0.013731646620584055
1.15250e-06;0.013772368118082507
1.15275e-06;0.013799762703997851
1.15300e-06;0.013817930013460876
1.15325e-06;0.013836097322923915
1.15350e-06;0.01385426463238694
1.15375e-06;0.01387243194184998
1.15400e-06;0.013890599251313003
1.15425e-06;0.013908766560776028
1.15450e-06;0.013926933870239067
1.15475e-06;0.013926959500355775
1.15500e-06;0.013914424208942299
1.15525e-06;0.013901888917528834
1.15550e-06;0.013889353626115366
1.15575e-06;0.01387681833470189
1.15600e-06;0.013864283043288423
1.15625e-06;0.013851747751874947
1.15650e-06;0.013839212460461481
1.15675e-06;0.013826677169048014
1.15700e-06;0.01379920749066573
1.15725e-06;0.013761397553301203
1.15750e-06;0.013723587615936646
1.15775e-06;0.013685777678572122
1.15800e-06;0.013647967741207596
1.15825e-06;0.013610157803843038
1.15850e-06;0.013572347866478512
1.15875e-06;0.013534537929113955
1.15900e-06;0.013496727991749431
1.15925e-06;0.013453452070955474
1.15950e-06;0.01340639161689815
1.15975e-06;0.013359331162840828
1.16000e-06;0.013312270708783465
1.16025e-06;0.013265210254726142
1.16050e-06;0.01321814980066878
1.16075e-06;0.013171089346611457
1.16100e-06;0.013124028892554134
1.16125e-06;0.013076968438496773
1.16150e-06;0.013037137507861172
1.16175e-06;0.0130023121489074
1.16200e-06;0.01296748678995366
1.16225e-06;0.01293266143099992
1.16250e-06;0.01289783607204615
1.16275e-06;0.012863010713092407
1.16300e-06;0.012828185354138637
1.16325e-06;0.012793359995184897
1.16350e-06;0.012758534636231127
1.16375e-06;0.012739761636828753
1.16400e-06;0.012732102957376546
1.16425e-06;0.012724444277924333
1.16450e-06;0.012716785598472124
1.16475e-06;0.01270912691901991
1.16500e-06;0.012701468239567703
1.16525e-06;0.012693809560115496
1.16550e-06;0.012686150880663282
1.16575e-06;0.012678492201211075
1.16600e-06;0.01268621353245256
1.16625e-06;0.012704583663276278
1.16650e-06;0.012722953794099996
1.16675e-06;0.01274132392492373
1.16700e-06;0.012759694055747449
1.16725e-06;0.012778064186571183
1.16750e-06;0.0127964343173949
1.16775e-06;0.012814804448218633
1.16800e-06;0.012833174579042352
1.16825e-06;0.012860631887445552
1.16850e-06;0.012894380968639981
1.16875e-06;0.012928130049834383
1.16900e-06;0.012961879131028812
1.16925e-06;0.012995628212223212
1.16950e-06;0.013029377293417613
1.16975e-06;0.013063126374612042
1.17000e-06;0.013096875455806444
1.17025e-06;0.013130624537000873
1.17050e-06;0.013164373618195273
1.17075e-06;0.01319550622531617
1.17100e-06;0.013224827240197329
1.17125e-06;0.013254148255078462
1.17150e-06;0.013283469269959622
1.17175e-06;0.013312790284840755
1.17200e-06;0.013342111299721914
1.17225e-06;0.013371432314603048
1.17250e-06;0.013400753329484183
1.17275e-06;0.013430074344365342
1.17300e-06;0.013459395359246475
1.17325e-06;0.013475393887902934
1.17350e-06;0.013482168204134344
1.17375e-06;0.013488942520365754
1.17400e-06;0.01349571683659717
1.17425e-06;0.01350249115282858
1.17450e-06;0.013509265469059995
1.17475e-06;0.013516039785291404
1.17500e-06;0.013522814101522814
1.17525e-06;0.01352958841775423
1.17550e-06;0.01353636273398564
1.17575e-06;0.013543137050217055
1.17600e-06;0.013549911366448465
1.17625e-06;0.01355668568267988
1.17650e-06;0.013563459998911289
1.17675e-06;0.013570234315142699
1.17700e-06;0.013566019322867095
1.17725e-06;0.013554195561900633
1.17750e-06;0.013542371800934164
1.17775e-06;0.013530548039967704
1.17800e-06;0.013518724279001245
1.17825e-06;0.013506900518034775
1.17850e-06;0.013495076757068314
1.17875e-06;0.013483252996101844
1.17900e-06;0.013471429235135385
1.17925e-06;0.013459605474168924
1.17950e-06;0.013447781713202454
1.17975e-06;0.013435957952235995
1.18000e-06;0.013424134191269525
1.18025e-06;0.013412310430303066
1.18050e-06;0.013400486669336594
1.18075e-06;0.013387193837310091
1.18100e-06;0.013372883851030531
1.18125e-06;0.013358573864750959
1.18150e-06;0.013344263878471398
1.18175e-06;0.013329953892191828
1.18200e-06;0.013315643905912267
1.18225e-06;0.013301519312607105
1.18250e-06;0.013289249209326733
1.18275e-06;0.01327697910604637
1.18300e-06;0.013264709002765999
1.18325e-06;0.013252438899485637
1.18350e-06;0.013240168796205275
1.18375e-06;0.013227898692924903
1.18400e-06;0.013212622238083687
1.18425e-06;0.01319526424793799
1.18450e-06;0.013177906257792306
1.18475e-06;0.013160548267646607
1.18500e-06;0.013143190277500924
1.18525e-06;0.01312583228735524
1.18550e-06;0.013108474297209544
1.18575e-06;0.01309111630706386
1.18600e-06;0.013073758316918161
1.18625e-06;0.013056400326772478
1.18650e-06;0.013039042336626795
1.18675e-06;0.013017188365077538
1.18700e-06;0.012992221469497247
1.18725e-06;0.012967254573916934
1.18750e-06;0.012942287678336642
1.18775e-06;0.01291732078275635
1.18800e-06;0.012892353887176038
1.18825e-06;0.012867386991595746
1.18850e-06;0.012842420096015432
1.18875e-06;0.01281745320043514
1.18900e-06;0.012792486304854828
1.18925e-06;0.012767519409274536
1.18950e-06;0.01274164584900588
1.18975e-06;0.012715144532960847
1.19000e-06;0.012688643216915834
1.19025e-06;0.0126621419008708
1.19050e-06;0.012635640584825789
1.19075e-06;0.012609139268780777
1.19100e-06;0.012582637952735742
1.19125e-06;0.01255896401859632
1.19150e-06;0.01253724770489358
1.19175e-06;0.012515531391190863
1.19200e-06;0.012493815077488143
1.19225e-06;0.012472098763785404
1.19250e-06;0.012450382450082684
1.19275e-06;0.012428666136379947
1.19300e-06;0.012408169199639016
1.19325e-06;0.012388516534149747
1.19350e-06;0.012368863868660498
1.19375e-06;0.01234921120317125
1.19400e-06;0.012329558537681983
1.19425e-06;0.012309905872192732
1.19450e-06;0.012290253206703466
1.19475e-06;0.012270600541214217
1.19500e-06;0.012250947875724966
1.19525e-06;0.01222780451144129
1.19550e-06;0.012202244259900684
1.19575e-06;0.012176684008360054
1.19600e-06;0.012151123756819445
1.19625e-06;0.012125563505278837
1.19650e-06;0.012100003253738207
1.19675e-06;0.0120744430021976
1.19700e-06;0.012048882750656971
1.19725e-06;0.012023322499116362
1.19750e-06;0.011994494396487167
1.19775e-06;0.011963403701718466
1.19800e-06;0.01193231300694979
1.19825e-06;0.011901222312181086
1.19850e-06;0.01187013161741241
1.19875e-06;0.011839040922643707
1.19900e-06;0.01180795022787503
1.19925e-06;0.011776859533106355
1.19950e-06;0.011745768838337651
1.19975e-06;0.011714678143568975
1.20000e-06;0.011683587448800273
1.20025e-06;0.011652496754031596
1.20050e-06;0.01162140605926292
1.20075e-06;0.011590315364494218
1.20100e-06;0.011560242194368736
1.20125e-06;0.011540347345758928
1.20150e-06;0.011520452497149135
1.20175e-06;0.011500557648539344
