Time(s);Current(A)
1.03000e-05;0.0010969777288423461
1.03003e-05;0.0011059695263412948
1.03005e-05;0.0011149613238403044
1.03008e-05;0.001123953121339314
1.03010e-05;0.0011329449188382627
1.03013e-05;0.0011419367163372726
1.03015e-05;0.0011509285138362822
1.03018e-05;0.0011599203113352309
1.03020e-05;0.0011689121088342405
1.03023e-05;0.00117725541043884
1.03025e-05;0.0011849116581042786
1.03028e-05;0.0011925679057697691
1.03030e-05;0.0012002241534352597
1.03032e-05;0.0012078804011006984
1.03035e-05;0.001215536648766189
1.03038e-05;0.0012231928964316792
1.03040e-05;0.001230849144097118
1.03043e-05;0.0012385053917626085
1.03045e-05;0.001246161639428099
1.03047e-05;0.0012538178870935377
1.03050e-05;0.001261474134759028
1.03053e-05;0.0012691303824245185
1.03055e-05;0.0012767866300899572
1.03058e-05;0.0012844428777554478
1.03060e-05;0.0012920991254209383
1.03063e-05;0.0012997553730864288
1.03065e-05;0.0013074116207518675
1.03068e-05;0.001311703267368916
1.03070e-05;0.0013124302616511721
1.03073e-05;0.0013131572559334235
1.03075e-05;0.0013138842502156795
1.03078e-05;0.0013146112444979356
1.03080e-05;0.0013153382387801867
1.03083e-05;0.001316065233062443
1.03085e-05;0.001316792227344699
1.03088e-05;0.0013175192216269502
1.03090e-05;0.0013182462159092062
1.03093e-05;0.0013189732101914625
1.03095e-05;0.0013197002044737136
1.03098e-05;0.0013204271987559697
1.03100e-05;0.0013211541930382258
1.03103e-05;0.001321881187320477
1.03105e-05;0.0013226081816027331
1.03108e-05;0.0013233351758849892
1.03110e-05;0.0013240621701672405
1.03113e-05;0.001323446287938369
1.03115e-05;0.0013214076849107073
1.03117e-05;0.0013193690818830593
1.03120e-05;0.0013173304788553978
1.03123e-05;0.0013152918758277362
1.03125e-05;0.0013132532728000882
1.03128e-05;0.0013112146697724265
1.03130e-05;0.001309176066744765
1.03132e-05;0.0013070975512924354
1.03135e-05;0.0013050184512548191
1.03138e-05;0.0013029393512172026
1.03140e-05;0.0013008602511796004
1.03143e-05;0.001298781151141984
1.03145e-05;0.0012967020511043675
1.03148e-05;0.0012946229510667512
1.03150e-05;0.0012934737984161093
1.03153e-05;0.0012933098856429766
1.03155e-05;0.0012931459728698438
1.03158e-05;0.0012964101882675196
1.03160e-05;0.0013033063602968275
1.03163e-05;0.0013102025323261353
1.03165e-05;0.001320533427363224
1.03168e-05;0.0013345032659824562
1.03170e-05;0.0013484731046016884
1.03173e-05;0.0013662012466167607
1.03175e-05;0.001387911151933193
1.03178e-05;0.0014096210572496254
1.03180e-05;0.0014356741526343668
1.03183e-05;0.0014663286739829424
1.03185e-05;0.0014969831953315182
1.03188e-05;0.0015311078068563106
1.03190e-05;0.0015689088319811983
1.03193e-05;0.0016067098571060858
1.03195e-05;0.0016493434758777165
1.03198e-05;0.0016970970229810757
1.03200e-05;0.0017448505700844348
1.03202e-05;0.0017926041171874704
1.03205e-05;0.0018403576642908295
1.03208e-05;0.0018881112113941887
1.03210e-05;0.001935864758497224
1.03213e-05;0.0019901807851448582
1.03215e-05;0.0020445929304557277
1.03217e-05;0.0020990050757662285
1.03220e-05;0.0021534172210770984
1.03223e-05;0.002207829366387968
1.03225e-05;0.0022622415116984687
1.03228e-05;0.0023145460220588988
1.03230e-05;0.0023646175824374844
1.03232e-05;0.0024146891428157304
1.03235e-05;0.002464760703194316
1.03238e-05;0.0025148322635729016
1.03240e-05;0.0025649038239514872
1.03243e-05;0.0026149753843297333
1.03245e-05;0.002656430023010743
1.03248e-05;0.0026887553980376334
1.03250e-05;0.0027210807730643047
1.03253e-05;0.0027534061480911946
1.03255e-05;0.002785731523118085
1.03258e-05;0.0028180568981447563
1.03260e-05;0.002850382273171646
1.03263e-05;0.0028742124321992414
1.03265e-05;0.002889042269605816
1.03268e-05;0.002903872107012491
1.03270e-05;0.00290864221995832
1.03273e-05;0.0029027544808171526
1.03275e-05;0.0028968667416759456
1.03278e-05;0.0028909790025347386
1.03280e-05;0.002885091263393571
1.03283e-05;0.002879203524252364
1.03285e-05;0.002873315785111157
1.03287e-05;0.0028674280459699895
1.03290e-05;0.0028615403068287825
1.03293e-05;0.0028318146104093717
1.03295e-05;0.002801739766601419
1.03298e-05;0.0027716649227932633
1.03300e-05;0.0027415900789851074
1.03302e-05;0.002711515235177155
1.03305e-05;0.002681440391368999
1.03308e-05;0.002651365547560843
1.03310e-05;0.0026212907037528907
1.03313e-05;0.002585928900445252
1.03315e-05;0.0025449657874238602
1.03317e-05;0.0025040026744027454
1.03320e-05;0.0024630395613813535
1.03323e-05;0.0024220764483599616
1.03325e-05;0.0023811133353385692
1.03328e-05;0.002340150222317455
1.03330e-05;0.0023009784554524353
1.03333e-05;0.0022618329258957026
1.03335e-05;0.002222687396339235
1.03338e-05;0.002183541866782502
1.03340e-05;0.0021443963372257692
1.03343e-05;0.0021052508076693016
1.03345e-05;0.0020700833707564823
1.03348e-05;0.0020391305545482785
1.03350e-05;0.0020081777383402846
1.03353e-05;0.001981523512258868
1.03355e-05;0.0019594234603938863
1.03358e-05;0.0019373234085290542
1.03360e-05;0.0019202883987470265
1.03363e-05;0.0019086195865738917
1.03365e-05;0.0018969507744008363
1.03368e-05;0.0018905003625345374
1.03370e-05;0.0018895786248214169
1.03373e-05;0.0018886568871083027
1.03375e-05;0.0018931027437573801
1.03378e-05;0.001903235339343706
1.03380e-05;0.0019133679349299631
1.03383e-05;0.0019285100817565389
1.03385e-05;0.0019489596359937656
1.03387e-05;0.0019694091902308537
1.03390e-05;0.001994324108601363
1.03393e-05;0.0020239698911863084
1.03395e-05;0.002053615673771053
1.03398e-05;0.0020889759552949598
1.03400e-05;0.002130390506465769
1.03402e-05;0.002171805057636297
1.03405e-05;0.002213219608807106
1.03408e-05;0.0022546341599779147
1.03410e-05;0.002296048711148724
1.03413e-05;0.002337463262319252
1.03415e-05;0.0023823955479980365
1.03418e-05;0.002431054724430697
1.03420e-05;0.002479713900863028
1.03423e-05;0.0025283730772956885
1.03425e-05;0.0025770322537283495
1.03428e-05;0.0026256914301606804
1.03430e-05;0.002674350606593341
1.03433e-05;0.002720268576598444
1.03435e-05;0.0027632823544685957
1.03438e-05;0.002806296132339039
1.03440e-05;0.002849309910209482
1.03443e-05;0.0028923236880796337
1.03445e-05;0.002935337465950077
1.03448e-05;0.00297835124382052
1.03450e-05;0.0030022565879938797
1.03453e-05;0.003025882056685834
1.03455e-05;0.003049507525377788
1.03458e-05;0.0030731329940695824
1.03460e-05;0.003096758462761537
1.03463e-05;0.0031203839314534907
1.03465e-05;0.0031341574731605566
1.03468e-05;0.0031374933154024076
1.03470e-05;0.0031408291576442587
1.03472e-05;0.0031375820335926285
1.03475e-05;0.003127360535505534
1.03478e-05;0.003117139037418439
1.03480e-05;0.003100484935321515
1.03483e-05;0.003077015761661634
1.03485e-05;0.003053546588001753
1.03487e-05;0.003021037545561892
1.03490e-05;0.0029789511449380595
1.03493e-05;0.0029368647443142274
1.03495e-05;0.002894778343690395
1.03498e-05;0.0028526919430668474
1.03500e-05;0.0028106055424430153
1.03503e-05;0.002768519141819183
1.03505e-05;0.0027181495720884218
1.03508e-05;0.002659004335434481
1.03510e-05;0.0025998590987805397
1.03513e-05;0.0025407138621269996
1.03515e-05;0.0024815686254730587
1.03518e-05;0.0024224233888191175
1.03520e-05;0.0023632781521655774
1.03523e-05;0.002302678270168693
1.03525e-05;0.0022405372530270255
1.03528e-05;0.002178396235885779
1.03530e-05;0.0021162552187441123
1.03533e-05;0.002054114201602445
1.03535e-05;0.0019919731844611987
1.03538e-05;0.0019389944531797204
1.03540e-05;0.001886149919144287
1.03543e-05;0.0018333053851092118
1.03545e-05;0.0017804608510737783
1.03548e-05;0.0017276163170383448
1.03550e-05;0.0016810247393701605
1.03553e-05;0.001641057904195451
1.03555e-05;0.0016058471806738722
1.03557e-05;0.0015756753560549027
1.03560e-05;0.0015506069177839755
1.03563e-05;0.0015309453012499808
1.03565e-05;0.0015164628740049872
1.03568e-05;0.0015074675785027114
1.03570e-05;0.0015037535038389816
1.03572e-05;0.0015056346590243768
1.03575e-05;0.0015129482452395273
1.03578e-05;0.001526017262098507
1.03580e-05;0.0015443063373935357
1.03583e-05;0.0015681258435618203
1.03585e-05;0.0015967829735686696
1.03588e-05;0.001630565361186645
1.03590e-05;0.0016688193874528977
1.03593e-05;0.0017118109255193146
1.03595e-05;0.0017598601853983568
1.03598e-05;0.0018132678873721087
1.03600e-05;0.0018666755893462226
1.03603e-05;0.001924941877319105
1.03605e-05;0.001988355631424243
1.03608e-05;0.002051769385529811
1.03610e-05;0.0021193639100002652
1.03613e-05;0.0021913877836405096
1.03615e-05;0.002263411657281242
1.03618e-05;0.002335435530921974
1.03620e-05;0.0024074594045622186
1.03623e-05;0.002479483278202951
1.03625e-05;0.0025525117283388414
1.03628e-05;0.0026255548922041513
1.03630e-05;0.002698598056069956
1.03633e-05;0.0027716412199357606
1.03635e-05;0.0028446843838010705
1.03638e-05;0.002909594488491277
1.03640e-05;0.0029658879613717747
1.03642e-05;0.0030221814342518906
1.03645e-05;0.003078474907132388
1.03648e-05;0.0031347683800128858
1.03650e-05;0.003191061852893002
1.03653e-05;0.0032473553257734997
1.03655e-05;0.0033036487986539973
1.03657e-05;0.003349296452276332
1.03660e-05;0.0033836653111818413
1.03663e-05;0.0034180341700873504
1.03665e-05;0.0034524030289928595
1.03668e-05;0.0034867718878981357
1.03670e-05;0.003521140746803645
1.03673e-05;0.003555509605709154
1.03675e-05;0.00358987846461443
1.03678e-05;0.003616347084073735
1.03680e-05;0.0036344457343669527
1.03683e-05;0.003652544384660048
1.03685e-05;0.0036706430349532655
1.03688e-05;0.0036887416852464834
1.03690e-05;0.0037068403355395786
1.03693e-05;0.003724938985832796
1.03695e-05;0.003743037636126014
1.03698e-05;0.0037611362864191093
1.03700e-05;0.003779234936712327
1.03703e-05;0.003797333587005545
1.03705e-05;0.00381543223729864
1.03708e-05;0.0038335308875918576
1.03710e-05;0.0038516295378850755
1.03713e-05;0.0038590369752653287
1.03715e-05;0.0038662878216634265
1.03718e-05;0.003873538668061524
1.03720e-05;0.003880789514459572
1.03723e-05;0.00388804036085767
1.03725e-05;0.003895291207255767
1.03727e-05;0.0039025420536538155
1.03730e-05;0.003909792900051913
1.03733e-05;0.003917043746450011
1.03735e-05;0.003924294592848059
1.03738e-05;0.003931545439246157
1.03740e-05;0.003938796285644254
1.03742e-05;0.003946047132042303
1.03745e-05;0.003948503692023119
1.03748e-05;0.003945880908552505
1.03750e-05;0.003943258125081889
1.03753e-05;0.003940635341611292
1.03755e-05;0.003938012558140677
1.03758e-05;0.003935389774670062
1.03760e-05;0.003932766991199464
1.03763e-05;0.00393014420772885
1.03765e-05;0.003927521424258234
1.03768e-05;0.003924898640787637
1.03770e-05;0.003922275857317022
1.03773e-05;0.003919653073846408
1.03775e-05;0.00391703029037581
1.03778e-05;0.0039047354377978972
1.03780e-05;0.003882193437551138
1.03783e-05;0.0038596514373045315
1.03785e-05;0.0038371094370577724
1.03788e-05;0.003814567436811013
1.03790e-05;0.0037920254365644067
1.03793e-05;0.0037694834363176475
1.03795e-05;0.003746941436070888
1.03798e-05;0.003724399435824282
1.03800e-05;0.003701857435577522
1.03803e-05;0.003679315435330763
1.03805e-05;0.0036567734350841565
1.03808e-05;0.0036342314348373973
1.03810e-05;0.0036071471166840103
1.03812e-05;0.00357525040504665
1.03815e-05;0.0035433536934090736
1.03818e-05;0.003511456981771497
1.03820e-05;0.003479560270134137
1.03823e-05;0.0034476635584965603
1.03825e-05;0.003415766846858984
1.03827e-05;0.0033838701352216236
1.03830e-05;0.0033519734235840475
1.03833e-05;0.0033228030175609146
1.03835e-05;0.003296521016895051
1.03838e-05;0.003270239016229366
1.03840e-05;0.0032439570155635027
1.03843e-05;0.0032176750148976392
1.03845e-05;0.003191393014231954
1.03848e-05;0.0031651110135660905
1.03850e-05;0.0031388290129002274
1.03853e-05;0.003112547012234542
1.03855e-05;0.0030846701669819923
1.03858e-05;0.003055103651420961
1.03860e-05;0.00302553713586013
1.03863e-05;0.0029959706202990987
1.03865e-05;0.002966404104738068
1.03868e-05;0.002936837589177237
1.03870e-05;0.0029072710736162055
1.03873e-05;0.002877704558055174
1.03875e-05;0.002848138042494343
1.03878e-05;0.002818571526933312
1.03880e-05;0.0027890050113722805
1.03883e-05;0.00275943849581145
1.03885e-05;0.00271244834818218
1.03888e-05;0.0026652030018485106
1.03890e-05;0.002617957655515161
1.03893e-05;0.0025707123091814913
1.03895e-05;0.0025234669628478217
1.03897e-05;0.0024762216165144725
1.03900e-05;0.002428976270180803
1.03903e-05;0.002381730923847133
1.03905e-05;0.0023344855775137836
1.03908e-05;0.0022872402311801144
1.03910e-05;0.0022399948848464447
1.03912e-05;0.0021894291742677228
1.03915e-05;0.0021353456783653954
1.03918e-05;0.002081262182463068
1.03920e-05;0.0020271786865607407
1.03923e-05;0.00197309519065878
1.03925e-05;0.0019190116947564524
1.03928e-05;0.001864928198854125
1.03930e-05;0.001816327898376012
1.03933e-05;0.0017678079086138434
1.03935e-05;0.0017192879188516748
1.03938e-05;0.0016707679290898349
1.03940e-05;0.0016222479393276663
1.03943e-05;0.0015737279495654974
1.03945e-05;0.0015302636111243848
1.03948e-05;0.001492155521185625
1.03950e-05;0.0014540474312468652
1.03953e-05;0.0014193598383067097
1.03955e-05;0.0013882961171019124
1.03958e-05;0.0013572323958971149
1.03960e-05;0.0013281085931006313
1.03963e-05;0.0013010400517153979
1.03965e-05;0.0012739715103301645
1.03968e-05;0.001249492610693944
1.03970e-05;0.0012277573268373535
1.03973e-05;0.001206022042980763
1.03975e-05;0.001186019166275724
1.03978e-05;0.001167851701592271
1.03980e-05;0.0011496842369088176
1.03982e-05;0.0011342622531128326
1.03985e-05;0.0011217489900652632
1.03988e-05;0.001109235727017694
1.03990e-05;0.0010967224639702093
1.03993e-05;0.0010842092009226401
1.03995e-05;0.0010716959378750707
1.03997e-05;0.0010591826748275863
1.04000e-05;0.0010466694117800168
1.04003e-05;0.0010341561487324474
1.04005e-05;0.001024473273528254
1.04008e-05;0.0010177890743975158
1.04010e-05;0.0010111048752667322
1.04013e-05;0.0010044206761359489
1.04015e-05;0.0009977364770052107
1.04018e-05;0.000991052277874427
1.04020e-05;0.0009843680787436438
1.04023e-05;0.0009776838796129055
1.04025e-05;0.000970999680482122
1.04028e-05;0.0009656654973877314
1.04030e-05;0.0009617615991205351
1.04033e-05;0.0009578577008533123
1.04035e-05;0.0009539538025860895
1.04038e-05;0.0009500499043188932
1.04040e-05;0.0009461460060516705
1.04043e-05;0.0009422421077844476
1.04045e-05;0.0009404038513605071
1.04048e-05;0.0009385958497723348
1.04050e-05;0.0009367878481841626
1.04053e-05;0.0009349798465960027
1.04055e-05;0.0009331718450078304
1.04058e-05;0.0009313638434196582
1.04060e-05;0.000931975531731806
1.04063e-05;0.0009351507790372035
1.04065e-05;0.0009383260263426011
1.04067e-05;0.0009432581288020386
1.04070e-05;0.0009500515449072494
1.04073e-05;0.0009568449610124601
1.04075e-05;0.000965760623925927
1.04078e-05;0.0009769247174712546
1.04080e-05;0.0009880888110165823
1.04082e-05;0.0010013165515328165
1.04085e-05;0.0010167306386346337
1.04088e-05;0.0010321447257364508
1.04090e-05;0.0010503141007413696
1.04093e-05;0.0010714025866133334
1.04095e-05;0.0010924910724854403
1.04098e-05;0.0011135795583575472
1.04100e-05;0.0011346680442295112
1.04103e-05;0.0011557565301016182
1.04105e-05;0.001176845015973725
1.04108e-05;0.0012002681871958335
1.04110e-05;0.0012261648586900365
1.04113e-05;0.0012520615301842395
1.04115e-05;0.0012779582016782668
1.04118e-05;0.0013038548731724698
1.04120e-05;0.0013297515446666728
1.04123e-05;0.0013556482161607003
1.04125e-05;0.0013809733726207903
1.04128e-05;0.0014056930331016074
1.04130e-05;0.001430412693582257
1.04133e-05;0.0014551323540630743
1.04135e-05;0.0014798520145438913
1.04138e-05;0.001504571675024541
1.04140e-05;0.0015292913355053582
1.04143e-05;0.0015540109959861752
1.04145e-05;0.0015701619836148257
1.04148e-05;0.0015861874684648348
1.04150e-05;0.0016022129533148442
1.04152e-05;0.0016182384381647449
1.04155e-05;0.0016342639230147542
1.04158e-05;0.0016502894078647635
1.04160e-05;0.0016663148927146642
1.04163e-05;0.0016752864185321534
1.04165e-05;0.0016767845734358675
1.04167e-05;0.0016782827283395715
1.04170e-05;0.0016797808832432857
1.04173e-05;0.0016812790381469996
1.04175e-05;0.0016827771930507138
1.04178e-05;0.0016842753479544177
1.04180e-05;0.0016857735028581319
1.04183e-05;0.0016872716577618458
1.04185e-05;0.0016887698126655498
1.04188e-05;0.0016763870815124397
1.04190e-05;0.0016638010411881355
1.04193e-05;0.0016512150008639163
1.04195e-05;0.0016386289605396119
1.04198e-05;0.0016260429202153077
1.04200e-05;0.0016134568798910885
1.04203e-05;0.001600870839566784
1.04205e-05;0.0015882847992424798
1.04208e-05;0.0015756987589182606
1.04210e-05;0.0015598559122512842
1.04213e-05;0.0015405626171647899
1.04215e-05;0.001521269322078426
1.04218e-05;0.0015019760269919316
1.04220e-05;0.001482682731905437
1.04223e-05;0.0014633894368190732
1.04225e-05;0.0014440961417325788
1.04228e-05;0.0014250415205262744
1.04230e-05;0.001406239764190181
1.04233e-05;0.0013874380078539605
1.04235e-05;0.0013686362515177397
1.04237e-05;0.0013498344951816466
1.04240e-05;0.0013310327388454258
1.04243e-05;0.0013122309825092052
1.04245e-05;0.001296659573831211
1.04248e-05;0.001284510581717087
1.04250e-05;0.0012723615896029633
1.04252e-05;0.0012602125974889218
1.04255e-05;0.0012480636053747978
1.04258e-05;0.001235914613260674
1.04260e-05;0.0012237656211465501
1.04263e-05;0.0012116166290325086
1.04265e-05;0.0011994676369183849
1.04268e-05;0.001187318644804261
1.04270e-05;0.0011751696526902194
1.04273e-05;0.0011680316990369053
1.04275e-05;0.0011609671405599861
1.04278e-05;0.0011539025820831148
1.04280e-05;0.0011468380236061956
1.04283e-05;0.0011397734651292764
1.04285e-05;0.0011327089066524051
1.04288e-05;0.001125644348175486
1.04290e-05;0.0011185797896985667
1.04293e-05;0.0011115152312216952
1.04295e-05;0.001104450672744776
1.04298e-05;0.0010987088645723934
1.04300e-05;0.0010943684543398763
1.04303e-05;0.00109002804410733
1.04305e-05;0.0010856876338747837
1.04308e-05;0.001081347223642267
1.04310e-05;0.0010770068134097206
1.04313e-05;0.0010726664031771743
1.04315e-05;0.0010683259929446574
1.04318e-05;0.0010639855827121111
1.04320e-05;0.0010596451724795648
1.04322e-05;0.001055304762247048
1.04325e-05;0.0010509643520145017
1.04328e-05;0.0010466239417819554
1.04330e-05;0.0010444361865260753
1.04333e-05;0.0010422799605616473
1.04335e-05;0.0010401237345972192
1.04337e-05;0.0010379675086328055
1.04340e-05;0.0010358112826683774
1.04343e-05;0.0010336550567039493
1.04345e-05;0.001031498830739521
1.04348e-05;0.0010293426047751075
1.04350e-05;0.0010271863788106793
1.04353e-05;0.0010250301528462512
1.04355e-05;0.0010228739268818377
1.04358e-05;0.0010207177009174094
1.04360e-05;0.001022090657809158
1.04363e-05;0.0010272026345051356
1.04365e-05;0.0010323146112011477
1.04368e-05;0.00103742658789716
1.04370e-05;0.0010425385645931374
1.04373e-05;0.0010476505412891496
1.04375e-05;0.0010527625179851615
1.04378e-05;0.0010578744946811392
1.04380e-05;0.0010629864713771512
1.04383e-05;0.0010680984480731634
1.04385e-05;0.0010732104247691409
1.04388e-05;0.0010824307091264643
1.04390e-05;0.001096003571498275
1.04393e-05;0.0011095764338699937
1.04395e-05;0.0011231492962418045
1.04398e-05;0.001136722158613615
1.04400e-05;0.0011502950209853339
1.04403e-05;0.0011638678833571444
1.04405e-05;0.0011774407457289552
1.04407e-05;0.0011910136081006739
1.04410e-05;0.0012045864704724846
1.04413e-05;0.0012181593328442954
1.04415e-05;0.0012329377710861092
1.04418e-05;0.0012489934659163698
1.04420e-05;0.0012650491607466307
1.04422e-05;0.0012811048555767827
1.04425e-05;0.0012971605504070434
1.04428e-05;0.0013132162452373043
1.04430e-05;0.001329271940067565
1.04433e-05;0.001345327634897717
1.04435e-05;0.0013613833297279779
1.04438e-05;0.0013774390245582385
1.04440e-05;0.0013901369742453016
1.04443e-05;0.0014027857440466862
1.04445e-05;0.0014154345138480708
1.04448e-05;0.0014280832836493695
1.04450e-05;0.001440732053450754
1.04453e-05;0.0014533808232521385
1.04455e-05;0.0014660295930534373
1.04458e-05;0.001478678362854822
1.04460e-05;0.0014913271326562065
1.04463e-05;0.0015071294447793024
1.04465e-05;0.0015262728014669457
1.04468e-05;0.001545416158154589
1.04470e-05;0.0015645595148421026
1.04473e-05;0.001583702871529746
1.04475e-05;0.0016028462282173892
1.04478e-05;0.0016219895849049028
1.04480e-05;0.0016411329415925461
