Time(s);Current(A)
5.00000e-06;8.635714166368468e-05
5.00025e-06;0.0001604107944920823
5.00050e-06;0.00024034270336655787
5.00075e-06;0.00032566727744798936
5.00100e-06;0.0004158988760716442
5.00125e-06;0.0005105518842604222
5.00150e-06;0.000609160104021036
5.00175e-06;0.0007125790521498555
5.00200e-06;0.0008160717196391278
5.00225e-06;0.0009248289256118946
5.00250e-06;0.0010335861315846613
5.00275e-06;0.0011423433375577965
5.00300e-06;0.0012511646057310677
5.00325e-06;0.0013600464925134057
5.00350e-06;0.0014689283792961127
5.00375e-06;0.0015777135406765833
5.00400e-06;0.0016795912275549738
5.00425e-06;0.0017814689144330194
5.00450e-06;0.001883202293340693
5.00475e-06;0.001974630172283343
5.00500e-06;0.002065895603577353
5.00525e-06;0.002145560121702708
5.00550e-06;0.002225026789262607
5.00575e-06;0.002290364306561365
5.00600e-06;0.002355488414434456
5.00625e-06;0.0024053722634221446
5.00650e-06;0.002455035037697294
5.00675e-06;0.0024889101501191046
5.00700e-06;0.0025225561688584234
5.00725e-06;0.002539841865089252
5.00750e-06;0.002556893508029814
5.00775e-06;0.002557230646801826
5.00800e-06;0.002557341207867184
5.00825e-06;0.0025412711204268177
5.00850e-06;0.002524986867964
5.00875e-06;0.002493408397011191
5.00900e-06;0.0024616279566868488
5.00925e-06;0.002415424228852922
5.00950e-06;0.002369032643620365
5.00975e-06;0.0023092255526001144
5.01000e-06;0.0022492524987994763
5.01025e-06;0.0021774275048612687
5.01050e-06;0.0021054314733194306
5.01075e-06;0.002021221092097163
5.01100e-06;0.0019370107108748948
5.01125e-06;0.0018526455791754225
5.01150e-06;0.0017572292142945228
5.01175e-06;0.0016618128494136233
5.01200e-06;0.0015663050431774822
5.01225e-06;0.001464267113380686
5.01250e-06;0.0013622291835835442
5.01275e-06;0.0012601912537867478
5.01300e-06;0.001158043178363048
5.01325e-06;0.0010557908780662402
5.01350e-06;0.0009535385777697787
5.01375e-06;0.0008513537676399649
5.01400e-06;0.0007539886490764598
5.01425e-06;0.0006566903606238046
5.01450e-06;0.0005642217617497472
5.01475e-06;0.0004758998981504834
5.01500e-06;0.0003924070525316477
5.01525e-06;0.0003144251640237673
5.01550e-06;0.0002425867234634134
5.01575e-06;0.00017630620369618027
5.01600e-06;0.00011326049223515717
5.01625e-06;5.1675159352791856e-05
5.01650e-06;-8.54204209847471e-06
5.01675e-06;-6.691841002095362e-05
5.01700e-06;-0.00012298134913415099
5.01725e-06;-0.00017625861241712446
5.01750e-06;-0.00022630894157642714
5.01775e-06;-0.0002734540461877904
5.01800e-06;-0.0003191039678027669
5.01825e-06;-0.00036432496467801517
5.01850e-06;-0.00040912192954993136
5.01875e-06;-0.00045263650710540153
5.01900e-06;-0.000496111522143847
5.01925e-06;-0.0005367612495963933
5.01950e-06;-0.0005773686545275092
5.01975e-06;-0.0006149536710228743
5.02000e-06;-0.000652538687518112
5.02025e-06;-0.0006900774688599774
5.02050e-06;-0.0007243144480378697
5.02075e-06;-0.000758551427215646
5.02100e-06;-0.0007927884063935383
5.02125e-06;-0.0008270253855713146
5.02150e-06;-0.000861262364749091
5.02175e-06;-0.0008954993439269833
5.02200e-06;-0.0009297363231047595
5.02225e-06;-0.0009639733022825359
5.02250e-06;-0.0009945796115722538
5.02275e-06;-0.0010217504135457667
5.02300e-06;-0.0010489212155192795
5.02325e-06;-0.0010760920174928844
5.02350e-06;-0.0011032628194663971
5.02375e-06;-0.0011304336214399099
5.02400e-06;-0.0011576044234135148
5.02425e-06;-0.0011847752253870275
5.02450e-06;-0.0012118642025496576
5.02475e-06;-0.0012331098047576089
5.02500e-06;-0.001254355406965488
5.02525e-06;-0.0012755258782173678
5.02550e-06;-0.0012913310043852016
5.02575e-06;-0.0013071361305530354
5.02600e-06;-0.0013228224495999668
5.02625e-06;-0.0013300243670694683
5.02650e-06;-0.0013371197872125385
5.02675e-06;-0.0013366098881029348
5.02700e-06;-0.0013359978620699606
5.02725e-06;-0.0013280926214336416
5.02750e-06;-0.0013200812990489612
5.02775e-06;-0.001304494335194231
5.02800e-06;-0.0012887870964318332
5.02825e-06;-0.0012644906366898604
5.02850e-06;-0.0012400813985234788
5.02875e-06;-0.001207618287540107
5.02900e-06;-0.0011750556202693885
5.02925e-06;-0.0011353833158589011
5.02950e-06;-0.0010956194620738696
5.02975e-06;-0.0010493177707466255
5.03000e-06;-0.0010029261232285148
5.03025e-06;-0.0009501104125682657
5.03050e-06;-0.0008972199251714103
5.03075e-06;-0.0008389893886472039
5.03100e-06;-0.0007807028382973384
5.03125e-06;-0.000718416159130038
5.03150e-06;-0.000656080961548721
5.03175e-06;-0.000590280906773568
5.03200e-06;-0.0005244808519986379
5.03225e-06;-0.0004586520071698892
5.03250e-06;-0.0003907671712893634
5.03275e-06;-0.00032288233540906774
5.03300e-06;-0.0002553514357100895
5.03325e-06;-0.00018815544675120587
5.03350e-06;-0.00012098477363582483
5.03375e-06;-5.5642721130709516e-05
5.03400e-06;8.193454294406387e-06
5.03425e-06;7.020021115388238e-05
5.03450e-06;0.00012996390148052201
5.03475e-06;0.00018704288646498765
5.03500e-06;0.00024099559662109571
5.03525e-06;0.0002913805677181985
5.03550e-06;0.00033775946344093713
5.03575e-06;0.0003797857902910281
5.03600e-06;0.00041730901197363566
5.03625e-06;0.00045028342380270094
5.03650e-06;0.0004786372107713941
5.03675e-06;0.0005022745638737419
5.03700e-06;0.0005210997315073968
5.03725e-06;0.0005350169805582395
5.03750e-06;0.0005439326795193571
5.03775e-06;0.00054781069671885
5.03800e-06;0.0005467374668260565
5.03825e-06;0.0005408654386412803
5.03850e-06;0.0005303304344732583
5.03875e-06;0.0005152533508298157
5.03900e-06;0.0004957550292266047
5.03925e-06;0.00047195649183078854
5.03950e-06;0.00044397985468755207
5.03975e-06;0.0004119833754685156
5.04000e-06;0.0003762021507904499
5.04025e-06;0.00033691240915381535
5.04050e-06;0.00029438014254943505
5.04075e-06;0.00024886181533785676
5.04100e-06;0.00020061399193438694
5.04125e-06;0.00014989321468448865
5.04150e-06;9.695680557159164e-05
5.04175e-06;4.2084612274481047e-05
5.04200e-06;-1.4395366811868515e-05
5.04225e-06;-7.213330625596402e-05
5.04250e-06;-0.0001310512425137492
5.04275e-06;-0.00018997314838354513
5.04300e-06;-0.00024917853711165405
5.04325e-06;-0.00030838392583956237
5.04350e-06;-0.00036756518202997506
5.04375e-06;-0.00042502305551149553
5.04400e-06;-0.0004824368347040866
5.04425e-06;-0.0005367016978421737
5.04450e-06;-0.0005909005545901299
5.04475e-06;-0.0006403856811003924
5.04500e-06;-0.000689807691176527
5.04525e-06;-0.0007346729369356515
5.04550e-06;-0.0007759517111192243
5.04575e-06;-0.0008130507524125702
5.04600e-06;-0.0008451887089499613
5.04625e-06;-0.0008718577190146248
5.04650e-06;-0.0008929422386655565
5.04675e-06;-0.000908438833650638
5.04700e-06;-0.0009183440721294259
5.04725e-06;-0.0009226546438318532
5.04750e-06;-0.0009213619733986994
5.04775e-06;-0.0009143380669937084
5.04800e-06;-0.0009013370807538306
5.04825e-06;-0.0008822846743476846
5.04850e-06;-0.0008573520898705091
5.04875e-06;-0.0008267808891149733
5.04900e-06;-0.0007908126338740937
5.04925e-06;-0.000749688855395162
5.04950e-06;-0.0007036478690553467
5.04975e-06;-0.0006528530600923701
5.05000e-06;-0.0005973942013334778
5.05025e-06;-0.0005374683174393537
5.05050e-06;-0.0004734262616465796
5.05075e-06;-0.000405663000832101
5.05100e-06;-0.00033457341576802635
5.05125e-06;-0.0002605523667281948
5.05150e-06;-0.00018399260431426075
5.05175e-06;-0.000105240093397561
5.05200e-06;-2.4594468175070423e-05
5.05225e-06;5.758136318674196e-05
5.05250e-06;0.00014109763502985126
5.05275e-06;0.00022461130987792792
5.05300e-06;0.00030793952489550414
5.05325e-06;0.00039126773991279807
5.05350e-06;0.0004745548976306236
5.05375e-06;0.000554910020549159
5.05400e-06;0.0006352024353768097
5.05425e-06;0.0007110166622518912
5.05450e-06;0.0007867386717724499
5.05475e-06;0.0008558751411645558
5.05500e-06;0.0009249234424766488
5.05525e-06;0.000987606545446538
5.05550e-06;0.001045265655037765
5.05575e-06;0.0010951680140616244
5.05600e-06;0.001144930951036033
5.05625e-06;0.0011847373076896042
5.05650e-06;0.0012243997231830145
5.05675e-06;0.001253782833996811
5.05700e-06;0.0012830132443560486
5.05725e-06;0.0013013388204491585
5.05750e-06;0.0013195091495661606
5.05775e-06;0.001326592789068686
5.05800e-06;0.0013335337108343686
5.05825e-06;0.0013302826965570296
5.05850e-06;0.0013268963943085317
5.05875e-06;0.0013138487396611074
5.05900e-06;0.0013006705749855597
5.05925e-06;0.0012781722663045318
5.05950e-06;0.001255552115253464
5.05975e-06;0.0012242308057465708
5.06000e-06;0.0011928057648778949
5.06025e-06;0.0011539729313531015
5.06050e-06;0.0011150512782467615
5.06075e-06;0.0010697867310215203
5.06100e-06;0.0010244307734829697
5.06125e-06;0.0009725469092664633
5.06150e-06;0.0009206630450497809
5.06175e-06;0.0008687055021222935
5.06200e-06;0.0008114863237064586
5.06225e-06;0.0007542671452904298
5.06250e-06;0.0006970197440002516
5.06275e-06;0.0006377568558046375
5.06300e-06;0.0005784939676088227
5.06325e-06;0.0005192459497963034
5.06350e-06;0.00046105987422356094
5.06375e-06;0.00040287379865101565
5.06400e-06;0.00034472340505820666
5.06425e-06;0.00028914882023543267
5.06450e-06;0.00023558141682271275
5.06475e-06;0.00018441683168821758
5.06500e-06;0.0001360506581448858
5.06525e-06;9.087839831543946e-05
5.06550e-06;4.928938716755762e-05
5.06575e-06;1.1510688844539782e-05
5.06600e-06;-2.2512883972750993e-05
5.06625e-06;-5.2877683900776324e-05
5.06650e-06;-7.953443336074815e-05
5.06675e-06;-0.00010237310796939156
5.06700e-06;-0.00012128374289306903
5.06725e-06;-0.000136156433278229
5.06750e-06;-0.00014688515307375192
5.06775e-06;-0.00015346553364037704
5.06800e-06;-0.00015607002937492796
5.06825e-06;-0.00015489681958594887
5.06850e-06;-0.00015005290958825332
5.06875e-06;-0.00014160721805623399
5.06900e-06;-0.00012962872106805708
5.06925e-06;-0.00011418641650562759
5.06950e-06;-9.535172947192773e-05
5.06975e-06;-7.325977208629935e-05
5.07000e-06;-4.8156395777608085e-05
5.07025e-06;-2.030357589195508e-05
5.07050e-06;1.0093881166498596e-05
5.07075e-06;4.285500219752522e-05
5.07100e-06;7.77988105635267e-05
5.07125e-06;0.00011474431583660208
5.07150e-06;0.00015350900541291203
5.07175e-06;0.00019387746275984188
5.07200e-06;0.00023603361902888682
5.07225e-06;0.00027821329631516145
5.07250e-06;0.0003220726856596366
5.07275e-06;0.00036593207500426036
5.07300e-06;0.0004097914643487355
5.07325e-06;0.00045337739089815383
5.07350e-06;0.0004967045543375657
5.07375e-06;0.0005400317177768307
5.07400e-06;0.0005833200990124785
5.07425e-06;0.0006238389174357677
5.07450e-06;0.0006643083970055487
5.07475e-06;0.0007012544292018321
5.07500e-06;0.0007381348016572869
5.07525e-06;0.0007703261992795145
5.07550e-06;0.0008024284151960259
5.07575e-06;0.0008281618765668047
5.07600e-06;0.0008538081135486044
5.07625e-06;0.0008731636621717324
5.07650e-06;0.000888050626961778
5.07675e-06;0.0008984829785612522
5.07700e-06;0.0009044747442126145
5.07725e-06;0.0009060398455248851
5.07750e-06;0.0009031870541578087
5.07775e-06;0.00089580142737336
5.07800e-06;0.0008836064545272339
5.07825e-06;0.0008646191155372608
5.07850e-06;0.0008456384287672624
5.07875e-06;0.0008257625475216711
5.07900e-06;0.0008027160070667612
5.07925e-06;0.0007666937552442368
5.07950e-06;0.0007260626185259465
5.07975e-06;0.0006797964069452538
5.08000e-06;0.0006293002578774186
5.08025e-06;0.0005808410344621703
5.08050e-06;0.0005288330655447064
5.08075e-06;0.00047386370602260137
5.08100e-06;0.0004160181863749222
5.08125e-06;0.0003555023136856377
5.08150e-06;0.00029133239430439143
5.08175e-06;0.0002237592639919716
5.08200e-06;0.00015472014615779229
5.08225e-06;8.696313690267495e-05
5.08250e-06;1.9820363136988487e-05
5.08275e-06;-4.469103986417645e-05
5.08300e-06;-0.00010058508932328587
5.08325e-06;-0.00017213823009629877
5.08350e-06;-0.0002461885892746196
5.08375e-06;-0.0003156873345051313
5.08400e-06;-0.00038356162168083293
5.08425e-06;-0.0004472096115786279
5.08450e-06;-0.0005075240247251026
5.08475e-06;-0.0005651075009735633
5.08500e-06;-0.0006198114188267177
5.08525e-06;-0.0006710758860403277
5.08550e-06;-0.0007188236871327173
5.08575e-06;-0.0007632293866689715
5.08600e-06;-0.0008022122837060961
5.08625e-06;-0.0008339564316876479
5.08650e-06;-0.000859165691925838
5.08675e-06;-0.0008784674592251573
5.08700e-06;-0.0008920188794420165
5.08725e-06;-0.0008997192828769658
5.08750e-06;-0.0009017703842205499
5.08775e-06;-0.0008985316877923957
5.08800e-06;-0.0008889499537353471
5.08825e-06;-0.0008721378920703667
5.08850e-06;-0.0008487866161265819
5.08875e-06;-0.0008195393951637016
5.08900e-06;-0.0007847448134921093
5.08925e-06;-0.0007445899794921817
5.08950e-06;-0.0006994514065214976
5.08975e-06;-0.0006498043227851529
5.09000e-06;-0.0005952391997819462
5.09025e-06;-0.0005354503164571747
5.09050e-06;-0.00047112081138140667
5.09075e-06;-0.0004029037718590585
5.09100e-06;-0.0003312675306523707
5.09125e-06;-0.0002565794366239644
5.09150e-06;-0.00017932525390396164
5.09175e-06;-0.00010005276204716175
5.09200e-06;-1.8755303481118883e-05
5.09225e-06;6.450855861260677e-05
5.09250e-06;0.00014906693906041886
5.09275e-06;0.00023428705245740996
5.09300e-06;0.00031950716585411225
5.09325e-06;0.0004037546375925812
5.09350e-06;0.000487383015935645
5.09375e-06;0.0005705888288720521
5.09400e-06;0.0006504122830158019
5.09425e-06;0.0007296424024008023
5.09450e-06;0.0008041232663873392
5.09475e-06;0.0008777321121912568
5.09500e-06;0.000944361024655041
5.09525e-06;0.0010098948034756698
5.09550e-06;0.0010666627561042958
5.09575e-06;0.001122582515088182
5.09600e-06;0.0011717130405281596
5.09625e-06;0.0012202579949516126
5.09650e-06;0.0012641158376354047
5.09675e-06;0.00130725732806919
5.09700e-06;0.001344664888808983
5.09725e-06;0.0013812377471024058
5.09750e-06;0.0014111293600419423
5.09775e-06;0.001440246451924689
5.09800e-06;0.0014631640109846467
5.09825e-06;0.001486081570044682
5.09850e-06;0.0015082451475945601
5.09875e-06;0.0015243735979162147
5.09900e-06;0.0015405020482379239
5.09925e-06;0.0015557842356150656
5.09950e-06;0.0015642926434363234
5.09975e-06;0.0015728010512576101
5.10000e-06;0.0015803692736047767
5.10025e-06;0.0015804119281786942
5.10050e-06;0.0015804545827526116
5.10075e-06;0.001580497237326529
5.10100e-06;0.0015805398919004465
5.10125e-06;0.0015805825464743639
5.10150e-06;0.0015806252010482813
5.10175e-06;0.0015806678556221988
5.10200e-06;0.0015761285161742162
5.10225e-06;0.0015686727046488299
5.10250e-06;0.0015612168931234184
5.10275e-06;0.001553761081598032
5.10300e-06;0.0015463052700726459
5.10325e-06;0.0015388494585472344
5.10350e-06;0.001531393647021848
5.10375e-06;0.0015238925111249596
5.10400e-06;0.0015160285833759474
5.10425e-06;0.0015081646556269618
5.10450e-06;0.0015003007278779762
5.10475e-06;0.001492436800128964
5.10500e-06;0.0014845728723799783
5.10525e-06;0.0014767089446309928
5.10550e-06;0.0014688450168819805
5.10575e-06;0.0014617673813199729
5.10600e-06;0.0014609834987504512
5.10625e-06;0.001460199616180927
5.10650e-06;0.0014594157336114053
5.10675e-06;0.001458631851041881
5.10700e-06;0.0014578479684723593
5.10725e-06;0.0014570640859028377
5.10750e-06;0.0014562802033333134
5.10775e-06;0.0014564397673114458
5.10800e-06;0.0014641510018139402
5.10825e-06;0.0014718622363164605
5.10850e-06;0.0014795734708189549
5.10875e-06;0.0014872847053214492
5.10900e-06;0.0014956678648535417
5.10925e-06;0.001509429343329768
5.10950e-06;0.0015231908218059941
5.10975e-06;0.0015369523002822672
5.11000e-06;0.0015507137787584935
5.11025e-06;0.0015648266593173987
5.11050e-06;0.001582082715503519
5.11075e-06;0.0016019836673872745
5.11100e-06;0.0016218846192710976
5.11125e-06;0.0016417855711548532
5.11150e-06;0.0016616865230386088
5.11175e-06;0.0016815874749224317
5.11200e-06;0.0017014884268061873
5.11225e-06;0.001721389378689943
5.11250e-06;0.001741368019707427
5.11275e-06;0.0017619685112600406
5.11300e-06;0.0017825690028126543
5.11325e-06;0.0018031694943653378
5.11350e-06;0.0018237699859179515
5.11375e-06;0.0018443704774705652
5.11400e-06;0.0018649709690232487
5.11425e-06;0.0018855714605758621
5.11450e-06;0.0019055882694696972
5.11475e-06;0.0019209330816940544
5.11500e-06;0.0019362778939183596
5.11525e-06;0.0019516227061427166
5.11550e-06;0.001966967518367022
5.11575e-06;0.001982312330591327
5.11600e-06;0.001997657142815684
5.11625e-06;0.0020130019550399893
5.11650e-06;0.00202800075953908
5.11675e-06;0.0020427793276380757
5.11700e-06;0.0020575578957370212
5.11725e-06;0.002072336463835967
5.11750e-06;0.002087115031934963
5.11775e-06;0.002101893600033909
5.11800e-06;0.0021166721681328544
5.11825e-06;0.002131962507734249
5.11850e-06;0.0021513492423857346
5.11875e-06;0.0021707359770372203
5.11900e-06;0.0021901227116887714
5.11925e-06;0.0022095094463402565
5.11950e-06;0.0022288961809918077
5.11975e-06;0.0022482829156432933
5.12000e-06;0.002267669650294779
5.12025e-06;0.00228705638494633
5.12050e-06;0.0023064431195978156
5.12075e-06;0.002325829854249301
5.12100e-06;0.002345216588900852
5.12125e-06;0.0023658425701137253
5.12150e-06;0.002387257340656002
5.12175e-06;0.0024086721111983506
5.12200e-06;0.0024300868817406273
5.12225e-06;0.0024515016522829035
5.12250e-06;0.0024729164228252526
5.12275e-06;0.002494331193367529
5.12300e-06;0.002515745963909805
5.12325e-06;0.002537160734452154
5.12350e-06;0.0025585755049944304
5.12375e-06;0.0025799902755367795
5.12400e-06;0.0026004885349515667
5.12425e-06;0.0026136507242111792
5.12450e-06;0.002626812913470837
5.12475e-06;0.0026399751027304497
5.12500e-06;0.0026531372919900626
5.12525e-06;0.00266629948124972
5.12550e-06;0.002679461670509333
5.12575e-06;0.0026926238597689456
5.12600e-06;0.002705786049028603
5.12625e-06;0.002718948238288216
5.12650e-06;0.002732110427547829
5.12675e-06;0.0027452726168074866
5.12700e-06;0.002758434806067099
5.12725e-06;0.002771596995326712
5.12750e-06;0.0027847591845863696
5.12775e-06;0.0027922142087643416
5.12800e-06;0.0027960365814125765
5.12825e-06;0.002799858954060799
5.12850e-06;0.002803681326709021
5.12875e-06;0.0028075036993572564
5.12900e-06;0.0028113260720054787
5.12925e-06;0.002815148444653701
5.12950e-06;0.0028189708173019363
5.12975e-06;0.002822793189950158
5.13000e-06;0.0028266155625983804
5.13025e-06;0.0028304379352466157
5.13050e-06;0.002834260307894838
5.13075e-06;0.0028380826805430603
5.13100e-06;0.0028419050531912956
5.13125e-06;0.002845194773518578
5.13150e-06;0.002844220961548011
5.13175e-06;0.0028432471495774413
5.13200e-06;0.0028422733376068745
5.13225e-06;0.0028412995256363043
5.13250e-06;0.0028403257136657375
5.13275e-06;0.002839351901695171
5.13300e-06;0.002838378089724601
5.13325e-06;0.002837404277754034
5.13350e-06;0.0028364304657834674
5.13375e-06;0.0028354566538128976
5.13400e-06;0.002834482841842331
5.13425e-06;0.002833509029871764
5.13450e-06;0.002832535217901194
5.13475e-06;0.002831561405930627
5.13500e-06;0.0028305875939600602
5.13525e-06;0.0028296137819894904
5.13550e-06;0.0028286399700189237
5.13575e-06;0.002827666158048357
5.13600e-06;0.0028266923460777867
5.13625e-06;0.00282571853410722
5.13650e-06;0.00282474472213665
5.13675e-06;0.0028237709101660833
5.13700e-06;0.0028227970981955165
5.13725e-06;0.0028218232862249463
5.13750e-06;0.00282084947425438
5.13775e-06;0.002819875662283813
5.13800e-06;0.002816260003375923
5.13825e-06;0.002810962789934564
5.13850e-06;0.0028056655764932053
5.13875e-06;0.0028003683630518283
5.13900e-06;0.00279507114961047
5.13925e-06;0.002789773936169111
5.13950e-06;0.002784476722727734
5.13975e-06;0.0027791795092863753
5.14000e-06;0.002773882295845017
5.14025e-06;0.00276858508240364
5.14050e-06;0.002763287868962281
5.14075e-06;0.0027579906555209046
5.14100e-06;0.0027526934420795458
5.14125e-06;0.002747396228638187
5.14150e-06;0.0027420990151968104
5.14175e-06;0.0027368018017554516
5.14200e-06;0.002731504588314093
5.14225e-06;0.0027262073748727162
5.14250e-06;0.0027209101614313574
5.14275e-06;0.0027156129479899986
5.14300e-06;0.002710315734548622
5.14325e-06;0.0027050185211072632
5.14350e-06;0.0026997213076659045
5.14375e-06;0.0026944240942245274
5.14400e-06;0.002689126880783169
5.14425e-06;0.0026838296673418103
5.14450e-06;0.002678533452810685
5.14475e-06;0.0026732452339006427
5.14500e-06;0.0026679570149905824
5.14525e-06;0.0026626687960805404
5.14550e-06;0.002657380577170498
5.14575e-06;0.002652092358260438
