Time(s);Current(A)
1.30000e-05;-0.01059765847065446
1.30003e-05;-0.010630446524518984
1.30005e-05;-0.010663234578383286
1.30008e-05;-0.010696022632247811
1.30010e-05;-0.010728810686112335
1.30013e-05;-0.010761598739976636
1.30015e-05;-0.01079438679384116
1.30018e-05;-0.01082588418380444
1.30020e-05;-0.01085671521849863
1.30023e-05;-0.010887546253193029
1.30025e-05;-0.010918377287887429
1.30028e-05;-0.010949208322581618
1.30030e-05;-0.010980039357276018
1.30033e-05;-0.011010870391970417
1.30035e-05;-0.011041701426664607
1.30038e-05;-0.011072532461359006
1.30040e-05;-0.011103363496053405
1.30043e-05;-0.01113291045554937
1.30045e-05;-0.011155691113718598
1.30048e-05;-0.011178471771887823
1.30050e-05;-0.011201252430056895
1.30053e-05;-0.011224033088226122
1.30055e-05;-0.011246813746395348
1.30058e-05;-0.011269594404564574
1.30060e-05;-0.011292375062733645
1.30063e-05;-0.011315155720902872
1.30065e-05;-0.011337936379072098
1.30068e-05;-0.01136071703724117
1.30070e-05;-0.011383499045870347
1.30073e-05;-0.011406288170608432
1.30075e-05;-0.011429077295346365
1.30078e-05;-0.011451866420084451
1.30080e-05;-0.011474655544822538
1.30083e-05;-0.01149744466956047
1.30085e-05;-0.011520233794298557
1.30088e-05;-0.011543022919036642
1.30090e-05;-0.011565812043774574
1.30093e-05;-0.011588601168512661
1.30095e-05;-0.011611390293250748
1.30098e-05;-0.011634206706282747
1.30100e-05;-0.011657166912155601
1.30103e-05;-0.011680127118028454
1.30105e-05;-0.011703087323901152
1.30108e-05;-0.011726047529774006
1.30110e-05;-0.011749007735646858
1.30113e-05;-0.011771967941519556
1.30115e-05;-0.01179492814739241
1.30118e-05;-0.011817888353265265
1.30120e-05;-0.01184028659223881
1.30123e-05;-0.011859723604811892
1.30125e-05;-0.011879160617384976
1.30128e-05;-0.011898597629957928
1.30130e-05;-0.01191803464253101
1.30133e-05;-0.011937471655104094
1.30135e-05;-0.011956908667677046
1.30138e-05;-0.011976345680250128
1.30140e-05;-0.011995782692823212
1.30143e-05;-0.012013686349653942
1.30145e-05;-0.012023510147131506
1.30148e-05;-0.012033333944609138
1.30150e-05;-0.01204315774208677
1.30153e-05;-0.012052981539564333
1.30155e-05;-0.012062805337041965
1.30158e-05;-0.012072629134519595
1.30160e-05;-0.01208245293199716
1.30163e-05;-0.01209227672947479
1.30165e-05;-0.012100121024257912
1.30168e-05;-0.012097534534507647
1.30170e-05;-0.012094948044757366
1.30173e-05;-0.012092361555007085
1.30175e-05;-0.012089775065256821
1.30178e-05;-0.01208718857550654
1.30180e-05;-0.012084602085756258
1.30183e-05;-0.012082015596005994
1.30185e-05;-0.012079429106255713
1.30188e-05;-0.012075377742587342
1.30190e-05;-0.012063607377448573
1.30193e-05;-0.012051837012309725
1.30195e-05;-0.012040066647170876
1.30198e-05;-0.012028296282032107
1.30200e-05;-0.01201652591689326
1.30203e-05;-0.01200475555175441
1.30205e-05;-0.01199298518661564
1.30208e-05;-0.011981214821476792
1.30210e-05;-0.011969136973112967
1.30213e-05;-0.011955438873725044
1.30215e-05;-0.011941740774337028
1.30218e-05;-0.011928042674949011
1.30220e-05;-0.011914344575561087
1.30223e-05;-0.01190064647617307
1.30225e-05;-0.011886948376785054
1.30228e-05;-0.011873250277397038
1.30230e-05;-0.011859552178009113
1.30233e-05;-0.01184723197474285
1.30235e-05;-0.011842172452455247
1.30238e-05;-0.011837112930167678
1.30240e-05;-0.011832053407880074
1.30243e-05;-0.01182699388559247
1.30245e-05;-0.011821934363304901
1.30248e-05;-0.011816874841017297
1.30250e-05;-0.011811815318729693
1.30253e-05;-0.011806755796442124
1.30255e-05;-0.01180169627415452
1.30258e-05;-0.011796636751866917
1.30260e-05;-0.011791577229579348
1.30263e-05;-0.011786517707291744
1.30265e-05;-0.01178145818500414
1.30268e-05;-0.011776398662716571
1.30270e-05;-0.011777709491909963
1.30273e-05;-0.011782309261991421
1.30275e-05;-0.011786909032072848
1.30278e-05;-0.011791508802154307
1.30280e-05;-0.011796108572235765
1.30283e-05;-0.011800708342317194
1.30285e-05;-0.011805308112398652
1.30288e-05;-0.01180990788248011
1.30290e-05;-0.011814507652561538
1.30293e-05;-0.011819107422642996
1.30295e-05;-0.011823707192724455
1.30298e-05;-0.011828306962805882
1.30300e-05;-0.011832906732887342
1.30303e-05;-0.0118375065029688
1.30305e-05;-0.011842669391033137
1.30308e-05;-0.011850799571017366
1.30310e-05;-0.011858929751001593
1.30313e-05;-0.011867059930985822
1.30315e-05;-0.011875190110969996
1.30318e-05;-0.011883320290954225
1.30320e-05;-0.011891450470938454
1.30323e-05;-0.011899599007531797
1.30325e-05;-0.011907844272377031
1.30328e-05;-0.011916089537222266
1.30330e-05;-0.011924334802067445
1.30333e-05;-0.01193258006691268
1.30335e-05;-0.011940825331757915
1.30338e-05;-0.011949070596603094
1.30340e-05;-0.01195656510000763
1.30343e-05;-0.011960103543714563
1.30345e-05;-0.011963641987421472
1.30348e-05;-0.011967180431128405
1.30350e-05;-0.011970718874835336
1.30353e-05;-0.011974257318542245
1.30355e-05;-0.011977795762249178
1.30358e-05;-0.011981334205956111
1.30360e-05;-0.011982997272684053
1.30363e-05;-0.011974778234547736
1.30365e-05;-0.011966559196411418
1.30368e-05;-0.011958340158275156
1.30370e-05;-0.01195012112013884
1.30373e-05;-0.011941902082002522
1.30375e-05;-0.01193368304386626
1.30378e-05;-0.011925464005729943
1.30380e-05;-0.011915453195107647
1.30383e-05;-0.011896000824842826
1.30385e-05;-0.011876548454577876
1.30388e-05;-0.011857096084312926
1.30390e-05;-0.011837643714048105
1.30393e-05;-0.011818191343783155
1.30395e-05;-0.011798738973518203
1.30398e-05;-0.011779286603253253
1.30400e-05;-0.011759834232988434
1.30403e-05;-0.011736995893270303
1.30405e-05;-0.011712409415569901
1.30408e-05;-0.011687822937869666
1.30410e-05;-0.011663236460169264
1.30413e-05;-0.011638649982468862
1.30415e-05;-0.011614063504768627
1.30418e-05;-0.011589477027068225
1.30420e-05;-0.011564890549367823
1.30423e-05;-0.011541013835921508
1.30425e-05;-0.011520877151742185
1.30428e-05;-0.01150074046756286
1.30430e-05;-0.011480603783383673
1.30433e-05;-0.011460467099204348
1.30435e-05;-0.011440330415025025
1.30438e-05;-0.011420193730845837
1.30440e-05;-0.011400057046666513
1.30443e-05;-0.011387488271818434
1.30445e-05;-0.011378826723521881
1.30448e-05;-0.011370165175225272
1.30450e-05;-0.01136150362692866
1.30453e-05;-0.01135284207863211
1.30455e-05;-0.011344180530335498
1.30458e-05;-0.011335518982038889
1.30460e-05;-0.011328043798402177
1.30463e-05;-0.011328088926704737
1.30465e-05;-0.01133482031931349
1.30468e-05;-0.011341551711922198
1.30470e-05;-0.011348283104530952
1.30473e-05;-0.011355014497139706
1.30475e-05;-0.011361745889748413
1.30478e-05;-0.011368477282357167
1.30480e-05;-0.011375208674965921
1.30482e-05;-0.011381940067574628
1.30485e-05;-0.011390395505369907
1.30488e-05;-0.011407935620819083
1.30490e-05;-0.011425475736268259
1.30493e-05;-0.011443015851717317
1.30495e-05;-0.011460555967166495
1.30498e-05;-0.011478096082615671
1.30500e-05;-0.01149563619806473
1.30503e-05;-0.011513176313513906
1.30505e-05;-0.011530716428963084
1.30508e-05;-0.011548890715786912
1.30510e-05;-0.011570406703027263
1.30513e-05;-0.011591922690267615
1.30515e-05;-0.01161343867750782
1.30518e-05;-0.011634954664748171
1.30520e-05;-0.011656470651988523
1.30523e-05;-0.011677986639228727
1.30525e-05;-0.011698363216181625
1.30528e-05;-0.011718151528405866
1.30530e-05;-0.011737939840629973
1.30533e-05;-0.011757728152854214
1.30535e-05;-0.011777516465078455
1.30538e-05;-0.011797304777302562
1.30540e-05;-0.011816814695047934
1.30543e-05;-0.011834857641903162
1.30545e-05;-0.011852900588758266
1.30548e-05;-0.011870943535613493
1.30550e-05;-0.01188898648246872
1.30553e-05;-0.011907029429323826
1.30555e-05;-0.011925072376179053
1.30558e-05;-0.01194311532303428
1.30560e-05;-0.01196516948295068
1.30563e-05;-0.011989294587099863
1.30565e-05;-0.012013419691249045
1.30567e-05;-0.012037544795398064
1.30570e-05;-0.012061669899547248
1.30573e-05;-0.01208579500369643
1.30575e-05;-0.012109920107845612
1.30578e-05;-0.01213511848165837
1.30580e-05;-0.012165972338873003
1.30583e-05;-0.012196826196087638
1.30585e-05;-0.012227680053302064
1.30588e-05;-0.012258533910516697
1.30590e-05;-0.012289387767731332
1.30593e-05;-0.012320241624945757
1.30595e-05;-0.012353797447474411
1.30598e-05;-0.012388748264334977
1.30600e-05;-0.012423699081195306
1.30603e-05;-0.012458649898055871
1.30605e-05;-0.012493600714916437
1.30608e-05;-0.012528551531776767
1.30610e-05;-0.01256362334500083
1.30613e-05;-0.012599332736038454
1.30615e-05;-0.012635042127075835
1.30618e-05;-0.01267054354728154
1.30620e-05;-0.012704949086714701
1.30623e-05;-0.01273935462614763
1.30625e-05;-0.012773386857937516
1.30628e-05;-0.012805451983740668
1.30630e-05;-0.012837517109543605
1.30633e-05;-0.012868277338939388
1.30635e-05;-0.012892161551780546
1.30638e-05;-0.012916045764621542
1.30640e-05;-0.012939929977462702
1.30643e-05;-0.01296381419030386
1.30645e-05;-0.012987698403144857
1.30648e-05;-0.013011582615986015
1.30650e-05;-0.013035466828827173
1.30652e-05;-0.01305935104166817
1.30655e-05;-0.013083235254509327
1.30658e-05;-0.013107119467350485
1.30660e-05;-0.013131003680191645
1.30663e-05;-0.013150268645815685
1.30665e-05;-0.013167148746003733
1.30668e-05;-0.013184028846191782
1.30670e-05;-0.013200908946379715
1.30673e-05;-0.013217789046567762
1.30675e-05;-0.013234669146755812
1.30678e-05;-0.013251549246943745
1.30680e-05;-0.013268429347131792
1.30683e-05;-0.013285309447319841
1.30685e-05;-0.013302189547507774
1.30688e-05;-0.013319069647695822
1.30690e-05;-0.013335641664120426
1.30693e-05;-0.013350590265041254
1.30695e-05;-0.013365538865962184
1.30698e-05;-0.013380487466883114
1.30700e-05;-0.013395436067803941
1.30703e-05;-0.013410384668724872
1.30705e-05;-0.013425333269645802
1.30708e-05;-0.01344028187056663
1.30710e-05;-0.01345523047148756
1.30713e-05;-0.01346983029997658
1.30715e-05;-0.013481922200064472
1.30718e-05;-0.013494014100152446
1.30720e-05;-0.01350610600024042
1.30723e-05;-0.013518197900328311
1.30725e-05;-0.013530289800416284
1.30728e-05;-0.013542381700504258
1.30730e-05;-0.01355447360059215
1.30733e-05;-0.013566565500680123
1.30735e-05;-0.013578611380710945
1.30737e-05;-0.013590176183169931
1.30740e-05;-0.013601793741449932
1.30743e-05;-0.013612064832464079
1.30745e-05;-0.013622030071424412
1.30748e-05;-0.01362868902783289
1.30750e-05;-0.013635017528386955
1.30753e-05;-0.01363777377754654
1.30755e-05;-0.013640256585428135
1.30758e-05;-0.013639783473560228
1.30760e-05;-0.013638902795528873
1.30763e-05;-0.013633616298154521
1.30765e-05;-0.013628329800780135
1.30768e-05;-0.01362226835298521
1.30770e-05;-0.0136078296357826
1.30773e-05;-0.013593390918579893
1.30775e-05;-0.013578952201377188
1.30778e-05;-0.013564513484174577
1.30780e-05;-0.013550074766971872
1.30783e-05;-0.013529972253664618
1.30785e-05;-0.013505846427035057
1.30788e-05;-0.01348172060040533
1.30790e-05;-0.013457594773775606
1.30793e-05;-0.013433468947146044
1.30795e-05;-0.013408787595803847
1.30798e-05;-0.013378100982631555
1.30800e-05;-0.01334741436945947
1.30803e-05;-0.013316727756287177
1.30805e-05;-0.013286041143114885
1.30808e-05;-0.0132553545299428
1.30810e-05;-0.013224553940189801
1.30813e-05;-0.01319252125545633
1.30815e-05;-0.013160488570723078
1.30818e-05;-0.013128455885989607
1.30820e-05;-0.013096423201256136
1.30822e-05;-0.013064390516522884
1.30825e-05;-0.013032628749600499
1.30828e-05;-0.01300379562357212
1.30830e-05;-0.01297496249754374
1.30833e-05;-0.012946946246235559
1.30835e-05;-0.012927760469014152
1.30838e-05;-0.012908574691792744
1.30840e-05;-0.012889388914571467
1.30843e-05;-0.01287020313735006
1.30845e-05;-0.012851017360128654
1.30848e-05;-0.012831831582907375
1.30850e-05;-0.012812645805685969
1.30853e-05;-0.012793460028464562
1.30855e-05;-0.012774274251243284
1.30858e-05;-0.012755088474021877
1.30860e-05;-0.012739605793247432
1.30863e-05;-0.012726753630415213
1.30865e-05;-0.01271390146758291
1.30868e-05;-0.012701049304750604
1.30870e-05;-0.012688197141918385
1.30873e-05;-0.01267534497908608
1.30875e-05;-0.012662492816253774
1.30878e-05;-0.012649640653421555
1.30880e-05;-0.01263678849058925
1.30883e-05;-0.012623936327756944
1.30885e-05;-0.012611220715420483
1.30888e-05;-0.012599981223700188
1.30890e-05;-0.012588741731979894
1.30893e-05;-0.012577502240259674
1.30895e-05;-0.01256626274853938
1.30898e-05;-0.012555023256819084
1.30900e-05;-0.012543783765098866
1.30903e-05;-0.01253254427337857
1.30905e-05;-0.012521304781658275
1.30907e-05;-0.012510065289938055
1.30910e-05;-0.012499798970238441
1.30913e-05;-0.012490813281517323
1.30915e-05;-0.012481827592796204
1.30918e-05;-0.012472841904075146
1.30920e-05;-0.012463856215354029
1.30923e-05;-0.01245487052663291
1.30925e-05;-0.012445884837911852
1.30928e-05;-0.012436899149190734
1.30930e-05;-0.012427913460469616
1.30933e-05;-0.012418927771748559
1.30935e-05;-0.012412612077561714
1.30938e-05;-0.012407054254877266
1.30940e-05;-0.012401496432192858
1.30943e-05;-0.01240053256735381
1.30945e-05;-0.012400872686358061
1.30948e-05;-0.01240121280536231
1.30950e-05;-0.01240155292436656
1.30953e-05;-0.012401893043370811
1.30955e-05;-0.012402233162375058
1.30958e-05;-0.012402573281379309
1.30960e-05;-0.012405817102975787
1.30963e-05;-0.012416568166600752
1.30965e-05;-0.012427319230225789
1.30968e-05;-0.012438070293850826
1.30970e-05;-0.01244882135747579
1.30973e-05;-0.012459572421100828
1.30975e-05;-0.012470323484725866
1.30978e-05;-0.01248107454835083
1.30980e-05;-0.012498725077022845
1.30983e-05;-0.012518334002191177
1.30985e-05;-0.012537942927359375
1.30988e-05;-0.012557551852527705
1.30990e-05;-0.012577160777696036
1.30992e-05;-0.012596769702864235
1.30995e-05;-0.012617842561216466
1.30998e-05;-0.012642700277134933
1.31000e-05;-0.012667557993053401
1.31003e-05;-0.0126924157089717
1.31005e-05;-0.012717273424890168
1.31008e-05;-0.012742131140808636
1.31010e-05;-0.012766988856726934
1.31013e-05;-0.012792984674718821
1.31015e-05;-0.012819303540236596
1.31018e-05;-0.012845622405754193
1.31020e-05;-0.012871537940411494
1.31023e-05;-0.012897338990577783
1.31025e-05;-0.012923140040743897
1.31028e-05;-0.012948003008132493
1.31030e-05;-0.012972599702989375
1.31033e-05;-0.012995986767972298
1.31035e-05;-0.013019030482436009
1.31038e-05;-0.013040431494141578
1.31040e-05;-0.013061366228634932
1.31043e-05;-0.01307972392557124
1.31045e-05;-0.013097350136618412
1.31048e-05;-0.013114976347665465
1.31050e-05;-0.013129242193624024
1.31053e-05;-0.01314255420806472
1.31055e-05;-0.013155866222505325
1.31058e-05;-0.01316562612043517
1.31060e-05;-0.013174377758668832
1.31063e-05;-0.013183129396902435
1.31065e-05;-0.013186305326377483
1.31068e-05;-0.013187898604382058
1.31070e-05;-0.013189491882386623
1.31073e-05;-0.0131910851603912
1.31075e-05;-0.013192678438395776
1.31077e-05;-0.013194271716400342
1.31080e-05;-0.013193564293909594
1.31083e-05;-0.013186908632950196
1.31085e-05;-0.013180252971990799
1.31088e-05;-0.013173597311031446
1.31090e-05;-0.01316694165007205
1.31093e-05;-0.013160285989112652
1.31095e-05;-0.0131536303281533
1.31098e-05;-0.013142823450716129
1.31100e-05;-0.013130838260503402
1.31103e-05;-0.013118853070290757
1.31105e-05;-0.01310686788007803
1.31108e-05;-0.013094882689865304
1.31110e-05;-0.013082897499652657
1.31113e-05;-0.01307091230943993
1.31115e-05;-0.013058298080603648
1.31118e-05;-0.013045505300672734
1.31120e-05;-0.013032712520741735
1.31123e-05;-0.013019919740810734
1.31125e-05;-0.013007126960879821
1.31128e-05;-0.01299433418094882
1.31130e-05;-0.012981541401017819
1.31133e-05;-0.012970807936712516
1.31135e-05;-0.012960659004176074
1.31138e-05;-0.01295051007163963
1.31140e-05;-0.01294467755308606
1.31143e-05;-0.012940070238221257
1.31145e-05;-0.012935462923356454
1.31148e-05;-0.012930855608491682
1.31150e-05;-0.01292624829362688
1.31153e-05;-0.012921640978762076
1.31155e-05;-0.012917033663897305
1.31158e-05;-0.012914720668905276
1.31160e-05;-0.012918339415901208
1.31162e-05;-0.012921958162897117
1.31165e-05;-0.01292557690989305
1.31168e-05;-0.012929195656888982
1.31170e-05;-0.012932814403884914
1.31173e-05;-0.012936433150880822
1.31175e-05;-0.012940051897876755
1.31178e-05;-0.012949099838889037
1.31180e-05;-0.01295968884351626
1.31183e-05;-0.012970277848143556
1.31185e-05;-0.012980866852770853
1.31188e-05;-0.012991455857398077
1.31190e-05;-0.013002044862025372
1.31193e-05;-0.013012633866652667
1.31195e-05;-0.013026638126119542
1.31198e-05;-0.013041611797428127
1.31200e-05;-0.013056585468736713
1.31203e-05;-0.013071559140045198
1.31205e-05;-0.013086532811353782
1.31208e-05;-0.013101506482662369
1.31210e-05;-0.013116480153970853
1.31213e-05;-0.013132520772888678
1.31215e-05;-0.013148864242309748
1.31218e-05;-0.013165207711730706
1.31220e-05;-0.013181509107069214
1.31223e-05;-0.013197798559780956
1.31225e-05;-0.013214088012492586
1.31228e-05;-0.013229777305015166
1.31230e-05;-0.013245296243516842
1.31233e-05;-0.013260815182018413
1.31235e-05;-0.013273679294271586
1.31238e-05;-0.013285789840502856
1.31240e-05;-0.013297900386734044
1.31243e-05;-0.013310010932965313
1.31245e-05;-0.013322121479196583
1.31247e-05;-0.01333423202542777
1.31250e-05;-0.01334634257165904
1.31253e-05;-0.01335845311789031
1.31255e-05;-0.013370563664121581
1.31258e-05;-0.013382674210352769
1.31260e-05;-0.013394784756584038
1.31263e-05;-0.013406895302815308
1.31265e-05;-0.013418228748411545
1.31268e-05;-0.01342755307552279
1.31270e-05;-0.013436877402634034
1.31273e-05;-0.013446201729745215
1.31275e-05;-0.01345552605685646
1.31278e-05;-0.013464850383967704
1.31280e-05;-0.013474174711078885
1.31283e-05;-0.01348349903819013
1.31285e-05;-0.013492823365301373
1.31288e-05;-0.013502147692412553
1.31290e-05;-0.013511472019523798
1.31293e-05;-0.013520796346635042
1.31295e-05;-0.013530120673746223
1.31298e-05;-0.013538633863324838
1.31300e-05;-0.013546916813472825
1.31303e-05;-0.013555199763620756
1.31305e-05;-0.013563482713768742
1.31308e-05;-0.013571765663916728
1.31310e-05;-0.013580048614064658
1.31313e-05;-0.013588331564212644
1.31315e-05;-0.01359661451436063
1.31318e-05;-0.013604320940765266
1.31320e-05;-0.013611863722297076
1.31323e-05;-0.013619406503828887
1.31325e-05;-0.013626949285360648
1.31328e-05;-0.013634492066892458
1.31330e-05;-0.01364203484842427
1.31332e-05;-0.013649577629956028
1.31335e-05;-0.013657120411487839
1.31338e-05;-0.013664179099265195
1.31340e-05;-0.01367110037819888
1.31343e-05;-0.013678021657132517
1.31345e-05;-0.013684454489820452
1.31348e-05;-0.013690748678220562
1.31350e-05;-0.013697042866620629
1.31353e-05;-0.013702707152807785
1.31355e-05;-0.01370819264277227
1.31358e-05;-0.01371367813273672
1.31360e-05;-0.013718194467972034
1.31363e-05;-0.013722435710976833
1.31365e-05;-0.013726676953981602
1.31368e-05;-0.013730918196986401
1.31370e-05;-0.0137351594399912
1.31373e-05;-0.01373940068299597
1.31375e-05;-0.013742395662658937
1.31378e-05;-0.013745036893480547
1.31380e-05;-0.013747678124302137
1.31383e-05;-0.013750319355123747
1.31385e-05;-0.013752960585945356
1.31388e-05;-0.013755601816766948
1.31390e-05;-0.013757294929900696
1.31393e-05;-0.013758718922117283
1.31395e-05;-0.013760142914333862
1.31398e-05;-0.013761566906550449
1.31400e-05;-0.013762990898767036
1.31403e-05;-0.013764414890983612
1.31405e-05;-0.013765389609376172
1.31408e-05;-0.013766236802478213
1.31410e-05;-0.01376708399558025
1.31413e-05;-0.013767931188682291
1.31415e-05;-0.013768778381784334
1.31418e-05;-0.01376962557488637
1.31420e-05;-0.013770486429974986
1.31423e-05;-0.013771351162985517
1.31425e-05;-0.013772346833442606
1.31428e-05;-0.013773379670177848
1.31430e-05;-0.013774616348588902
1.31433e-05;-0.013775910886967618
1.31435e-05;-0.013778082848023959
1.31438e-05;-0.013780503863389516
1.31440e-05;-0.013782924878755072
1.31443e-05;-0.013785345894120614
1.31445e-05;-0.01378776690948617
1.31448e-05;-0.013790187924851727
1.31450e-05;-0.013792608940217268
1.31453e-05;-0.013795029955582827
1.31455e-05;-0.013797450970948383
1.31458e-05;-0.013799871986313925
1.31460e-05;-0.013802293001679481
1.31463e-05;-0.013805505049365063
1.31465e-05;-0.013808941629665372
1.31468e-05;-0.013812378209965703
1.31470e-05;-0.013815814790266034
1.31473e-05;-0.013819251370566343
