Time(s);Current(A)
7.50000e-07;-0.014697457606761107
7.50250e-07;-0.01471274200719441
7.50500e-07;-0.014727410971411966
7.50750e-07;-0.014741004090049767
7.51000e-07;-0.01475389213432256
7.51250e-07;-0.014765547636343867
7.51500e-07;-0.014776464174340715
7.51750e-07;-0.014786088927488079
7.52000e-07;-0.01479475465975557
7.52250e-07;-0.014801743925237202
7.52500e-07;-0.014808733190718829
7.52750e-07;-0.014814544225706666
7.53000e-07;-0.014818295593037217
7.53250e-07;-0.014822046960367768
7.53500e-07;-0.014824420449455146
7.53750e-07;-0.014824385266157883
7.54000e-07;-0.01482435008286062
7.54250e-07;-0.014824314899563356
7.54500e-07;-0.014824279716266093
7.54750e-07;-0.014820845722894493
7.55000e-07;-0.01481687621912091
7.55250e-07;-0.014812906715347325
7.55500e-07;-0.014808937211573744
7.55750e-07;-0.014804044628786905
7.56000e-07;-0.014797538409280641
7.56250e-07;-0.014791032189774378
7.56500e-07;-0.014784082524074118
7.56750e-07;-0.014776357668978973
7.57000e-07;-0.014768389316680626
7.57250e-07;-0.014759995306315617
7.57500e-07;-0.014751487765591426
7.57750e-07;-0.014742743466848734
7.58000e-07;-0.014733922395969054
7.58250e-07;-0.01472510210625547
7.58500e-07;-0.014716359982848874
7.58750e-07;-0.014707775527064709
7.59000e-07;-0.01469942951043758
7.59250e-07;-0.014691406939423403
7.59500e-07;-0.014683797135622133
7.59750e-07;-0.014676688321148977
7.60000e-07;-0.014670169564074497
7.60250e-07;-0.014664330017836473
7.60500e-07;-0.014659261376311022
7.60750e-07;-0.014655077697977258
7.61000e-07;-0.014651940872517717
7.61250e-07;-0.014650003784418872
7.61500e-07;-0.014649333382960957
7.61750e-07;-0.014649938639900878
7.62000e-07;-0.014652052206464688
7.62250e-07;-0.014655382615991513
7.62500e-07;-0.014659650244050616
7.62750e-07;-0.01466555622615754
7.63000e-07;-0.014672699237317406
7.63250e-07;-0.014682004702042105
7.63500e-07;-0.014691310166766806
7.63750e-07;-0.014702528353601658
7.64000e-07;-0.014717090174715584
7.64250e-07;-0.014731651995829516
7.64500e-07;-0.01474621381694345
7.64750e-07;-0.014760775638057382
7.65000e-07;-0.014775337459171315
7.65250e-07;-0.014794612672923773
7.65500e-07;-0.014814630520342558
7.65750e-07;-0.014834648367761343
7.66000e-07;-0.01485466621518013
7.66250e-07;-0.014874684062598915
7.66500e-07;-0.014895888830167753
7.66750e-07;-0.014919168455803624
7.67000e-07;-0.014942448081439503
7.67250e-07;-0.014965727707075382
7.67500e-07;-0.014989007332711263
7.67750e-07;-0.015012286958347143
7.68000e-07;-0.015035566583983024
7.68250e-07;-0.015058498269279517
7.68500e-07;-0.015081375133721977
7.68750e-07;-0.015104251998164436
7.69000e-07;-0.015127128862606896
7.69250e-07;-0.015150005727049354
7.69500e-07;-0.015172882591491804
7.69750e-07;-0.015192837626357994
7.70000e-07;-0.015207685003673158
7.70250e-07;-0.015222532380988321
7.70500e-07;-0.015237379758303485
7.70750e-07;-0.015252227135618648
7.71000e-07;-0.015267074512933805
7.71250e-07;-0.015281921890248969
7.71500e-07;-0.015296769267564132
7.71750e-07;-0.015311616644879296
7.72000e-07;-0.01532646402219446
7.72250e-07;-0.015341311399509618
7.72500e-07;-0.015356158776824782
7.72750e-07;-0.015371006154139945
7.73000e-07;-0.015385853531455109
7.73250e-07;-0.015400700908770272
7.73500e-07;-0.015415548286085436
7.73750e-07;-0.015427691988731222
7.74000e-07;-0.015435109390961425
7.74250e-07;-0.015442526793191629
7.74500e-07;-0.015449944195421832
7.74750e-07;-0.015457361597652035
7.75000e-07;-0.015464778999882238
7.75250e-07;-0.015472196402112438
7.75500e-07;-0.01547961380434264
7.75750e-07;-0.015487031206572844
7.76000e-07;-0.015494448608803047
7.76250e-07;-0.01550186601103325
7.76500e-07;-0.01550928341326345
7.76750e-07;-0.015516700815493653
7.77000e-07;-0.015524118217723856
7.77250e-07;-0.01553153561995406
7.77500e-07;-0.015538953022184263
7.77750e-07;-0.015545558509639417
7.78000e-07;-0.015550744686856457
7.78250e-07;-0.015555930864073501
7.78500e-07;-0.015561117041290545
7.78750e-07;-0.015566303218507589
7.79000e-07;-0.015571489395724633
7.79250e-07;-0.015576675572941675
7.79500e-07;-0.015581510467809678
7.79750e-07;-0.015586290015262605
7.80000e-07;-0.015591069562715531
7.80250e-07;-0.015595849110168458
7.80500e-07;-0.015600628657621383
7.80750e-07;-0.015605408205074308
7.81000e-07;-0.015609357063463971
7.81250e-07;-0.015611853792235581
7.81500e-07;-0.015614350521007193
7.81750e-07;-0.015616847249778805
7.82000e-07;-0.015619343978550415
7.82250e-07;-0.015621840707322025
7.82500e-07;-0.015624337436093637
7.82750e-07;-0.01562683416486525
7.83000e-07;-0.01562933089363686
7.83250e-07;-0.015631827622408473
7.83500e-07;-0.01563084341033159
7.83750e-07;-0.01562931074747564
7.84000e-07;-0.015627778084619688
7.84250e-07;-0.01562624542176374
7.84500e-07;-0.015624712758907786
7.84750e-07;-0.015623180096051835
7.85000e-07;-0.015621647433195884
7.85250e-07;-0.015620114770339932
7.85500e-07;-0.01561858210748398
7.85750e-07;-0.015616114680586874
7.86000e-07;-0.015612013190343941
7.86250e-07;-0.015607911700101007
7.86500e-07;-0.015603810209858076
7.86750e-07;-0.015599708719615142
7.87000e-07;-0.01559560722937221
7.87250e-07;-0.015591505739129275
7.87500e-07;-0.015587361930059959
7.87750e-07;-0.015582248278514722
7.88000e-07;-0.015577134626969483
7.88250e-07;-0.015572020975424242
7.88500e-07;-0.015566907323879001
7.88750e-07;-0.015561726032622224
7.89000e-07;-0.015555459982574446
7.89250e-07;-0.01554919393252667
7.89500e-07;-0.015542927882478892
7.89750e-07;-0.015536661832431114
7.90000e-07;-0.015530474379604012
7.90250e-07;-0.015525248262976557
7.90500e-07;-0.015520038089347044
7.90750e-07;-0.015515022917282743
7.91000e-07;-0.015510261390221021
7.91250e-07;-0.015508602239054344
7.91500e-07;-0.015507341029339615
7.91750e-07;-0.015510947110348526
7.92000e-07;-0.015514553191357435
7.92250e-07;-0.015518549670516104
7.92500e-07;-0.015527321176964691
7.92750e-07;-0.015536092683413279
7.93000e-07;-0.015545605204920744
7.93250e-07;-0.015564181209773596
7.93500e-07;-0.015582757214626439
7.93750e-07;-0.01560133321947929
7.94000e-07;-0.015619909224332143
7.94250e-07;-0.015638485229184994
7.94500e-07;-0.015657897203199253
7.94750e-07;-0.015687534060609527
7.95000e-07;-0.015717170918019784
7.95250e-07;-0.01574680777543006
7.95500e-07;-0.01577644463284033
7.95750e-07;-0.0158060814902506
7.96000e-07;-0.015836267032814686
7.96250e-07;-0.01587316363839146
7.96500e-07;-0.015910060243968245
7.96750e-07;-0.015946956849545033
7.97000e-07;-0.01598385345512182
7.97250e-07;-0.01602075006069861
7.97500e-07;-0.016057646666275398
7.97750e-07;-0.01609451306512507
7.98000e-07;-0.016131010000271263
7.98250e-07;-0.01616750693541746
7.98500e-07;-0.016204003870563654
7.98750e-07;-0.01624050080570985
7.99000e-07;-0.016276997740856048
7.99250e-07;-0.016313494676002228
7.99500e-07;-0.01634897716521148
7.99750e-07;-0.01637205179071493
8.00000e-07;-0.016395126416218382
8.00250e-07;-0.01641820104172183
8.00500e-07;-0.01644127566722527
8.00750e-07;-0.01646435029272872
8.01000e-07;-0.01648742491823217
8.01250e-07;-0.01651049954373562
8.01500e-07;-0.01653357416923907
8.01750e-07;-0.01655664879474252
8.02000e-07;-0.016579723420245957
8.02250e-07;-0.016593347538842028
8.02500e-07;-0.016600003036052396
8.02750e-07;-0.01660665853326276
8.03000e-07;-0.016613314030473128
8.03250e-07;-0.016619969527683492
8.03500e-07;-0.016626625024893857
8.03750e-07;-0.016633280522104225
8.04000e-07;-0.01663993601931459
8.04250e-07;-0.016646591516524957
8.04500e-07;-0.01665324701373532
8.04750e-07;-0.016659067037855732
8.05000e-07;-0.016654668246115393
8.05250e-07;-0.016650269454375054
8.05500e-07;-0.016645870662634718
8.05750e-07;-0.01664147187089438
8.06000e-07;-0.01663707307915404
8.06250e-07;-0.016632674287413704
8.06500e-07;-0.01662827549567337
8.06750e-07;-0.01662387670393303
8.07000e-07;-0.01661947791219269
8.07250e-07;-0.016615079120452354
8.07500e-07;-0.016610680328712015
8.07750e-07;-0.01660602106428346
8.08000e-07;-0.01659817591335576
8.08250e-07;-0.016590330762428055
8.08500e-07;-0.01658248561150035
8.08750e-07;-0.01657464046057265
8.09000e-07;-0.01656679530964495
8.09250e-07;-0.016558950158717247
8.09500e-07;-0.016551105007789547
8.09750e-07;-0.016543259856861843
8.10000e-07;-0.01653541470593414
8.10250e-07;-0.01652756955500644
8.10500e-07;-0.01651972440407874
8.10750e-07;-0.01651218422852468
8.11000e-07;-0.016508374259512126
8.11250e-07;-0.01650456429049957
8.11500e-07;-0.016500754321487017
8.11750e-07;-0.016496944352474466
8.12000e-07;-0.01649313438346191
8.12250e-07;-0.016489324414449356
8.12500e-07;-0.016485514445436805
8.12750e-07;-0.01648170447642425
8.13000e-07;-0.016477894507411696
8.13250e-07;-0.016474084538399145
8.13500e-07;-0.01647027456938659
8.13750e-07;-0.016466464600374035
8.14000e-07;-0.016463027852909474
8.14250e-07;-0.016464156042748323
8.14500e-07;-0.016465284232587172
8.14750e-07;-0.01646641242242602
8.15000e-07;-0.016467540612264873
8.15250e-07;-0.016468668802103723
8.15500e-07;-0.01646979699194257
8.15750e-07;-0.01647092518178142
8.16000e-07;-0.01647205337162027
8.16250e-07;-0.01647318156145912
8.16500e-07;-0.016474309751297968
8.16750e-07;-0.01647543794113682
8.17000e-07;-0.01647656613097567
8.17250e-07;-0.01647781341030098
8.17500e-07;-0.016480517293732153
8.17750e-07;-0.01648322117716333
8.18000e-07;-0.016485925060594504
8.18250e-07;-0.01648862894402568
8.18500e-07;-0.01649133282745685
8.18750e-07;-0.01649374587950607
8.19000e-07;-0.016495944478107667
8.19250e-07;-0.01649814307670927
8.19500e-07;-0.01650034167531087
8.19750e-07;-0.016502540273912472
8.20000e-07;-0.01650466702504031
8.20250e-07;-0.016505914997290295
8.20500e-07;-0.01650704408334372
8.20750e-07;-0.01650671905176518
8.21000e-07;-0.01650596767697019
8.21250e-07;-0.016500001624557205
8.21500e-07;-0.01649339414509831
8.21750e-07;-0.016478941260503716
8.22000e-07;-0.016464488375909116
8.22250e-07;-0.016449339536634744
8.22500e-07;-0.016425678355304063
8.22750e-07;-0.016402017173973382
8.23000e-07;-0.016377492419453313
8.23250e-07;-0.016342405151895546
8.23500e-07;-0.016307317884337768
8.23750e-07;-0.016271231850722122
8.24000e-07;-0.016222929736712268
8.24250e-07;-0.01617462762270241
8.24500e-07;-0.016126325508692578
8.24750e-07;-0.016078023394682724
8.25000e-07;-0.016022039806172728
8.25250e-07;-0.0159603920466292
8.25500e-07;-0.015898744287085674
8.25750e-07;-0.015837096527542144
8.26000e-07;-0.015774888811744773
8.26250e-07;-0.01570583217415961
8.26500e-07;-0.015636620400294274
8.26750e-07;-0.015565425957655286
8.27000e-07;-0.015493107852572562
8.27250e-07;-0.01541972462252271
8.27500e-07;-0.015345539603987404
8.27750e-07;-0.015270973527332943
8.28000e-07;-0.015196455661877713
8.28250e-07;-0.015122414416006038
8.28500e-07;-0.015049275734504326
8.28750e-07;-0.014977426419737296
8.29000e-07;-0.014907138499256279
8.29250e-07;-0.014838638246232836
8.29500e-07;-0.014772284512013904
8.29750e-07;-0.01470853148418993
8.30000e-07;-0.014647840887592384
8.30250e-07;-0.014590671934639088
8.30500e-07;-0.014537483290911616
8.30750e-07;-0.01448870732319233
8.31000e-07;-0.014444652245506263
8.31250e-07;-0.014405460859004389
8.31500e-07;-0.014371212028279592
8.31750e-07;-0.014341992929439383
8.32000e-07;-0.014317897203732737
8.32250e-07;-0.01429901346758127
8.32500e-07;-0.014285431355389601
8.32750e-07;-0.014277425214269583
8.33000e-07;-0.014276828702160542
8.33250e-07;-0.014277007061984473
8.33500e-07;-0.014286663014438086
8.33750e-07;-0.014297480533756544
8.34000e-07;-0.014322505378297034
8.34250e-07;-0.014347530222837522
8.34500e-07;-0.014372555067378001
8.34750e-07;-0.01439757991191849
8.35000e-07;-0.014433019012835306
8.35250e-07;-0.014476137385394855
8.35500e-07;-0.014519255757954404
8.35750e-07;-0.014562374130513936
8.36000e-07;-0.014606329234776966
8.36250e-07;-0.014660518549221825
8.36500e-07;-0.014714707863666686
8.36750e-07;-0.01476932443637862
8.37000e-07;-0.014829166878851396
8.37250e-07;-0.014889009321324146
8.37500e-07;-0.014949030902559638
8.37750e-07;-0.015011243560984811
8.38000e-07;-0.015073456219409984
8.38250e-07;-0.01513562831058948
8.38500e-07;-0.015197304216770815
8.38750e-07;-0.015258810345861486
8.39000e-07;-0.01531823990199285
8.39250e-07;-0.015377370870056847
8.39500e-07;-0.015432849755826691
8.39750e-07;-0.01548708482690573
8.40000e-07;-0.015526106585377931
8.40250e-07;-0.015565128343850149
8.40500e-07;-0.015604150102322365
8.40750e-07;-0.015643171860794582
8.41000e-07;-0.0156821936192668
8.41250e-07;-0.015721215377739017
8.41500e-07;-0.01576023713621122
8.41750e-07;-0.015799258894683435
8.42000e-07;-0.015824595617106006
8.42250e-07;-0.0158398412580851
8.42500e-07;-0.015855086899064192
8.42750e-07;-0.01587033254004329
8.43000e-07;-0.015885578181022375
8.43250e-07;-0.01590082382200147
8.43500e-07;-0.01591606946298056
8.43750e-07;-0.01593131510395966
8.44000e-07;-0.015945194065030244
8.44250e-07;-0.015942356927765883
8.44500e-07;-0.015939519790501518
8.44750e-07;-0.015936682653237156
8.45000e-07;-0.01593384551597279
8.45250e-07;-0.015931008378708426
8.45500e-07;-0.015928171241444064
8.45750e-07;-0.0159253341041797
8.46000e-07;-0.015922496966915337
8.46250e-07;-0.015913645603162913
8.46500e-07;-0.01590035946488081
8.46750e-07;-0.015887073326598708
8.47000e-07;-0.015873787188316613
8.47250e-07;-0.01586050105003451
8.47500e-07;-0.015847214911752408
8.47750e-07;-0.015833928773470306
8.48000e-07;-0.015820642635188203
8.48250e-07;-0.015807166777507903
8.48500e-07;-0.015791370429055342
8.48750e-07;-0.015775574080602775
8.49000e-07;-0.015759777732150208
8.49250e-07;-0.01574398138369764
8.49500e-07;-0.015728350279315538
8.49750e-07;-0.015714740303739136
8.50000e-07;-0.01570113032816274
8.50250e-07;-0.015687520352586342
8.50500e-07;-0.01567391037700994
8.50750e-07;-0.01566050576714399
8.51000e-07;-0.015649613020801655
8.51250e-07;-0.01563872027445933
8.51500e-07;-0.015627827528116995
8.51750e-07;-0.01561693478177466
8.52000e-07;-0.015606042035432326
8.52250e-07;-0.015595149289089992
8.52500e-07;-0.015584256542747657
8.52750e-07;-0.015573363796405329
8.53000e-07;-0.015562471050062995
8.53250e-07;-0.015551578303720661
8.53500e-07;-0.015540685557378326
8.53750e-07;-0.015529792811035992
8.54000e-07;-0.015519344430958513
8.54250e-07;-0.015509036246853505
8.54500e-07;-0.015498728062748494
8.54750e-07;-0.015488419878643482
8.55000e-07;-0.015478111694538471
8.55250e-07;-0.01546780351043346
8.55500e-07;-0.015457495326328454
8.55750e-07;-0.015447187142223442
8.56000e-07;-0.015436878958118431
8.56250e-07;-0.01542657077401342
8.56500e-07;-0.015416262589908409
8.56750e-07;-0.015405954405803397
8.57000e-07;-0.015395693173764923
8.57250e-07;-0.015385490556974538
8.57500e-07;-0.015375287940184154
8.57750e-07;-0.015365085323393769
8.58000e-07;-0.015354882706603385
8.58250e-07;-0.015344680089813
8.58500e-07;-0.01533447747302262
8.58750e-07;-0.01532507430092727
8.59000e-07;-0.015316152609566631
8.59250e-07;-0.015307230918205992
8.59500e-07;-0.015298309226845353
8.59750e-07;-0.015289387535484719
8.60000e-07;-0.01528046584412408
8.60250e-07;-0.01527154415276344
8.60500e-07;-0.01526406286482729
8.60750e-07;-0.015256933900959467
8.61000e-07;-0.015249804937091643
8.61250e-07;-0.01524746014100274
8.61500e-07;-0.015246285556971636
8.61750e-07;-0.01524511097294053
8.62000e-07;-0.015243936388909425
8.62250e-07;-0.015242761804878319
8.62500e-07;-0.015241587220847215
8.62750e-07;-0.01524041263681611
8.63000e-07;-0.015242073121196159
8.63250e-07;-0.015250240695999194
8.63500e-07;-0.015258408270802227
8.63750e-07;-0.015266575845605262
8.64000e-07;-0.015274743420408292
8.64250e-07;-0.015282910995211327
8.64500e-07;-0.015291078570014362
8.64750e-07;-0.015299246144817395
8.65000e-07;-0.01531384640165722
8.65250e-07;-0.015330020098733958
8.65500e-07;-0.01534619379581069
8.65750e-07;-0.015362367492887427
8.66000e-07;-0.015378541189964165
8.66250e-07;-0.015394714887040903
8.66500e-07;-0.01541088858411764
8.66750e-07;-0.015427062281194372
8.67000e-07;-0.015445777545578526
8.67250e-07;-0.015465114479779945
8.67500e-07;-0.015484451413981365
8.67750e-07;-0.015503788348182784
8.68000e-07;-0.015523125282384203
8.68250e-07;-0.015542462216585614
8.68500e-07;-0.015561799150787033
8.68750e-07;-0.015581136084988453
8.69000e-07;-0.015597170534392179
8.69250e-07;-0.015612397192825854
8.69500e-07;-0.015627623851259532
8.69750e-07;-0.0156428505096932
8.70000e-07;-0.015658077168126876
8.70250e-07;-0.015673303826560552
8.70500e-07;-0.015688530484994228
8.70750e-07;-0.015703757143427904
8.71000e-07;-0.0157064359123323
8.71250e-07;-0.015706045455342894
8.71500e-07;-0.015705654998353486
8.71750e-07;-0.01570526454136408
8.72000e-07;-0.01570487408437467
8.72250e-07;-0.015704483627385264
8.72500e-07;-0.015704093170395856
8.72750e-07;-0.01570370271340645
8.73000e-07;-0.015688004400912205
8.73250e-07;-0.015668561772181778
8.73500e-07;-0.01564911914345135
8.73750e-07;-0.015629676514720924
8.74000e-07;-0.015610233885990506
8.74250e-07;-0.015586497663188887
8.74500e-07;-0.015552906720567654
8.74750e-07;-0.015519315777946421
8.75000e-07;-0.015485724835325189
8.75250e-07;-0.015452133892703971
8.75500e-07;-0.015418542950082739
8.75750e-07;-0.015376902650910412
8.76000e-07;-0.015333293471354042
8.76250e-07;-0.015289684291797672
8.76500e-07;-0.015246075112241303
8.76750e-07;-0.015202465932684952
8.77000e-07;-0.015155150921262484
8.77250e-07;-0.015106929459787588
8.77500e-07;-0.015058707998312692
8.77750e-07;-0.015010486536837796
8.78000e-07;-0.014962265075362902
8.78250e-07;-0.014913935036995254
8.78500e-07;-0.014865578440614782
8.78750e-07;-0.014818411625485237
8.79000e-07;-0.014771535831998403
8.79250e-07;-0.01472599087244539
8.79500e-07;-0.014681935027255134
8.79750e-07;-0.014642378354457909
8.80000e-07;-0.014603852566344434
8.80250e-07;-0.014565326778230959
8.80500e-07;-0.014526800990117484
8.80750e-07;-0.014494501162666288
8.81000e-07;-0.014463724211204272
8.81250e-07;-0.014432947259742241
8.81500e-07;-0.014402170308280211
8.81750e-07;-0.014376011209053671
8.82000e-07;-0.014350981640942475
8.82250e-07;-0.014325952072831293
8.82500e-07;-0.014300922504720096
8.82750e-07;-0.014275892936608902
8.83000e-07;-0.014250863368497707
8.83250e-07;-0.014225833800386513
8.83500e-07;-0.014200804232275318
8.83750e-07;-0.014177236220854423
8.84000e-07;-0.014157022795694968
8.84250e-07;-0.014136809370535514
8.84500e-07;-0.014116595945376058
8.84750e-07;-0.014096382520216603
8.85000e-07;-0.01407616909505715
8.85250e-07;-0.014055955669897702
8.85500e-07;-0.014035742244738247
8.85750e-07;-0.014015528819578793
8.86000e-07;-0.013997542804601887
8.86250e-07;-0.013980101616306204
8.86500e-07;-0.01396266042801053
8.86750e-07;-0.013945219239714847
8.87000e-07;-0.013927778051419164
8.87250e-07;-0.013910336863123483
8.87500e-07;-0.0138928956748278
8.87750e-07;-0.013875454486532117
8.88000e-07;-0.013858013298236443
8.88250e-07;-0.013843399316206057
8.88500e-07;-0.013829476871557844
8.88750e-07;-0.013815554426909632
8.89000e-07;-0.013801631982261418
8.89250e-07;-0.013787709537613206
8.89500e-07;-0.013773787092965
8.89750e-07;-0.013759864648316786
8.90000e-07;-0.013745942203668572
8.90250e-07;-0.01373201975902036
8.90500e-07;-0.013720645075858661
8.90750e-07;-0.013709893577616447
8.91000e-07;-0.013699142079374227
8.91250e-07;-0.013688185549646001
8.91500e-07;-0.013677178869018336
8.91750e-07;-0.013666172188390672
8.92000e-07;-0.013654700819614063
8.92250e-07;-0.013643115787667567
8.92500e-07;-0.013631530755721068
8.92750e-07;-0.01361900973758084
8.93000e-07;-0.013606259776313925
8.93250e-07;-0.013593509815047011
8.93500e-07;-0.013580759853780095
8.93750e-07;-0.013568009892513186
8.94000e-07;-0.013555259931246271
8.94250e-07;-0.013540774560534223
8.94500e-07;-0.013525864706996345
8.94750e-07;-0.01351095485345847
8.95000e-07;-0.013496044999920598
8.95250e-07;-0.01348113514638272
8.95500e-07;-0.013466225292844842
8.95750e-07;-0.01345009911870068
8.96000e-07;-0.01343367543136185
8.96250e-07;-0.01341725174402302
8.96500e-07;-0.013400828056684199
8.96750e-07;-0.01338440436934537
8.97000e-07;-0.013367726712348326
8.97250e-07;-0.013350986934127671
8.97500e-07;-0.013334247155907019
8.97750e-07;-0.013317507377686364
