Time(s);Current(A)
4.00000e-06;0.003222223855475756
4.00025e-06;0.0032211884354672172
4.00050e-06;0.003213968667648369
4.00075e-06;0.0032067488998294962
4.00100e-06;0.0031904410285023685
4.00125e-06;0.003168110008638882
4.00150e-06;0.0031457789887753204
4.00175e-06;0.003115251279686514
4.00200e-06;0.00307929120765589
4.00225e-06;0.003043331135625144
4.00250e-06;0.0029967940777083277
4.00275e-06;0.0029432471131592124
4.00300e-06;0.002889700148609916
4.00325e-06;0.0028361531840608006
4.00350e-06;0.0027826062195116853
4.00375e-06;0.0027290592549623887
4.00400e-06;0.002674130037061203
4.00425e-06;0.002606953130812295
4.00450e-06;0.0025397762245636148
4.00475e-06;0.002472599318314934
4.00500e-06;0.002405422412066026
4.00525e-06;0.002338245505817346
4.00550e-06;0.0022710685995686658
4.00575e-06;0.0022041025907067646
4.00600e-06;0.0021372763542724838
4.00625e-06;0.002070450117838203
4.00650e-06;0.0020036238814036956
4.00675e-06;0.0019367976449694148
4.00700e-06;0.0018769932353932912
4.00725e-06;0.0018218425476985546
4.00750e-06;0.0017666918600040052
4.00775e-06;0.0017115411723094556
4.00800e-06;0.0016563904846147192
4.00825e-06;0.0016095896154179978
4.00850e-06;0.0015683225957213245
4.00875e-06;0.0015270555760247908
4.00900e-06;0.0014899956788753126
4.00925e-06;0.0014557240558672434
4.00950e-06;0.0014214524328592902
4.00975e-06;0.001392279953466783
4.01000e-06;0.0013664869359576125
4.01025e-06;0.0013406939184485295
4.01050e-06;0.001319122306279021
4.01075e-06;0.0013003484341841077
4.01100e-06;0.001281574562089258
4.01125e-06;0.0012661419765926892
4.01150e-06;0.0012529238317064487
4.01175e-06;0.001239705686820253
4.01200e-06;0.0012301414863276875
4.01225e-06;0.0012229989406722934
4.01250e-06;0.0012158563950169237
4.01275e-06;0.00121117345357949
4.01300e-06;0.0012081206169850078
4.01325e-06;0.0012050677803905256
4.01350e-06;0.0012054706094236447
4.01375e-06;0.0012081636838685737
4.01400e-06;0.0012108567583135029
4.01425e-06;0.0012135498327584412
4.01450e-06;0.0012162429072033703
4.01475e-06;0.0012189359816482995
4.01500e-06;0.0012216290560932378
4.01525e-06;0.0012247019540605143
4.01550e-06;0.0012311403422392618
4.01575e-06;0.001237578730418031
4.01600e-06;0.0012440171185967783
4.01625e-06;0.0012504555067755255
4.01650e-06;0.0012568938949542947
4.01675e-06;0.0012633322831330422
4.01700e-06;0.0012697706713118114
4.01725e-06;0.0012756344090996937
4.01750e-06;0.001281117296839337
4.01775e-06;0.0012866001845789987
4.01800e-06;0.001292083072318642
4.01825e-06;0.0012975659600582853
4.01850e-06;0.001303048847797947
4.01875e-06;0.0013085317355375904
4.01900e-06;0.0013140146232772335
4.01925e-06;0.0013197317092713402
4.01950e-06;0.0013275239482939474
4.01975e-06;0.0013353161873165544
4.02000e-06;0.001343108426339188
4.02025e-06;0.001350900665361795
4.02050e-06;0.0013586929043844023
4.02075e-06;0.0013664851434070358
4.02100e-06;0.001374277382429643
4.02125e-06;0.00138206962145225
4.02150e-06;0.001392574659882256
4.02175e-06;0.0014048776084877046
4.02200e-06;0.0014171805570931948
4.02225e-06;0.0014294835056986434
4.02250e-06;0.001441786454304092
4.02275e-06;0.0014540894029095822
4.02300e-06;0.0014663923515150308
4.02325e-06;0.0014786953001204794
4.02350e-06;0.0014909982487259696
4.02375e-06;0.0015033011973314182
4.02400e-06;0.0015157828498425117
4.02425e-06;0.0015298479383693908
4.02450e-06;0.001543913026896222
4.02475e-06;0.0015579781154230535
4.02500e-06;0.0015720432039499324
4.02525e-06;0.0015861082924767639
4.02550e-06;0.0016001733810035953
4.02575e-06;0.0016142384695304742
4.02600e-06;0.0016283035580573057
4.02625e-06;0.0016423686465841846
4.02650e-06;0.001656433735111016
4.02675e-06;0.001665957647778396
4.02700e-06;0.0016724718921808663
4.02725e-06;0.0016789861365833147
4.02750e-06;0.001685500380985763
4.02775e-06;0.0016920146253882335
4.02800e-06;0.0016985288697906817
4.02825e-06;0.00170504311419313
4.02850e-06;0.0017115573585956005
4.02875e-06;0.001718071602998049
4.02900e-06;0.0017245858474004973
4.02925e-06;0.0017311000918029675
4.02950e-06;0.001737614336205416
4.02975e-06;0.0017441285806078643
4.03000e-06;0.0017506428250103347
4.03025e-06;0.001757157069412783
4.03050e-06;0.0017535379339395467
4.03075e-06;0.0017432028921086095
4.03100e-06;0.0017328678502776724
4.03125e-06;0.0017225328084467004
4.03150e-06;0.0017121977666157634
4.03175e-06;0.0017018627247848263
4.03200e-06;0.0016915276829538542
4.03225e-06;0.001681192641122917
4.03250e-06;0.0016708575992919802
4.03275e-06;0.001660522557461008
4.03300e-06;0.001650187515630071
4.03325e-06;0.0016398524737991338
4.03350e-06;0.0016295174319681618
4.03375e-06;0.0016191823901372247
4.03400e-06;0.0016088473483062877
4.03425e-06;0.001593969127557288
4.03450e-06;0.00157607991101504
4.03475e-06;0.0015581906944727314
4.03500e-06;0.0015403014779304834
4.03525e-06;0.0015224122613882354
4.03550e-06;0.001504523044845927
4.03575e-06;0.001486633828303679
4.03600e-06;0.0014689258327122813
4.03625e-06;0.0014528235758379869
4.03650e-06;0.0014367213189637473
4.03675e-06;0.0014206190620895075
4.03700e-06;0.001404516805215213
4.03725e-06;0.0013884145483409732
4.03750e-06;0.0013723122914667334
4.03775e-06;0.0013562100345924392
4.03800e-06;0.0013443009908800892
4.03825e-06;0.00133517100285049
4.03850e-06;0.0013260410148208598
4.03875e-06;0.0013169110267912607
4.03900e-06;0.0013077810387616305
4.03925e-06;0.0012986510507320313
4.03950e-06;0.001289521062702432
4.03975e-06;0.001280391074672802
4.04000e-06;0.001271261086643203
4.04025e-06;0.0012621310986136037
4.04050e-06;0.0012530011105839735
4.04075e-06;0.0012438711225543743
4.04100e-06;0.0012380066196369865
4.04125e-06;0.0012343063198275975
4.04150e-06;0.0012306060200182212
4.04175e-06;0.0012269057202088447
4.04200e-06;0.0012232054203994557
4.04225e-06;0.0012195051205900794
4.04250e-06;0.001215804820780703
4.04275e-06;0.0012121045209713141
4.04300e-06;0.0012084042211619377
4.04325e-06;0.0012047039213525486
4.04350e-06;0.0012010036215431724
4.04375e-06;0.001197303321733796
4.04400e-06;0.001195153778451203
4.04425e-06;0.001194032000410079
4.04450e-06;0.0011929102223689546
4.04475e-06;0.0011917884443278268
4.04500e-06;0.0011906666662867026
4.04525e-06;0.0011895448882455785
4.04550e-06;0.0011884231102044505
4.04575e-06;0.0011873013321633263
4.04600e-06;0.0011861795541222022
4.04625e-06;0.0011851170584957047
4.04650e-06;0.0011845798446753287
4.04675e-06;0.0011840426308549526
4.04700e-06;0.001183505417034575
4.04725e-06;0.001182968203214199
4.04750e-06;0.0011824309893938212
4.04775e-06;0.0011818937755734451
4.04800e-06;0.0011813565617530691
4.04825e-06;0.0011808193479326914
4.04850e-06;0.0011802821341123154
4.04875e-06;0.0011763078652397875
4.04900e-06;0.0011700556851321512
4.04925e-06;0.001163803505024536
4.04950e-06;0.0011575513249169208
4.04975e-06;0.0011512991448092843
4.05000e-06;0.001145046964701669
4.05025e-06;0.0011387947845940538
4.05050e-06;0.0011325426044864176
4.05075e-06;0.0011262904243788023
4.05100e-06;0.0011200382442711871
4.05125e-06;0.0011137860641635506
4.05150e-06;0.0011021539876691021
4.05175e-06;0.001086956380149776
4.05200e-06;0.0010717587726305018
4.05225e-06;0.0010565611651112273
4.05250e-06;0.0010413635575919015
4.05275e-06;0.001026165950072627
4.05300e-06;0.0010109683425533525
4.05325e-06;0.0009957707350340267
4.05350e-06;0.0009805731275147522
4.05375e-06;0.0009653755199954779
4.05400e-06;0.000950177912476152
4.05425e-06;0.0009327380676185253
4.05450e-06;0.0009138121780084322
4.05475e-06;0.000894886288398275
4.05500e-06;0.000875960398788182
4.05525e-06;0.000857034509178089
4.05550e-06;0.0008381086195679318
4.05575e-06;0.000819326185908541
4.05600e-06;0.0008018148678289231
4.05625e-06;0.0007843035497493644
4.05650e-06;0.0007667922316698057
4.05675e-06;0.0007492809135901877
4.05700e-06;0.000731769595510629
4.05725e-06;0.0007142582774310704
4.05750e-06;0.0006988655206097799
4.05775e-06;0.0006848768421109654
4.05800e-06;0.0006708881636121509
4.05825e-06;0.0006588766483418049
4.05850e-06;0.0006481754997262757
4.05875e-06;0.0006374743511107466
4.05900e-06;0.000628682814183145
4.05925e-06;0.0006211568740678918
4.05950e-06;0.0006136309339526387
4.05975e-06;0.0006081836885833354
4.06000e-06;0.0006041140999705703
4.06025e-06;0.0006000445113577914
4.06050e-06;0.0005979746770571016
4.06075e-06;0.0005972301816714647
4.06100e-06;0.0005964856862858253
4.06125e-06;0.0005975395508369771
4.06150e-06;0.0005997852800052331
4.06175e-06;0.0006020310091734969
4.06200e-06;0.0006059749903727814
4.06225e-06;0.0006110444895872716
4.06250e-06;0.0006161139888017791
4.06275e-06;0.0006232737150170018
4.06300e-06;0.0006318187410005611
4.06325e-06;0.0006403637669841492
4.06350e-06;0.0006489087929677084
4.06375e-06;0.0006574538189512677
4.06400e-06;0.0006659988449348559
4.06425e-06;0.0006745438709184151
4.06450e-06;0.0006845813286924503
4.06475e-06;0.000695607896937593
4.06500e-06;0.0007066344651827357
4.06525e-06;0.0007176610334279158
4.06550e-06;0.0007286876016730585
4.06575e-06;0.0007397141699182012
4.06600e-06;0.0007507407381633813
4.06625e-06;0.0007611525612175808
4.06650e-06;0.0007711569613601824
4.06675e-06;0.0007811613615028179
4.06700e-06;0.0007911657616454194
4.06725e-06;0.0008011701617880209
4.06750e-06;0.0008111745619306564
4.06775e-06;0.000821178962073258
4.06800e-06;0.0008281998388969374
4.06825e-06;0.0008332433830382642
4.06850e-06;0.0008382869271795737
4.06875e-06;0.0008433304713209005
4.06900e-06;0.00084837401546221
4.06925e-06;0.0008534175596035196
4.06950e-06;0.0008584611037448463
4.06975e-06;0.0008586766062919717
4.07000e-06;0.0008556923200608191
4.07025e-06;0.0008527080338296564
4.07050e-06;0.0008497237475985039
4.07075e-06;0.0008467394613673513
4.07100e-06;0.0008437551751361886
4.07125e-06;0.0008407708889050361
4.07150e-06;0.0008377866026738835
4.07175e-06;0.0008340148967575253
4.07200e-06;0.0008232661262860801
4.07225e-06;0.0008125173558146348
4.07250e-06;0.0008017685853431531
4.07275e-06;0.0007910198148717078
4.07300e-06;0.000780271044400226
4.07325e-06;0.0007695222739287808
4.07350e-06;0.0007587735034573355
4.07375e-06;0.0007480247329858538
4.07400e-06;0.0007349604970494795
4.07425e-06;0.0007203616843564621
4.07450e-06;0.0007057628716633953
4.07475e-06;0.0006911640589703778
4.07500e-06;0.0006765652462773604
4.07525e-06;0.0006619664335842936
4.07550e-06;0.0006473851310466807
4.07575e-06;0.0006329589801859896
4.07600e-06;0.0006185328293252498
4.07625e-06;0.0006041066784645588
4.07650e-06;0.0005896805276038679
4.07675e-06;0.000575254376743128
4.07700e-06;0.000560828225882437
4.07725e-06;0.0005478125259121237
4.07750e-06;0.0005357316034997481
4.07775e-06;0.0005236506810873724
4.07800e-06;0.000513201591053597
4.07825e-06;0.0005038339993521491
4.07850e-06;0.0004944664076507011
4.07875e-06;0.0004868404502122929
4.07900e-06;0.0004803687624008661
4.07925e-06;0.000475375527396974
4.07950e-06;0.00047136213828080734
4.07975e-06;0.0004688531770506769
4.08000e-06;0.00046734127671419526
4.08025e-06;0.000467372635605793
4.08050e-06;0.00046842679089685113
4.08075e-06;0.0004710319769354311
4.08100e-06;0.00047466510995476413
4.08125e-06;0.00048010312293591027
4.08150e-06;0.00048673732168599154
4.08175e-06;0.0004933715204360503
4.08200e-06;0.0005019645855043652
4.08225e-06;0.0005118558909336388
4.08250e-06;0.0005217471963628788
4.08275e-06;0.000533336893850802
4.08300e-06;0.0005460522021569629
4.08325e-06;0.0005587675104630807
4.08350e-06;0.0005732266497118097
4.08375e-06;0.0005888415144387238
4.08400e-06;0.0006044563791655852
4.08425e-06;0.0006200712438924465
4.08450e-06;0.0006356861086193607
4.08475e-06;0.000651300973346222
4.08500e-06;0.0006677018992587199
4.08525e-06;0.00068462378790762
4.08550e-06;0.0007015456765564628
4.08575e-06;0.000718467565205363
4.08600e-06;0.0007353894538542057
4.08625e-06;0.0007523113425030485
4.08650e-06;0.0007676060338460836
4.08675e-06;0.000781822298755483
4.08700e-06;0.0007960385636648825
4.08725e-06;0.00081025482857433
4.08750e-06;0.0008244710934837295
4.08775e-06;0.0008386873583931288
4.08800e-06;0.0008529036233025763
4.08825e-06;0.0008632349736583136
4.08850e-06;0.0008709915935055602
4.08875e-06;0.0008787482133528331
4.08900e-06;0.0008865048332000797
4.08925e-06;0.0008942614530473263
4.08950e-06;0.0009020180728945991
4.08975e-06;0.0009097746927418457
4.09000e-06;0.0009150160458201944
4.09025e-06;0.0009156685418345555
4.09050e-06;0.0009143845713800548
4.09075e-06;0.0009131006009255497
4.09100e-06;0.0009118166304710488
4.09125e-06;0.0009105326600165481
4.09150e-06;0.000909248689562043
4.09175e-06;0.0009079647191075422
4.09200e-06;0.0009066807486530413
4.09225e-06;0.0009053967781985363
4.09250e-06;0.0009001274807804683
4.09275e-06;0.000892216904441899
4.09300e-06;0.0008843063281033028
4.09325e-06;0.0008763957517647336
4.09350e-06;0.0008684851754261642
4.09375e-06;0.0008605745990875681
4.09400e-06;0.0008526640227489988
4.09425e-06;0.0008447534464104026
4.09450e-06;0.0008368428700718333
4.09475e-06;0.0008274574378787995
4.09500e-06;0.0008170945436820802
4.09525e-06;0.000806731649485396
4.09550e-06;0.0007963687552887119
4.09575e-06;0.0007860058610919926
4.09600e-06;0.0007756429668953084
4.09625e-06;0.0007657497128530278
4.09650e-06;0.0007561677132325727
4.09675e-06;0.00074658571361215
4.09700e-06;0.0007370037139917273
4.09725e-06;0.000727421714371272
4.09750e-06;0.0007178397147508493
4.09775e-06;0.0007096818927433015
4.09800e-06;0.0007024679456905201
4.09825e-06;0.0006952539986377631
4.09850e-06;0.0006908037952680483
4.09875e-06;0.000688185265434195
4.09900e-06;0.0006890493915072588
4.09925e-06;0.0006922216508193925
4.09950e-06;0.0006986664549588579
4.09975e-06;0.0007072801410361547
4.10000e-06;0.0007189939807359983
4.10025e-06;0.0007327624499523003
4.10050e-06;0.0007502728007577318
4.10075e-06;0.0007702630868491421
4.10100e-06;0.0007942306580542515
4.10125e-06;0.0008208341784364473
4.10150e-06;0.0008501066324731122
4.10175e-06;0.0008767290948274601
4.10200e-06;0.0009026928300977289
4.10225e-06;0.0009406443104148272
4.10250e-06;0.000982015482856235
4.10275e-06;0.00102566343983958
4.10300e-06;0.0010766894290058565
4.10325e-06;0.0011250559614972985
4.10350e-06;0.0011729559883559243
4.10375e-06;0.0012227762780502808
4.10400e-06;0.0012752455135427393
4.10425e-06;0.0013297402291568585
4.10450e-06;0.0013842349447707929
4.10475e-06;0.0014387296603847273
4.10500e-06;0.0014944960559085021
4.10525e-06;0.001550295712420552
4.10550e-06;0.001606095368932602
4.10575e-06;0.0016518204457115343
4.10600e-06;0.0017144919110352909
4.10625e-06;0.001766551717608185
4.10650e-06;0.0018186115241812556
4.10675e-06;0.0018703607576814926
4.10700e-06;0.001918837572284469
4.10725e-06;0.0019673143868872813
4.10750e-06;0.002014984450824703
4.10775e-06;0.0020541540156680136
4.10800e-06;0.0020933235805111914
4.10825e-06;0.002131673549830995
4.10850e-06;0.0021613876774929093
4.10875e-06;0.0021911018051547224
4.10900e-06;0.0022208159328165355
4.10925e-06;0.0022505300604784497
4.10950e-06;0.0022802441881402628
4.10975e-06;0.002309958315802076
4.11000e-06;0.00233967244346399
4.11025e-06;0.002369386571125803
4.11050e-06;0.002390740147734246
4.11075e-06;0.002411292711327115
4.11100e-06;0.0024318452749199147
4.11125e-06;0.0024523978385127838
4.11150e-06;0.002472950402105583
4.11175e-06;0.0024935029656983827
4.11200e-06;0.0025140555292912517
4.11225e-06;0.002534608092884051
4.11250e-06;0.002554574628173062
4.11275e-06;0.002563452197284134
4.11300e-06;0.002582566808628274
4.11325e-06;0.002598226182375817
4.11350e-06;0.0026083065296569796
4.11375e-06;0.002618386876938108
4.11400e-06;0.0026284672242192363
4.11425e-06;0.002638547571500399
4.11450e-06;0.002648627918781527
4.11475e-06;0.0026587082660626555
4.11500e-06;0.002668788613343818
4.11525e-06;0.0026788689606249464
4.11550e-06;0.002688949307906109
4.11575e-06;0.0026990296551872373
4.11600e-06;0.0027023625208335077
4.11625e-06;0.0027047966432540084
4.11650e-06;0.0027072307656745005
4.11675e-06;0.0027096648880949926
4.11700e-06;0.0027120990105154934
4.11725e-06;0.0027145331329359854
4.11750e-06;0.002716967255356478
4.11775e-06;0.0027194013777769783
4.11800e-06;0.0027218355001974704
4.11825e-06;0.002724269622617963
4.11850e-06;0.002718080899946413
4.11875e-06;0.002697969232865412
4.11900e-06;0.002677857565784411
4.11925e-06;0.002657745898703342
4.11950e-06;0.0026376342316223413
4.11975e-06;0.0026175225645412724
4.12000e-06;0.0025974108974602715
4.12025e-06;0.0025772992303792707
4.12050e-06;0.0025571875632982013
4.12075e-06;0.002537075896217201
4.12100e-06;0.0025169642291361996
4.12125e-06;0.002467264480456944
4.12150e-06;0.002413623692834177
4.12175e-06;0.0023599829052114102
4.12200e-06;0.0023063421175884614
4.12225e-06;0.0022527013299656943
4.12250e-06;0.002199060542342927
4.12275e-06;0.0021454197547199788
4.12300e-06;0.0020917789670972116
4.12325e-06;0.0020381381794744445
4.12350e-06;0.0019844973918514957
4.12375e-06;0.0019245426244542698
4.12400e-06;0.0018543929401291714
4.12425e-06;0.001784243255804311
4.12450e-06;0.0017140935714794504
4.12475e-06;0.001643943887154352
4.12500e-06;0.0015730372839983181
4.12525e-06;0.0015009085159193353
4.12550e-06;0.0014287797478401082
4.12575e-06;0.0013566509797611254
4.12600e-06;0.0012845222116821425
4.12625e-06;0.0012139529630055504
4.12650e-06;0.0011459018045550066
4.12675e-06;0.0010778506461044629
4.12700e-06;0.0010117893815880605
4.12725e-06;0.0009489411149082668
4.12750e-06;0.0008883845822580424
4.12775e-06;0.0008315284159193018
4.12800e-06;0.000777430284649105
4.12825e-06;0.0007277854363171278
4.12850e-06;0.0006802495616607917
4.12875e-06;0.0006361189578779591
4.12900e-06;0.0005932801099325897
4.12925e-06;0.0005534835839868226
4.12950e-06;0.0005162597555350034
4.12975e-06;0.0004817956954206884
4.13000e-06;0.00045027919034705977
4.13025e-06;0.0004217483757360453
4.13050e-06;0.0003958508301820035
4.13075e-06;0.00037208957496994425
4.13100e-06;0.0003502524979826461
4.13125e-06;0.0003303761541765885
4.13150e-06;0.00031253759644479654
4.13175e-06;0.0002968018273241577
4.13200e-06;0.00028323428948768284
4.13225e-06;0.00027180668314072333
4.13250e-06;0.00026224610266067293
4.13275e-06;0.0002541891112141884
4.13300e-06;0.00024745070353290015
4.13325e-06;0.00024200168336538011
4.13350e-06;0.00023783820386267398
4.13375e-06;0.0002349488700067702
4.13400e-06;0.00023353118603157568
4.13425e-06;0.00023322630157966855
4.13450e-06;0.00023353235196592299
4.13475e-06;0.0002348248530765109
4.13500e-06;0.00023655691293033462
4.13525e-06;0.00023899870975373935
4.13550e-06;0.00024144050657715237
4.13575e-06;0.00024421466557054034
4.13600e-06;0.0002475254757463961
4.13625e-06;0.00025083628592226313
4.13650e-06;0.00025414709609811886
4.13675e-06;0.00025681012373356745
4.13700e-06;0.00025938686878226625
4.13725e-06;0.000261963613830965
4.13750e-06;0.0002639196617321008
4.13775e-06;0.00026487349611957456
4.13800e-06;0.0002654654886035959
4.13825e-06;0.0002654732302224974
4.13850e-06;0.000266243068827079
4.13875e-06;0.0002693045876258685
4.13900e-06;0.0002751135244465452
4.13925e-06;0.0002835406309550462
4.13950e-06;0.0002943614332808276
4.13975e-06;0.00030734965598391015
4.14000e-06;0.00032230687090454056
4.14025e-06;0.000339288935085041
4.14050e-06;0.00035887588313787705
4.14075e-06;0.00038175881411379016
4.14100e-06;0.0004080930590266495
4.14125e-06;0.000437627001692442
4.14150e-06;0.0004700493850126922
4.14175e-06;0.0005050478264442033
4.14200e-06;0.000542746707022323
4.14225e-06;0.0005824296052270967
4.14250e-06;0.000624021730804449
4.14275e-06;0.000668696605320653
4.14300e-06;0.0007154796038442077
4.14325e-06;0.0007656665013171666
4.14350e-06;0.0008158533987899555
4.14375e-06;0.000867838515373795
4.14400e-06;0.0009227271405375659
4.14425e-06;0.0009776157657011507
4.14450e-06;0.0010325043908647358
4.14475e-06;0.0010873930160285067
4.14500e-06;0.0011426462447037052
4.14525e-06;0.001198488183296388
4.14550e-06;0.0012543301218888815
4.14575e-06;0.001310172060481375
4.14600e-06;0.0013660139990740578
4.14625e-06;0.0014200381249772991
4.14650e-06;0.0014711271053763713
4.14675e-06;0.0015222160857756165
4.14700e-06;0.0015707017115857184
4.14725e-06;0.001614983810507355
4.14750e-06;0.0016592659094291418
