Time(s);Current(A)
1.15500e-05;0.0008133965558497383
1.15503e-05;0.0007988455428402141
1.15505e-05;0.000785271555959093
1.15508e-05;0.0007754254026974874
1.15510e-05;0.0007655792494359484
1.15513e-05;0.0007557330961743428
1.15515e-05;0.0007458869429127371
1.15517e-05;0.0007360407896511981
1.15520e-05;0.0007261946363895925
1.15523e-05;0.0007163484831279868
1.15525e-05;0.000707257493706493
1.15528e-05;0.0007010478245172046
1.15530e-05;0.0006948381553279164
1.15532e-05;0.0006886284861386701
1.15535e-05;0.0006824188169493817
1.15538e-05;0.0006762091477600934
1.15540e-05;0.0006699994785708051
1.15543e-05;0.0006637898093815588
1.15545e-05;0.0006575801401922705
1.15548e-05;0.0006513704710029821
1.15550e-05;0.0006451608018137358
1.15553e-05;0.0006389511326244476
1.15555e-05;0.0006351057326451909
1.15558e-05;0.0006322370161616795
1.15560e-05;0.0006293682996781488
1.15563e-05;0.0006264995831946179
1.15565e-05;0.0006236308667111065
1.15568e-05;0.0006207621502275758
1.15570e-05;0.000617893433744045
1.15573e-05;0.0006150247172605337
1.15575e-05;0.0006121560007770029
1.15578e-05;0.000609287284293472
1.15580e-05;0.0006064185678099608
1.15583e-05;0.0006045717828304073
1.15585e-05;0.0006066241674919193
1.15588e-05;0.0006086765521534173
1.15590e-05;0.0006107289368149293
1.15593e-05;0.0006127813214764413
1.15595e-05;0.0006148337061379394
1.15598e-05;0.0006168860907994514
1.15600e-05;0.0006189384754609633
1.15602e-05;0.0006209908601224614
1.15605e-05;0.0006230432447839734
1.15608e-05;0.0006259364613971375
1.15610e-05;0.0006320378640840132
1.15613e-05;0.0006381392667709303
1.15615e-05;0.0006442406694578475
1.15617e-05;0.0006503420721447232
1.15620e-05;0.0006564434748316403
1.15623e-05;0.0006625448775185574
1.15625e-05;0.0006686462802054746
1.15628e-05;0.0006747476828923504
1.15630e-05;0.0006808490855792674
1.15633e-05;0.0006871934048639159
1.15635e-05;0.0006944645700473015
1.15638e-05;0.0007017357352307364
1.15640e-05;0.0007090069004141713
1.15643e-05;0.0007162780655975569
1.15645e-05;0.0007235492307809917
1.15648e-05;0.0007308203959644267
1.15650e-05;0.0007380915611478123
1.15653e-05;0.0007453627263312472
1.15655e-05;0.0007521877252161912
1.15658e-05;0.0007573103809600966
1.15660e-05;0.0007624330367040365
1.15663e-05;0.0007675556924479765
1.15665e-05;0.0007726783481918819
1.15668e-05;0.0007778010039358218
1.15670e-05;0.0007829236596797618
1.15673e-05;0.0007880463154236671
1.15675e-05;0.0007931689711676072
1.15678e-05;0.0007975530641012867
1.15680e-05;0.0007991191778674217
1.15683e-05;0.0008006852916335673
1.15685e-05;0.000802251405399713
1.15687e-05;0.0008038175191658479
1.15690e-05;0.0008053836329319935
1.15693e-05;0.0008069497466981391
1.15695e-05;0.0008085158604642742
1.15698e-05;0.0008100819742304198
1.15700e-05;0.0008116480879965653
1.15702e-05;0.0008132142017627003
1.15705e-05;0.000814780315528846
1.15708e-05;0.0008163464292949916
1.15710e-05;0.0008179125430611371
1.15713e-05;0.0008176225715181347
1.15715e-05;0.0008165658480835177
1.15718e-05;0.0008155091246489006
1.15720e-05;0.0008144524012142906
1.15723e-05;0.0008133956777796736
1.15725e-05;0.0008123389543450566
1.15728e-05;0.0008112822309104466
1.15730e-05;0.0008102255074758295
1.15733e-05;0.0008091687840412125
1.15735e-05;0.0008081120606066026
1.15738e-05;0.0008070553371719854
1.15740e-05;0.0008059986137373684
1.15743e-05;0.0008049418903027585
1.15745e-05;0.0008037680931668109
1.15748e-05;0.0008021476024701891
1.15750e-05;0.0008005271117735782
1.15753e-05;0.0007989066210769563
1.15755e-05;0.0007972861303803345
1.15758e-05;0.0007956656396837236
1.15760e-05;0.0007946408218319688
1.15763e-05;0.0007938620774114231
1.15765e-05;0.0007930833329908828
1.15768e-05;0.0007923045885703372
1.15770e-05;0.0007915258441497915
1.15772e-05;0.0007918586710116606
1.15775e-05;0.0007964326872139225
1.15778e-05;0.0008010067034161844
1.15780e-05;0.0008065036311262414
1.15783e-05;0.0008155219186545477
1.15785e-05;0.0008254178698201509
1.15787e-05;0.0008386625379970797
1.15790e-05;0.0008519072061740982
1.15793e-05;0.0008662914901193592
1.15795e-05;0.0008850239668660227
1.15798e-05;0.0009048147220020998
1.15800e-05;0.0009286433279681215
1.15803e-05;0.0009524719339341431
1.15805e-05;0.0009773444118993868
1.15808e-05;0.0010061997732542345
1.15810e-05;0.0010350551346090823
1.15813e-05;0.001065358199086265
1.15815e-05;0.0011011849606483556
1.15818e-05;0.0011370117222104462
1.15820e-05;0.0011728384837722942
1.15823e-05;0.0012086652453343848
1.15825e-05;0.0012444920068964754
1.15828e-05;0.0012803187684583234
1.15830e-05;0.0013190198291671259
1.15833e-05;0.0013589082675776098
1.15835e-05;0.0013987967059878234
1.15838e-05;0.0014386851443983072
1.15840e-05;0.0014785735828087912
1.15843e-05;0.0015184620212190048
1.15845e-05;0.001557560983933999
1.15848e-05;0.0015936477098647541
1.15850e-05;0.0016297344357952645
1.15853e-05;0.0016658211617260196
1.15855e-05;0.0017019078876567744
1.15857e-05;0.0017379946135872848
1.15860e-05;0.0017740813395180398
1.15863e-05;0.001801399464456726
1.15865e-05;0.0018250952659129528
1.15868e-05;0.00184879106736934
1.15870e-05;0.001872486868825727
1.15872e-05;0.0018961826702819538
1.15875e-05;0.0019198784717383412
1.15878e-05;0.0019410567094496848
1.15880e-05;0.001952629207346535
1.15883e-05;0.0019642017052433065
1.15885e-05;0.00197406787894745
1.15888e-05;0.0019774235894042336
1.15890e-05;0.0019807792998609948
1.15893e-05;0.001982532776373174
1.15895e-05;0.001978172944960531
1.15898e-05;0.001973813113547917
1.15900e-05;0.0019670011424904577
1.15903e-05;0.0019508330566322173
1.15905e-05;0.0019346649707740866
1.15908e-05;0.0019184968849158461
1.15910e-05;0.0019023287990576057
1.15913e-05;0.0018861607131994747
1.15915e-05;0.0018699926273412343
1.15918e-05;0.0018538245414829939
1.15920e-05;0.0018296150559589468
1.15923e-05;0.001802083655015151
1.15925e-05;0.001774552254071355
1.15928e-05;0.001747020853127746
1.15930e-05;0.00171948945218395
1.15933e-05;0.0016919580512401542
1.15935e-05;0.001664426650296545
1.15938e-05;0.0016363345569203626
1.15940e-05;0.0016061031470589668
1.15942e-05;0.0015758717371977759
1.15945e-05;0.0015456403273363803
1.15948e-05;0.0015154089174749844
1.15950e-05;0.0014851775076137935
1.15953e-05;0.0014559856222488413
1.15955e-05;0.0014307600324208966
1.15957e-05;0.0014055344425931227
1.15960e-05;0.001380308852765178
1.15963e-05;0.001355083262937233
1.15965e-05;0.0013298576731092882
1.15968e-05;0.0013063911053276477
1.15970e-05;0.0012896360689388132
1.15973e-05;0.001272881032549979
1.15975e-05;0.0012577004044781617
1.15978e-05;0.0012485269159232858
1.15980e-05;0.0012393534273684099
1.15983e-05;0.0012318059611306092
1.15985e-05;0.0012304625671218305
1.15988e-05;0.001229119173113052
1.15990e-05;0.0012294532703703458
1.15993e-05;0.0012361878191278499
1.15995e-05;0.001242922367885354
1.15998e-05;0.001251237231761026
1.16000e-05;0.001265581772496112
1.16003e-05;0.0012799263132311977
1.16005e-05;0.001295680178066689
1.16008e-05;0.001316811305208105
1.16010e-05;0.0013379424323495212
1.16013e-05;0.0013608328781476219
1.16015e-05;0.001390435987054597
1.16018e-05;0.0014200390959615723
1.16020e-05;0.0014496422048683468
1.16023e-05;0.001479245313775322
1.16025e-05;0.0015088484226822973
1.16027e-05;0.0015384515315890717
1.16030e-05;0.0015721875972941602
1.16033e-05;0.00160763099424645
1.16035e-05;0.0016430743911984996
1.16038e-05;0.0016785177881507895
1.16040e-05;0.0017139611851030793
1.16042e-05;0.001749404582055129
1.16045e-05;0.0017843444956407767
1.16048e-05;0.0018173633733705502
1.16050e-05;0.0018503822511003237
1.16053e-05;0.0018834011288298735
1.16055e-05;0.001916420006559647
1.16058e-05;0.0019494388842894205
1.16060e-05;0.0019824577620189705
1.16063e-05;0.0020068354533206993
1.16065e-05;0.0020276434563038476
1.16068e-05;0.002048451459286855
1.16070e-05;0.002069259462270003
1.16073e-05;0.0020900674652531517
1.16075e-05;0.002110875468236159
1.16078e-05;0.002128714387719488
1.16080e-05;0.002135224798177352
1.16083e-05;0.002141735208635172
1.16085e-05;0.0021462266695877084
1.16088e-05;0.0021430148484687037
1.16090e-05;0.00213980302734972
1.16093e-05;0.0021345246316292242
1.16095e-05;0.002121361240749365
1.16098e-05;0.0021081978498695944
1.16100e-05;0.002093151035519245
1.16103e-05;0.0020709180373567368
1.16105e-05;0.0020486850391943793
1.16108e-05;0.00202396753591124
1.16110e-05;0.0019897704276642812
1.16113e-05;0.0019555733194175536
1.16115e-05;0.0019213762111705945
1.16118e-05;0.0018871791029236352
1.16120e-05;0.001852981994676908
1.16123e-05;0.0018187848864299487
1.16125e-05;0.0017775114980964112
1.16127e-05;0.0017333148868264024
1.16130e-05;0.0016891182755560939
1.16133e-05;0.0016449216642857854
1.16135e-05;0.0016007250530154769
1.16138e-05;0.0015565284417454678
1.16140e-05;0.0015121318775971
1.16143e-05;0.0014669723951999608
1.16145e-05;0.0014218129128031277
1.16148e-05;0.0013766534304059887
1.16150e-05;0.0013314939480088496
1.16153e-05;0.0012876814677206057
1.16155e-05;0.0012490084607911483
1.16158e-05;0.0012103354538616912
1.16160e-05;0.0011716624469324962
1.16163e-05;0.0011329894400030388
1.16165e-05;0.0010961145850580931
1.16168e-05;0.001066100561407859
1.16170e-05;0.0010375418954208292
1.16173e-05;0.001014536132352034
1.16175e-05;0.000993119826646237
1.16178e-05;0.000977768079949258
1.16180e-05;0.000964031724534824
1.16183e-05;0.0009564588787461772
1.16185e-05;0.0009505297998524858
1.16188e-05;0.0009508724974561149
1.16190e-05;0.0009529110231955699
1.16193e-05;0.0009614199645870817
1.16195e-05;0.0009715744134863028
1.16198e-05;0.0009880072801732023
1.16200e-05;0.001005967552590924
1.16203e-05;0.0010297556266223962
1.16205e-05;0.0010549545639062334
1.16208e-05;0.0010855366361195256
1.16210e-05;0.0011174278545336817
1.16212e-05;0.0011543141074619571
1.16215e-05;0.0011925861741317657
1.16218e-05;0.0012361457995661445
1.16220e-05;0.0012797054250005234
1.16223e-05;0.0013248542876567306
1.16225e-05;0.0013760668693779498
1.16228e-05;0.001427279451099169
1.16230e-05;0.001478492032820041
1.16233e-05;0.0015297046145412601
1.16235e-05;0.0015809171962624794
1.16238e-05;0.0016341408179179424
1.16240e-05;0.0016881952034770679
1.16243e-05;0.0017422495890361933
1.16245e-05;0.0017963039745949524
1.16248e-05;0.0018503583601540779
1.16250e-05;0.001902205179850666
1.16253e-05;0.0019456290536062335
1.16255e-05;0.0019890529273620954
1.16258e-05;0.0020324768011179568
1.16260e-05;0.0020759006748735246
1.16263e-05;0.002119324548629386
1.16265e-05;0.002162748422385248
1.16268e-05;0.002206172296140815
1.16270e-05;0.002249596169896677
1.16273e-05;0.0022807109041992095
1.16275e-05;0.0023067407127553654
1.16278e-05;0.002332770521311698
1.16280e-05;0.00235880032986803
1.16283e-05;0.002384830138424186
1.16285e-05;0.0024108599469805183
1.16288e-05;0.0024368897555368508
1.16290e-05;0.0024629195640930067
1.16293e-05;0.002486380264479363
1.16295e-05;0.002500038557787337
1.16297e-05;0.0025136968510952183
1.16300e-05;0.002527355144403192
1.16303e-05;0.002541013437711166
1.16305e-05;0.0025546717310191394
1.16308e-05;0.002568330024327021
1.16310e-05;0.0025819883176349946
1.16313e-05;0.0025956466109429686
1.16315e-05;0.0026093049042508498
1.16318e-05;0.0026229631975588233
1.16320e-05;0.0026366214908667973
1.16323e-05;0.0026502797841746785
1.16325e-05;0.002662283052395111
1.16328e-05;0.002667971588590912
1.16330e-05;0.002673660124786674
1.16333e-05;0.002679348660982475
1.16335e-05;0.002685037197178276
1.16338e-05;0.0026907257333740383
1.16340e-05;0.002696414269569839
1.16343e-05;0.00270210280576564
1.16345e-05;0.002707791341961402
1.16348e-05;0.002713479878157203
1.16350e-05;0.002719168414353004
1.16353e-05;0.0027248569505487663
1.16355e-05;0.002730545486744567
1.16358e-05;0.002734657510889177
1.16360e-05;0.0027327543687300053
1.16363e-05;0.0027308512265708206
1.16365e-05;0.002728948084411636
1.16368e-05;0.002727044942252464
1.16370e-05;0.0027251418000932793
1.16373e-05;0.0027232386579340946
1.16375e-05;0.002721335515774923
1.16378e-05;0.002719432373615738
1.16380e-05;0.002717529231456554
1.16382e-05;0.0027156260892973816
1.16385e-05;0.0027137229471381973
1.16388e-05;0.0027118198049790126
1.16390e-05;0.002709916662819828
1.16393e-05;0.002708013520660656
1.16395e-05;0.002702799588194949
1.16398e-05;0.0026849533677115504
1.16400e-05;0.0026671071472282723
1.16403e-05;0.0026492609267448736
1.16405e-05;0.002631414706261475
1.16408e-05;0.0026135684857781973
1.16410e-05;0.0025957222652947987
1.16413e-05;0.0025778760448114
1.16415e-05;0.0025600298243281224
1.16418e-05;0.0025421836038447237
1.16420e-05;0.002524337383361325
1.16423e-05;0.002506491162878047
1.16425e-05;0.0024886449423946484
1.16428e-05;0.0024707987219112497
1.16430e-05;0.002452952501427972
1.16433e-05;0.0024340638978695124
1.16435e-05;0.002411198091887625
1.16438e-05;0.0023883322859058922
1.16440e-05;0.0023654664799240043
1.16443e-05;0.0023426006739421168
1.16445e-05;0.0023197348679603836
1.16448e-05;0.002296869061978496
1.16450e-05;0.0022740032559966086
1.16453e-05;0.0022511374500148755
1.16455e-05;0.0022293137767605757
1.16458e-05;0.0022114663507318603
1.16460e-05;0.0021936189247032663
1.16463e-05;0.002175771498674551
1.16465e-05;0.002157924072645836
1.16467e-05;0.0021400766466172414
1.16470e-05;0.002122229220588526
1.16473e-05;0.002104381794559811
1.16475e-05;0.0020865343685310955
1.16478e-05;0.0020674148109911914
1.16480e-05;0.002043441448116065
1.16483e-05;0.0020194680852409384
1.16485e-05;0.001995494722365974
1.16488e-05;0.001971521359490847
1.16490e-05;0.0019475479966157207
1.16493e-05;0.0019235746337407564
1.16495e-05;0.00189960127086563
1.16498e-05;0.0018756279079905033
1.16500e-05;0.001851654545115539
1.16503e-05;0.0018276811822404123
1.16505e-05;0.0017953973212682355
1.16508e-05;0.001759680379865696
1.16510e-05;0.0017239634384629144
1.16513e-05;0.0016882464970601329
1.16515e-05;0.0016525295556575933
1.16518e-05;0.0016168126142548118
1.16520e-05;0.0015810956728520302
1.16523e-05;0.0015453787314494906
1.16525e-05;0.001509661790046709
1.16528e-05;0.0014739448486439275
1.16530e-05;0.0014374409212365785
1.16533e-05;0.001397934256426497
1.16535e-05;0.0013584275916164157
1.16538e-05;0.001318920926806602
1.16540e-05;0.0012794142619965208
1.16543e-05;0.0012399075971864394
1.16545e-05;0.001201238050212879
1.16548e-05;0.0011657625181542527
1.16550e-05;0.0011302869860956263
1.16552e-05;0.0010948114540372403
1.16555e-05;0.001059335921978614
1.16558e-05;0.0010238603899199875
1.16560e-05;0.0009898604864075045
1.16563e-05;0.0009614908291780646
1.16565e-05;0.0009331211719484325
1.16568e-05;0.0009058740084158811
1.16570e-05;0.0008829097086043656
1.16573e-05;0.0008599454087926943
1.16575e-05;0.0008375883893931646
1.16578e-05;0.000817548442465922
1.16580e-05;0.0007975084955385433
1.16583e-05;0.0007782675381661257
1.16585e-05;0.0007620751176252371
1.16588e-05;0.0007458826970842388
1.16590e-05;0.0007302698119120982
1.16593e-05;0.0007168681382711332
1.16595e-05;0.0007034664646300774
1.16598e-05;0.0006904816878637411
1.16600e-05;0.0006790875770451143
1.16603e-05;0.0006676934662264103
1.16605e-05;0.0006570878207027941
1.16608e-05;0.0006494905568004199
1.16610e-05;0.0006418932928979941
1.16613e-05;0.0006342960289955683
1.16615e-05;0.000626698765093194
1.16618e-05;0.0006191015011907682
1.16620e-05;0.0006115042372883424
1.16623e-05;0.0006039069733859682
1.16625e-05;0.0005963097094835424
1.16628e-05;0.000591102134213036
1.16630e-05;0.0005868817432467929
1.16633e-05;0.0005826613522805213
1.16635e-05;0.0005784409613142496
1.16637e-05;0.0005742205703480066
1.16640e-05;0.0005700001793817349
1.16643e-05;0.0005657797884154633
1.16645e-05;0.0005615593974491916
1.16648e-05;0.0005576773901653981
1.16650e-05;0.0005550864825124478
1.16653e-05;0.0005524955748594975
1.16655e-05;0.0005499046672065649
1.16658e-05;0.0005473137595536147
1.16660e-05;0.0005447228519006645
1.16663e-05;0.0005430551263140826
1.16665e-05;0.0005417687687575267
1.16668e-05;0.0005404824112009707
1.16670e-05;0.0005391960536444235
1.16673e-05;0.0005379096960878674
1.16675e-05;0.0005373275628626913
1.16678e-05;0.0005394323906864249
1.16680e-05;0.0005415372185101727
1.16683e-05;0.0005441921685722694
1.16685e-05;0.0005489461046543619
1.16688e-05;0.0005537000407364866
1.16690e-05;0.0005591043132183388
1.16693e-05;0.0005669899378728765
1.16695e-05;0.0005748755625274676
1.16698e-05;0.0005834175593172813
1.16700e-05;0.0005944639375696134
1.16703e-05;0.0006055103158220203
1.16705e-05;0.0006170927141269389
1.16708e-05;0.0006307202916999075
1.16710e-05;0.0006443478692729685
1.16713e-05;0.0006587062010376171
1.16715e-05;0.0006758527182735732
1.16718e-05;0.0006929992355096456
1.16720e-05;0.0007101457527457178
1.16722e-05;0.0007272922699816739
1.16725e-05;0.0007444387872177462
1.16728e-05;0.0007615853044538184
1.16730e-05;0.0007802245289795035
1.16733e-05;0.000799480393341677
1.16735e-05;0.0008187362577039811
1.16738e-05;0.0008379921220662851
1.16740e-05;0.0008572479864284587
1.16743e-05;0.0008765038507907626
1.16745e-05;0.000895307165163448
1.16748e-05;0.0009123837794761598
1.16750e-05;0.0009294603937889874
1.16753e-05;0.000946537008101815
1.16755e-05;0.0009636136224145269
1.16758e-05;0.0009806902367273545
1.16760e-05;0.000997766851040182
1.16763e-05;0.0010148434653528939
1.16765e-05;0.0010266998363065065
1.16768e-05;0.001036399716141556
1.16770e-05;0.0010460995959765396
1.16773e-05;0.0010557994758115888
1.16775e-05;0.0010654993556466381
1.16778e-05;0.0010751992354816218
1.16780e-05;0.001084899115316671
1.16783e-05;0.0010924335897513418
1.16785e-05;0.0010917059810548915
1.16788e-05;0.0010909783723584362
1.16790e-05;0.001090250763661981
1.16793e-05;0.0010895231549655309
1.16795e-05;0.0010887955462690756
1.16798e-05;0.0010880679375726203
1.16800e-05;0.0010873403288761702
1.16803e-05;0.001086612720179715
1.16805e-05;0.0010839569478258665
1.16807e-05;0.0010739442858911923
1.16810e-05;0.0010639316239564505
1.16813e-05;0.0010539189620217086
1.16815e-05;0.0010439063000870347
1.16818e-05;0.0010338936381522929
1.16820e-05;0.001023880976217551
1.16823e-05;0.0010138683142828092
1.16825e-05;0.0010038556523481353
1.16828e-05;0.0009929659539906935
1.16830e-05;0.000978729931738104
1.16833e-05;0.0009644939094856109
1.16835e-05;0.0009502578872330215
1.16838e-05;0.000936021864980432
1.16840e-05;0.000921785842727939
1.16843e-05;0.0009075498204753496
1.16845e-05;0.0008934858909372184
1.16848e-05;0.0008800785794685249
1.16850e-05;0.0008666712679997406
1.16853e-05;0.0008532639565309564
1.16855e-05;0.0008398566450622629
1.16858e-05;0.0008264493335934786
1.16860e-05;0.0008130420221246943
1.16863e-05;0.0008006172618642595
1.16865e-05;0.0007919414161322295
1.16868e-05;0.0007832655704001993
1.16870e-05;0.000774589724668228
1.16873e-05;0.0007659138789361979
1.16875e-05;0.0007572380332041677
1.16878e-05;0.0007485621874721964
1.16880e-05;0.0007398863417401664
1.16883e-05;0.0007312104960081362
1.16885e-05;0.0007225346502761649
1.16888e-05;0.0007162247095311138
1.16890e-05;0.0007108921280282872
1.16892e-05;0.0007055595465254967
1.16895e-05;0.00070022696502267
1.16898e-05;0.0006948943835198435
1.16900e-05;0.000689561802017053
1.16903e-05;0.0006842292205142264
1.16905e-05;0.0006788966390113999
1.16908e-05;0.0006735640575085733
1.16910e-05;0.0006686555667591618
1.16913e-05;0.000665365190133205
1.16915e-05;0.0006620748135072481
1.16918e-05;0.0006587844368813135
1.16920e-05;0.0006554940602553566
1.16923e-05;0.0006522036836293997
1.16925e-05;0.0006489133070034652
1.16928e-05;0.0006456229303775082
1.16930e-05;0.0006423325537515514
1.16933e-05;0.0006390421771256167
1.16935e-05;0.0006357518004996599
1.16938e-05;0.000632461423873703
1.16940e-05;0.0006291710472477684
1.16943e-05;0.0006269340702946403
1.16945e-05;0.0006251322544793704
1.16948e-05;0.0006233304386641127
1.16950e-05;0.0006215286228488427
1.16953e-05;0.0006197268070335728
1.16955e-05;0.0006179249912183151
1.16958e-05;0.0006161231754030451
1.16960e-05;0.0006143213595877752
1.16963e-05;0.0006125195437725174
1.16965e-05;0.0006107177279572474
1.16968e-05;0.0006089159121419775
1.16970e-05;0.0006071140963267198
1.16973e-05;0.0006063034094820638
1.16975e-05;0.0006092743655363278
