Time(s);Current(A)
7.80000e-06;0.009908636873671524
7.80025e-06;0.00990645744580084
7.80050e-06;0.009904278017930155
7.80075e-06;0.009902098590059485
7.80100e-06;0.0098999191621888
7.80125e-06;0.009899215013642076
7.80150e-06;0.00989882541036503
7.80175e-06;0.009898435807087982
7.80200e-06;0.009904267504753109
7.80225e-06;0.009911425650061563
7.80250e-06;0.009918583795370065
7.80275e-06;0.009925741940678568
7.80300e-06;0.009932900085987023
7.80325e-06;0.009940058231295524
7.80350e-06;0.009957094767706346
7.80375e-06;0.009976237482345872
7.80400e-06;0.009995380196985268
7.80425e-06;0.010014522911624794
7.80450e-06;0.01003366562626432
7.80475e-06;0.010052808340903718
7.80500e-06;0.010083246831739629
7.80525e-06;0.010116093702407424
7.80550e-06;0.010148940573074996
7.80575e-06;0.010181787443742788
7.80600e-06;0.010214634314410583
7.80625e-06;0.010247481185078155
7.80650e-06;0.01028032805574595
7.80675e-06;0.010313174926413744
7.80700e-06;0.010348887894209883
7.80725e-06;0.010390573673514949
7.80750e-06;0.010432259452820013
7.80775e-06;0.010473945232124797
7.80800e-06;0.010515631011429862
7.80825e-06;0.010557316790734928
7.80850e-06;0.01059900257003971
7.80875e-06;0.010640688349344776
7.80900e-06;0.01068237412864984
7.80925e-06;0.010723118948247585
7.80950e-06;0.010763663145210895
7.80975e-06;0.010804207342174205
7.81000e-06;0.010844751539137241
7.81025e-06;0.010883300858063664
7.81050e-06;0.010917692945059636
7.81075e-06;0.010952085032055376
7.81100e-06;0.010986477119051348
7.81125e-06;0.01102086920604732
7.81150e-06;0.01104498405427764
7.81175e-06;0.011066907685707313
7.81200e-06;0.011088831317136984
7.81225e-06;0.011110754948566656
7.81250e-06;0.011132678579996181
7.81275e-06;0.011154602211425852
7.81300e-06;0.011176525842855525
7.81325e-06;0.011198449474285048
7.81350e-06;0.01122037310571472
7.81375e-06;0.011242296737144393
7.81400e-06;0.011264220368573916
7.81425e-06;0.011286144000003589
7.81450e-06;0.01130477917907564
7.81475e-06;0.011316561378219925
7.81500e-06;0.011328343577364288
7.81525e-06;0.011340125776508652
7.81550e-06;0.011351907975652935
7.81575e-06;0.011363690174797299
7.81600e-06;0.011375472373941662
7.81625e-06;0.011387254573085946
7.81650e-06;0.011399036772230309
7.81675e-06;0.011410818971374673
7.81700e-06;0.011422601170518956
7.81725e-06;0.01143438336966332
7.81750e-06;0.011446165568807683
7.81775e-06;0.011453652828018246
7.81800e-06;0.011460224360275387
7.81825e-06;0.011466795892532529
7.81850e-06;0.011473367424789625
7.81875e-06;0.011479938957046767
7.81900e-06;0.01148651048930391
7.81925e-06;0.011493082021561006
7.81950e-06;0.011499653553818148
7.81975e-06;0.01150622508607529
7.82000e-06;0.011512796618332386
7.82025e-06;0.011519368150589529
7.82050e-06;0.01152593968284667
7.82075e-06;0.011532511215103812
7.82100e-06;0.011539082747360908
7.82125e-06;0.01154565427961805
7.82150e-06;0.011552398705952113
7.82175e-06;0.011559503435404506
7.82200e-06;0.011566608164856947
7.82225e-06;0.011573712894309387
7.82250e-06;0.01158081762376178
7.82275e-06;0.01158792235321422
7.82300e-06;0.01159502708266666
7.82325e-06;0.011602131812119054
7.82350e-06;0.011609236541571494
7.82375e-06;0.011616341271023936
7.82400e-06;0.011623446000476328
7.82425e-06;0.01163055072992877
7.82450e-06;0.01163765545938121
7.82475e-06;0.011644760188833602
7.82500e-06;0.011651864918286044
7.82525e-06;0.011658969647738484
7.82550e-06;0.011669207782927897
7.82575e-06;0.011680113993605088
7.82600e-06;0.011691020204282278
7.82625e-06;0.011701926414959395
7.82650e-06;0.011712832625636585
7.82675e-06;0.011723738836313774
7.82700e-06;0.011734645046990892
7.82725e-06;0.011745551257668081
7.82750e-06;0.011756457468345272
7.82775e-06;0.011767363679022388
7.82800e-06;0.011778269889699579
7.82825e-06;0.01178934833338404
7.82850e-06;0.011800463498980623
7.82875e-06;0.011811578664577282
7.82900e-06;0.01182269383017394
7.82925e-06;0.0118338089957706
7.82950e-06;0.011844924161367182
7.82975e-06;0.01185603932696384
7.83000e-06;0.011867154492560499
7.83025e-06;0.011878269658157083
7.83050e-06;0.011889384823753742
7.83075e-06;0.0119004999893504
7.83100e-06;0.011909780608231018
7.83125e-06;0.011918670082205722
7.83150e-06;0.011927559556180427
7.83175e-06;0.011932537591576012
7.83200e-06;0.011936681666592211
7.83225e-06;0.011940825741608412
7.83250e-06;0.011935865450522902
7.83275e-06;0.011928964011582239
7.83300e-06;0.011922062572641575
7.83325e-06;0.011915161133700959
7.83350e-06;0.011908259694760295
7.83375e-06;0.011896397001355839
7.83400e-06;0.011874195287165391
7.83425e-06;0.011851993572974794
7.83450e-06;0.011829791858784197
7.83475e-06;0.01180759014459375
7.83500e-06;0.011785388430403153
7.83525e-06;0.011750693714185719
7.83550e-06;0.011713335356829828
7.83575e-06;0.011675976999473684
7.83600e-06;0.011638618642117538
7.83625e-06;0.011601260284761647
7.83650e-06;0.011563901927405501
7.83675e-06;0.011523088852286955
7.83700e-06;0.01147507630795793
7.83725e-06;0.01142706376362858
7.83750e-06;0.011379051219299231
7.83775e-06;0.01133103867496988
7.83800e-06;0.011283026130640856
7.83825e-06;0.011235013586311507
7.83850e-06;0.011184806386346153
7.83875e-06;0.01113413126241652
7.83900e-06;0.011084001170815018
7.83925e-06;0.011033987285913018
7.83950e-06;0.010985494501798492
7.83975e-06;0.010937326032578092
7.84000e-06;0.010891396417985843
7.84025e-06;0.010845944151054618
7.84050e-06;0.010805384673331715
7.84075e-06;0.010765868390398616
7.84100e-06;0.010726352107465784
7.84125e-06;0.010689970824613614
7.84150e-06;0.01066012273437368
7.84175e-06;0.010630274644133948
7.84200e-06;0.010600426553894015
7.84225e-06;0.010581452442408738
7.84250e-06;0.010564796779051764
7.84275e-06;0.010548141115694675
7.84300e-06;0.010531485452337588
7.84325e-06;0.010514829788980612
7.84350e-06;0.010498174125623524
7.84375e-06;0.010481518462266436
7.84400e-06;0.010464862798909461
7.84425e-06;0.010453466982104682
7.84450e-06;0.010453032437948102
7.84475e-06;0.010452597893791524
7.84500e-06;0.010452163349634945
7.84525e-06;0.010451728805478365
7.84550e-06;0.010451294261321787
7.84575e-06;0.010450859717165207
7.84600e-06;0.010450425173008628
7.84625e-06;0.010449990628852046
7.84650e-06;0.010458293133781979
7.84675e-06;0.010468458470666929
7.84700e-06;0.010478623807551879
7.84725e-06;0.010488789144436761
7.84750e-06;0.010498954481321711
7.84775e-06;0.010509119818206661
7.84800e-06;0.010519285155091544
7.84825e-06;0.010529450491976493
7.84850e-06;0.010539615828861443
7.84875e-06;0.010550733864345137
7.84900e-06;0.01056383727886811
7.84925e-06;0.010576940693391086
7.84950e-06;0.010590044107913971
7.84975e-06;0.010603147522436945
7.85000e-06;0.010616250936959918
7.85025e-06;0.010629354351482804
7.85050e-06;0.010642457766005777
7.85075e-06;0.010655561180528753
7.85100e-06;0.010668664595051638
7.85125e-06;0.010680241681689207
7.85150e-06;0.010691493338959102
7.85175e-06;0.010702744996228922
7.85200e-06;0.010713996653498817
7.85225e-06;0.010725248310768713
7.85250e-06;0.010736499968038531
7.85275e-06;0.010747751625308426
7.85300e-06;0.010759003282578321
7.85325e-06;0.010773085845438407
7.85350e-06;0.01078777198753284
7.85375e-06;0.010802458129627273
7.85400e-06;0.010817144271721608
7.85425e-06;0.010831830413816041
7.85450e-06;0.010846516555910474
7.85475e-06;0.010861202698004908
7.85500e-06;0.010875888840099242
7.85525e-06;0.01089475456969002
7.85550e-06;0.01091451143186732
7.85575e-06;0.010934268294044484
7.85600e-06;0.010954025156221783
7.85625e-06;0.01097378201839908
7.85650e-06;0.010993538880576246
7.85675e-06;0.011013295742753544
7.85700e-06;0.011033052604930843
7.85725e-06;0.011052809467108007
7.85750e-06;0.011072566329285306
7.85775e-06;0.011092323191462606
7.85800e-06;0.01111208005363977
7.85825e-06;0.011131836915817069
7.85850e-06;0.011150701294937903
7.85875e-06;0.011169375387161787
7.85900e-06;0.011188049479385799
7.85925e-06;0.01120672357160981
7.85950e-06;0.011225397663833694
7.85975e-06;0.011244071756057706
7.86000e-06;0.011262745848281715
7.86025e-06;0.0112814199405056
7.86050e-06;0.01130009403272961
7.86075e-06;0.011318768124953622
7.86100e-06;0.011337442217177507
7.86125e-06;0.011356116309401518
7.86150e-06;0.011374790401625529
7.86175e-06;0.011388615187300097
7.86200e-06;0.011401406049150081
7.86225e-06;0.011414196911000065
7.86250e-06;0.01142698777284996
7.86275e-06;0.011439778634699945
7.86300e-06;0.011452569496549929
7.86325e-06;0.011465360358399911
7.86350e-06;0.011478151220249809
7.86375e-06;0.011490942082099793
7.86400e-06;0.011503732943949775
7.86425e-06;0.011516523805799673
7.86450e-06;0.011529314667649657
7.86475e-06;0.011541380163118052
7.86500e-06;0.011553291002745159
7.86525e-06;0.011565201842372346
7.86550e-06;0.011577112681999532
7.86575e-06;0.011589023521626638
7.86600e-06;0.011600934361253824
7.86625e-06;0.01161284520088101
7.86650e-06;0.011624756040508116
7.86675e-06;0.011636666880135302
7.86700e-06;0.01164857771976249
7.86725e-06;0.011660488559389596
7.86750e-06;0.011672399399016781
7.86775e-06;0.0116838882315538
7.86800e-06;0.01169528708768269
7.86825e-06;0.011706685943811653
7.86850e-06;0.011718084799940619
7.86875e-06;0.011729483656069507
7.86900e-06;0.011740882512198472
7.86925e-06;0.011752281368327438
7.86950e-06;0.011762435313592938
7.86975e-06;0.011772323830598041
7.87000e-06;0.011782212347603144
7.87025e-06;0.01179210086460818
7.87050e-06;0.011801989381613283
7.87075e-06;0.011811877898618386
7.87100e-06;0.011821766415623422
7.87125e-06;0.011829721182784986
7.87150e-06;0.011837263653875956
7.87175e-06;0.011844806124966925
7.87200e-06;0.011844528917448973
7.87225e-06;0.011842584471133602
7.87250e-06;0.011840640024818232
7.87275e-06;0.011838695578502874
7.87300e-06;0.011836751132187505
7.87325e-06;0.011834806685872135
7.87350e-06;0.011820477595343779
7.87375e-06;0.011803507966711672
7.87400e-06;0.011786538338079565
7.87425e-06;0.011769568709447573
7.87450e-06;0.011752599080815466
7.87475e-06;0.01173562945218336
7.87500e-06;0.01170530059500566
7.87525e-06;0.011672123407960245
7.87550e-06;0.011638946220914829
7.87575e-06;0.011605769033869638
7.87600e-06;0.011572591846824224
7.87625e-06;0.011539414659778808
7.87650e-06;0.011506237472733617
7.87675e-06;0.011469432944319303
7.87700e-06;0.01142506920721298
7.87725e-06;0.011380705470106958
7.87750e-06;0.011336341733000636
7.87775e-06;0.011291977995894311
7.87800e-06;0.011247614258788289
7.87825e-06;0.011203250521681966
7.87850e-06;0.011158886784575642
7.87875e-06;0.011113095625713717
7.87900e-06;0.011067000125323983
7.87925e-06;0.011020904624934248
7.87950e-06;0.010976863103182882
7.87975e-06;0.01093325951156196
7.88000e-06;0.010889655919941038
7.88025e-06;0.010850305006118537
7.88050e-06;0.010811860808515164
7.88075e-06;0.010773416610911529
7.88100e-06;0.010737740797672571
7.88125e-06;0.010707834167156722
7.88150e-06;0.01067792753664067
7.88175e-06;0.010648020906124617
7.88200e-06;0.01062688298800375
7.88225e-06;0.010607614652796101
7.88250e-06;0.010588346317588452
7.88275e-06;0.010569077982380933
7.88300e-06;0.010549809647173286
7.88325e-06;0.010530541311965637
7.88350e-06;0.010511272976758117
7.88375e-06;0.010492004641550468
7.88400e-06;0.01047273630634282
7.88425e-06;0.010453467971135302
7.88450e-06;0.010434199635927652
7.88475e-06;0.010418212906567732
7.88500e-06;0.010409064889347919
7.88525e-06;0.010399916872128044
7.88550e-06;0.010390768854908168
7.88575e-06;0.010381620837688356
7.88600e-06;0.01037247282046848
7.88625e-06;0.010363324803248605
7.88650e-06;0.010354176786028792
7.88675e-06;0.010345028768808917
7.88700e-06;0.010335880751589041
7.88725e-06;0.010326732734369229
7.88750e-06;0.010317584717149353
7.88775e-06;0.010312707577258618
7.88800e-06;0.010308741033921069
7.88825e-06;0.01030477449058349
7.88850e-06;0.010300807947245912
7.88875e-06;0.010296841403908361
7.88900e-06;0.010292874860570784
7.88925e-06;0.010288908317233206
7.88950e-06;0.010284941773895629
7.88975e-06;0.010280975230558077
7.89000e-06;0.0102770086872205
7.89025e-06;0.01027304214388292
7.89050e-06;0.01027048318850232
7.89075e-06;0.010270857580177315
7.89100e-06;0.010271231971852311
7.89125e-06;0.010271606363527305
7.89150e-06;0.0102719807552023
7.89175e-06;0.010272355146877297
7.89200e-06;0.010272729538552289
7.89225e-06;0.010273103930227286
7.89250e-06;0.010273478321902282
7.89275e-06;0.010273852713577275
7.89300e-06;0.01027422710525227
7.89325e-06;0.010274601496927266
7.89350e-06;0.010281143251015343
7.89375e-06;0.010288999952483942
7.89400e-06;0.010296856653952541
7.89425e-06;0.010304713355421088
7.89450e-06;0.010312570056889687
7.89475e-06;0.010320426758358286
7.89500e-06;0.010328283459826833
7.89525e-06;0.010336140161295432
7.89550e-06;0.010343996862764031
7.89575e-06;0.010351853564232577
7.89600e-06;0.010359710265701176
7.89625e-06;0.010367566967169776
7.89650e-06;0.010375423668638322
7.89675e-06;0.01038328037010692
7.89700e-06;0.010392483050880391
7.89725e-06;0.010404490689178543
7.89750e-06;0.010416498327476775
7.89775e-06;0.010428505965775006
7.89800e-06;0.010440513604073238
7.89825e-06;0.010452521242371388
7.89850e-06;0.010464528880669621
7.89875e-06;0.010476536518967853
7.89900e-06;0.010488544157266003
7.89925e-06;0.010500551795564235
7.89950e-06;0.010512559433862468
7.89975e-06;0.010524567072160618
7.90000e-06;0.01053657471045885
7.90025e-06;0.010548582348757081
7.90050e-06;0.010560589987055233
7.90075e-06;0.010568197762642432
7.90100e-06;0.010574867440618132
7.90125e-06;0.010581537118593788
7.90150e-06;0.010588206796569489
7.90175e-06;0.010594876474545191
7.90200e-06;0.010601546152520847
7.90225e-06;0.010608215830496547
7.90250e-06;0.010614885508472248
7.90275e-06;0.010621555186447905
7.90300e-06;0.010628224864423606
7.90325e-06;0.010634894542399307
7.90350e-06;0.010641564220374962
7.90375e-06;0.010648233898350665
7.90400e-06;0.010654903576326365
7.90425e-06;0.010661573254302021
7.90450e-06;0.010668242932277722
7.90475e-06;0.010674912610253422
7.90500e-06;0.01068158228822908
7.90525e-06;0.01068825196620478
7.90550e-06;0.010694921644180481
7.90575e-06;0.010699989494181394
7.90600e-06;0.010701719210069486
7.90625e-06;0.010703448925957579
7.90650e-06;0.010705178641845673
7.90675e-06;0.010706908357733753
7.90700e-06;0.010708638073621848
7.90725e-06;0.01071036778950994
7.90750e-06;0.010712097505398022
7.90775e-06;0.010713827221286115
7.90800e-06;0.010715556937174207
7.90825e-06;0.01071728665306229
7.90850e-06;0.010719016368950382
7.90875e-06;0.010720746084838476
7.90900e-06;0.010722475800726557
7.90925e-06;0.010724205516614651
7.90950e-06;0.010725935232502743
7.90975e-06;0.010727664948390826
7.91000e-06;0.010729394664278918
7.91025e-06;0.01073112438016701
7.91050e-06;0.010732854096055093
7.91075e-06;0.010734583811943185
7.91100e-06;0.010736278265806158
7.91125e-06;0.010737965201429634
7.91150e-06;0.01073965213705312
7.91175e-06;0.010747070100400857
7.91200e-06;0.010755709979925506
7.91225e-06;0.010764349859450214
7.91250e-06;0.010772989738974921
7.91275e-06;0.01078162961849957
7.91300e-06;0.010790269498024278
7.91325e-06;0.010810300169380688
7.91350e-06;0.010832759478928675
7.91375e-06;0.010855218788476815
7.91400e-06;0.010877678098024954
7.91425e-06;0.010900137407572941
7.91450e-06;0.010922596717121081
7.91475e-06;0.010959480917088349
7.91500e-06;0.010999440657395944
7.91525e-06;0.01103940039770327
7.91550e-06;0.011079360138010865
7.91575e-06;0.01111931987831846
7.91600e-06;0.011159279618625787
7.91625e-06;0.011199239358933383
7.91650e-06;0.011239199099240978
7.91675e-06;0.011279158839548303
7.91700e-06;0.01132884054069887
7.91725e-06;0.011380595067492828
7.91750e-06;0.011432349594286434
7.91775e-06;0.01148410412108039
7.91800e-06;0.011535858647874347
7.91825e-06;0.011587613174667952
7.91850e-06;0.011639367701461909
7.91875e-06;0.011691122228255866
7.91900e-06;0.011742876755049472
7.91925e-06;0.011791764324066251
7.91950e-06;0.011840040627136183
7.91975e-06;0.011888316930205789
7.92000e-06;0.01193659323327572
7.92025e-06;0.011984869536345652
7.92050e-06;0.012033145839415258
7.92075e-06;0.01208142214248519
7.92100e-06;0.012116173747978791
7.92125e-06;0.012148041743836768
7.92150e-06;0.01217990973969496
7.92175e-06;0.012211777735553153
7.92200e-06;0.012243645731411129
7.92225e-06;0.012275513727269321
7.92250e-06;0.012307381723127514
7.92275e-06;0.01231920423599386
7.92300e-06;0.012326752838291774
7.92325e-06;0.012334301440589689
7.92350e-06;0.012341850042887605
7.92375e-06;0.012349398645185469
7.92400e-06;0.012356947247483383
7.92425e-06;0.012364495849781297
7.92450e-06;0.012372044452079161
7.92475e-06;0.012360061897666792
7.92500e-06;0.01234391509252937
7.92525e-06;0.012327768287392056
7.92550e-06;0.012311621482254632
7.92575e-06;0.012295474677117208
7.92600e-06;0.012279327871979896
7.92625e-06;0.012263181066842472
7.92650e-06;0.012247034261705049
7.92675e-06;0.01221954286338028
7.92700e-06;0.012189632676905307
7.92725e-06;0.012159722490430335
7.92750e-06;0.012129812303955562
7.92775e-06;0.01209990211748059
7.92800e-06;0.012068507019317266
7.92825e-06;0.012034017435077453
7.92850e-06;0.011999527850837407
7.92875e-06;0.011965038266597361
7.92900e-06;0.011930548682357548
7.92925e-06;0.0118960590981175
7.92950e-06;0.011861689965324083
7.92975e-06;0.01182867275939431
7.93000e-06;0.011795938323100866
7.93025e-06;0.011763203886807422
7.93050e-06;0.011733962263320493
7.93075e-06;0.01170546534474155
7.93100e-06;0.011676968426162608
7.93125e-06;0.011657532861949786
7.93150e-06;0.011640029275041564
7.93175e-06;0.011622525688133344
7.93200e-06;0.011605022101225122
7.93225e-06;0.01158751851431702
7.93250e-06;0.011570014927408799
7.93275e-06;0.011568101440093468
7.93300e-06;0.011569511928132714
7.93325e-06;0.011570922416171971
7.93350e-06;0.011572332904211228
7.93375e-06;0.011573743392250476
7.93400e-06;0.011575153880289731
7.93425e-06;0.011595929094000566
7.93450e-06;0.011620833073566778
7.93475e-06;0.011645737053133159
7.93500e-06;0.01167064103269954
7.93525e-06;0.011695545012265753
7.93550e-06;0.011720448991832133
7.93575e-06;0.011745352971398514
7.93600e-06;0.011770256950964727
7.93625e-06;0.011795160930531108
7.93650e-06;0.011835487192615556
7.93675e-06;0.01187910164966622
7.93700e-06;0.011922716106717178
7.93725e-06;0.011966330563768139
7.93750e-06;0.012009945020818803
7.93775e-06;0.012053559477869761
7.93800e-06;0.01209717393492072
7.93825e-06;0.012140788391971384
7.93850e-06;0.012184402849022342
7.93875e-06;0.012229546226364595
7.93900e-06;0.012275015585804249
7.93925e-06;0.01232048494524421
7.93950e-06;0.012365954304684172
7.93975e-06;0.012411423664123827
7.94000e-06;0.012456893023563788
7.94025e-06;0.01250236238300375
7.94050e-06;0.012547831742443713
7.94075e-06;0.01258731480980719
7.94100e-06;0.012614322726201593
7.94125e-06;0.012641330642595995
7.94150e-06;0.012668338558990213
7.94175e-06;0.012695346475384615
7.94200e-06;0.012722354391779017
7.94225e-06;0.012749362308173237
7.94250e-06;0.012776370224567637
7.94275e-06;0.01280337814096204
7.94300e-06;0.012805708736565894
7.94325e-06;0.012802777864423574
7.94350e-06;0.012799846992281252
7.94375e-06;0.012796916120138953
7.94400e-06;0.012793985247996631
7.94425e-06;0.01279105437585431
7.94450e-06;0.01278812350371201
7.94475e-06;0.012763456150142526
7.94500e-06;0.012734154347115589
7.94525e-06;0.01270485254408885
7.94550e-06;0.012675550741061912
7.94575e-06;0.012646248938034975
7.94600e-06;0.012616947135008237
7.94625e-06;0.0125876453319813
7.94650e-06;0.012546190002582414
7.94675e-06;0.01250214341185713
7.94700e-06;0.01245809682113155
7.94725e-06;0.012409313822710911
7.94750e-06;0.01235952097170029
7.94775e-06;0.012309728120689332
7.94800e-06;0.012257076024968264
7.94825e-06;0.012203814307808081
7.94850e-06;0.01215055259064754
7.94875e-06;0.012096730232252004
7.94900e-06;0.012042788339171134
7.94925e-06;0.011988846446090629
7.94950e-06;0.011936767898273647
7.94975e-06;0.011885086635522226
7.95000e-06;0.011833405372771156
7.95025e-06;0.011786058012619874
7.95050e-06;0.011739634686683873
7.95075e-06;0.011693211360748188
7.95100e-06;0.011653871408005554
7.95125e-06;0.011616041705906391
7.95150e-06;0.011578212003807483
7.95175e-06;0.011555397605041465
