Time(s);Current(A)
8.50000e-06;0.00143154860681884
8.50025e-06;0.0013810535575512614
8.50050e-06;0.0013305585082836826
8.50075e-06;0.001280063459016446
8.50100e-06;0.001229636044731819
8.50125e-06;0.0011885716145603386
8.50150e-06;0.0011467086227463356
8.50175e-06;0.0010982455710215704
8.50200e-06;0.0010540627779052096
8.50225e-06;0.0010140391902613807
8.50250e-06;0.0009764212332566343
8.50275e-06;0.0009411408714850507
8.50300e-06;0.0009094730296103019
8.50325e-06;0.0008813155393046993
8.50350e-06;0.0008571583457617686
8.50375e-06;0.0008368883136522133
8.50400e-06;0.0008203427609201904
8.50425e-06;0.0008074163528304492
8.50450e-06;0.0007971875409089736
8.50475e-06;0.0007915974286515495
8.50500e-06;0.0007900611591959654
8.50525e-06;0.0007936451031209513
8.50550e-06;0.0008002276910783111
8.50575e-06;0.0008107278866734195
8.50600e-06;0.0008250348931685414
8.50625e-06;0.0008426091828687475
8.50650e-06;0.0008633583513392494
8.50675e-06;0.0008873729431738728
8.50700e-06;0.0009145606065369813
8.50725e-06;0.0009447720615298284
8.50750e-06;0.0009779217900813355
8.50775e-06;0.001014112880348142
8.50800e-06;0.0010532593173473836
8.50825e-06;0.0010924057543466252
8.50850e-06;0.001134645978930717
8.50875e-06;0.0011798924934224538
8.50900e-06;0.0012251390079141909
8.50925e-06;0.0012703855224056211
8.50950e-06;0.001315632036897358
8.50975e-06;0.0013618342617275744
8.51000e-06;0.0014089651677503402
8.51025e-06;0.0014560960737734253
8.51050e-06;0.0015032269797965103
8.51075e-06;0.001550357885819276
8.51100e-06;0.0015912763794295396
8.51125e-06;0.001626158158422252
8.51150e-06;0.0016610399374147283
8.51175e-06;0.0016959217164074407
8.51200e-06;0.0017308034954001531
8.51225e-06;0.0017656852743926294
8.51250e-06;0.0018005670533853418
8.51275e-06;0.0018354488323780544
8.51300e-06;0.0018703306113707669
8.51325e-06;0.001905212390363243
8.51350e-06;0.001928830729676102
8.51375e-06;0.0019415041789130102
8.51400e-06;0.0019541776281498326
8.51425e-06;0.0019668510773867406
8.51450e-06;0.001979524526623649
8.51475e-06;0.0019921979758604712
8.51500e-06;0.0020048714250973793
8.51525e-06;0.0020175448743342877
8.51550e-06;0.00203021832357111
8.51575e-06;0.0020428917728080183
8.51600e-06;0.002047736318071123
8.51625e-06;0.0020449733743390006
8.51650e-06;0.0020422104306068597
8.51675e-06;0.0020394474868747187
8.51700e-06;0.0020366845431425964
8.51725e-06;0.0020339215994104555
8.51750e-06;0.0020311586556783145
8.51775e-06;0.002028395711946192
8.51800e-06;0.0020256327682140513
8.51825e-06;0.002022859826993585
8.51850e-06;0.0020117771417775287
8.51875e-06;0.002000694456561397
8.51900e-06;0.0019896117713452655
8.51925e-06;0.001978529086129209
8.51950e-06;0.0019674464009130773
8.51975e-06;0.0019563637156969457
8.52000e-06;0.0019452810304808894
8.52025e-06;0.0019341983452647578
8.52050e-06;0.0019231156600486264
8.52075e-06;0.0019119409205243516
8.52100e-06;0.0019006723539289549
8.52125e-06;0.0018894037873335582
8.52150e-06;0.0018781352207381612
8.52175e-06;0.0018668666541428408
8.52200e-06;0.001855598087547444
8.52225e-06;0.0018443295209520471
8.52250e-06;0.0018330609543567267
8.52275e-06;0.00182179238776133
8.52300e-06;0.001810523821165933
8.52325e-06;0.0017992552545706127
8.52350e-06;0.001787986687975216
8.52375e-06;0.0017805238273853365
8.52400e-06;0.0017769399623003628
8.52425e-06;0.0017733560972153651
8.52450e-06;0.0017697722321303672
8.52475e-06;0.0017661883670453936
8.52500e-06;0.0017626045019603959
8.52525e-06;0.001759020636875398
8.52550e-06;0.0017554367717904243
8.52575e-06;0.0017518529067054266
8.52600e-06;0.0017482690416204287
8.52625e-06;0.001744685176535455
8.52650e-06;0.0017411013114504573
8.52675e-06;0.0017410556667287241
8.52700e-06;0.0017446163806866977
8.52725e-06;0.0017481770946446951
8.52750e-06;0.0017517378086026928
8.52775e-06;0.0017552985225606664
8.52800e-06;0.0017588592365186638
8.52825e-06;0.0017624199504766614
8.52850e-06;0.0017659806644346348
8.52875e-06;0.0017695413783926325
8.52900e-06;0.00177310209235063
8.52925e-06;0.0017774912328172923
8.52950e-06;0.001782724753459219
8.52975e-06;0.0017879582741011453
8.53000e-06;0.0017931917947430719
8.53025e-06;0.001798425315384963
8.53050e-06;0.0018036588360268893
8.53075e-06;0.0018088923566688159
8.53100e-06;0.001814125877310707
8.53125e-06;0.0018193593979526333
8.53150e-06;0.0018245929185945599
8.53175e-06;0.0018280204775573494
8.53200e-06;0.0018296072960040685
8.53225e-06;0.0018311941144507878
8.53250e-06;0.0018327809328974964
8.53275e-06;0.0018343677513442155
8.53300e-06;0.0018359545697909348
8.53325e-06;0.0018315102513100526
8.53350e-06;0.0018209186495123386
8.53375e-06;0.0018103270477146248
8.53400e-06;0.0017997354459169826
8.53425e-06;0.0017891438441192686
8.53450e-06;0.0017785522423215548
8.53475e-06;0.001761979526775441
8.53500e-06;0.0017393105144275839
8.53525e-06;0.0017166415020797268
8.53550e-06;0.0016894773603523437
8.53575e-06;0.001657731522971855
8.53600e-06;0.0016259856855913662
8.53625e-06;0.001590491645801042
8.53650e-06;0.0015511772214924044
8.53675e-06;0.0015118627971837666
8.53700e-06;0.0014690868572827954
8.53725e-06;0.0014227827406363466
8.53750e-06;0.0013764786239898977
8.53775e-06;0.0013267200676384716
8.53800e-06;0.0012734405466947108
8.53825e-06;0.00122016102575095
8.53850e-06;0.001166881504807189
8.53875e-06;0.0011136019838637891
8.53900e-06;0.0010582976080344452
8.53925e-06;0.0010009293830820754
8.53950e-06;0.0009435611581300942
8.53975e-06;0.0008861929331777242
8.54000e-06;0.0008288247082253544
8.54025e-06;0.0007719287420563944
8.54050e-06;0.000715514129332259
8.54075e-06;0.0006590995166081237
8.54100e-06;0.0006040819159850348
8.54125e-06;0.0005504882308330257
8.54150e-06;0.0004986122091461757
8.54175e-06;0.0004484869293334418
8.54200e-06;0.00040006054708677973
8.54225e-06;0.00035471976352066247
8.54250e-06;0.00031225565525256857
8.54275e-06;0.00027254703053875733
8.54300e-06;0.00023453944372182637
8.54325e-06;0.00019690981473134868
8.54350e-06;0.00015912155962509894
8.54375e-06;0.00012141067567887937
8.54400e-06;8.386089543396198e-05
8.54425e-06;4.674711425339889e-05
8.54450e-06;1.0538730746665039e-05
8.54475e-06;-2.4870947325909094e-05
8.54500e-06;-6.007215150122834e-05
8.54525e-06;-9.582332273100103e-05
8.54550e-06;-0.00013252286444761404
8.54575e-06;-0.00016975182953168252
8.54600e-06;-0.00020726752947688263
8.54625e-06;-0.00024507548616380115
8.54650e-06;-0.0002831212004460134
8.54675e-06;-0.0003214092510100194
8.54700e-06;-0.0003596973015740254
8.54725e-06;-0.00039798535213777186
8.54750e-06;-0.0004362734027017779
8.54775e-06;-0.0004751892086108793
8.54800e-06;-0.0005147448590478621
8.54825e-06;-0.0005543005094851127
8.54850e-06;-0.0005938561599223635
8.54875e-06;-0.0006334118103593462
8.54900e-06;-0.0006726149210749566
8.54925e-06;-0.0007114587029316072
8.54950e-06;-0.0007503024847879947
8.54975e-06;-0.0007891462666446454
8.55000e-06;-0.000827990048501296
8.55025e-06;-0.0008668338303576835
8.55050e-06;-0.0009020705579363768
8.55075e-06;-0.0009372900027450117
8.55100e-06;-0.0009725094475534078
8.55125e-06;-0.0010077288923620426
8.55150e-06;-0.0010429483371706776
8.55175e-06;-0.0010757027484502417
8.55200e-06;-0.0011059446550931555
8.55225e-06;-0.0011361865617360693
8.55250e-06;-0.001163216357634638
8.55275e-06;-0.001186972184621964
8.55300e-06;-0.0012107280116092902
8.55325e-06;-0.0012344838385964553
8.55350e-06;-0.0012582396655837814
8.55375e-06;-0.0012819954925711076
8.55400e-06;-0.0013057513195582728
8.55425e-06;-0.001329507146545599
8.55450e-06;-0.001351116108597324
8.55475e-06;-0.001370536861830327
8.55500e-06;-0.0013899576150634618
8.55525e-06;-0.0014093783682965965
8.55550e-06;-0.0014287991215297313
8.55575e-06;-0.0014482198747627344
8.55600e-06;-0.0014676406279958692
8.55625e-06;-0.001487061381229004
8.55650e-06;-0.0015051987515307585
8.55675e-06;-0.0015220280237769898
8.55700e-06;-0.001538857296023221
8.55725e-06;-0.0015556865682693382
8.55750e-06;-0.0015725158405155695
8.55775e-06;-0.0015893451127618006
8.55800e-06;-0.0016061743850079178
8.55825e-06;-0.001623003657254149
8.55850e-06;-0.0016398329295003802
8.55875e-06;-0.0016566622017464973
8.55900e-06;-0.0016734914739927286
8.55925e-06;-0.0016903207462389597
8.55950e-06;-0.001704450204002662
8.55975e-06;-0.001718566725927396
8.56000e-06;-0.0017326832478521301
8.56025e-06;-0.0017467997697767686
8.56050e-06;-0.0017609162917015028
8.56075e-06;-0.0017750328136262369
8.56100e-06;-0.0017891493355508751
8.56125e-06;-0.0018032658574756093
8.56150e-06;-0.0018173823794003434
8.56175e-06;-0.0018314989013249819
8.56200e-06;-0.001845615423249716
8.56225e-06;-0.0018582224097476727
8.56250e-06;-0.001869290790495855
8.56275e-06;-0.001880359171244112
8.56300e-06;-0.0018868746739965974
8.56325e-06;-0.0018887496203648265
8.56350e-06;-0.0018906245667330678
8.56375e-06;-0.00188693793682101
8.56400e-06;-0.0018775826269359832
8.56425e-06;-0.0018642363494449535
8.56450e-06;-0.0018468222471140904
8.56475e-06;-0.0018251392631532816
8.56500e-06;-0.0017991051883179787
8.56525e-06;-0.0017677048447584554
8.56550e-06;-0.001730834889974986
8.56575e-06;-0.0016890122080699427
8.56600e-06;-0.0016421414204419477
8.56625e-06;-0.0015910871057556793
8.56650e-06;-0.0015357686985073486
8.56675e-06;-0.0014765956142350864
8.56700e-06;-0.001413493620361371
8.56725e-06;-0.0013463523748878002
8.56750e-06;-0.001275094090736246
8.56775e-06;-0.0012005584620028147
8.56800e-06;-0.0011226823742595535
8.56825e-06;-0.0010421086861730816
8.56850e-06;-0.0009587854479107958
8.56875e-06;-0.0008754622096490746
8.56900e-06;-0.000790037325253143
8.56925e-06;-0.0007024703216540855
8.56950e-06;-0.0006149033180556213
8.56975e-06;-0.0005270248947036786
8.57000e-06;-0.0004388290543412192
8.57025e-06;-0.0003506332139793574
8.57050e-06;-0.0002635229419421437
8.57075e-06;-0.00017846139522272367
8.57100e-06;-9.544319426573916e-05
8.57125e-06;-1.4803282109177965e-05
8.57150e-06;6.29845251569162e-05
8.57175e-06;0.0001373352094152597
8.57200e-06;0.00020764089680305178
8.57225e-06;0.00027329381511119667
8.57250e-06;0.00033369442670870835
8.57275e-06;0.0003884150046858119
8.57300e-06;0.0004374407716719235
8.57325e-06;0.0004809960731791613
8.57350e-06;0.0005191435831194322
8.57375e-06;0.0005517470778955809
8.57400e-06;0.0005786229123371484
8.57425e-06;0.0005995874701001569
8.57450e-06;0.0006144622952974937
8.57475e-06;0.00062317658165075
8.57500e-06;0.000625918221978465
8.57525e-06;0.0006230248928809129
8.57550e-06;0.0006147330040857206
8.57575e-06;0.0006011543335409768
8.57600e-06;0.0005823708670144572
8.57625e-06;0.0005584647050242212
8.57650e-06;0.0005295212370582156
8.57675e-06;0.0004956932224425304
8.57700e-06;0.0004572954203054914
8.57725e-06;0.0004147364058035109
8.57750e-06;0.00036836133341126305
8.57775e-06;0.0003184372324043513
8.57800e-06;0.00026521250369853017
8.57825e-06;0.00020893557038328888
8.57850e-06;0.0001498568696456954
8.57875e-06;8.826907204724709e-05
8.57900e-06;2.456630472979194e-05
8.57925e-06;-4.0798587362197994e-05
8.57950e-06;-0.00010741251705486622
8.57975e-06;-0.00017502233463568206
8.58000e-06;-0.00024310214289692753
8.58025e-06;-0.00031118195115771173
8.58050e-06;-0.00037880005655573806
8.58075e-06;-0.0004464159497595032
8.58100e-06;-0.0005127367595766682
8.58125e-06;-0.0005777375455566015
8.58150e-06;-0.0006406112846595637
8.58175e-06;-0.000701317014652624
8.58200e-06;-0.000759065342782677
8.58225e-06;-0.0008137993160119809
8.58250e-06;-0.0008647768809569935
8.58275e-06;-0.0009119256974770222
8.58300e-06;-0.000954872494890935
8.58325e-06;-0.0009935363515760967
8.58350e-06;-0.0010278575313930715
8.58375e-06;-0.0010577524039616193
8.58400e-06;-0.0010831304313672805
8.58425e-06;-0.0011039046291318343
8.58450e-06;-0.0011200008140844154
8.58475e-06;-0.0011313288980131283
8.58500e-06;-0.0011380393025028947
8.58525e-06;-0.0011400431012298477
8.58550e-06;-0.0011376804125937205
8.58575e-06;-0.0011308671476761615
8.58600e-06;-0.0011199177172552493
8.58625e-06;-0.0011047524679037859
8.58650e-06;-0.0010856894462632153
8.58675e-06;-0.0010626535898337279
8.58700e-06;-0.0010360970663177013
8.58725e-06;-0.0010059520754304126
8.58750e-06;-0.0009727830940075958
8.58775e-06;-0.0009365318866596365
8.58800e-06;-0.0008977401628982921
8.58825e-06;-0.0008563589979787071
8.58850e-06;-0.0008125294549981531
8.58875e-06;-0.0007662043835940894
8.58900e-06;-0.0007198793121897117
8.58925e-06;-0.0006717502505496765
8.58950e-06;-0.0006217824577997395
8.58975e-06;-0.000571814665050141
8.59000e-06;-0.0005218468723002039
8.59025e-06;-0.0004718790795502668
8.59050e-06;-0.0004219112868006683
8.59075e-06;-0.0003719434940507312
8.59100e-06;-0.00032292411837350716
8.59125e-06;-0.00027563797223786917
8.59150e-06;-0.00023008604602608627
8.59175e-06;-0.00018664328301868784
8.59200e-06;-0.00014568318764045655
8.59225e-06;-0.00010757921663997257
8.59250e-06;-7.270522666169983e-05
8.59275e-06;-4.143249046042438e-05
8.59300e-06;-1.4092455474175205e-05
8.59325e-06;9.089859901570026e-06
8.59350e-06;2.8001252107975546e-05
8.59375e-06;4.2576845455715643e-05
8.59400e-06;5.275789491385535e-05
8.59425e-06;5.8485692443239446e-05
8.59450e-06;5.9701303310237525e-05
8.59475e-06;5.634741858280571e-05
8.59500e-06;4.8391685718845975e-05
8.59525e-06;3.586843245468397e-05
8.59550e-06;1.8882022924549103e-05
8.59575e-06;-2.432904712740948e-06
8.59600e-06;-2.793788085072016e-05
8.59625e-06;-5.749441140415989e-05
8.59650e-06;-9.096414979680963e-05
8.59675e-06;-0.0001282077408585608
8.59700e-06;-0.0001690701947933884
8.59725e-06;-0.0002133547680593455
8.59750e-06;-0.000260820845442219
8.59775e-06;-0.00031120888649622153
8.59800e-06;-0.00036425695730237293
8.59825e-06;-0.00042019936698816827
8.59850e-06;-0.0004777913363683235
8.59875e-06;-0.0005374124394110175
8.59900e-06;-0.0005991017527564986
8.59925e-06;-0.0006607910661023978
8.59950e-06;-0.0007236799820765033
8.59975e-06;-0.0007877916023802436
8.60000e-06;-0.0008519032226844183
8.60025e-06;-0.000916014842988593
8.60050e-06;-0.0009790286798375687
8.60075e-06;-0.001040923592343091
8.60100e-06;-0.0011028185048486134
8.60125e-06;-0.0011647134173537164
8.60150e-06;-0.0012233589227342472
8.60175e-06;-0.0012786924445722366
8.60200e-06;-0.0013340259664098512
8.60225e-06;-0.001384749053811279
8.60250e-06;-0.001430772919972983
8.60275e-06;-0.0014767967861343753
8.60300e-06;-0.00151847363227186
8.60325e-06;-0.0015557197443627061
8.60350e-06;-0.0015929658564532996
8.60375e-06;-0.0016262765683709036
8.60400e-06;-0.0016555760929836284
8.60425e-06;-0.0016848756175961547
8.60450e-06;-0.0017097388760674236
8.60475e-06;-0.0017300804356911023
8.60500e-06;-0.0017504219953146428
8.60525e-06;-0.001767197015655906
8.60550e-06;-0.001780336813030512
8.60575e-06;-0.001793476610405029
8.60600e-06;-0.0018032227684365142
8.60625e-06;-0.0018095099331122211
8.60650e-06;-0.0018157970977879282
8.60675e-06;-0.0018172270790399138
8.60700e-06;-0.001813706338222917
8.60725e-06;-0.00181018559740592
8.60750e-06;-0.001806664856588947
8.60775e-06;-0.0018031441157719502
8.60800e-06;-0.0017996233749549531
8.60825e-06;-0.0017961026341379801
8.60850e-06;-0.0017925818933209833
8.60875e-06;-0.0017810676643796866
8.60900e-06;-0.0017695151355911084
8.60925e-06;-0.0017579626068024519
8.60950e-06;-0.0017464100780137954
8.60975e-06;-0.0017348575492252172
8.61000e-06;-0.0017233050204365607
8.61025e-06;-0.0017117524916479042
8.61050e-06;-0.0016998983206801311
8.61075e-06;-0.0016877366985696507
8.61100e-06;-0.0016755750764591705
8.61125e-06;-0.0016634134543487725
8.61150e-06;-0.001651251832238292
8.61175e-06;-0.0016390902101278118
8.61200e-06;-0.0016269285880174138
8.61225e-06;-0.0016217557774307891
8.61250e-06;-0.0016166164529032633
8.61275e-06;-0.0016114771283757725
8.61300e-06;-0.0016063378038482466
8.61325e-06;-0.001601198479320721
8.61350e-06;-0.00159605915479323
8.61375e-06;-0.0015958471304011656
8.61400e-06;-0.0016006572950837546
8.61425e-06;-0.001605467459766311
8.61450e-06;-0.0016136378253241367
8.61475e-06;-0.0016252331018189578
8.61500e-06;-0.0016368283783137786
8.61525e-06;-0.0016521001566840315
8.61550e-06;-0.001671119238251756
8.61575e-06;-0.0016901383198194807
8.61600e-06;-0.0017146417790036518
8.61625e-06;-0.001744735232828172
8.61650e-06;-0.0017748286866526922
8.61675e-06;-0.0018049221404770083
8.61700e-06;-0.0018350155943015283
8.61725e-06;-0.0018651090481260485
8.61750e-06;-0.0018952025019503646
8.61775e-06;-0.0019252959557748848
8.61800e-06;-0.0019659307869185592
8.61825e-06;-0.002006616125817777
8.61850e-06;-0.0020473014647172704
8.61875e-06;-0.0020879868036167634
8.61900e-06;-0.002128672142515981
8.61925e-06;-0.002169357481415474
8.61950e-06;-0.002210042820314967
8.61975e-06;-0.0022514114174734777
8.62000e-06;-0.0022934764309396147
8.62025e-06;-0.0023355414444057514
8.62050e-06;-0.0023776064578716035
8.62075e-06;-0.00241967147133774
8.62100e-06;-0.0024617364848038767
8.62125e-06;-0.0025038014982697284
8.62150e-06;-0.002541265740962645
8.62175e-06;-0.0025740406121778693
8.62200e-06;-0.0026068154833928715
8.62225e-06;-0.0026395903546080957
8.62250e-06;-0.00267236522582332
8.62275e-06;-0.0027051400970383222
8.62300e-06;-0.0027379149682535465
8.62325e-06;-0.0027586766894280314
8.62350e-06;-0.002767193913769674
8.62375e-06;-0.0027757111381112587
8.62400e-06;-0.002784228362452901
8.62425e-06;-0.0027927455867945436
8.62450e-06;-0.0028012628111361284
8.62475e-06;-0.002809780035477771
8.62500e-06;-0.0028182972598194134
8.62525e-06;-0.002826814484160998
8.62550e-06;-0.0028353317085026406
8.62575e-06;-0.0028295197192232807
8.62600e-06;-0.00280910256725074
8.62625e-06;-0.0027886854152780606
8.62650e-06;-0.0027682682633053813
8.62675e-06;-0.0027478511113328405
8.62700e-06;-0.0027274339593601617
8.62725e-06;-0.0027070168073874824
8.62750e-06;-0.0026865996554149415
8.62775e-06;-0.0026661825034422623
8.62800e-06;-0.002645765351469583
8.62825e-06;-0.002617900596180743
8.62850e-06;-0.0025824448131499264
8.62875e-06;-0.0025469890301191103
8.62900e-06;-0.002511533247088534
8.62925e-06;-0.0024760774640577173
8.62950e-06;-0.0024406216810269007
8.62975e-06;-0.0024051658979963248
8.63000e-06;-0.0023695118067324824
8.63025e-06;-0.002333655588256102
8.63050e-06;-0.002297799369779964
8.63075e-06;-0.0022619431513035836
8.63100e-06;-0.002226086932827203
8.63125e-06;-0.0021902307143510653
8.63150e-06;-0.0021543744958746848
8.63175e-06;-0.0021243210807842016
8.63200e-06;-0.0021001822182842344
8.63225e-06;-0.0020760433557844306
8.63250e-06;-0.0020519044932844634
8.63275e-06;-0.002027765630784496
8.63300e-06;-0.0020036267682846925
8.63325e-06;-0.0019794879057847253
8.63350e-06;-0.001955349043284758
8.63375e-06;-0.0019363191894996858
8.63400e-06;-0.0019224967326778866
8.63425e-06;-0.0019086742758560873
8.63450e-06;-0.0018948518190343817
8.63475e-06;-0.0018810293622125824
8.63500e-06;-0.0018672069053907831
8.63525e-06;-0.0018533844485690775
8.63550e-06;-0.0018395619917472782
8.63575e-06;-0.0018296507372174845
8.63600e-06;-0.00182372600611666
8.63625e-06;-0.0018178012750157953
8.63650e-06;-0.0018118765439149307
8.63675e-06;-0.0018059518128141063
8.63700e-06;-0.0018000270817132417
8.63725e-06;-0.001794102350612377
8.63750e-06;-0.0017881776195115525
8.63775e-06;-0.001782252888410688
8.63800e-06;-0.0017763281573098233
8.63825e-06;-0.001770403426208999
8.63850e-06;-0.0017644786951081341
8.63875e-06;-0.0017585539640072696
8.63900e-06;-0.0017526292329064451
8.63925e-06;-0.0017467045018055806
8.63950e-06;-0.0017407797707047158
8.63975e-06;-0.0017348550396038913
8.64000e-06;-0.0017289303085030268
8.64025e-06;-0.0017230055774021622
8.64050e-06;-0.0017203440735959984
8.64075e-06;-0.0017210086396513267
8.64100e-06;-0.0017216732057066596
8.64125e-06;-0.0017223377717619924
8.64150e-06;-0.0017230023378173207
8.64175e-06;-0.0017236669038726536
8.64200e-06;-0.0017243314699279862
8.64225e-06;-0.0017249960359833145
8.64250e-06;-0.0017256606020386474
8.64275e-06;-0.0017263251680939803
8.64300e-06;-0.0017269897341493086
8.64325e-06;-0.0017276543002046414
8.64350e-06;-0.0017283188662599743
8.64375e-06;-0.0017289834323153026
8.64400e-06;-0.0017296479983706355
8.64425e-06;-0.0017303125644259683
8.64450e-06;-0.0017309771304812966
