Time(s);Current(A)
3.30000e-06;0.001858534561393191
3.30025e-06;0.0018487154304784753
3.30050e-06;0.0018388962995637764
3.30075e-06;0.0018290771686490608
3.30100e-06;0.0018192580377343452
3.30125e-06;0.0018094389068196296
3.30150e-06;0.0017996197759049305
3.30175e-06;0.001789800644990215
3.30200e-06;0.0017803927316438093
3.30225e-06;0.0017741023073391126
3.30250e-06;0.0017678118830344051
3.30275e-06;0.0017624064367710995
3.30300e-06;0.0017637101137525796
3.30325e-06;0.0017661676173973363
3.30350e-06;0.0017773724175002056
3.30375e-06;0.001789637076243051
3.30400e-06;0.00180993664874064
3.30425e-06;0.0018312313000743896
3.30450e-06;0.0018600697618050188
3.30475e-06;0.0018901670341804617
3.30500e-06;0.0019298074990004295
3.30525e-06;0.001970784069320216
3.30550e-06;0.002021889813525631
3.30575e-06;0.0020743932413521534
3.30600e-06;0.0021374926740887886
3.30625e-06;0.002200592106825424
3.30650e-06;0.002265185260090228
3.30675e-06;0.002341102485421296
3.30700e-06;0.002417019710752364
3.30725e-06;0.002494763287903268
3.30750e-06;0.0025863526542993813
3.30775e-06;0.0026779420206956496
3.30800e-06;0.002769531387091918
3.30825e-06;0.0028611207534880306
3.30850e-06;0.002952710119884299
3.30875e-06;0.0030452828052646235
3.30900e-06;0.0031453101482122746
3.30925e-06;0.0032453374911600953
3.30950e-06;0.0033453648341079164
3.30975e-06;0.003445392177055737
3.31000e-06;0.0035454195200033886
3.31025e-06;0.003644319870380382
3.31050e-06;0.0037346763567283753
3.31075e-06;0.003825032843076216
3.31100e-06;0.003915389329424209
3.31125e-06;0.004005745815772203
3.31150e-06;0.004096102302120197
3.31175e-06;0.004186458788468038
3.31200e-06;0.004257890009475436
3.31225e-06;0.004317550318684718
3.31250e-06;0.004377210627893898
3.31275e-06;0.004436870937103179
3.31300e-06;0.004496531246312461
3.31325e-06;0.00455619155552164
3.31350e-06;0.00461248813345652
3.31375e-06;0.004643283866590472
3.31400e-06;0.004674079599724424
3.31425e-06;0.004702599226053015
3.31450e-06;0.004713863417372573
3.31475e-06;0.0047251276086921305
3.31500e-06;0.004732714638322224
3.31525e-06;0.004712424670088664
3.31550e-06;0.004692134701855104
3.31575e-06;0.004671844733621544
3.31600e-06;0.004651554765388019
3.31625e-06;0.004631264797154459
3.31650e-06;0.004610974828920899
3.31675e-06;0.004590684860687373
3.31700e-06;0.004566405616469067
3.31725e-06;0.0045118831989833415
3.31750e-06;0.004457360781497708
3.31775e-06;0.004402838364011983
3.31800e-06;0.004348315946526258
3.31825e-06;0.004293793529040532
3.31850e-06;0.004239271111554899
3.31875e-06;0.004184748694069173
3.31900e-06;0.004128745726366084
3.31925e-06;0.004061518532280481
3.31950e-06;0.0039942913381947635
3.31975e-06;0.003927064144109047
3.32000e-06;0.0038598369500233293
3.32025e-06;0.0037928946188506
3.32050e-06;0.0037281118671264758
3.32075e-06;0.0036633291154023516
3.32100e-06;0.0035985463636783377
3.32125e-06;0.0035337636119542135
3.32150e-06;0.0034697359634697535
3.32175e-06;0.0034139775997538715
3.32200e-06;0.0033775113457344317
3.32225e-06;0.003341045091714992
3.32250e-06;0.003304578837695552
3.32275e-06;0.0032681125836761743
3.32300e-06;0.0032316463296567345
3.32325e-06;0.0031951800756372948
3.32350e-06;0.0031587138216179166
3.32375e-06;0.0031222475675984768
3.32400e-06;0.003085781313579037
3.32425e-06;0.003077308927575052
3.32450e-06;0.003086247835171665
3.32475e-06;0.0030951867427682933
3.32500e-06;0.0031041256503649213
3.32525e-06;0.0031130645579615346
3.32550e-06;0.0031220034655581627
3.32575e-06;0.0031309423731547908
3.32600e-06;0.0031398812807514036
3.32625e-06;0.003148820188348032
3.32650e-06;0.0031617653399654186
3.32675e-06;0.003205082301541955
3.32700e-06;0.003248399263118418
3.32725e-06;0.0032917162246949546
3.32750e-06;0.0033350331862714907
3.32775e-06;0.003378350147847954
3.32800e-06;0.00342166710942449
3.32825e-06;0.0034649840710010266
3.32850e-06;0.0035174420303608514
3.32875e-06;0.0035755853989724927
3.32900e-06;0.0036337287675842324
3.32925e-06;0.0036918721361959717
3.32950e-06;0.003750015504807613
3.32975e-06;0.0038081588734193528
3.33000e-06;0.0038663022420310925
3.33025e-06;0.003923943821986255
3.33050e-06;0.003977781282762432
3.33075e-06;0.004031618743538608
3.33100e-06;0.004085456204314784
3.33125e-06;0.004139293665090869
3.33150e-06;0.004193131125867045
3.33175e-06;0.004246968586643221
3.33200e-06;0.004300806047419306
3.33225e-06;0.004339155152464864
3.33250e-06;0.004367870993937016
3.33275e-06;0.004396586835409168
3.33300e-06;0.004425302676881271
3.33325e-06;0.004454018518353424
3.33350e-06;0.004482734359825576
3.33375e-06;0.004511450201297679
3.33400e-06;0.004535592724585911
3.33425e-06;0.004525064381580597
3.33450e-06;0.0045145360385753
3.33475e-06;0.004504007695569984
3.33500e-06;0.00449347935256467
3.33525e-06;0.004482951009559355
3.33550e-06;0.004472422666554058
3.33575e-06;0.0044618943235487435
3.33600e-06;0.004451365980543428
3.33625e-06;0.004436640804651055
3.33650e-06;0.004390098942047347
3.33675e-06;0.004343557079443639
3.33700e-06;0.00429701521683993
3.33725e-06;0.0042504733542363
3.33750e-06;0.0042039314916325924
3.33775e-06;0.004157389629028884
3.33800e-06;0.004110847766425254
3.33825e-06;0.004064305903821546
3.33850e-06;0.0040159088918814015
3.33875e-06;0.003953447773309466
3.33900e-06;0.003890986654737424
3.33925e-06;0.0038285255361653826
3.33950e-06;0.003766064417593341
3.33975e-06;0.0037036032990214055
3.34000e-06;0.0036411421804493638
3.34025e-06;0.003580467994337751
3.34050e-06;0.0035209052232582274
3.34075e-06;0.0034613424521786032
3.34100e-06;0.003401779681098979
3.34125e-06;0.003342216910019355
3.34150e-06;0.0032826541389398317
3.34175e-06;0.003225976650313417
3.34200e-06;0.0031911728293701155
3.34225e-06;0.0031563690084268734
3.34250e-06;0.0031215651874835723
3.34275e-06;0.0030867613665402707
3.34300e-06;0.0030519575455970286
3.34325e-06;0.0030171537246537275
3.34350e-06;0.002982349903710426
3.34375e-06;0.002947546082767125
3.34400e-06;0.0029127422618238823
3.34425e-06;0.002877938440880581
3.34450e-06;0.0028467251514078798
3.34475e-06;0.0028427321058692215
3.34500e-06;0.0028387390603305564
3.34525e-06;0.002834746014791891
3.34550e-06;0.002830752969253226
3.34575e-06;0.002826759923714568
3.34600e-06;0.0028227668781759026
3.34625e-06;0.002818773832637238
3.34650e-06;0.0028147807870985793
3.34675e-06;0.0028107877415599145
3.34700e-06;0.0028067946960212494
3.34725e-06;0.002804907632926804
3.34750e-06;0.002818986271936222
3.34775e-06;0.0028330649109456407
3.34800e-06;0.002847143549955059
3.34825e-06;0.002861222188964453
3.34850e-06;0.0028753008279738712
3.34875e-06;0.0028893794669832894
3.34900e-06;0.0029034581059926836
3.34925e-06;0.002917536745002102
3.34950e-06;0.0029345828128969596
3.34975e-06;0.002953474526971994
3.35000e-06;0.0029723662410469963
3.35025e-06;0.0029912579551220303
3.35050e-06;0.0030101496691970647
3.35075e-06;0.003029041383272067
3.35100e-06;0.0030479330973471014
3.35125e-06;0.0030668248114221353
3.35150e-06;0.0030844393376030657
3.35175e-06;0.003092371351232639
3.35200e-06;0.003100303364862212
3.35225e-06;0.0031082353784917848
3.35250e-06;0.0031161673921213445
3.35275e-06;0.003124099405750917
3.35300e-06;0.0031320314193804904
3.35325e-06;0.00313996343301005
3.35350e-06;0.003147895446639623
3.35375e-06;0.003155827460269196
3.35400e-06;0.003163759473898769
3.35425e-06;0.0031716914875283284
3.35450e-06;0.0031630454538006786
3.35475e-06;0.0031440884030405195
3.35500e-06;0.003125131352280392
3.35525e-06;0.003106174301520233
3.35550e-06;0.0030872172507600735
3.35575e-06;0.0030682601999999465
3.35600e-06;0.003049303149239787
3.35625e-06;0.003030346098479628
3.35650e-06;0.0030113890477194683
3.35675e-06;0.0029924319969593413
3.35700e-06;0.0029734749461991818
3.35725e-06;0.0029524093699319987
3.35750e-06;0.002915358812298825
3.35775e-06;0.002878308254665588
3.35800e-06;0.002841257697032351
3.35825e-06;0.002804207139399114
3.35850e-06;0.0027671565817659403
3.35875e-06;0.002730106024132703
3.35900e-06;0.0026930554664994664
3.35925e-06;0.0026539446281971944
3.35950e-06;0.0026135523609898854
3.35975e-06;0.002573160093782576
3.36000e-06;0.002532767826575335
3.36025e-06;0.002492375559368026
3.36050e-06;0.002451983292160717
3.36075e-06;0.0024115910249534077
3.36100e-06;0.0023722523645125404
3.36125e-06;0.00234090122163917
3.36150e-06;0.0023095500787658
3.36175e-06;0.002278198935892483
3.36200e-06;0.002246847793019113
3.36225e-06;0.0022154966501457423
3.36250e-06;0.0021841455072723723
3.36275e-06;0.002152794364399055
3.36300e-06;0.002134687861095727
3.36325e-06;0.002124819101433811
3.36350e-06;0.002114950341771911
3.36375e-06;0.002105081582109995
3.36400e-06;0.0020952128224480788
3.36425e-06;0.0020853440627861793
3.36450e-06;0.002075475303124263
3.36475e-06;0.002067711061793423
3.36500e-06;0.002075901422955459
3.36525e-06;0.002084091784117481
3.36550e-06;0.0020934196469792163
3.36575e-06;0.0021113710448253586
3.36600e-06;0.0021293224426714706
3.36625e-06;0.0021488622174040055
3.36650e-06;0.002180443665262901
3.36675e-06;0.0022120251131217965
3.36700e-06;0.0022436065609806387
3.36725e-06;0.002275188008839534
3.36750e-06;0.0023067694566984297
3.36775e-06;0.002338350904557272
3.36800e-06;0.002371314393918276
3.36825e-06;0.002414755303442325
3.36850e-06;0.0024581962129663
3.36875e-06;0.002501637122490349
3.36900e-06;0.0025450780320143986
3.36925e-06;0.0025885189415384476
3.36950e-06;0.002631959851062423
3.36975e-06;0.0026752296346648835
3.37000e-06;0.002717202092406581
3.37025e-06;0.0027591745501482075
3.37050e-06;0.0028011470078899052
3.37075e-06;0.0028431194656316026
3.37100e-06;0.0028850919233733003
3.37125e-06;0.002927064381114927
3.37150e-06;0.0029690368388566243
3.37175e-06;0.003011009296598322
3.37200e-06;0.003051275335978418
3.37225e-06;0.0030786048158400084
3.37250e-06;0.003105934295701599
3.37275e-06;0.003133263775563143
3.37300e-06;0.0031605932554247336
3.37325e-06;0.003187922735286324
3.37350e-06;0.003215252215147915
3.37375e-06;0.0032425816950094593
3.37400e-06;0.00326991117487105
3.37425e-06;0.0032957230944881673
3.37450e-06;0.003310030210319229
3.37475e-06;0.0033243373261503148
3.37500e-06;0.0033386444419814007
3.37525e-06;0.0033529515578124866
3.37550e-06;0.0033672586736435478
3.37575e-06;0.0033815657894746337
3.37600e-06;0.0033958729053057196
3.37625e-06;0.003410180021136781
3.37650e-06;0.003424487136967867
3.37675e-06;0.003438794252798953
3.37700e-06;0.003453101368630014
3.37725e-06;0.0034674084844611
3.37750e-06;0.003481715600292186
3.37775e-06;0.003496022716123272
3.37800e-06;0.0035103298319543335
3.37825e-06;0.003524636947785419
3.37850e-06;0.003538944063616505
3.37875e-06;0.0035532511794475665
3.37900e-06;0.003562614292702826
3.37925e-06;0.0035689023939450264
3.37950e-06;0.003575190495187216
3.37975e-06;0.0035814785964294166
3.38000e-06;0.003587766697671617
3.38025e-06;0.0035940547989138177
3.38050e-06;0.0036003429001560073
3.38075e-06;0.003606631001398208
3.38100e-06;0.0036129191026404084
3.38125e-06;0.003619207203882598
3.38150e-06;0.0036254953051247985
3.38175e-06;0.003631783406366999
3.38200e-06;0.0036380715076091996
3.38225e-06;0.0036443596088513892
3.38250e-06;0.0036506477100935898
3.38275e-06;0.0036569358113357903
3.38300e-06;0.00366322391257798
3.38325e-06;0.0036695120138201805
3.38350e-06;0.0036751963694143584
3.38375e-06;0.0036763036578089134
3.38400e-06;0.00367741094620347
3.38425e-06;0.0036785182345980267
3.38450e-06;0.0036796255229925834
3.38475e-06;0.0036807328113871384
3.38500e-06;0.003681840099781695
3.38525e-06;0.0036829473881762518
3.38550e-06;0.0036840546765708063
3.38575e-06;0.003685161964965363
3.38600e-06;0.0036862692533599197
3.38625e-06;0.0036873765417544764
3.38650e-06;0.0036884838301490313
3.38675e-06;0.003689591118543588
3.38700e-06;0.0036906984069381447
3.38725e-06;0.0036918056953326997
3.38750e-06;0.0036929129837272564
3.38775e-06;0.003694020272121813
3.38800e-06;0.003695127560516368
3.38825e-06;0.0036962348489109247
3.38850e-06;0.0036973421373054814
3.38875e-06;0.003698449425700038
3.38900e-06;0.0036987344431612603
3.38925e-06;0.0036985080343116383
3.38950e-06;0.0036982816254620163
3.38975e-06;0.0036980552166123947
3.39000e-06;0.0036978288077627727
3.39025e-06;0.0036976023989131507
3.39050e-06;0.0036973759900635287
3.39075e-06;0.003697149581213907
3.39100e-06;0.003696923172364285
3.39125e-06;0.003696696763514663
3.39150e-06;0.0036964703546650416
3.39175e-06;0.0036962439458154196
3.39200e-06;0.0036960175369657976
3.39225e-06;0.003695791128116176
3.39250e-06;0.003695564719266554
3.39275e-06;0.003695338310416932
3.39300e-06;0.00369511190156731
3.39325e-06;0.0036948854927176884
3.39350e-06;0.0036946590838680664
3.39375e-06;0.0036944326750184445
3.39400e-06;0.003694206266168823
3.39425e-06;0.0036946048689503576
3.39450e-06;0.0036997417588666313
3.39475e-06;0.0037048786487829046
3.39500e-06;0.0037100155386991696
3.39525e-06;0.0037151524286154433
3.39550e-06;0.003720289318531717
3.39575e-06;0.0037254262084479815
3.39600e-06;0.0037305630983642552
3.39625e-06;0.003735699988280529
3.39650e-06;0.0037408368781967935
3.39675e-06;0.003745973768113067
3.39700e-06;0.003751110658029341
3.39725e-06;0.0037562475479456145
3.39750e-06;0.003761384437861879
3.39775e-06;0.003766521327778153
3.39800e-06;0.0037716582176944265
3.39825e-06;0.00377843761417242
3.39850e-06;0.0037862385973773775
3.39875e-06;0.0037940395805823347
3.39900e-06;0.0038018405637872924
3.39925e-06;0.0038096415469922366
3.39950e-06;0.0038174425301971938
3.39975e-06;0.0038252435134021514
3.40000e-06;0.0038330444966070956
3.40025e-06;0.003840845479812053
3.40050e-06;0.0038486464630170104
3.40075e-06;0.0038564474462219546
3.40100e-06;0.003864248429426912
3.40125e-06;0.0038720494126318694
3.40150e-06;0.0038798503958368267
3.40175e-06;0.003887651379041771
3.40200e-06;0.003894060031866449
3.40225e-06;0.0038899132633192918
3.40250e-06;0.0038857664947721414
3.40275e-06;0.0038816197262249836
3.40300e-06;0.0038774729576778262
3.40325e-06;0.0038733261891306684
3.40350e-06;0.003869179420583518
3.40375e-06;0.0038650326520363607
3.40400e-06;0.003860885883489203
3.40425e-06;0.0038352549784519433
3.40450e-06;0.003796261625318231
3.40475e-06;0.0037572682721845195
3.40500e-06;0.0037182749190508737
3.40525e-06;0.0036792815659171616
3.40550e-06;0.00364028821278345
3.40575e-06;0.003601294859649738
3.40600e-06;0.003562301506516092
3.40625e-06;0.00351974856978533
3.40650e-06;0.0034502100085878934
3.40675e-06;0.0033806714473905747
3.40700e-06;0.003311132886193138
3.40725e-06;0.0032415943249957013
3.40750e-06;0.0031720557637982647
3.40775e-06;0.003102517202600946
3.40800e-06;0.003023144196750959
3.40825e-06;0.0029376544797970142
3.40850e-06;0.002852164762843214
3.40875e-06;0.0027666750458892686
3.40900e-06;0.002681185328935324
3.40925e-06;0.0025956956119815235
3.40950e-06;0.002510009749608585
3.40975e-06;0.0024228368856036154
3.41000e-06;0.002335664021598646
3.41025e-06;0.002248491157593824
3.41050e-06;0.0021613182935888544
3.41075e-06;0.0020754005650754927
3.41100e-06;0.0019989981672493082
3.41125e-06;0.0019225957694229943
3.41150e-06;0.0018461933715966804
3.41175e-06;0.0017697909737703665
3.41200e-06;0.0016950594281952484
3.41225e-06;0.0016329948112543328
3.41250e-06;0.0015720391635047418
3.41275e-06;0.0015194907424236751
3.41300e-06;0.0014677302065536303
3.41325e-06;0.0014219427217028958
3.41350e-06;0.001376982268057839
3.41375e-06;0.0013382916358486573
3.41400e-06;0.00130055488116238
3.41425e-06;0.0012700495848538328
3.41450e-06;0.0012404746825414631
3.41475e-06;0.001217953207211468
3.41500e-06;0.0011961237226333248
3.41525e-06;0.0011795403018314452
3.41550e-06;0.0011636361396670696
3.41575e-06;0.0011528815176137055
3.41600e-06;0.0011428483390774201
3.41625e-06;0.0011382845092158427
3.41650e-06;0.0011345142036868318
3.41675e-06;0.0011367597000244455
3.41700e-06;0.0011390051963620555
3.41725e-06;0.0011419381680843976
3.41750e-06;0.0011500829720504874
3.41775e-06;0.0011582277760165632
3.41800e-06;0.0011670050117533269
3.41825e-06;0.0011805767875821254
3.41850e-06;0.0011941485634109242
3.41875e-06;0.0012082623078276294
3.41900e-06;0.0012264847802431523
3.41925e-06;0.0012447072526586753
3.41950e-06;0.0012629297250741672
3.41975e-06;0.0012811521974896902
3.42000e-06;0.0012993746699052134
3.42025e-06;0.0013175971423207364
3.42050e-06;0.0013359495258788755
3.42075e-06;0.0013543827100269005
3.42100e-06;0.0013728158941749254
3.42125e-06;0.0013912490783229191
3.42150e-06;0.001409682262470944
3.42175e-06;0.001428115446618969
3.42200e-06;0.0014461671713835575
3.42225e-06;0.0014613270074225026
3.42250e-06;0.0014764868434614478
3.42275e-06;0.001491646679500393
3.42300e-06;0.0015068065155393123
3.42325e-06;0.0015219663515782574
3.42350e-06;0.0015371261876172026
3.42375e-06;0.0015560504874910796
3.42400e-06;0.001577316163879456
3.42425e-06;0.0015985818402678327
3.42450e-06;0.0016198475166562091
3.42475e-06;0.0016411131930445496
3.42500e-06;0.0016623788694329262
3.42525e-06;0.0016849320777767816
3.42550e-06;0.0017172462182359239
3.42575e-06;0.001749560358695121
3.42600e-06;0.0017818744991543183
3.42625e-06;0.0018141886396134605
3.42650e-06;0.0018465027800726576
3.42675e-06;0.001878816920531855
3.42700e-06;0.001911131060991052
3.42725e-06;0.0019434452014501942
3.42750e-06;0.0019808718287923108
3.42775e-06;0.0020214782600170736
3.42800e-06;0.0020620846912417674
3.42825e-06;0.0021026911224665307
3.42850e-06;0.0021432975536912935
3.42875e-06;0.0021839039849160563
3.42900e-06;0.00222451041614075
3.42925e-06;0.002265116847365513
3.42950e-06;0.002305656864770206
3.42975e-06;0.0023456933911457215
3.43000e-06;0.0023857299175213047
3.43025e-06;0.002425766443896888
3.43050e-06;0.0024658029702724037
3.43075e-06;0.0025058394966479868
3.43100e-06;0.00254587602302357
3.43125e-06;0.002584646318876632
3.43150e-06;0.0026138171712971683
3.43175e-06;0.0026429880237177537
3.43200e-06;0.002672158876138339
3.43225e-06;0.0027013297285588753
3.43250e-06;0.0027305005809794606
3.43275e-06;0.0027596714334000463
3.43300e-06;0.0027870709814939126
3.43325e-06;0.0028010420618765617
3.43350e-06;0.0028150131422592347
3.43375e-06;0.0028277081713009087
3.43400e-06;0.002830729304122743
3.43425e-06;0.0028337504369445833
3.43450e-06;0.0028354509571558908
3.43475e-06;0.0028271397568898128
3.43500e-06;0.00281882855662372
3.43525e-06;0.002809207967724244
3.43550e-06;0.0027896607486464975
3.43575e-06;0.0027701135295687845
3.43600e-06;0.0027487230587522763
3.43625e-06;0.002713358678379854
3.43650e-06;0.002677994298007492
3.43675e-06;0.0026426299176350696
3.43700e-06;0.0026072655372626477
3.43725e-06;0.0025719011568902258
3.43750e-06;0.0025365367765178633
3.43775e-06;0.0024994602751384444
3.43800e-06;0.0024494039817977782
3.43825e-06;0.002399347688457197
3.43850e-06;0.0023492913951165314
3.43875e-06;0.0022992351017758652
3.43900e-06;0.002249178808435284
3.43925e-06;0.0021991225150946184
3.43950e-06;0.002148730710029363
3.43975e-06;0.0020957953508764743
3.44000e-06;0.002042859991723675
3.44025e-06;0.0019899246325707867
3.44050e-06;0.0019369892734178978
3.44075e-06;0.0018840539142650986
3.44100e-06;0.0018357522787303534
3.44125e-06;0.0017903326715882047
3.44150e-06;0.0017449130644460558
3.44175e-06;0.001699493457303984
3.44200e-06;0.001654073850161835
3.44225e-06;0.0016099091187748928
3.44250e-06;0.0015752577489871987
3.44275e-06;0.001541731153305785
3.44300e-06;0.0015167316032277207
3.44325e-06;0.0014930232808270957
3.44350e-06;0.0014791039082498636
3.44375e-06;0.001466467107954284
3.44400e-06;0.0014635536399025795
3.44425e-06;0.0014619237751828118
3.44450e-06;0.0014700250592210942
3.44475e-06;0.001479510975952249
3.44500e-06;0.00149949395698213
3.44525e-06;0.0015208489606886692
3.44550e-06;0.0015526054306685515
3.44575e-06;0.0015856116082024502
3.44600e-06;0.0016280919665906531
3.44625e-06;0.0016717057951803858
3.44650e-06;0.0017239125954996402
3.44675e-06;0.0017774460319334273
3.44700e-06;0.001841036853743494
3.44725e-06;0.0019046276755535607
3.44750e-06;0.0019695062655958827
3.44775e-06;0.0020441475789997276
3.44800e-06;0.0021187888924035724
3.44825e-06;0.002194479125816006
3.44850e-06;0.002278121345940467
3.44875e-06;0.002361763566065069
