Time(s);Current(A)
1.75000e-06;0.009945338413636148
1.75025e-06;0.009969999253335356
1.75050e-06;0.009994660093034565
1.75075e-06;0.010019320932733795
1.75100e-06;0.010043981772433003
1.75125e-06;0.010068642612132233
1.75150e-06;0.010093303451831442
1.75175e-06;0.010126654999441187
1.75200e-06;0.010172155857115742
1.75225e-06;0.010217656714790297
1.75250e-06;0.010263157572464892
1.75275e-06;0.010308658430139447
1.75300e-06;0.010354159287814042
1.75325e-06;0.010399660145488597
1.75350e-06;0.010445161003163152
1.75375e-06;0.010490661860837747
1.75400e-06;0.010536162718512302
1.75425e-06;0.010581663576186897
1.75450e-06;0.010627164433861452
1.75475e-06;0.010674585993937209
1.75500e-06;0.010722181355589833
1.75525e-06;0.010769776717242417
1.75550e-06;0.01081737207889504
1.75575e-06;0.010864967440547624
1.75600e-06;0.010912562802200248
1.75625e-06;0.01096015816385283
1.75650e-06;0.011007753525505414
1.75675e-06;0.011055348887158038
1.75700e-06;0.011102944248810621
1.75725e-06;0.011150539610463245
1.75750e-06;0.011186676315487842
1.75775e-06;0.011206794213560356
1.75800e-06;0.011226912111632887
1.75825e-06;0.011247030009705401
1.75850e-06;0.011267147907777933
1.75875e-06;0.011287265805850448
1.75900e-06;0.011307383703922962
1.75925e-06;0.011327501601995494
1.75950e-06;0.011347619500068008
1.75975e-06;0.011367737398140539
1.76000e-06;0.011387855296213053
1.76025e-06;0.011377889782659445
1.76050e-06;0.011365202064784601
1.76075e-06;0.011352514346909755
1.76100e-06;0.011339826629034898
1.76125e-06;0.011327138911160052
1.76150e-06;0.011314451193285197
1.76175e-06;0.011301763475410351
1.76200e-06;0.011289075757535506
1.76225e-06;0.01127638803966065
1.76250e-06;0.011263700321785804
1.76275e-06;0.0112420189459967
1.76300e-06;0.011207764746481913
1.76325e-06;0.011173510546967127
1.76350e-06;0.011139256347452312
1.76375e-06;0.011105002147937526
1.76400e-06;0.011070747948422709
1.76425e-06;0.011036493748907923
1.76450e-06;0.011002239549393137
1.76475e-06;0.010967985349878322
1.76500e-06;0.010933731150363534
1.76525e-06;0.01089947695084872
1.76550e-06;0.010865222751333933
1.76575e-06;0.010833044768181477
1.76600e-06;0.010803769263930155
1.76625e-06;0.010774493759678835
1.76650e-06;0.010745218255427489
1.76675e-06;0.010715942751176167
1.76700e-06;0.010686667246924821
1.76725e-06;0.0106573917426735
1.76750e-06;0.01062811623842218
1.76775e-06;0.010598840734170833
1.76800e-06;0.010569565229919512
1.76825e-06;0.010540289725668166
1.76850e-06;0.010511014221416844
1.76875e-06;0.010493782334835658
1.76900e-06;0.01049338701057708
1.76925e-06;0.010492991686318502
1.76950e-06;0.010492596362059925
1.76975e-06;0.010492201037801348
1.77000e-06;0.01049180571354277
1.77025e-06;0.010491410389284193
1.77050e-06;0.010491015065025616
1.77075e-06;0.010490619740767038
1.77100e-06;0.01049022441650846
1.77125e-06;0.010489829092249884
1.77150e-06;0.01051363738795875
1.77175e-06;0.010539635834162163
1.77200e-06;0.010565634280365596
1.77225e-06;0.01059163272656901
1.77250e-06;0.010617631172772445
1.77275e-06;0.010643629618975857
1.77300e-06;0.010669628065179269
1.77325e-06;0.010695626511382703
1.77350e-06;0.010721624957586115
1.77375e-06;0.01074762340378955
1.77400e-06;0.010777890375138235
1.77425e-06;0.01081412459749077
1.77450e-06;0.010850358819843274
1.77475e-06;0.01088659304219578
1.77500e-06;0.010922827264548315
1.77525e-06;0.010959061486900819
1.77550e-06;0.010995295709253354
1.77575e-06;0.01103152993160586
1.77600e-06;0.011067764153958364
1.77625e-06;0.0111039983763109
1.77650e-06;0.01113539485595032
1.77675e-06;0.01116002833804892
1.77700e-06;0.011184661820147499
1.77725e-06;0.011209295302246078
1.77750e-06;0.011233928784344678
1.77775e-06;0.011258562266443258
1.77800e-06;0.011283195748541858
1.77825e-06;0.011307829230640437
1.77850e-06;0.011332462712739038
1.77875e-06;0.011357096194837617
1.77900e-06;0.011370912730706884
1.77925e-06;0.011369607548641601
1.77950e-06;0.011368302366576318
1.77975e-06;0.011366997184511035
1.78000e-06;0.011365692002445752
1.78025e-06;0.011364386820380469
1.78050e-06;0.011363081638315186
1.78075e-06;0.011361776456249903
1.78100e-06;0.01136047127418462
1.78125e-06;0.011359166092119337
1.78150e-06;0.011357860910054054
1.78175e-06;0.01135655572798877
1.78200e-06;0.011355250545923488
1.78225e-06;0.011353945363858205
1.78250e-06;0.011344595327707825
1.78275e-06;0.01132399886287802
1.78300e-06;0.011303402398048236
1.78325e-06;0.01128280593321845
1.78350e-06;0.011262209468388648
1.78375e-06;0.011241613003558863
1.78400e-06;0.011221016538729058
1.78425e-06;0.011200420073899273
1.78450e-06;0.011179823609069488
1.78475e-06;0.011159227144239685
1.78500e-06;0.0111386306794099
1.78525e-06;0.011118034214580097
1.78550e-06;0.011097437749750312
1.78575e-06;0.011076841284920525
1.78600e-06;0.011055334567629487
1.78625e-06;0.011035186981335831
1.78650e-06;0.011018718326638676
1.78675e-06;0.011002249671941536
1.78700e-06;0.010985781017244383
1.78725e-06;0.010969312362547242
1.78750e-06;0.010952843707850102
1.78775e-06;0.010936375053152949
1.78800e-06;0.010919906398455808
1.78825e-06;0.010903437743758654
1.78850e-06;0.010886969089061515
1.78875e-06;0.010870500434364374
1.78900e-06;0.01085403177966722
1.78925e-06;0.010843916735419689
1.78950e-06;0.010842683819551327
1.78975e-06;0.010841450903682964
1.79000e-06;0.010840217987814604
1.79025e-06;0.01083898507194624
1.79050e-06;0.010837752156077879
1.79075e-06;0.010836519240209517
1.79100e-06;0.010835286324341154
1.79125e-06;0.010834053408472792
1.79150e-06;0.01083282049260443
1.79175e-06;0.010831587576736067
1.79200e-06;0.010830354660867705
1.79225e-06;0.01083380370190069
1.79250e-06;0.01084379795727954
1.79275e-06;0.010853792212658383
1.79300e-06;0.010863786468037226
1.79325e-06;0.010873780723416077
1.79350e-06;0.010883774978794919
1.79375e-06;0.010893769234173768
1.79400e-06;0.01090376348955261
1.79425e-06;0.010913757744931453
1.79450e-06;0.010923752000310304
1.79475e-06;0.010933746255689146
1.79500e-06;0.010943740511067997
1.79525e-06;0.010953757292504336
1.79550e-06;0.010963805564592515
1.79575e-06;0.010973853836680685
1.79600e-06;0.010983902108768855
1.79625e-06;0.010993950380857032
1.79650e-06;0.011003998652945202
1.79675e-06;0.011014046925033381
1.79700e-06;0.011024095197121551
1.79725e-06;0.011034143469209721
1.79750e-06;0.0110441917412979
1.79775e-06;0.01105424001338607
1.79800e-06;0.011064288285474249
1.79825e-06;0.011066907716247493
1.79850e-06;0.011059141882959062
1.79875e-06;0.011051376049670623
1.79900e-06;0.011043610216382192
1.79925e-06;0.011035844383093754
1.79950e-06;0.011028078549805323
1.79975e-06;0.011020312716516885
1.80000e-06;0.011012546883228454
1.80025e-06;0.011004781049940023
1.80050e-06;0.010997015216651584
1.80075e-06;0.010979437887154556
1.80100e-06;0.010948144424192618
1.80125e-06;0.010916850961230707
1.80150e-06;0.010885557498268793
1.80175e-06;0.010854264035306855
1.80200e-06;0.010822970572344943
1.80225e-06;0.010791677109383004
1.80250e-06;0.010760383646421092
1.80275e-06;0.01072909018345918
1.80300e-06;0.01069779672049724
1.80325e-06;0.010660977269466463
1.80350e-06;0.01061643267761457
1.80375e-06;0.010571888085762716
1.80400e-06;0.01052734349391086
1.80425e-06;0.010482798902058969
1.80450e-06;0.010438254310207113
1.80475e-06;0.01039370971835522
1.80500e-06;0.010349165126503366
1.80525e-06;0.010304620534651473
1.80550e-06;0.010260075942799618
1.80575e-06;0.010215531350947764
1.80600e-06;0.010170986759095871
1.80625e-06;0.010137747375682907
1.80650e-06;0.01010553098419721
1.80675e-06;0.010073314592711538
1.80700e-06;0.010041098201225866
1.80725e-06;0.010008881809740168
1.80750e-06;0.009976665418254496
1.80775e-06;0.009944449026768797
1.80800e-06;0.009912232635283125
1.80825e-06;0.009880016243797455
1.80850e-06;0.009847799852311755
1.80875e-06;0.009815583460826083
1.80900e-06;0.009797504216707841
1.80925e-06;0.009799188217254123
1.80950e-06;0.009800872217800407
1.80975e-06;0.009802556218346688
1.81000e-06;0.00980424021889297
1.81025e-06;0.009805924219439254
1.81050e-06;0.009807608219985536
1.81075e-06;0.00980929222053182
1.81100e-06;0.009810976221078101
1.81125e-06;0.009812660221624383
1.81150e-06;0.009814344222170666
1.81175e-06;0.009827868031520644
1.81200e-06;0.009857943485419792
1.81225e-06;0.009888018939318916
1.81250e-06;0.009918094393218039
1.81275e-06;0.009948169847117189
1.81300e-06;0.009978245301016311
1.81325e-06;0.010008320754915461
1.81350e-06;0.010038396208814583
1.81375e-06;0.010068471662713734
1.81400e-06;0.010098547116612856
1.81425e-06;0.01012862257051198
1.81450e-06;0.010161716909539936
1.81475e-06;0.010199031545906642
1.81500e-06;0.01023634618227338
1.81525e-06;0.010273660818640087
1.81550e-06;0.010310975455006793
1.81575e-06;0.010348290091373532
1.81600e-06;0.010385604727740238
1.81625e-06;0.010422919364106976
1.81650e-06;0.010460234000473682
1.81675e-06;0.010497548636840388
1.81700e-06;0.010534863273207127
1.81725e-06;0.010554282566130148
1.81750e-06;0.010572082535360542
1.81775e-06;0.010589882504590923
1.81800e-06;0.01060768247382132
1.81825e-06;0.010625482443051698
1.81850e-06;0.010643282412282079
1.81875e-06;0.010661082381512473
1.81900e-06;0.010678882350742854
1.81925e-06;0.010696682319973248
1.81950e-06;0.010714482289203629
1.81975e-06;0.01071794965511562
1.82000e-06;0.010701380535682908
1.82025e-06;0.01068481141625021
1.82050e-06;0.010668242296817499
1.82075e-06;0.010651673177384802
1.82100e-06;0.010635104057952104
1.82125e-06;0.010618534938519393
1.82150e-06;0.010601965819086696
1.82175e-06;0.010585396699653984
1.82200e-06;0.010568827580221287
1.82225e-06;0.010552258460788574
1.82250e-06;0.010535689341355877
1.82275e-06;0.01049735953929363
1.82300e-06;0.01045706064459798
1.82325e-06;0.010416761749902366
1.82350e-06;0.010376462855206716
1.82375e-06;0.0103361639605111
1.82400e-06;0.010295865065815486
1.82425e-06;0.010255566171119836
1.82450e-06;0.01021526727642422
1.82475e-06;0.010174968381728572
1.82500e-06;0.010134669487032956
1.82525e-06;0.01009437059233734
1.82550e-06;0.010054413845787981
1.82575e-06;0.010014935410552117
1.82600e-06;0.00997545697531622
1.82625e-06;0.009935978540080359
1.82650e-06;0.009896500104844462
1.82675e-06;0.009857021669608598
1.82700e-06;0.009817543234372736
1.82725e-06;0.00977806479913684
1.82750e-06;0.009738586363900976
1.82775e-06;0.009715256548931779
1.82800e-06;0.009693387999206188
1.82825e-06;0.009671519449480599
1.82850e-06;0.00964965089975499
1.82875e-06;0.009627782350029401
1.82900e-06;0.009605913800303793
1.82925e-06;0.009584045250578203
1.82950e-06;0.009562176700852612
1.82975e-06;0.00955122079067443
1.83000e-06;0.009555520374386225
1.83025e-06;0.009559819958098022
1.83050e-06;0.009564119541809817
1.83075e-06;0.009568419125521614
1.83100e-06;0.009572718709233409
1.83125e-06;0.009577018292945204
1.83150e-06;0.009581317876657001
1.83175e-06;0.009585617460368796
1.83200e-06;0.009589917044080595
1.83225e-06;0.009594216627792388
1.83250e-06;0.009598516211504184
1.83275e-06;0.00960281579521598
1.83300e-06;0.009607115378927776
1.83325e-06;0.009618286603058964
1.83350e-06;0.009639064143606471
1.83375e-06;0.009659841684153979
1.83400e-06;0.009680619224701504
1.83425e-06;0.009701396765249011
1.83450e-06;0.009722174305796536
1.83475e-06;0.009742951846344043
1.83500e-06;0.009763729386891568
1.83525e-06;0.009784506927439075
1.83550e-06;0.009805284467986583
1.83575e-06;0.009826062008534107
1.83600e-06;0.009846839549081613
1.83625e-06;0.009867617089629138
1.83650e-06;0.009888394630176645
1.83675e-06;0.009905045800735188
1.83700e-06;0.009915928448299974
1.83725e-06;0.009926811095864753
1.83750e-06;0.00993769374342954
1.83775e-06;0.009948576390994317
1.83800e-06;0.009959459038559096
1.83825e-06;0.009970341686123882
1.83850e-06;0.00998122433368866
1.83875e-06;0.009992106981253447
1.83900e-06;0.010002989628818225
1.83925e-06;0.010013872276383012
1.83950e-06;0.01002475492394779
1.83975e-06;0.010035637571512568
1.84000e-06;0.010038654173574446
1.84025e-06;0.010030674315194348
1.84050e-06;0.010022694456814243
1.84075e-06;0.010014714598434145
1.84100e-06;0.010006734740054047
1.84125e-06;0.009998754881673944
1.84150e-06;0.009990775023293846
1.84175e-06;0.009982795164913742
1.84200e-06;0.009974815306533644
1.84225e-06;0.009966835448153546
1.84250e-06;0.009958855589773443
1.84275e-06;0.009950875731393345
1.84300e-06;0.00994289587301324
1.84325e-06;0.009930646759104293
1.84350e-06;0.009912429373142835
1.84375e-06;0.00989421198718136
1.84400e-06;0.009875994601219901
1.84425e-06;0.009857777215258426
1.84450e-06;0.009839559829296967
1.84475e-06;0.009821342443335492
1.84500e-06;0.009803125057374032
1.84525e-06;0.009784907671412574
1.84550e-06;0.009766690285451098
1.84575e-06;0.00974847289948964
1.84600e-06;0.009730255513528165
1.84625e-06;0.009712038127566706
1.84650e-06;0.009697459715655271
1.84675e-06;0.009687968464016962
1.84700e-06;0.00967847721237866
1.84725e-06;0.009668985960740348
1.84750e-06;0.009659494709102046
1.84775e-06;0.009650003457463743
1.84800e-06;0.009640512205825433
1.84825e-06;0.009631020954187131
1.84850e-06;0.00962152970254882
1.84875e-06;0.009612038450910517
1.84900e-06;0.009602547199272208
1.84925e-06;0.009593055947633905
1.84950e-06;0.009583564695995602
1.84975e-06;0.009585254584614301
1.85000e-06;0.009602575321857
1.85025e-06;0.009619896059099714
1.85050e-06;0.009637216796342413
1.85075e-06;0.009654537533585111
1.85100e-06;0.009671858270827824
1.85125e-06;0.009689179008070523
1.85150e-06;0.009706499745313237
1.85175e-06;0.009723820482555936
1.85200e-06;0.009741141219798634
1.85225e-06;0.009758461957041347
1.85250e-06;0.009775782694284045
1.85275e-06;0.009800525152537513
1.85300e-06;0.009835642920909611
1.85325e-06;0.00987076068928174
1.85350e-06;0.009905878457653838
1.85375e-06;0.009940996226025936
1.85400e-06;0.009976113994398066
1.85425e-06;0.010011231762770164
1.85450e-06;0.010046349531142293
1.85475e-06;0.010081467299514391
1.85500e-06;0.010116585067886489
1.85525e-06;0.010151702836258618
1.85550e-06;0.010186820604630716
1.85575e-06;0.010219924949898908
1.85600e-06;0.010250214599078013
1.85625e-06;0.010280504248257119
1.85650e-06;0.01031079389743625
1.85675e-06;0.010341083546615356
1.85700e-06;0.010371373195794488
1.85725e-06;0.010401662844973594
1.85750e-06;0.010431952494152725
1.85775e-06;0.010462242143331833
1.85800e-06;0.010492531792510938
1.85825e-06;0.010506389591617872
1.85850e-06;0.010518760496427424
1.85875e-06;0.010531131401236985
1.85900e-06;0.010543502306046537
1.85925e-06;0.010555873210856086
1.85950e-06;0.010568244115665648
1.85975e-06;0.0105806150204752
1.86000e-06;0.01059298592528476
1.86025e-06;0.01060535683009431
1.86050e-06;0.0106094534034213
1.86075e-06;0.01060198274658319
1.86100e-06;0.010594512089745087
1.86125e-06;0.010587041432906978
1.86150e-06;0.010579570776068876
1.86175e-06;0.010572100119230767
1.86200e-06;0.010564629462392663
1.86225e-06;0.010557158805554561
1.86250e-06;0.010549688148716452
1.86275e-06;0.010542217491878348
1.86300e-06;0.01053474683504024
1.86325e-06;0.010527276178202137
1.86350e-06;0.010519805521364034
1.86375e-06;0.010512334864525925
1.86400e-06;0.010504864207687823
1.86425e-06;0.010493614796959769
1.86450e-06;0.010478638512391402
1.86475e-06;0.010463662227823035
1.86500e-06;0.010448685943254656
1.86525e-06;0.010433709658686289
1.86550e-06;0.01041873337411791
1.86575e-06;0.010403757089549543
1.86600e-06;0.010388780804981164
1.86625e-06;0.010373804520412797
1.86650e-06;0.01035882823584443
1.86675e-06;0.01034385195127605
1.86700e-06;0.010328875666707683
1.86725e-06;0.010313899382139304
1.86750e-06;0.010298923097570937
1.86775e-06;0.010283946813002572
1.86800e-06;0.01026828732104815
1.86825e-06;0.010252152845811796
1.86850e-06;0.010236018370575431
1.86875e-06;0.010219883895339076
1.86900e-06;0.010203749420102723
1.86925e-06;0.010187614944866358
1.86950e-06;0.010171480469630003
1.86975e-06;0.010155345994393638
1.87000e-06;0.010139211519157284
1.87025e-06;0.010123077043920918
1.87050e-06;0.010106942568684565
1.87075e-06;0.01008995567239394
1.87100e-06;0.01006433847070283
1.87125e-06;0.01003872126901174
1.87150e-06;0.010013104067320628
1.87175e-06;0.009987486865629539
1.87200e-06;0.00996186966393845
1.87225e-06;0.009936252462247339
1.87250e-06;0.00991063526055625
1.87275e-06;0.009885018058865139
1.87300e-06;0.00985940085717405
1.87325e-06;0.00983378365548296
1.87350e-06;0.009808166453791848
1.87375e-06;0.009780220719369126
1.87400e-06;0.00975065612932282
1.87425e-06;0.009721091539276538
1.87450e-06;0.009691526949230232
1.87475e-06;0.00966196235918395
1.87500e-06;0.009632397769137668
1.87525e-06;0.009602833179091361
1.87550e-06;0.00957326858904508
1.87575e-06;0.009543703998998773
1.87600e-06;0.009514726416146315
1.87625e-06;0.009491691965891374
1.87650e-06;0.009468657515636414
1.87675e-06;0.009445623065381473
1.87700e-06;0.009422588615126511
1.87725e-06;0.00939955416487157
1.87750e-06;0.00937651971461663
1.87775e-06;0.009353485264361668
1.87800e-06;0.009330450814106727
1.87825e-06;0.009307416363851767
1.87850e-06;0.009288771847473886
1.87875e-06;0.009273179325619078
1.87900e-06;0.009257586803764255
1.87925e-06;0.009241994281909447
1.87950e-06;0.009226401760054624
1.87975e-06;0.009210809238199814
1.88000e-06;0.009195216716344993
1.88025e-06;0.009179624194490183
1.88050e-06;0.009164031672635376
1.88075e-06;0.009148439150780553
1.88100e-06;0.009132846628925743
1.88125e-06;0.009117254107070922
1.88150e-06;0.009101661585216112
1.88175e-06;0.009086069063361304
1.88200e-06;0.009070476541506481
1.88225e-06;0.009054884019651672
1.88250e-06;0.00903929149779685
1.88275e-06;0.00902397646665822
1.88300e-06;0.009011470880000014
1.88325e-06;0.008998965293341798
1.88350e-06;0.008986459706683592
1.88375e-06;0.008973954120025376
1.88400e-06;0.00896144853336717
1.88425e-06;0.008948942946708954
1.88450e-06;0.00893643736005075
1.88475e-06;0.008923931773392544
1.88500e-06;0.008911426186734328
1.88525e-06;0.008898920600076122
1.88550e-06;0.008886415013417906
1.88575e-06;0.0088739094267597
1.88600e-06;0.008861403840101494
1.88625e-06;0.008848898253443278
1.88650e-06;0.008836392666785072
1.88675e-06;0.008823887080126856
1.88700e-06;0.008811381493468651
1.88725e-06;0.008804279377927422
1.88750e-06;0.008800933893970084
1.88775e-06;0.008797588410012748
1.88800e-06;0.00879424292605541
1.88825e-06;0.008790897442098076
1.88850e-06;0.008787551958140738
1.88875e-06;0.008784206474183402
1.88900e-06;0.008780860990226068
1.88925e-06;0.00877751550626873
1.88950e-06;0.008774170022311394
1.88975e-06;0.008770824538354056
1.89000e-06;0.008767479054396721
1.89025e-06;0.008764133570439387
1.89050e-06;0.00876078808648205
1.89075e-06;0.008757442602524713
1.89100e-06;0.008754097118567375
1.89125e-06;0.008750751634610041
1.89150e-06;0.008747406150652705
1.89175e-06;0.008744060666695367
1.89200e-06;0.008740715182738033
1.89225e-06;0.008737369698780695
1.89250e-06;0.00873469344827138
1.89275e-06;0.008738792827023537
1.89300e-06;0.00874289220577569
1.89325e-06;0.008746991584527845
1.89350e-06;0.008751090963280002
1.89375e-06;0.008755190342032156
1.89400e-06;0.008759289720784314
1.89425e-06;0.008763389099536468
1.89450e-06;0.008767488478288621
1.89475e-06;0.00877158785704078
1.89500e-06;0.008775687235792933
1.89525e-06;0.00877978661454509
1.89550e-06;0.008783885993297245
1.89575e-06;0.008787985372049398
1.89600e-06;0.008792084750801555
1.89625e-06;0.008796184129553708
1.89650e-06;0.008800283508305867
1.89675e-06;0.00880438288705802
1.89700e-06;0.008808482265810177
1.89725e-06;0.008812581644562332
1.89750e-06;0.008816681023314486
1.89775e-06;0.008820780402066642
1.89800e-06;0.008829186634035043
1.89825e-06;0.008840587100721853
1.89850e-06;0.008851987567408653
1.89875e-06;0.008863388034095454
1.89900e-06;0.008874788500782263
1.89925e-06;0.008886188967469065
1.89950e-06;0.008897589434155874
1.89975e-06;0.008908989900842674
1.90000e-06;0.008920390367529474
1.90025e-06;0.00893347985794857
1.90050e-06;0.008963669806595216
1.90075e-06;0.00899385975524189
1.90100e-06;0.009024049703888537
1.90125e-06;0.00905423965253521
1.90150e-06;0.009084429601181856
1.90175e-06;0.009114619549828503
