Time(s);Current(A)
7.75000e-06;-0.0007880737549680936
7.75025e-06;-0.0008032704727694346
7.75050e-06;-0.0008167291026066031
7.75075e-06;-0.0008266873152038809
7.75100e-06;-0.0008347945946312579
7.75125e-06;-0.0008395816834449052
7.75150e-06;-0.0008426131384252889
7.75175e-06;-0.0008426528352159198
7.75200e-06;-0.0008411105650323619
7.75225e-06;-0.0008366588541759192
7.75250e-06;-0.000830668703791294
7.75275e-06;-0.000821203144903429
7.75300e-06;-0.000809899876840934
7.75325e-06;-0.0007985966087783622
7.75350e-06;-0.0007838647260276722
7.75375e-06;-0.0007673198775025085
7.75400e-06;-0.0007507750289772327
7.75425e-06;-0.0007315077627406869
7.75450e-06;-0.0007108009500449167
7.75475e-06;-0.0006900941373490061
7.75500e-06;-0.0006670834960418305
7.75525e-06;-0.0006428546477320142
7.75550e-06;-0.0006186257994220337
7.75575e-06;-0.0005943969511120531
7.75600e-06;-0.0005699697407701547
7.75625e-06;-0.0005444538175970912
7.75650e-06;-0.0005189378944240279
7.75675e-06;-0.0004934219712511375
7.75700e-06;-0.0004679060480780742
7.75725e-06;-0.00044328007887958125
7.75750e-06;-0.0004191246951053551
7.75775e-06;-0.0003949693113309653
7.75800e-06;-0.0003723760978894061
7.75825e-06;-0.00035060892108542085
7.75850e-06;-0.00033061588285462706
7.75875e-06;-0.00031156096477033345
7.75900e-06;-0.0002934812922352643
7.75925e-06;-0.00027591730517760826
7.75950e-06;-0.00025678338371978637
7.75975e-06;-0.00023527847485593794
7.76000e-06;-0.00021159337033831328
7.76025e-06;-0.00018599620430484562
7.76050e-06;-0.00015875507675645233
7.76075e-06;-0.00013013721142742998
7.76100e-06;-0.0001001394338728687
7.76125e-06;-6.813964357472862e-05
7.76150e-06;-3.333602363409056e-05
7.76175e-06;4.538206128829205e-06
7.76200e-06;4.5269246859085016e-05
7.76225e-06;8.852814650787256e-05
7.76250e-06;0.00013398598002533106
7.76275e-06;0.00018131441054987558
7.76300e-06;0.0002303544925649171
7.76325e-06;0.0002813349527220284
7.76350e-06;0.00033459708459768114
7.76375e-06;0.0003907572336442305
7.76400e-06;0.0004480123989464252
7.76425e-06;0.0005072284402230654
7.76450e-06;0.000567481343717641
7.76475e-06;0.0006293295139845029
7.76500e-06;0.000692021221458993
7.76525e-06;0.0007547129289330581
7.76550e-06;0.0008174046364075482
7.76575e-06;0.0008801505279772831
7.76600e-06;0.0009431938097232632
7.76625e-06;0.0010062370914696705
7.76650e-06;0.001069280373216078
7.76675e-06;0.001132323654962058
7.76700e-06;0.001192487600437932
7.76725e-06;0.0012511290248405265
7.76750e-06;0.0013097704492427236
7.76775e-06;0.0013643708780596154
7.76800e-06;0.0014168345293839274
7.76825e-06;0.0014692981807078837
7.76850e-06;0.0015154774747011786
7.76875e-06;0.0015583337575661863
7.76900e-06;0.0016011900404309036
7.76925e-06;0.0016366243444815656
7.76950e-06;0.0016681340915893894
7.76975e-06;0.001699643838697213
7.77000e-06;0.0017235966194621367
7.77025e-06;0.0017435534652522845
7.77050e-06;0.0017635103110424323
7.77075e-06;0.0017753671943996218
7.77100e-06;0.0017829410200172872
7.77125e-06;0.0017905148456349527
7.77150e-06;0.0017904960923670972
7.77175e-06;0.0017864625731015358
7.77200e-06;0.0017824290538359744
7.77225e-06;0.0017713881385507488
7.77250e-06;0.001756641887345112
7.77275e-06;0.0017418956361394755
7.77300e-06;0.0017207611851851052
7.77325e-06;0.0016962488138263332
7.77350e-06;0.0016717364424675611
7.77375e-06;0.001642107947326052
7.77400e-06;0.00160977417376523
7.77425e-06;0.001577440400204408
7.77450e-06;0.0015399545441844998
7.77475e-06;0.0014997443956955663
7.77500e-06;0.001459534247206633
7.77525e-06;0.0014193240987179722
7.77550e-06;0.0013791139502290386
7.77575e-06;0.001338325049707952
7.77600e-06;0.0012943596604335118
7.77625e-06;0.0012503942711587738
7.77650e-06;0.0012064288818840357
7.77675e-06;0.0011624634926095958
7.77700e-06;0.0011184981033348577
7.77725e-06;0.0010761432603271558
7.77750e-06;0.0010346400339429165
7.77775e-06;0.000993136807558396
7.77800e-06;0.0009550447449535565
7.77825e-06;0.000918756420520488
7.77850e-06;0.0008824680960876655
7.77875e-06;0.000850567440621354
7.77900e-06;0.0008209868748698237
7.77925e-06;0.0007914063091184939
7.77950e-06;0.0007618257433669636
7.77975e-06;0.0007322284818563493
7.78000e-06;0.0007026223920457091
7.78025e-06;0.0006730163022348683
7.78050e-06;0.0006434102124240276
7.78075e-06;0.000613610065349738
7.78100e-06;0.0005837073056431365
7.78125e-06;0.000553804545936535
7.78150e-06;0.0005239017862301361
7.78175e-06;0.0004916893862320158
7.78200e-06;0.00045825570615865767
7.78225e-06;0.0004248220260855261
7.78250e-06;0.00039138834601216803
7.78275e-06;0.00035676409205660634
7.78300e-06;0.0003215102923811919
7.78325e-06;0.0002862564927055385
7.78350e-06;0.00024964706370577246
7.78375e-06;0.00021232081179269768
7.78400e-06;0.00017403151965386668
7.78425e-06;0.00013523299590720297
7.78450e-06;9.612287589653819e-05
7.78475e-06;5.685892614685318e-05
7.78500e-06;1.767621288071252e-05
7.78525e-06;-2.1505096342449e-05
7.78550e-06;-6.0840295679778656e-05
7.78575e-06;-0.00010029757709376159
7.78600e-06;-0.00013953748732669055
7.78625e-06;-0.00017864806598149016
7.78650e-06;-0.00021689644289301768
7.78675e-06;-0.0002546889090664318
7.78700e-06;-0.00029115700842300443
7.78725e-06;-0.0003269248156989926
7.78750e-06;-0.0003612869714179825
7.78775e-06;-0.00039490585371622426
7.78800e-06;-0.0004266384388734131
7.78825e-06;-0.00045737359723490765
7.78850e-06;-0.00048558777212421835
7.78875e-06;-0.0005124689139451408
7.78900e-06;-0.0005362463579386231
7.78925e-06;-0.0005583826440723734
7.78950e-06;-0.0005771152798359989
7.78975e-06;-0.0005940481503302007
7.79000e-06;-0.0006074518191072479
7.79025e-06;-0.000618989334199889
7.79050e-06;-0.0006268774076503495
7.79075e-06;-0.0006328357475482451
7.79100e-06;-0.0006350570549401946
7.79125e-06;-0.0006353023129194544
7.79150e-06;-0.000631900090103924
7.79175e-06;-0.0006265691705829766
7.79200e-06;-0.0006177895202384861
7.79225e-06;-0.0006071862672073726
7.79250e-06;-0.0005933364029355441
7.79275e-06;-0.0005777698117621336
7.79300e-06;-0.0005591791369740864
7.79325e-06;-0.0005389894023326238
7.79350e-06;-0.0005161090328428906
7.79375e-06;-0.0004918059228759055
7.79400e-06;-0.0004652140375570375
7.79425e-06;-0.00043741190502131165
7.79450e-06;-0.0004077248745900787
7.79475e-06;-0.0003770411572489164
7.79500e-06;-0.00034488917449494976
7.79525e-06;-0.0003119608096778967
7.79550e-06;-0.00027791481259922834
7.79575e-06;-0.00024327783950627496
7.79600e-06;-0.00020864086641332158
7.79625e-06;-0.00017372135361048394
7.79650e-06;-0.0001386524408684454
7.79675e-06;-0.00010358352812640681
7.79700e-06;-6.894675220552069e-05
7.79725e-06;-3.498590483989316e-05
7.79750e-06;-1.8589894089383355e-06
7.79775e-06;3.0202256995231875e-05
7.79800e-06;6.096500061819057e-05
7.79825e-06;9.019657355357798e-05
7.79850e-06;0.00011766432496360934
7.79875e-06;0.00014313583706881088
7.79900e-06;0.000166456858760537
7.79925e-06;0.0001876715147291485
7.79950e-06;0.00020693354133682315
7.79975e-06;0.00022430309897302509
7.80000e-06;0.00023972877198721442
7.80025e-06;0.00025313023380754425
7.80050e-06;0.0002644271959365479
7.80075e-06;0.00027353954230859766
7.80100e-06;0.00028043610627667774
7.80125e-06;0.00028520996592035886
7.80150e-06;0.0002880228906226172
7.80175e-06;0.00028897800859012027
7.80200e-06;0.00028810853430276374
7.80225e-06;0.0002854295916859284
7.80250e-06;0.00028095633376878286
7.80275e-06;0.0002747040188337556
7.80300e-06;0.0002667185675602897
7.80325e-06;0.0002571237304733455
7.80350e-06;0.0002460862477452157
7.80375e-06;0.0002337361500316804
7.80400e-06;0.0002201596479184985
7.80425e-06;0.0002054316294988914
7.80450e-06;0.0001896269889951878
7.80475e-06;0.00017282066767532978
7.80500e-06;0.00015487523725258098
7.80525e-06;0.00013650593265427188
7.80550e-06;0.00011742367440560615
7.80575e-06;9.796442408073475e-05
7.80600e-06;7.809246772718886e-05
7.80625e-06;5.800228273793969e-05
7.80650e-06;3.791209774855438e-05
7.80675e-06;1.778548002377761e-05
7.80700e-06;-2.2441900859854627e-06
7.80725e-06;-2.198655799314844e-05
7.80750e-06;-4.126994242635027e-05
7.80775e-06;-5.9937097957412424e-05
7.80800e-06;-7.78479747953143e-05
7.80825e-06;-9.48669829531669e-05
7.80850e-06;-0.00011085855399807764
7.80875e-06;-0.0001256881052283269
7.80900e-06;-0.00013966132795687985
7.80925e-06;-0.00015340275243863686
7.80950e-06;-0.00016821754574867254
7.80975e-06;-0.00018468030804628222
7.81000e-06;-0.00020266364612391206
7.81025e-06;-0.00022196714093880216
7.81050e-06;-0.00024239040255166555
7.81075e-06;-0.00026373368884100555
7.81100e-06;-0.0002859980296897687
7.81125e-06;-0.0003096444965840461
7.81150e-06;-0.00033526910077418724
7.81175e-06;-0.00036307221892107076
7.81200e-06;-0.0003934535731254783
7.81225e-06;-0.00042479943171336174
7.81250e-06;-0.00045805190981677705
7.81275e-06;-0.000492312560680648
7.81300e-06;-0.0005282125370975087
7.81325e-06;-0.0005649793479055904
7.81350e-06;-0.0006043150845873352
7.81375e-06;-0.0006450092050826049
7.81400e-06;-0.0006857033255775988
7.81425e-06;-0.000728813085713653
7.81450e-06;-0.0007732001757335347
7.81475e-06;-0.0008175872657531157
7.81500e-06;-0.0008619743557729974
7.81525e-06;-0.0009063614457928791
7.81550e-06;-0.0009516294779263147
7.81575e-06;-0.0009973633302382834
7.81600e-06;-0.0010430971825502522
7.81625e-06;-0.001088831034861911
7.81650e-06;-0.00113456488717388
7.81675e-06;-0.00117744077835745
7.81700e-06;-0.0012188054511061625
7.81725e-06;-0.0012601701238551554
7.81750e-06;-0.0013015347966041481
7.81775e-06;-0.0013428994693528607
7.81800e-06;-0.0013842641421018536
7.81825e-06;-0.0014179877795587293
7.81850e-06;-0.0014476710284745482
7.81875e-06;-0.0014773542773905681
7.81900e-06;-0.0015070375263065883
7.81925e-06;-0.001536720775222407
7.81950e-06;-0.0015664040241384271
7.81975e-06;-0.0015893945137266997
7.82000e-06;-0.0016088460394097723
7.82025e-06;-0.0016282975650929767
7.82050e-06;-0.0016430585153060528
7.82075e-06;-0.0016553392064106835
7.82100e-06;-0.001667619897515231
7.82125e-06;-0.0016754832118650116
7.82150e-06;-0.0016810107277606887
7.82175e-06;-0.0016865382436563284
7.82200e-06;-0.0016853124392298023
7.82225e-06;-0.0016805156477573218
7.82250e-06;-0.0016757188562848738
7.82275e-06;-0.0016709220648123935
7.82300e-06;-0.0016661252733399133
7.82325e-06;-0.0016613284818674653
7.82350e-06;-0.0016565316903949848
7.82375e-06;-0.0016517348989225045
7.82400e-06;-0.0016400158972457867
7.82425e-06;-0.0016246366037732675
7.82450e-06;-0.0016092573103007484
7.82475e-06;-0.0015938780168283336
7.82500e-06;-0.0015784987233558145
7.82525e-06;-0.0015631194298832952
7.82550e-06;-0.0015477401364108803
7.82575e-06;-0.0015323608429383612
7.82600e-06;-0.0015150578470984315
7.82625e-06;-0.0014967376455128655
7.82650e-06;-0.0014784174439271753
7.82675e-06;-0.001460097242341485
7.82700e-06;-0.001441777040755919
7.82725e-06;-0.0014234568391702288
7.82750e-06;-0.0014051366375845387
7.82775e-06;-0.0013873540450883182
7.82800e-06;-0.001372522127727893
7.82825e-06;-0.0013576902103674682
7.82850e-06;-0.0013428582930071437
7.82875e-06;-0.0013280263756467188
7.82900e-06;-0.0013131944582862936
7.82925e-06;-0.0012983625409258687
7.82950e-06;-0.0012835306235655442
7.82975e-06;-0.0012637386892589966
7.83000e-06;-0.0012413240219232165
7.83025e-06;-0.0012189093545875885
7.83050e-06;-0.0011964946872518084
7.83075e-06;-0.0011740800199160283
7.83100e-06;-0.0011516653525804003
7.83125e-06;-0.0011292506852446202
7.83150e-06;-0.0011068360179088401
7.83175e-06;-0.0010844213505732119
7.83200e-06;-0.0010597097006537777
7.83225e-06;-0.0010223910291394485
7.83250e-06;-0.0009850723576253723
7.83275e-06;-0.0009477536861110432
7.83300e-06;-0.0009104350145967139
7.83325e-06;-0.0008731163430826377
7.83350e-06;-0.0008357976715683086
7.83375e-06;-0.0007984790000539793
7.83400e-06;-0.0007611603285399031
7.83425e-06;-0.0007238416570255739
7.83450e-06;-0.0006815232870054692
7.83475e-06;-0.0006365612013387075
7.83500e-06;-0.0005915991156716413
7.83525e-06;-0.000546637030004575
7.83550e-06;-0.0005008431642859973
7.83575e-06;-0.0004546094740586154
7.83600e-06;-0.00040837578383123353
7.83625e-06;-0.0003621420936041649
7.83650e-06;-0.0003165859999020962
7.83675e-06;-0.00027138820231216085
7.83700e-06;-0.00022713916931196466
7.83725e-06;-0.00018412122600352469
7.83750e-06;-0.0001422826515127421
7.83775e-06;-0.00010181030021471291
7.83800e-06;-6.297673824588994e-05
7.83825e-06;-2.607503598249274e-05
7.83850e-06;8.601790481358733e-06
7.83875e-06;4.0760663304274865e-05
7.83900e-06;7.008396357948076e-05
7.83925e-06;9.622720250712982e-05
7.83950e-06;0.00011891610149841235
7.83975e-06;0.00013801656718759878
7.84000e-06;0.00015347915046172127
7.84025e-06;0.00016527143917230308
7.84050e-06;0.000173361054760235
7.84075e-06;0.00017771558617260476
7.84100e-06;0.00017828727212073606
7.84125e-06;0.00017501152869415655
7.84150e-06;0.00016786776389958612
7.84175e-06;0.00015692320434399518
7.84200e-06;0.00014229808410573321
7.84225e-06;0.0001241233166997191
7.84250e-06;0.00010252982570738791
7.84275e-06;7.764852043174768e-05
7.84300e-06;4.960067924414159e-05
7.84325e-06;1.8497037710133243e-05
7.84350e-06;-1.5524112938062205e-05
7.84375e-06;-5.226947953565936e-05
7.84400e-06;-9.151257260683654e-05
7.84425e-06;-0.0001330202390925965
7.84450e-06;-0.0001765593269485855
7.84475e-06;-0.00022189669966671854
7.84500e-06;-0.00026922232395388813
7.84525e-06;-0.00031728513899377243
7.84550e-06;-0.00036692258181955867
7.84575e-06;-0.00041739264847551807
7.84600e-06;-0.00046786271513147746
7.84625e-06;-0.0005183327817874369
7.84650e-06;-0.0005688028484430543
7.84675e-06;-0.0006192729150990136
7.84700e-06;-0.0006697429817549731
7.84725e-06;-0.0007181167384383586
7.84750e-06;-0.0007653820187869179
7.84775e-06;-0.000812647299135477
7.84800e-06;-0.0008568279824696416
7.84825e-06;-0.0008993776079744035
7.84850e-06;-0.0009384328510839426
7.84875e-06;-0.0009756403520927971
7.84900e-06;-0.001009022614193429
7.84925e-06;-0.001040382185536096
7.84950e-06;-0.0010717417568785505
7.84975e-06;-0.0010994341348837145
7.85000e-06;-0.001125187392679883
7.85025e-06;-0.0011509406504758768
7.85050e-06;-0.001176693908272045
7.85075e-06;-0.0012024471660682134
7.85100e-06;-0.0012282004238642072
7.85125e-06;-0.0012539536816603754
7.85150e-06;-0.0012787643706419652
7.85175e-06;-0.0012984017572668439
7.85200e-06;-0.0013180391438918557
7.85225e-06;-0.0013376765305168675
7.85250e-06;-0.0013573139171417462
7.85275e-06;-0.001376951303766758
7.85300e-06;-0.0013965886903917696
7.85325e-06;-0.0014162260770166483
7.85350e-06;-0.0014333417305612418
7.85375e-06;-0.001449123954660309
7.85400e-06;-0.001464906178759269
7.85425e-06;-0.0014806884028583363
7.85450e-06;-0.0014964706269574035
7.85475e-06;-0.0015122528510564705
7.85500e-06;-0.0015280350751554308
7.85525e-06;-0.0015438172992544978
7.85550e-06;-0.001559599523353565
7.85575e-06;-0.001575381747452525
7.85600e-06;-0.0015911639715515923
7.85625e-06;-0.0016038626774202728
7.85650e-06;-0.0016149308958925267
7.85675e-06;-0.0016259991143648558
7.85700e-06;-0.001637067332837185
7.85725e-06;-0.0016481355513094389
7.85750e-06;-0.001659203769781768
7.85775e-06;-0.0016702719882540971
7.85800e-06;-0.001681340206726351
7.85825e-06;-0.0016924084251986801
7.85850e-06;-0.0017034766436710093
7.85875e-06;-0.0017145448621432632
7.85900e-06;-0.0017165399886733305
7.85925e-06;-0.001713737490881354
7.85950e-06;-0.0017109349930893964
7.85975e-06;-0.0017081324952974198
7.86000e-06;-0.0017053299975054435
7.86025e-06;-0.001702527499713486
7.86050e-06;-0.0016997250019215094
7.86075e-06;-0.001696922504129533
7.86100e-06;-0.0016941200063375756
7.86125e-06;-0.001691317508545599
7.86150e-06;-0.0016885150107536226
7.86175e-06;-0.0016709038263721593
7.86200e-06;-0.001645462178526215
7.86225e-06;-0.0016200205306802706
7.86250e-06;-0.0015945788828344986
7.86275e-06;-0.0015691372349885542
7.86300e-06;-0.0015436955871426098
7.86325e-06;-0.0015182539392966654
7.86350e-06;-0.0014928122914508934
7.86375e-06;-0.0014673706436049488
7.86400e-06;-0.0014419289957590046
7.86425e-06;-0.0014164873479132326
7.86450e-06;-0.0013834435032878032
7.86475e-06;-0.0013463798069507861
7.86500e-06;-0.0013093161106140202
7.86525e-06;-0.0012722524142770029
7.86550e-06;-0.0012351887179399858
7.86575e-06;-0.001197914418040745
7.86600e-06;-0.001159484217489701
7.86625e-06;-0.0011210540169386573
7.86650e-06;-0.0010826238163878738
7.86675e-06;-0.00104419361583683
7.86700e-06;-0.001005763415285786
7.86725e-06;-0.0009692315111762963
7.86750e-06;-0.0009337033787947577
7.86775e-06;-0.0008981752464132192
7.86800e-06;-0.0008655740944494268
7.86825e-06;-0.0008345206565980574
7.86850e-06;-0.0008034672187466881
7.86875e-06;-0.0007759229172389242
7.86900e-06;-0.0007502341593518141
7.86925e-06;-0.0007277703672315872
7.86950e-06;-0.0007070118564316495
7.86975e-06;-0.0006895240200843053
7.87000e-06;-0.000673765634668185
7.87025e-06;-0.000661427823826759
7.87050e-06;-0.0006508987273556133
7.87075e-06;-0.000643938563555293
7.87100e-06;-0.0006388655621798883
7.87125e-06;-0.0006373065135982329
7.87150e-06;-0.0006376055554561768
7.87175e-06;-0.000641196650714908
7.87200e-06;-0.000646528501558394
7.87225e-06;-0.0006549958426070702
7.87250e-06;-0.0006651211525344935
7.87275e-06;-0.0006782243233795374
7.87300e-06;-0.0006929021126746296
7.87325e-06;-0.0007102728688914895
7.87350e-06;-0.0007290675987313726
7.87375e-06;-0.0007506689548396268
7.87400e-06;-0.0007737543847936588
7.87425e-06;-0.0007968398147475346
7.87450e-06;-0.0008225964011618899
7.87475e-06;-0.0008497654283724137
7.87500e-06;-0.0008769344555827532
7.87525e-06;-0.0009061664477275782
7.87550e-06;-0.000936489284185584
7.87575e-06;-0.0009668121206433842
7.87600e-06;-0.00099713495710139
7.87625e-06;-0.0010274577935593956
7.87650e-06;-0.0010576794205868257
7.87675e-06;-0.0010873455582144057
7.87700e-06;-0.0011170116958419856
7.87725e-06;-0.0011466778334693645
7.87750e-06;-0.0011763439710969444
7.87775e-06;-0.0012060101087245246
7.87800e-06;-0.0012327602429881076
7.87825e-06;-0.0012579684675305465
7.87850e-06;-0.0012831766920729855
7.87875e-06;-0.001304747766761111
7.87900e-06;-0.0013243956074820227
7.87925e-06;-0.0013440434482029345
7.87950e-06;-0.0013590393719758304
7.87975e-06;-0.0013715754782965494
7.88000e-06;-0.0013841115846172682
7.88025e-06;-0.0013916904148391323
7.88050e-06;-0.001396647961319121
7.88075e-06;-0.0014016055077991434
7.88100e-06;-0.0014014392140282066
7.88125e-06;-0.001398563561553558
7.88150e-06;-0.0013956879090788897
7.88175e-06;-0.0013878083009143775
7.88200e-06;-0.0013772827260067645
7.88225e-06;-0.0013667571510990802
7.88250e-06;-0.0013517021582678094
7.88275e-06;-0.0013342521224077866
7.88300e-06;-0.0013168020865476455
7.88325e-06;-0.0012953424540484927
7.88350e-06;-0.0012717626470279285
7.88375e-06;-0.0012481828400072047
7.88400e-06;-0.001220379987231921
7.88425e-06;-0.0011903440933760002
7.88450e-06;-0.0011603081995198758
7.88475e-06;-0.0011302723056637511
7.88500e-06;-0.0011002364118078303
7.88525e-06;-0.0010695596564657506
7.88550e-06;-0.0010353655237292899
7.88575e-06;-0.0010011713909930608
7.88600e-06;-0.0009669772582566001
7.88625e-06;-0.0009327831255201394
7.88650e-06;-0.0008985889927839104
7.88675e-06;-0.0008651173849190977
7.88700e-06;-0.0008320278301539395
7.88725e-06;-0.0007989382753890053
7.88750e-06;-0.0007658487206238471
7.88775e-06;-0.000733617784410748
7.88800e-06;-0.0007060993883520904
7.88825e-06;-0.0006785809922932461
7.88850e-06;-0.0006510625962344019
7.88875e-06;-0.0006235442001757442
7.88900e-06;-0.0006000102629878459
7.88925e-06;-0.0005785832080983458
7.88950e-06;-0.0005589507283787038
7.88975e-06;-0.0005402671751711648
7.89000e-06;-0.0005233555807573201
7.89025e-06;-0.0005073809538809063
7.89050e-06;-0.0004934710993333686
7.89075e-06;-0.0004806530448044616
7.89100e-06;-0.00046994051205959803
7.89125e-06;-0.00046034132662735566
7.89150e-06;-0.00045229829254898277
7.89175e-06;-0.0004450781124258697
7.89200e-06;-0.00043932097196050886
7.89225e-06;-0.0004343374503118262
7.89250e-06;-0.0004309213786863884
7.89275e-06;-0.00042833413547028494
7.89300e-06;-0.00042754444994267695
7.89325e-06;-0.0004277052680085047
