Time(s);Current(A)
8.50000e-06;0.00029688138913049555
8.50025e-06;0.0003300697675688491
8.50050e-06;0.0003626058201003747
8.50075e-06;0.0003926450622196995
8.50100e-06;0.00042206812648804996
8.50125e-06;0.0004486517575062446
8.50150e-06;0.0004728508066671173
8.50175e-06;0.0004943682536209131
8.50200e-06;0.000512957586028707
8.50225e-06;0.0005285082714319967
8.50250e-06;0.0005409881933512891
8.50275e-06;0.0005503719853037165
8.50300e-06;0.0005566343269567519
8.50325e-06;0.0005597483305172106
8.50350e-06;0.0005596752367076504
8.50375e-06;0.0005563571509659056
8.50400e-06;0.00054976794068675
8.50425e-06;0.0005399666414196829
8.50450e-06;0.000527061348125272
8.50475e-06;0.0005111644136467295
8.50500e-06;0.0004923882128622056
8.50525e-06;0.00047084406375849495
8.50550e-06;0.00044663592685420327
8.50575e-06;0.0004198558068562062
8.50600e-06;0.0003906155349051262
8.50625e-06;0.0003590802775835305
8.50650e-06;0.0003254458995176025
8.50675e-06;0.00028991101023563977
8.50700e-06;0.0002526741390228385
8.50725e-06;0.00021393323131525823
8.50750e-06;0.00017388152727959962
8.50775e-06;0.00013270478165584742
8.50800e-06;9.060115603556676e-05
8.50825e-06;4.7802239482703e-05
8.50850e-06;4.559673989371539e-06
8.50875e-06;-3.887338737496813e-05
8.50900e-06;-8.219871491901078e-05
8.50925e-06;-0.0001251116726429038
8.50950e-06;-0.0001678153894330577
8.50975e-06;-0.00020951064894747293
8.51000e-06;-0.00025014790679085187
8.51025e-06;-0.0002894541497819494
8.51050e-06;-0.0003271442915553106
8.51075e-06;-0.0003629322876075855
8.51100e-06;-0.00039653207742933823
8.51125e-06;-0.0004276468642349664
8.51150e-06;-0.0004558842687439671
8.51175e-06;-0.0004806216999803135
8.51200e-06;-0.0005012261115468127
8.51225e-06;-0.0005174320647286964
8.51250e-06;-0.0005292320597261753
8.51275e-06;-0.0005366441167991529
8.51300e-06;-0.0005396862121367999
8.51325e-06;-0.000538369694103915
8.51350e-06;-0.0005326459790107382
8.51375e-06;-0.00052232227965043
8.51400e-06;-0.0005071992979300948
8.51425e-06;-0.00048730805758919745
8.51450e-06;-0.0004628412228975769
8.51475e-06;-0.0004340072766504028
8.51500e-06;-0.00040101475984987903
8.51525e-06;-0.0003640680033903616
8.51550e-06;-0.0003233338261140947
8.51575e-06;-0.0002788886919272066
8.51600e-06;-0.00023080505670719338
8.51625e-06;-0.00017929956758353104
8.51650e-06;-0.0001246901001968967
8.51675e-06;-6.730446278754805e-05
8.51700e-06;-7.470477887819369e-06
8.51725e-06;5.4486711206328225e-05
8.51750e-06;0.0001182654637105659
8.51775e-06;0.0001837329093987956
8.51800e-06;0.000250739385855095
8.51825e-06;0.00031803164657227416
8.51850e-06;0.00038641776100708115
8.51875e-06;0.0004548038754423516
8.51900e-06;0.0005228735697979954
8.51925e-06;0.0005897321502887374
8.51950e-06;0.0006565907307799325
8.51975e-06;0.0007226716678851291
8.52000e-06;0.0007857761355840057
8.52025e-06;0.0008478680296889216
8.52050e-06;0.0009060842471285432
8.52075e-06;0.0009629164992426556
8.52100e-06;0.0010144515540511383
8.52125e-06;0.001064230383671657
8.52150e-06;0.001107287172525958
8.52175e-06;0.001148286789763141
8.52200e-06;0.0011814124785506908
8.52225e-06;0.0012123686931897546
8.52250e-06;0.0012350211357566516
8.52275e-06;0.0012554469521460867
8.52300e-06;0.0012673502441799484
8.52325e-06;0.0012769701438433735
8.52350e-06;0.0012778502436763882
8.52375e-06;0.0012764348696340632
8.52400e-06;0.0012662334531900643
8.52425e-06;0.0012538426558464004
8.52450e-06;0.0012330718923336292
8.52475e-06;0.001210252373262497
8.52500e-06;0.0011795911386303626
8.52525e-06;0.001147022026985977
8.52550e-06;0.001107150419544792
8.52575e-06;0.001065539750610336
8.52600e-06;0.0010172727358200096
8.52625e-06;0.0009675095315464147
8.52650e-06;0.0009120195863209971
8.52675e-06;0.0008552978942922717
8.52700e-06;0.0007938616290513332
8.52725e-06;0.0007314581802608913
8.52750e-06;0.0006653527874993628
8.52775e-06;0.0005984588374048315
8.52800e-06;0.0005285466442170087
8.52825e-06;0.00045863445102918576
8.52850e-06;0.0003884435110777544
8.52875e-06;0.0003171856537823804
8.52900e-06;0.0002459277964870063
8.52925e-06;0.00017488287320413924
8.52950e-06;0.00010490213611430037
8.52975e-06;3.621365065718582e-05
8.53000e-06;-3.0745750379244856e-05
8.53025e-06;-9.551582154708735e-05
8.53050e-06;-0.0001576261934424342
8.53075e-06;-0.00021660587778921027
8.53100e-06;-0.0002719839487807
8.53125e-06;-0.00032330210287936266
8.53150e-06;-0.00037022729834961193
8.53175e-06;-0.00041279664603884823
8.53200e-06;-0.00045129689116016916
8.53225e-06;-0.00048581632851070624
8.53250e-06;-0.0005162272716374476
8.53275e-06;-0.0005423766113174519
8.53300e-06;-0.0005641112734596947
8.53325e-06;-0.0005812861156566848
8.53350e-06;-0.0005938344676257943
8.53375e-06;-0.0006019215147400346
8.53400e-06;-0.0006058688562308711
8.53425e-06;-0.0006058736486773219
8.53450e-06;-0.000601997878218059
8.53475e-06;-0.0005942875068697473
8.53500e-06;-0.0005827886230423907
8.53525e-06;-0.0005675522125256703
8.53550e-06;-0.000548678446769865
8.53575e-06;-0.0005264127303214
8.53600e-06;-0.0005010982841287935
8.53625e-06;-0.0004730005917200455
8.53650e-06;-0.00044230030949018805
8.53675e-06;-0.0004091681023012059
8.53700e-06;-0.00037377463501514854
8.53725e-06;-0.00033629367124258705
8.53750e-06;-0.00029692977737429615
8.53775e-06;-0.0002558774046393816
8.53800e-06;-0.00021340976462501626
8.53825e-06;-0.0001706433598158845
8.53850e-06;-0.00012673341763759602
8.53875e-06;-8.273152504893805e-05
8.53900e-06;-3.837768761054467e-05
8.53925e-06;5.914431205086872e-06
8.53950e-06;4.984607692103797e-05
8.53975e-06;9.310106288473177e-05
8.54000e-06;0.000135314254209721
8.54025e-06;0.0001761511106902
8.54050e-06;0.0002153103823272295
8.54075e-06;0.00025249479105867774
8.54100e-06;0.0002874070703600366
8.54125e-06;0.0003197723382522478
8.54150e-06;0.00034952881323208236
8.54175e-06;0.0003772035732751337
8.54200e-06;0.00040360776133331177
8.54225e-06;0.00042891719956164993
8.54250e-06;0.00045288973367039445
8.54275e-06;0.00047626998466176237
8.54300e-06;0.000497383242051278
8.54325e-06;0.0005177089468901226
8.54350e-06;0.0005350202544917533
8.54375e-06;0.000552331562093384
8.54400e-06;0.0005691404784398756
8.54425e-06;0.0005840264668367785
8.54450e-06;0.0005989124552336813
8.54475e-06;0.0006132312398844524
8.54500e-06;0.0006253790234966638
8.54525e-06;0.0006375268071088754
8.54550e-06;0.0006488851351124801
8.54575e-06;0.0006572217818276592
8.54600e-06;0.0006655584285428383
8.54625e-06;0.0006738950752579609
8.54650e-06;0.00068223172197314
8.54675e-06;0.000690568368688319
8.54700e-06;0.0006989050154034981
8.54725e-06;0.0007072416621186207
8.54750e-06;0.0007148352495601133
8.54775e-06;0.0007195847400321357
8.54800e-06;0.0007243342305041261
8.54825e-06;0.0007290837209761485
8.54850e-06;0.000733833211448171
8.54875e-06;0.0007385827019201612
8.54900e-06;0.0007433321923921837
8.54925e-06;0.0007480816828642061
8.54950e-06;0.0007524665382657772
8.54975e-06;0.0007554557344843319
8.55000e-06;0.0007584449307028867
8.55025e-06;0.000761434126921421
8.55050e-06;0.0007644233231399758
8.55075e-06;0.0007666651047683997
8.55100e-06;0.0007685973533450372
8.55125e-06;0.0007705296019216879
8.55150e-06;0.0007724618504983385
8.55175e-06;0.000773300912450707
8.55200e-06;0.0007699557472818291
8.55225e-06;0.0007653464371034403
8.55250e-06;0.0007558985479337943
8.55275e-06;0.0007453098246833186
8.55300e-06;0.000730354501260991
8.55325e-06;0.0007143097745555753
8.55350e-06;0.0006940953016582245
8.55375e-06;0.0006728462082296827
8.55400e-06;0.0006468569995112224
8.55425e-06;0.0006171484430069645
8.55450e-06;0.0005839542882822698
8.55475e-06;0.0005475456786793261
8.55500e-06;0.000508193803689822
8.55525e-06;0.00046615925436028355
8.55550e-06;0.0004216045238120222
8.55575e-06;0.000374433002009061
8.55600e-06;0.00032445794777418975
8.55625e-06;0.00027177429551915485
8.55650e-06;0.00021670051769603175
8.55675e-06;0.0001595784448214728
8.55700e-06;0.00010074992144535037
8.55725e-06;4.055013196900896e-05
8.55750e-06;-2.0747161239723738e-05
8.55775e-06;-8.303056838625605e-05
8.55800e-06;-0.00014629857152666763
8.55825e-06;-0.00021038628885488824
8.55850e-06;-0.00027447400618310885
8.55875e-06;-0.00033826001176410727
8.55900e-06;-0.00040192106693783214
8.55925e-06;-0.0004651024568266263
8.55950e-06;-0.000526447903564625
8.55975e-06;-0.0005871374192377839
8.56000e-06;-0.00064531632556676
8.56025e-06;-0.0007025611217684443
8.56050e-06;-0.0007562305641911323
8.56075e-06;-0.00080862450354324
8.56100e-06;-0.000856136390348214
8.56125e-06;-0.0009022004438347753
8.56150e-06;-0.0009427228420290734
8.56175e-06;-0.000982523147244008
8.56200e-06;-0.0010195596050415203
8.56225e-06;-0.0010559917605135229
8.56250e-06;-0.0010901109182547587
8.56275e-06;-0.001124230075996226
8.56300e-06;-0.0011572439890538886
8.56325e-06;-0.001186027522154974
8.56350e-06;-0.0012148110552562545
8.56375e-06;-0.0012423038219173612
8.56400e-06;-0.0012648561147113504
8.56425e-06;-0.0012874084075051868
8.56450e-06;-0.0013099607002991758
8.56475e-06;-0.001332512993093165
8.56500e-06;-0.0013550652858870015
8.56525e-06;-0.0013776175786809905
8.56550e-06;-0.0014001698714749798
8.56575e-06;-0.0014227221642688162
8.56600e-06;-0.0014452744570628054
8.56625e-06;-0.0014678267498567945
8.56650e-06;-0.0014903790426506309
8.56675e-06;-0.0015129313354446201
8.56700e-06;-0.0015305551746759329
8.56725e-06;-0.0015461379522355844
8.56750e-06;-0.0015617207297953417
8.56775e-06;-0.0015773035073550989
8.56800e-06;-0.0015928862849147506
8.56825e-06;-0.0016084690624745077
8.56850e-06;-0.0016240518400342649
8.56875e-06;-0.0016396346175939166
8.56900e-06;-0.0016552173951536737
8.56925e-06;-0.001670800172713431
8.56950e-06;-0.0016863829502730826
8.56975e-06;-0.00170196572783284
8.57000e-06;-0.001716695094413479
8.57025e-06;-0.001728157987284771
8.57050e-06;-0.0017396208801561403
8.57075e-06;-0.00175108377302751
8.57100e-06;-0.0017615254773009346
8.57125e-06;-0.0017680585305388905
8.57150e-06;-0.0017745915837768464
8.57175e-06;-0.001781124637014758
8.57200e-06;-0.0017851554683130117
8.57225e-06;-0.0017796089185122097
8.57250e-06;-0.0017720735142702972
8.57275e-06;-0.0017569256690095497
8.57300e-06;-0.0017399544931590242
8.57325e-06;-0.0017160044272072298
8.57350e-06;-0.0016900235832691516
8.57375e-06;-0.0016562698338203456
8.57400e-06;-0.0016200853386404079
8.57425e-06;-0.001574597041167077
8.57450e-06;-0.0015269208337991666
8.57475e-06;-0.0014708702905914914
8.57500e-06;-0.0014129595814679095
8.57525e-06;-0.0013479289931651482
8.57550e-06;-0.0012811323348185023
8.57575e-06;-0.001207575954006922
8.57600e-06;-0.0011322270010075603
8.57625e-06;-0.0010500168872474764
8.57650e-06;-0.000966390373785982
8.57675e-06;-0.0008773425187869017
8.57700e-06;-0.0007873075373171423
8.57725e-06;-0.000693494279327373
8.57750e-06;-0.0005989767672669198
8.57775e-06;-0.0005017636871140506
8.57800e-06;-0.0004040236809281086
8.57825e-06;-0.0003042668386818295
8.57850e-06;-0.00020450999643555038
8.57875e-06;-0.00010479835433110684
8.57900e-06;-5.488839232796266e-06
8.57925e-06;8.916513730566924e-05
8.57950e-06;0.0001592335101068041
8.57975e-06;0.0002477333063318535
8.58000e-06;0.0003465896223782473
8.58025e-06;0.00044466341906180396
8.58050e-06;0.0005274286042225848
8.58075e-06;0.0006148916844127175
8.58100e-06;0.000687804684466579
8.58125e-06;0.0007602365838069321
8.58150e-06;0.0008230959367759339
8.58175e-06;0.000883751793746611
8.58200e-06;0.0009378353151703798
8.58225e-06;0.0009883576663547915
8.58250e-06;0.0010337998723697426
8.58275e-06;0.0010694431765550308
8.58300e-06;0.0011050864807405603
8.58325e-06;0.0011326244298482983
8.58350e-06;0.0011568258946874138
8.58375e-06;0.001174367683921318
8.58400e-06;0.0011891680876541745
8.58425e-06;0.0011982997120440842
8.58450e-06;0.001205097842969852
8.58475e-06;0.0012054186354077288
8.58500e-06;0.0012030730995035677
8.58525e-06;0.0011939771730100095
8.58550e-06;0.0011821025191453174
8.58575e-06;0.0011652556120776982
8.58600e-06;0.001146361929214071
8.58625e-06;0.0011235248660010344
8.58650e-06;0.0010990645516938383
8.58675e-06;0.0010705624725136295
8.58700e-06;0.0010403966432835296
8.58725e-06;0.00100581324174305
8.58750e-06;0.0009694113929686467
8.58775e-06;0.0009330095441942433
8.58800e-06;0.000893692888977193
8.58825e-06;0.0008531763843085624
8.58850e-06;0.0008126598796399317
8.58875e-06;0.0007721433749715756
8.58900e-06;0.0007306618793533907
8.58925e-06;0.0006887831553483174
8.58950e-06;0.0006469044313432441
8.58975e-06;0.0006050257073384547
8.59000e-06;0.0005648746089672934
8.59025e-06;0.0005254346695391726
8.59050e-06;0.000488461775640518
8.59075e-06;0.0004525044151167651
8.59100e-06;0.0004187376049747558
8.59125e-06;0.0003875701397234122
8.59150e-06;0.00035892116586288376
8.59175e-06;0.0003325991697502613
8.59200e-06;0.00030811726170360535
8.59225e-06;0.00028532256028666105
8.59250e-06;0.00026430405510507955
8.59275e-06;0.0002451090150833767
8.59300e-06;0.00022783715731714517
8.59325e-06;0.00021260575906451932
8.59350e-06;0.00019949436623825588
8.59375e-06;0.0001883419253133895
8.59400e-06;0.00017880243641347723
8.59425e-06;0.00017073906671774382
8.59450e-06;0.000164166565392071
8.59475e-06;0.000159073519587831
8.59500e-06;0.00015548134706720482
8.59525e-06;0.00015342247099737563
8.59550e-06;0.00015290568144529947
8.59575e-06;0.00015378907608982876
8.59600e-06;0.0001558148996746531
8.59625e-06;0.00015885643812748378
8.59650e-06;0.00016288193224739758
8.59675e-06;0.00016784323624442605
8.59700e-06;0.00017371278562239742
8.59725e-06;0.00018076752186757338
8.59750e-06;0.00018820160059262824
8.59775e-06;0.00019657213628133572
8.59800e-06;0.0002053281546414811
8.59825e-06;0.0002148115422359022
8.59850e-06;0.00022459434373456116
8.59875e-06;0.0002343771452332201
8.59900e-06;0.00024415994673181277
8.59925e-06;0.00025424448894557965
8.59950e-06;0.00026445323955488813
8.59975e-06;0.00027466199016412744
8.60000e-06;0.0002848707407734359
8.60025e-06;0.0002943843603294343
8.60050e-06;0.0003036118364897242
8.60075e-06;0.0003128393126500766
8.60100e-06;0.00032094723533485824
8.60125e-06;0.00032859430559242043
8.60150e-06;0.0003362413758500345
8.60175e-06;0.00034478323946597497
8.60200e-06;0.0003536934353679045
8.60225e-06;0.00036518420453944257
8.60250e-06;0.0003777372395882105
8.60275e-06;0.0003920164570776654
8.60300e-06;0.00040800000146649446
8.60325e-06;0.0004257477860211976
8.60350e-06;0.00044405341143834333
8.60375e-06;0.0004641917372427672
8.60400e-06;0.0004876063720774818
8.60425e-06;0.0005120591193887591
8.60450e-06;0.0005395484476999425
8.60475e-06;0.0005682877526802056
8.60500e-06;0.0005994301181999307
8.60525e-06;0.0006315616783467393
8.60550e-06;0.0006658141135822555
8.60575e-06;0.0007009395847679102
8.60600e-06;0.000739101107782746
8.60625e-06;0.0007785123896391438
8.60650e-06;0.0008179236714955416
8.60675e-06;0.000860341212180734
8.60700e-06;0.0009039962477323714
8.60725e-06;0.0009476512832840089
8.60750e-06;0.0009913063188353504
8.60775e-06;0.001034961354386988
8.60800e-06;0.001079905062258941
8.60825e-06;0.0011253792385537344
8.60850e-06;0.0011708534148488362
8.60875e-06;0.0012163275911439377
8.60900e-06;0.0012618017674387312
8.60925e-06;0.001304671987365423
8.60950e-06;0.0013464703160075637
8.60975e-06;0.0013882686446494213
8.61000e-06;0.001430066973291562
8.61025e-06;0.0014718653019337026
8.61050e-06;0.0015114418534148265
8.61075e-06;0.0015425788668840567
8.61100e-06;0.0015737158803532866
8.61125e-06;0.0016048528938223058
8.61150e-06;0.0016359899072915358
8.61175e-06;0.001667126920760766
8.61200e-06;0.0016883719950355285
8.61225e-06;0.0017055451564552578
8.61250e-06;0.0017227183178749872
8.61275e-06;0.0017318586949634268
8.61300e-06;0.0017376924607657373
8.61325e-06;0.0017435262265680475
8.61350e-06;0.0017410679831002989
8.61375e-06;0.0017351964211235152
8.61400e-06;0.0017293248591467314
8.61425e-06;0.0017152387529983145
8.61450e-06;0.0016977712160347526
8.61475e-06;0.0016803036790711907
8.61500e-06;0.0016554510077822877
8.61525e-06;0.0016275583235289231
8.61550e-06;0.0015996656392753695
8.61575e-06;0.001565218027735156
8.61600e-06;0.0015280721492366548
8.61625e-06;0.001490926270737902
8.61650e-06;0.0014484819774365342
8.61675e-06;0.0014038566473413467
8.61700e-06;0.0013592313172458568
8.61725e-06;0.0013102240869049047
8.61750e-06;0.0012594130933596638
8.61775e-06;0.0012086020998140785
8.61800e-06;0.0011577911062684934
8.61825e-06;0.001106432981699978
8.61850e-06;0.0010529965510114444
8.61875e-06;0.000999560120322911
8.61900e-06;0.0009461236896347395
8.61925e-06;0.000892687258946206
8.61950e-06;0.0008409229482330388
8.61975e-06;0.0007898469481426964
8.62000e-06;0.0007387709480520079
8.62025e-06;0.000690581869854279
8.62050e-06;0.0006435811627274436
8.62075e-06;0.0006000409642127113
8.62100e-06;0.0005579252477162288
8.62125e-06;0.000519028408102707
8.62150e-06;0.00048399862536187754
8.62175e-06;0.0004529400214723884
8.62200e-06;0.00042627841412702297
8.62225e-06;0.00040420616554366184
8.62250e-06;0.00038677349585411935
8.62275e-06;0.00037400358503757446
8.62300e-06;0.00036591961187325625
8.62325e-06;0.0003625449782845146
8.62350e-06;0.0003639427970168625
8.62375e-06;0.0003702362005521505
8.62400e-06;0.0003814946691441043
8.62425e-06;0.0003976413546800176
8.62450e-06;0.0004185104308216436
8.62475e-06;0.00044391913884407976
8.62500e-06;0.00047368473943926843
8.62525e-06;0.0005076245806104894
8.62550e-06;0.0005455809205915099
8.62575e-06;0.0005874335993667708
8.62600e-06;0.0006330289301876313
8.62625e-06;0.0006832213979799727
8.62650e-06;0.0007348630019117573
8.62675e-06;0.0007904624799714742
8.62700e-06;0.0008476911753398684
8.62725e-06;0.0009086060946940011
8.62750e-06;0.000971038409428484
8.62775e-06;0.00103347072416339
8.62800e-06;0.0010987973462736132
8.62825e-06;0.0011653153796104244
8.62850e-06;0.0012318334129476863
8.62875e-06;0.0012983514462849483
8.62900e-06;0.0013644735050304692
8.62925e-06;0.0014290914333549435
8.62950e-06;0.0014937093616794175
8.62975e-06;0.001558327290003454
8.63000e-06;0.0016229452183279282
8.63025e-06;0.0016822596646397833
8.63050e-06;0.001739390988292359
8.63075e-06;0.0017965223119453218
8.63100e-06;0.0018462798818811809
8.63125e-06;0.001893002123558208
8.63150e-06;0.0019397243652355517
8.63175e-06;0.001979408855998141
8.63200e-06;0.002016196330526096
8.63225e-06;0.0020529838050538022
8.63250e-06;0.00208379431670086
8.63275e-06;0.002112144474364086
8.63300e-06;0.0021404946320271205
8.63325e-06;0.002161935716605837
8.63350e-06;0.0021805327538268315
8.63375e-06;0.0021991297910477
8.63400e-06;0.0022122495125231527
8.63425e-06;0.0022231145545092606
8.63450e-06;0.0022339795964952947
8.63475e-06;0.002235953704149312
8.63500e-06;0.002234267952081594
8.63525e-06;0.0022325822000138877
8.63550e-06;0.00223089644794617
8.63575e-06;0.002229210695878452
8.63600e-06;0.002227524943810746
8.63625e-06;0.002225839191743028
8.63650e-06;0.0022241534396753105
8.63675e-06;0.002213850258951861
8.63700e-06;0.002199999804245139
8.63725e-06;0.002186149349538417
8.63750e-06;0.0021722988948317886
8.63775e-06;0.0021584484401250665
8.63800e-06;0.0021445979854183444
8.63825e-06;0.002130747530711716
8.63850e-06;0.002116897076004994
8.63875e-06;0.0021007338781288067
8.63900e-06;0.002083618663821529
8.63925e-06;0.002066503449514136
8.63950e-06;0.0020493882352067426
8.63975e-06;0.002032273020899465
8.64000e-06;0.002015157806592072
8.64025e-06;0.0019980425922846786
8.64050e-06;0.0019827558150541146
8.64075e-06;0.001968221694739325
8.64100e-06;0.0019536875744244377
8.64125e-06;0.0019391534541095502
8.64150e-06;0.001924619333794761
8.64175e-06;0.0019100852134798735
8.64200e-06;0.0018955510931649858
8.64225e-06;0.001876025598816264
8.64250e-06;0.0018544454577785615
8.64275e-06;0.001832865316740859
8.64300e-06;0.0018067616043109442
8.64325e-06;0.0017787958112352835
8.64350e-06;0.0017508300181596226
8.64375e-06;0.0017169465568160432
8.64400e-06;0.0016806271494920469
8.64425e-06;0.0016443077421680508
8.64450e-06;0.0016012212719442992
8.64475e-06;0.0015553492113622575
8.64500e-06;0.0015094771507802157
8.64525e-06;0.001458570765957896
8.64550e-06;0.0014055920544447146
