Time(s);Current(A)
1.15000e-05;0.0019256842345771008
1.15003e-05;0.001958401579992582
1.15005e-05;0.0019911189254080636
1.15007e-05;0.0020226210029701125
1.15010e-05;0.002046443923987918
1.15013e-05;0.0020702668450057237
1.15015e-05;0.0020929447267279103
1.15018e-05;0.002108387219168253
1.15020e-05;0.002123829711608596
1.15023e-05;0.002138029214855148
1.15025e-05;0.002144374393166189
1.15028e-05;0.002150719571477273
1.15030e-05;0.002155781942269536
1.15033e-05;0.0021527383800956997
1.15035e-05;0.0021496948179218424
1.15038e-05;0.002145372859526895
1.15040e-05;0.002132972842717448
1.15043e-05;0.0021205728259079165
1.15045e-05;0.0021070134330850488
1.15048e-05;0.0020861280586881507
1.15050e-05;0.0020652426842911113
1.15053e-05;0.0020428394376281033
1.15055e-05;0.0020108449072703265
1.15058e-05;0.0019788503769123333
1.15060e-05;0.0019468558465543396
1.15063e-05;0.0019148613161965628
1.15065e-05;0.001882866785838569
1.15068e-05;0.0018508722554805756
1.15070e-05;0.0018131346594989755
1.15073e-05;0.0017721191237626624
1.15075e-05;0.001731103588026349
1.15078e-05;0.0016900880522903138
1.15080e-05;0.0016490725165540007
1.15083e-05;0.0016080569808176873
1.15085e-05;0.001566973636794815
1.15088e-05;0.0015254618189595435
1.15090e-05;0.0014839500011242723
1.15092e-05;0.001442438183289282
1.15095e-05;0.0014009263654540108
1.15098e-05;0.0013597964345168317
1.15100e-05;0.0013215535847811814
1.15103e-05;0.0012863057416894947
1.15105e-05;0.0012510578985978082
1.15108e-05;0.0012167243977120304
1.15110e-05;0.0011881685341753295
1.15113e-05;0.0011596126706384352
1.15115e-05;0.0011315468482052567
1.15118e-05;0.001106577546708483
1.15120e-05;0.0010816082452115403
1.15123e-05;0.0010572810717324676
1.15125e-05;0.0010370114412557726
1.15128e-05;0.0010167418107789401
1.15130e-05;0.0009964721803021079
1.15133e-05;0.0009762025498254128
1.15135e-05;0.0009559329193485804
1.15138e-05;0.000935663288871748
1.15140e-05;0.0009153936583950529
1.15143e-05;0.0008978974891917433
1.15145e-05;0.0008819843140832111
1.15148e-05;0.0008660711389747868
1.15150e-05;0.0008501579638662548
1.15153e-05;0.0008342447887577226
1.15155e-05;0.0008183316136492983
1.15158e-05;0.0008024184385407663
1.15160e-05;0.000786868315714574
1.15163e-05;0.0007736122841087314
1.15165e-05;0.000760356252502799
1.15168e-05;0.0007471002208968664
1.15170e-05;0.0007338441892910239
1.15173e-05;0.0007205881576850914
1.15175e-05;0.000707332126079159
1.15177e-05;0.0006940760944733164
1.15180e-05;0.0006808200628673839
1.15183e-05;0.0006679909886857557
1.15185e-05;0.0006578598159534777
1.15188e-05;0.0006477286432211312
1.15190e-05;0.0006375974704887846
1.15193e-05;0.000627466297756438
1.15195e-05;0.0006173351250241601
1.15198e-05;0.0006072039522918135
1.15200e-05;0.0005970727795594669
1.15203e-05;0.000586941606827189
1.15205e-05;0.0005771769950908156
1.15208e-05;0.0005697286457875601
1.15210e-05;0.000562280296484355
1.15213e-05;0.0005551822967460499
1.15215e-05;0.0005502981210226147
1.15218e-05;0.0005458893355388981
1.15220e-05;0.0005444844936427468
1.15223e-05;0.0005435491726273487
1.15225e-05;0.0005455807073047131
1.15228e-05;0.0005480591642402524
1.15230e-05;0.0005533616784226741
1.15233e-05;0.000559154470974799
1.15235e-05;0.0005680452837257047
1.15238e-05;0.00057748280976661
1.15240e-05;0.0005903749626477725
1.15243e-05;0.0006037617641057126
1.15245e-05;0.0006202742006651364
1.15248e-05;0.0006373205301801988
1.15250e-05;0.0006577404761205741
1.15253e-05;0.0006781604220609495
1.15255e-05;0.0006991898693815148
1.15258e-05;0.0007240706952338692
1.15260e-05;0.0007489515210862236
1.15262e-05;0.0007744363409445255
1.15265e-05;0.0008037377387856106
1.15268e-05;0.0008330391366266957
1.15270e-05;0.0008623405344675822
1.15273e-05;0.0008916419323086673
1.15275e-05;0.0009209433301497524
1.15278e-05;0.000951673567608301
1.15280e-05;0.0009832193364386738
1.15283e-05;0.0010147651052692603
1.15285e-05;0.001046310874099847
1.15288e-05;0.0010778566429302196
1.15290e-05;0.0011089592804432984
1.15293e-05;0.0011372618152848727
1.15295e-05;0.001165564350126255
1.15298e-05;0.001193866884967829
1.15300e-05;0.0012221694198094033
1.15303e-05;0.0012504719546507857
1.15305e-05;0.0012787744894923597
1.15308e-05;0.001300536904885776
1.15310e-05;0.0013185664502478331
1.15313e-05;0.001336595995610012
1.15315e-05;0.0013546255409721912
1.15318e-05;0.001372655086334248
1.15320e-05;0.0013906846316964273
1.15323e-05;0.0014073447138057717
1.15325e-05;0.0014153512939797048
1.15328e-05;0.0014233578741536922
1.15330e-05;0.0014304438132986153
1.15333e-05;0.001431712313450343
1.15335e-05;0.0014329808136020795
1.15338e-05;0.0014333851447592618
1.15340e-05;0.001428328878086364
1.15343e-05;0.0014232726114134318
1.15345e-05;0.001417417051514787
1.15347e-05;0.0014065108373099338
1.15350e-05;0.0013956046231050066
1.15353e-05;0.0013836590364207462
1.15355e-05;0.0013651457585314275
1.15358e-05;0.0013466324806419832
1.15360e-05;0.001328119202752539
1.15362e-05;0.00130960592486322
1.15365e-05;0.0012910926469737757
1.15368e-05;0.0012725793690843315
1.15370e-05;0.001250081403573579
1.15373e-05;0.0012253091185914506
1.15375e-05;0.0012005368336091545
1.15378e-05;0.0011757645486268583
1.15380e-05;0.0011509922636447302
1.15383e-05;0.001126219978662434
1.15385e-05;0.0011013735774926608
1.15388e-05;0.0010760588435141326
1.15390e-05;0.0010507441095354332
1.15393e-05;0.0010254293755567337
1.15395e-05;0.0010001146415782056
1.15398e-05;0.000974799907599506
1.15400e-05;0.0009525048925348859
1.15403e-05;0.0009319334267616867
1.15405e-05;0.0009113619609883481
1.15408e-05;0.0008907904952150094
1.15410e-05;0.0008702190294418102
1.15413e-05;0.0008506110538613273
1.15415e-05;0.0008370912768762781
1.15418e-05;0.0008235714998913204
1.15420e-05;0.0008107496119539952
1.15423e-05;0.0008023376154217637
1.15425e-05;0.0007945001122207671
1.15428e-05;0.000790292775178436
1.15430e-05;0.000786673646520851
1.15432e-05;0.0007867713480796939
1.15435e-05;0.0007874633500679389
1.15438e-05;0.000791910677296217
1.15440e-05;0.0007970582251445461
1.15443e-05;0.0008066303973715728
1.15445e-05;0.0008162025695985997
1.15447e-05;0.0008265388348032999
1.15450e-05;0.0008417033274551201
1.15453e-05;0.0008568678201069402
1.15455e-05;0.0008727008391056127
1.15458e-05;0.0008927582095260222
1.15460e-05;0.0009128155799465675
1.15463e-05;0.0009335822281980218
1.15465e-05;0.0009588307324416418
1.15468e-05;0.0009840792366854329
1.15470e-05;0.001009327740929224
1.15473e-05;0.001034576245172844
1.15475e-05;0.001059824749416635
1.15478e-05;0.001085445634529218
1.15480e-05;0.0011134195572746637
1.15483e-05;0.0011413934800202988
1.15485e-05;0.0011693674027659338
1.15488e-05;0.0011973413255113793
1.15490e-05;0.0012253152482570146
1.15493e-05;0.0012522675712983964
1.15495e-05;0.0012727645075253343
1.15498e-05;0.0012932614437524109
1.15500e-05;0.0013137583799794875
1.15503e-05;0.001334255316206425
1.15505e-05;0.0013547522524335017
1.15508e-05;0.0013752491886605783
1.15510e-05;0.0013957461248875161
1.15513e-05;0.0014162430611145927
1.15515e-05;0.0014367399973416693
1.15517e-05;0.001457236933568607
1.15520e-05;0.0014777338697956836
1.15523e-05;0.0014982308060227604
1.15525e-05;0.0015080427558905307
1.15528e-05;0.0015135753069772141
1.15530e-05;0.0015191078580638977
1.15532e-05;0.0015246404091505436
1.15535e-05;0.001530172960237227
1.15538e-05;0.0015357055113239106
1.15540e-05;0.001541238062410594
1.15543e-05;0.0015467706134972398
1.15545e-05;0.0015523031645839234
1.15548e-05;0.0015578357156706068
1.15550e-05;0.0015633682667572529
1.15553e-05;0.0015689008178439363
1.15555e-05;0.0015718841177036148
1.15558e-05;0.001568669069926525
1.15560e-05;0.0015654540221494134
1.15563e-05;0.0015622389743723019
1.15565e-05;0.0015590239265952121
1.15568e-05;0.0015558088788181004
1.15570e-05;0.0015525938310409887
1.15573e-05;0.001549378783263899
1.15575e-05;0.0015461637354867873
1.15578e-05;0.0015429486877096758
1.15580e-05;0.0015374663367904858
1.15583e-05;0.0015312747720738421
1.15585e-05;0.0015250832073571985
1.15588e-05;0.0015188916426405968
1.15590e-05;0.0015127000779239534
1.15593e-05;0.0015065085132073097
1.15595e-05;0.001500316948490708
1.15598e-05;0.0014941253837740644
1.15600e-05;0.001487933819057421
1.15602e-05;0.0014825930025112015
1.15605e-05;0.0014800678610485144
1.15608e-05;0.0014775427195858274
1.15610e-05;0.0014750175781231573
1.15613e-05;0.0014724924366604703
1.15615e-05;0.001469967295197783
1.15617e-05;0.0014674421537351132
1.15620e-05;0.0014649170122724262
1.15623e-05;0.001462391870809739
1.15625e-05;0.001459866729347052
1.15628e-05;0.001459928964948327
1.15630e-05;0.0014685545021053976
1.15633e-05;0.0014771800392624679
1.15635e-05;0.0014858055764194798
1.15638e-05;0.0014944311135765503
1.15640e-05;0.0015030566507336206
1.15643e-05;0.0015116821878906326
1.15645e-05;0.0015203077250477031
1.15648e-05;0.0015289332622047734
1.15650e-05;0.0015375587993617854
1.15653e-05;0.0015484333603190186
1.15655e-05;0.0015667513933840082
1.15658e-05;0.0015850694264488735
1.15660e-05;0.001603387459513863
1.15663e-05;0.0016217054925788525
1.15665e-05;0.0016400235256437178
1.15668e-05;0.0016583415587087074
1.15670e-05;0.0016766595917736967
1.15673e-05;0.001694977624838562
1.15675e-05;0.0017155979320326142
1.15678e-05;0.0017370609866483992
1.15680e-05;0.0017585240412640389
1.15683e-05;0.001779987095879824
1.15685e-05;0.001801450150495609
1.15687e-05;0.0018229132051112487
1.15690e-05;0.0018443762597270337
1.15693e-05;0.001865839314342819
1.15695e-05;0.00188634398315805
1.15698e-05;0.0019036767344619613
1.15700e-05;0.0019210094857658724
1.15702e-05;0.0019383422370696662
1.15705e-05;0.0019556749883735776
1.15708e-05;0.0019730077396774887
1.15710e-05;0.0019903404909814
1.15713e-05;0.0020076732422851934
1.15715e-05;0.0020230678772430464
1.15718e-05;0.0020377530647318403
1.15720e-05;0.0020524382522205354
1.15723e-05;0.0020671234397093294
1.15725e-05;0.002081808627198124
1.15728e-05;0.002096493814686819
1.15730e-05;0.002111179002175613
1.15733e-05;0.002126869748652368
1.15735e-05;0.0021458885391816593
1.15738e-05;0.002164907329711079
1.15740e-05;0.002183926120240499
1.15743e-05;0.00220294491076979
1.15745e-05;0.00222196370129921
1.15748e-05;0.00224098249182863
1.15750e-05;0.002260001282357921
1.15753e-05;0.0022790200728873412
1.15755e-05;0.0022980388634167613
1.15758e-05;0.0023170576539460522
1.15760e-05;0.0023360764444754724
1.15763e-05;0.002355947846983273
1.15765e-05;0.00237864109312047
1.15768e-05;0.002401334339257821
1.15770e-05;0.0024240275853951716
1.15772e-05;0.002446720831532369
1.15775e-05;0.0024694140776697197
1.15778e-05;0.0024921073238070705
1.15780e-05;0.0025148005699442673
1.15783e-05;0.002537493816081618
1.15785e-05;0.002560187062218969
1.15787e-05;0.0025828803083561658
1.15790e-05;0.0026055735544935166
1.15793e-05;0.0026271352746538826
1.15795e-05;0.00264495204464785
1.15798e-05;0.002662768814641697
1.15800e-05;0.002680585584635664
1.15803e-05;0.002698402354629632
1.15805e-05;0.0027162191246234784
1.15808e-05;0.002734035894617446
1.15810e-05;0.0027518526646114136
1.15813e-05;0.0027696694346052604
1.15815e-05;0.002786836902474859
1.15818e-05;0.0028018554103131084
1.15820e-05;0.0028168739181512557
1.15823e-05;0.002831892425989505
1.15825e-05;0.002846910933827754
1.15828e-05;0.002861929441665902
1.15830e-05;0.002876947949504151
1.15833e-05;0.0028919664573424
1.15835e-05;0.0029069849651805475
1.15838e-05;0.002923189732800748
1.15840e-05;0.002943320600094474
1.15843e-05;0.002963451467388063
1.15845e-05;0.002983582334681788
1.15848e-05;0.0030037132019755134
1.15850e-05;0.0030238440692691025
1.15853e-05;0.003043974936562828
1.15855e-05;0.0030641058038565535
1.15857e-05;0.003084236671150142
1.15860e-05;0.003104367538443868
1.15863e-05;0.003124498405737593
1.15865e-05;0.003144629273031182
1.15868e-05;0.0031652817472451254
1.15870e-05;0.0031876605555982217
1.15872e-05;0.0032100393639511665
1.15875e-05;0.003232418172304263
1.15878e-05;0.003254796980657359
1.15880e-05;0.0032771757890104553
1.15883e-05;0.0032995545973633997
1.15885e-05;0.003321933405716496
1.15888e-05;0.0033443122140695922
1.15890e-05;0.0033666910224225367
1.15893e-05;0.003389069830775633
1.15895e-05;0.003411448639128729
1.15898e-05;0.0034319803151207583
1.15900e-05;0.003446398637299811
1.15903e-05;0.0034608169594788634
1.15905e-05;0.0034752352816578183
1.15908e-05;0.003489653603836871
1.15910e-05;0.0035040719260159233
1.15913e-05;0.0035184902481948783
1.15915e-05;0.0035329085703739308
1.15918e-05;0.0035473268925529833
1.15920e-05;0.0035617452147319382
1.15923e-05;0.0035761635369109908
1.15925e-05;0.0035905818590900433
1.15928e-05;0.003605000181268998
1.15930e-05;0.0036194185034480507
1.15933e-05;0.00362969460934703
1.15935e-05;0.003638454457016661
1.15938e-05;0.00364721430468635
1.15940e-05;0.00365597415235604
1.15942e-05;0.0036647340000256707
1.15945e-05;0.0036734938476953604
1.15948e-05;0.0036822536953650497
1.15950e-05;0.0036910135430346805
1.15953e-05;0.0036997733907043703
1.15955e-05;0.00370853323837406
1.15957e-05;0.0037172930860436904
1.15960e-05;0.00372605293371338
1.15963e-05;0.00373481278138307
1.15965e-05;0.0037431813355711077
1.15968e-05;0.0037502548469405908
1.15970e-05;0.0037573283583101223
1.15973e-05;0.0037644018696796535
1.15975e-05;0.0037714753810491365
1.15978e-05;0.0037785488924186677
1.15980e-05;0.003785622403788199
1.15983e-05;0.0037926959151576823
1.15985e-05;0.0037997694265272134
1.15988e-05;0.0038068429378967446
1.15990e-05;0.0038133540819290826
1.15993e-05;0.0038180039892796256
1.15995e-05;0.003822653896630169
1.15998e-05;0.003827303803980681
1.16000e-05;0.0038319537113312243
1.16003e-05;0.0038366036186817673
1.16005e-05;0.003841253526032279
1.16008e-05;0.0038459034333828226
1.16010e-05;0.003850553340733366
1.16013e-05;0.003855203248083878
1.16015e-05;0.003854666769629541
1.16018e-05;0.003836965191303006
1.16020e-05;0.0038192636129765908
1.16023e-05;0.0038015620346500555
1.16025e-05;0.0037838604563235198
1.16027e-05;0.0037661588779971046
1.16030e-05;0.0037484572996705694
1.16033e-05;0.003730755721344034
1.16035e-05;0.0037130541430176185
1.16038e-05;0.0036953525646910832
1.16040e-05;0.003669238172408792
1.16042e-05;0.0036152803459512037
1.16045e-05;0.003561322519493249
1.16048e-05;0.003507364693035295
1.16050e-05;0.0034534068665773407
1.16053e-05;0.0033994490401197523
1.16055e-05;0.003345491213661798
1.16058e-05;0.0032915333872038438
1.16060e-05;0.003237575560746255
1.16063e-05;0.003183617734288301
1.16065e-05;0.0031250188821448067
1.16068e-05;0.003051059878942691
1.16070e-05;0.0029771008757400737
1.16073e-05;0.0029031418725374565
1.16075e-05;0.0028291828693353407
1.16078e-05;0.0027552238661327235
1.16080e-05;0.0026808315516386153
1.16083e-05;0.0026050051302590857
1.16085e-05;0.0025291787088790427
1.16088e-05;0.002453352287499
1.16090e-05;0.0023775258661194705
1.16093e-05;0.0023016994447394275
1.16095e-05;0.002227497911438584
1.16098e-05;0.002158674182107756
1.16100e-05;0.002089850452776461
1.16103e-05;0.0020232553911857776
1.16105e-05;0.001964036430372001
1.16108e-05;0.001904817469557823
1.16110e-05;0.0018481498751255535
1.16113e-05;0.0017999263996659172
1.16115e-05;0.001753778366705984
1.16118e-05;0.001714499313252628
1.16120e-05;0.0016772883413290623
1.16123e-05;0.0016469219867071155
1.16125e-05;0.0016187611274005808
1.16127e-05;0.0015978996763523182
1.16130e-05;0.001579340345174415
1.16133e-05;0.0015684002153056916
1.16135e-05;0.0015595975221650976
1.16138e-05;0.0015578689874666172
1.16140e-05;0.0015581262129859804
1.16143e-05;0.0015649556014256589
1.16145e-05;0.0015737098363644165
1.16148e-05;0.001588834631391545
1.16150e-05;0.0016062069760613125
1.16153e-05;0.0016310179139152952
1.16155e-05;0.0016558288517694462
1.16158e-05;0.0016828362761916937
1.16160e-05;0.001717113293109326
1.16163e-05;0.0017513903100271906
1.16165e-05;0.0017880127662391857
1.16168e-05;0.0018323977957075703
1.16170e-05;0.0018767828251762557
1.16173e-05;0.001921167854644941
1.16175e-05;0.0019655528841133257
1.16178e-05;0.002009937913582011
1.16180e-05;0.0020554481900659795
1.16183e-05;0.002104682635582908
1.16185e-05;0.0021539170811001695
1.16188e-05;0.0022031515266174315
1.16190e-05;0.0022523859721343595
1.16193e-05;0.0023016204176516215
1.16195e-05;0.002347536271871727
1.16198e-05;0.002382468764415353
1.16200e-05;0.002417401256959216
1.16203e-05;0.002452333749503079
1.16205e-05;0.0024872662420467053
1.16208e-05;0.0025221987345905683
1.16210e-05;0.002557131227134431
1.16212e-05;0.002592063719678057
1.16215e-05;0.00262699621222192
1.16218e-05;0.002661928704765783
1.16220e-05;0.002696861197309646
1.16223e-05;0.0027317936898532723
1.16225e-05;0.0027428539485145464
1.16228e-05;0.002745175776185351
1.16230e-05;0.0027474976038561402
1.16233e-05;0.0027498194315269454
1.16235e-05;0.0027521412591977506
1.16238e-05;0.0027544630868685397
1.16240e-05;0.0027567849145393444
1.16243e-05;0.0027591067422101496
1.16245e-05;0.0027614285698809387
1.16248e-05;0.002763750397551744
1.16250e-05;0.0027660722252225486
1.16253e-05;0.0027630524641275027
1.16255e-05;0.0027423539363219955
1.16258e-05;0.0027216554085164883
1.16260e-05;0.0027009568807111217
1.16263e-05;0.0026802583529056145
1.16265e-05;0.0026595598251001073
1.16268e-05;0.00263886129729474
1.16270e-05;0.002618162769489233
1.16273e-05;0.0025955231335184122
1.16275e-05;0.0025664591171019402
1.16278e-05;0.0025373951006852713
1.16280e-05;0.0025083310842686024
1.16283e-05;0.0024792670678521304
1.16285e-05;0.0024502030514354615
1.16288e-05;0.0024211390350187927
1.16290e-05;0.0023920750186023207
1.16293e-05;0.0023636393558172006
1.16295e-05;0.002337283320976672
1.16297e-05;0.0023109272861363216
1.16300e-05;0.0022845712512957928
1.16303e-05;0.002258215216455264
1.16305e-05;0.0022318591816147355
1.16308e-05;0.0022055031467743853
1.16310e-05;0.002183105586239493
1.16313e-05;0.002162157025187776
1.16315e-05;0.0021412084641362007
1.16318e-05;0.0021202599030844833
1.16320e-05;0.0020993113420327662
1.16323e-05;0.002078362780981191
1.16325e-05;0.002056575176261685
1.16328e-05;0.0020320106342079742
1.16330e-05;0.00200744609215443
1.16333e-05;0.001982881550100719
1.16335e-05;0.001958317008047008
1.16338e-05;0.0019337524659934638
1.16340e-05;0.001909187923939753
1.16343e-05;0.001884623381886042
1.16345e-05;0.0018600588398324975
1.16348e-05;0.0018354942977787869
1.16350e-05;0.001810929755725076
1.16353e-05;0.0017813042746253475
1.16355e-05;0.0017498262368337548
1.16358e-05;0.001718348199042162
1.16360e-05;0.0016868701612507825
1.16363e-05;0.0016553921234591898
1.16365e-05;0.001623914085667597
1.16368e-05;0.0015924360478762178
1.16370e-05;0.0015609580100846249
1.16373e-05;0.0015294799722930321
1.16375e-05;0.0014980019345016528
1.16378e-05;0.0014663135666457018
1.16380e-05;0.001433929080779687
1.16382e-05;0.0014015445949138916
1.16385e-05;0.001369160109047877
1.16388e-05;0.0013367756231818621
1.16390e-05;0.0013043911373158473
1.16393e-05;0.001272006651450052
1.16395e-05;0.0012437073429525773
1.16398e-05;0.0012169034135938565
1.16400e-05;0.0011900994842353174
1.16403e-05;0.0011632955548765967
1.16405e-05;0.0011364916255178759
1.16408e-05;0.0011096876961593366
1.16410e-05;0.0010846730543868414
1.16413e-05;0.0010655803207255076
1.16415e-05;0.0010464875870643032
1.16418e-05;0.0010286440123374783
1.16420e-05;0.0010149347112084948
1.16423e-05;0.001001225410079604
1.16425e-05;0.0009888515150475942
1.16428e-05;0.0009808973411710006
1.16430e-05;0.0009729431672944611
1.16433e-05;0.0009663351550856728
1.16435e-05;0.0009641824611621003
1.16438e-05;0.0009620297672385424
1.16440e-05;0.0009610742957632206
1.16443e-05;0.0009640812065132489
1.16445e-05;0.0009670881172632569
1.16448e-05;0.0009712311206409756
1.16450e-05;0.000979134188191305
1.16453e-05;0.0009870372557415808
1.16455e-05;0.0009963904331819666
1.16458e-05;0.0010105429607026658
1.16460e-05;0.001024695488223269
1.16463e-05;0.0010388480157439682
1.16465e-05;0.0010530005432646675
1.16467e-05;0.0010671530707852706
1.16470e-05;0.00108130559830597
1.16473e-05;0.0010965490583057299
1.16475e-05;0.0011154031183829712
1.16478e-05;0.001134257178460085
1.16480e-05;0.0011531112385373265
