Time(s);Current(A)
4.00000e-06;0.0018500528825346242
4.00025e-06;0.0018574640449035775
4.00050e-06;0.0018646807953118412
4.00075e-06;0.001867494522596322
4.00100e-06;0.0018703082498807931
4.00125e-06;0.0018731219771652644
4.00150e-06;0.001875935704449745
4.00175e-06;0.0018787494317342162
4.00200e-06;0.0018815631590186875
4.00225e-06;0.0018843768863031681
4.00250e-06;0.0018871906135876394
4.00275e-06;0.0018900043408721105
4.00300e-06;0.0018928180681565914
4.00325e-06;0.0018956317954410625
4.00350e-06;0.0018984455227255338
4.00375e-06;0.0019012592500100144
4.00400e-06;0.0019040729772944857
4.00425e-06;0.0019063345320862062
4.00450e-06;0.0018960905381241097
4.00475e-06;0.0018858465441620132
4.00500e-06;0.0018756025501998818
4.00525e-06;0.0018653585562377853
4.00550e-06;0.0018551145622756888
4.00575e-06;0.0018448705683135574
4.00600e-06;0.001834626574351461
4.00625e-06;0.0018243825803893644
4.00650e-06;0.0018141385864272332
4.00675e-06;0.0018038945924651365
4.00700e-06;0.0017822421316908742
4.00725e-06;0.0017509604477419954
4.00750e-06;0.0017196787637932226
4.00775e-06;0.0016883970798444495
4.00800e-06;0.0016571153958955707
4.00825e-06;0.0016258337119467977
4.00850e-06;0.0015945520279979188
4.00875e-06;0.0015632703440491458
4.00900e-06;0.001531988660100373
4.00925e-06;0.001500706976151494
4.00950e-06;0.0014689767407717418
4.00975e-06;0.001427087756343518
4.01000e-06;0.0013851987719151525
4.01025e-06;0.001343309787486929
4.01050e-06;0.0013014208030587054
4.01075e-06;0.0012595318186303399
4.01100e-06;0.0012172797189219623
4.01125e-06;0.0011747211347290384
4.01150e-06;0.0011321625505359703
4.01175e-06;0.0010896039663430461
4.01200e-06;0.0010470453821501222
4.01225e-06;0.0010046436540129215
4.01250e-06;0.0009657943865251968
4.01275e-06;0.0009269451190373405
4.01300e-06;0.0008882703542325148
4.01325e-06;0.0008535477091639736
4.01350e-06;0.0008190193497028839
4.01375e-06;0.0007888911517255645
4.01400e-06;0.0007590061307436308
4.01425e-06;0.0007346285586261749
4.01450e-06;0.0007105280438600269
4.01475e-06;0.000692702296951243
4.01500e-06;0.000675090436018586
4.01525e-06;0.000662467245444133
4.01550e-06;0.0006532650842592083
4.01575e-06;0.0006475196231861202
4.01600e-06;0.0006452695675455527
4.01625e-06;0.0006465672166613456
4.01650e-06;0.0006514422684379612
4.01675e-06;0.0006599130387967069
4.01700e-06;0.0006732452706983381
4.01725e-06;0.0006868473614986518
4.01750e-06;0.0007065611903044859
4.01775e-06;0.0007265256000878972
4.01800e-06;0.000752165143397705
4.01825e-06;0.0007780351627232412
4.01850e-06;0.0008091249803627869
4.01875e-06;0.0008404571061128925
4.01900e-06;0.0008772770023079764
4.01925e-06;0.0009140968985031849
4.01950e-06;0.0009511365118026772
4.01975e-06;0.0009931522566415409
4.02000e-06;0.0010351680014805467
4.02025e-06;0.001077341284340756
4.02050e-06;0.001123082472934628
4.02075e-06;0.001168823661528655
4.02100e-06;0.001214564850122527
4.02125e-06;0.0012603060387163991
4.02150e-06;0.001306047227310426
4.02175e-06;0.001350734319851148
4.02200e-06;0.0013945317112334407
4.02225e-06;0.001438329102615585
4.02250e-06;0.001482126493997729
4.02275e-06;0.0015259238853800217
4.02300e-06;0.001569420054841903
4.02325e-06;0.0016060941796515059
4.02350e-06;0.001642768304461233
4.02375e-06;0.0016790442883428721
4.02400e-06;0.0017063032153454153
4.02425e-06;0.0017335621423480506
4.02450e-06;0.0017608210693505937
4.02475e-06;0.0017880799963531366
4.02500e-06;0.001815338923355772
4.02525e-06;0.001842597850358315
4.02550e-06;0.001869856777360858
4.02575e-06;0.0018937106544799065
4.02600e-06;0.0019146905270741885
4.02625e-06;0.0019356703996685413
4.02650e-06;0.0019566502722628233
4.02675e-06;0.001977630144857105
4.02700e-06;0.001998610017451458
4.02725e-06;0.0020195898900457394
4.02750e-06;0.002040390877755462
4.02775e-06;0.0020571404980600947
4.02800e-06;0.0020738901183646706
4.02825e-06;0.002090639738669247
4.02850e-06;0.0021073893589738796
4.02875e-06;0.0021241389792784554
4.02900e-06;0.0021408885995830313
4.02925e-06;0.0021576382198876644
4.02950e-06;0.0021743878401922403
4.02975e-06;0.002191137460496816
4.03000e-06;0.002207887080801449
4.03025e-06;0.002224636701106025
4.03050e-06;0.002241386321410658
4.03075e-06;0.0022581359417152337
4.03100e-06;0.0022746449508891154
4.03125e-06;0.002285704622662595
4.03150e-06;0.0022967642944360374
4.03175e-06;0.0023078239662094797
4.03200e-06;0.0023188836379829593
4.03225e-06;0.002329943309756401
4.03250e-06;0.0023410029815298435
4.03275e-06;0.002352062653303323
4.03300e-06;0.0023631223250767655
4.03325e-06;0.002374181996850208
4.03350e-06;0.0023852416686236874
4.03375e-06;0.0023963013403971293
4.03400e-06;0.0024073610121705716
4.03425e-06;0.0024184206839440513
4.03450e-06;0.002428922602902763
4.03475e-06;0.0024267925905643957
4.03500e-06;0.0024246625782260354
4.03525e-06;0.0024225325658876755
4.03550e-06;0.002420402553549308
4.03575e-06;0.002418272541210948
4.03600e-06;0.0024161425288725877
4.03625e-06;0.0024140125165342204
4.03650e-06;0.00241188250419586
4.03675e-06;0.0024097524918575
4.03700e-06;0.0024076224795191326
4.03725e-06;0.0024054924671807723
4.03750e-06;0.0024027930439908377
4.03775e-06;0.002387197659427776
4.03800e-06;0.0023716022748647672
4.03825e-06;0.002356006890301758
4.03850e-06;0.0023404115057386963
4.03875e-06;0.0023248161211756875
4.03900e-06;0.0023092207366126258
4.03925e-06;0.0022936253520496165
4.03950e-06;0.0022780299674866077
4.03975e-06;0.002262434582923546
4.04000e-06;0.0022468391983605372
4.04025e-06;0.002231243813797528
4.04050e-06;0.002215486914560939
4.04075e-06;0.002196072046769074
4.04100e-06;0.0021766571789772096
4.04125e-06;0.0021572423111852796
4.04150e-06;0.0021378274433934146
4.04175e-06;0.00211841257560155
4.04200e-06;0.00209899770780962
4.04225e-06;0.002079582840017755
4.04250e-06;0.0020601679722258904
4.04275e-06;0.0020409172692473702
4.04300e-06;0.0020253845549326114
4.04325e-06;0.0020098518406178
4.04350e-06;0.0019943191263030414
4.04375e-06;0.0019787864119882826
4.04400e-06;0.0019632536976734714
4.04425e-06;0.0019477209833587124
4.04450e-06;0.0019321882690439536
4.04475e-06;0.0019166555547291424
4.04500e-06;0.001900825512938394
4.04525e-06;0.0018782616275066573
4.04550e-06;0.0018556977420748442
4.04575e-06;0.0018331338566431076
4.04600e-06;0.0018105699712113708
4.04625e-06;0.0017880060857795577
4.04650e-06;0.001765442200347821
4.04675e-06;0.0017428783149160843
4.04700e-06;0.0017203144294842712
4.04725e-06;0.0016977505440525344
4.04750e-06;0.0016746697794476331
4.04775e-06;0.001639882785809952
4.04800e-06;0.001605095792172271
4.04825e-06;0.0015703087985344723
4.04850e-06;0.0015355218048967913
4.04875e-06;0.0015007348112591103
4.04900e-06;0.0014659478176213114
4.04925e-06;0.0014311608239836304
4.04950e-06;0.0013963738303459493
4.04975e-06;0.0013615868367081506
4.05000e-06;0.0013266004045698705
4.05025e-06;0.0012870971087486358
4.05050e-06;0.0012475938129272676
4.05075e-06;0.001208090517106033
4.05100e-06;0.0011685872212847984
4.05125e-06;0.00112908392546343
4.05150e-06;0.001090789791473408
4.05175e-06;0.0010535162406438666
4.05200e-06;0.001016242689814451
4.05225e-06;0.0009789691389850358
4.05250e-06;0.0009416955881554942
4.05275e-06;0.0009046412549101614
4.05300e-06;0.000872551740097086
4.05325e-06;0.0008404622252839018
4.05350e-06;0.0008085825047304722
4.05375e-06;0.0007814541840774807
4.05400e-06;0.0007545478918126249
4.05425e-06;0.0007326700767970109
4.05450e-06;0.0007110507944101887
4.05475e-06;0.0006952867337470759
4.05500e-06;0.0006797894699647225
4.05525e-06;0.0006703345958757348
4.05550e-06;0.0006611508938596215
4.05575e-06;0.0006581086704619791
4.05600e-06;0.0006552741253145447
4.05625e-06;0.0006572847712734575
4.05650e-06;0.0006627133329387545
4.05675e-06;0.0006728613147501037
4.05700e-06;0.000683271550872755
4.05725e-06;0.0006996212970199257
4.05750e-06;0.0007162138792556628
4.05775e-06;0.000738306189501743
4.05800e-06;0.0007606237870697244
4.05825e-06;0.0007880436698963244
4.05850e-06;0.0008156671240768108
4.05875e-06;0.0008479010423953358
4.05900e-06;0.0008803412749216855
4.05925e-06;0.0009174540914690395
4.05950e-06;0.0009545669080163936
4.05975e-06;0.0009919034858736928
4.06000e-06;0.001034307788015563
4.06025e-06;0.0010767120901575766
4.06050e-06;0.0011191163922994467
4.06075e-06;0.0011615206944413168
4.06100e-06;0.0012039249965833307
4.06125e-06;0.001246804281289312
4.06150e-06;0.0012900844711462123
4.06175e-06;0.001333364661003259
4.06200e-06;0.0013766448508601592
4.06225e-06;0.0014199250407170593
4.06250e-06;0.0014625525790087053
4.06275e-06;0.0014903989284119638
4.06300e-06;0.001518245277815222
4.06325e-06;0.001546091627218575
4.06350e-06;0.0015739379766218332
4.06375e-06;0.0016017843260250917
4.06400e-06;0.0016296306754284443
4.06425e-06;0.0016574770248317027
4.06450e-06;0.0016853233742350553
4.06475e-06;0.0017131697236383138
4.06500e-06;0.001741016073041572
4.06525e-06;0.001768862422444925
4.06550e-06;0.0017967087718481832
4.06575e-06;0.0018089656703173496
4.06600e-06;0.0018080644201486653
4.06625e-06;0.001807163169979984
4.06650e-06;0.0018062619198113028
4.06675e-06;0.0018053606696426185
4.06700e-06;0.0018044594194739372
4.06725e-06;0.0018035581693052558
4.06750e-06;0.0018026569191365717
4.06775e-06;0.0018017556689678904
4.06800e-06;0.001800854418799209
4.06825e-06;0.0017999531686305247
4.06850e-06;0.0017990519184618436
4.06875e-06;0.0017975370660000057
4.06900e-06;0.001782125408763084
4.06925e-06;0.0017667137515261625
4.06950e-06;0.0017513020942891886
4.06975e-06;0.001734526846429614
4.07000e-06;0.001717103894322858
4.07025e-06;0.0016996809422160429
4.07050e-06;0.0016806868603848001
4.07075e-06;0.001658399629759966
4.07100e-06;0.0016362058200169174
4.07125e-06;0.001614012010273944
4.07150e-06;0.0015918182005309704
4.07175e-06;0.0015696243907879217
4.07200e-06;0.0015470944105731943
4.07225e-06;0.0015239354466472994
4.07250e-06;0.0015007764827213261
4.07275e-06;0.0014776175187954314
4.07300e-06;0.001454458554869458
4.07325e-06;0.0014321396300980111
4.07350e-06;0.0014184723781832734
4.07375e-06;0.0014048051262684892
4.07400e-06;0.0013911378743537515
4.07425e-06;0.0013774706224390137
4.07450e-06;0.0013638033705242298
4.07475e-06;0.001350136118609492
4.07500e-06;0.001336468866694754
4.07525e-06;0.0013228016147799702
4.07550e-06;0.0013091343628652324
4.07575e-06;0.0012954671109504947
4.07600e-06;0.0012817998590357105
4.07625e-06;0.0012681326071209728
4.07650e-06;0.0012649430519859216
4.07675e-06;0.0012690798005978632
4.07700e-06;0.001273216549209791
4.07725e-06;0.0012773532978217325
4.07750e-06;0.00128149004643366
4.07775e-06;0.0012856267950455877
4.07800e-06;0.0012897635436575293
4.07825e-06;0.0012939002922694569
4.07850e-06;0.0012980370408813844
4.07875e-06;0.001302173789493326
4.07900e-06;0.0013063105381052537
4.07925e-06;0.0013104472867171812
4.07950e-06;0.0013153875909057474
4.07975e-06;0.0013286038188196406
4.08000e-06;0.0013418200467335338
4.08025e-06;0.0013550362746474719
4.08050e-06;0.001368252502561365
4.08075e-06;0.0013814687304752585
4.08100e-06;0.0013946849583891963
4.08125e-06;0.0014079011863030897
4.08150e-06;0.0014209230539438422
4.08175e-06;0.0014338090193507396
4.08200e-06;0.0014466949847576373
4.08225e-06;0.0014595809501645786
4.08250e-06;0.0014724669155714762
4.08275e-06;0.0014853528809783737
4.08300e-06;0.001498238846385315
4.08325e-06;0.0015106266080364649
4.08350e-06;0.0015178833042064938
4.08375e-06;0.0015251400003765472
4.08400e-06;0.0015323966965465762
4.08425e-06;0.0015396533927166049
4.08450e-06;0.0015469100888866583
4.08475e-06;0.0015509370788049303
4.08500e-06;0.0015527057662062353
4.08525e-06;0.0015544744536075464
4.08550e-06;0.0015562431410088514
4.08575e-06;0.0015580118284101623
4.08600e-06;0.0015594864681667357
4.08625e-06;0.0015575376000959349
4.08650e-06;0.001551519826018517
4.08675e-06;0.0015455020519411194
4.08700e-06;0.001539484277863722
4.08725e-06;0.0015334665037863042
4.08750e-06;0.0015274487297089066
4.08775e-06;0.0015214309556315093
4.08800e-06;0.0015154131815540914
4.08825e-06;0.0015093954074766938
4.08850e-06;0.0015033776333992965
4.08875e-06;0.0014973598593218786
4.08900e-06;0.0014880399545875295
4.08925e-06;0.0014764111061313266
4.08950e-06;0.0014647822576750842
4.08975e-06;0.0014531534092188812
4.09000e-06;0.0014415245607626388
4.09025e-06;0.0014298957123064359
4.09050e-06;0.001418266863850233
4.09075e-06;0.0014066380153939905
4.09100e-06;0.0013950091669377874
4.09125e-06;0.0013833803184815844
4.09150e-06;0.0013717036157343996
4.09175e-06;0.0013595340554015322
4.09200e-06;0.001347364495068665
4.09225e-06;0.0013351949347357567
4.09250e-06;0.0013230253744028894
4.09275e-06;0.0013108558140700222
4.09300e-06;0.0012986862537371136
4.09325e-06;0.0012865166934042465
4.09350e-06;0.0012743471330713793
4.09375e-06;0.0012621775727384708
4.09400e-06;0.0012500080124056036
4.09425e-06;0.001238266329568716
4.09450e-06;0.0012309314128856328
4.09475e-06;0.0012235964962025495
4.09500e-06;0.0012162615795194415
4.09525e-06;0.0012089266628363582
4.09550e-06;0.0012015917461532751
4.09575e-06;0.001194256829470167
4.09600e-06;0.0011869219127870836
4.09625e-06;0.0011795869961040005
4.09650e-06;0.0011722520794208923
4.09675e-06;0.0011649171627378092
4.09700e-06;0.0011581058663646482
4.09725e-06;0.0011566874038758431
4.09750e-06;0.0011552689413870428
4.09775e-06;0.0011538504788982426
4.09800e-06;0.0011524320164094373
4.09825e-06;0.001151013553920637
4.09850e-06;0.001149595091431832
4.09875e-06;0.0011481766289430317
4.09900e-06;0.0011467581664542314
4.09925e-06;0.0011453397039654263
4.09950e-06;0.0011441802339860721
4.09975e-06;0.0011456881616496964
4.10000e-06;0.001147196089313326
4.10025e-06;0.0011487040169769502
4.10050e-06;0.0011502119446405745
4.10075e-06;0.0011517198723042037
4.10100e-06;0.001153227799967828
4.10125e-06;0.0011547357276314523
4.10150e-06;0.0011562436552950818
4.10175e-06;0.001157751582958706
4.10200e-06;0.0011592076674739559
4.10225e-06;0.0011601298126407038
4.10250e-06;0.0011610519578074486
4.10275e-06;0.0011619741029741965
4.10300e-06;0.0011628962481409412
4.10325e-06;0.001163818393307686
4.10350e-06;0.001164386878256995
4.10375e-06;0.0011613129704892622
4.10400e-06;0.001158239062721529
4.10425e-06;0.0011551651549537858
4.10450e-06;0.001152091247186053
4.10475e-06;0.0011490173394183198
4.10500e-06;0.0011453535074159177
4.10525e-06;0.0011356139687612326
4.10550e-06;0.0011258744301065476
4.10575e-06;0.0011157182161630926
4.10600e-06;0.0011012706090630826
4.10625e-06;0.0010868230019630727
4.10650e-06;0.0010718881300560616
4.10675e-06;0.0010519348543357831
4.10700e-06;0.0010319815786154372
4.10725e-06;0.0010115951856817817
4.10750e-06;0.0009867480620650963
4.10775e-06;0.0009619009384483267
4.10800e-06;0.0009366753672322176
4.10825e-06;0.0009075521148192925
4.10850e-06;0.0008784288624062687
4.10875e-06;0.0008489662898815446
4.10900e-06;0.0008160090152595712
4.10925e-06;0.0007830517406374861
4.10950e-06;0.0007498319475788387
4.10975e-06;0.0007139084428942909
4.11000e-06;0.0006779849382096213
4.11025e-06;0.0006420614335250735
4.11050e-06;0.0006061379288405255
4.11075e-06;0.0005694096138016602
4.11100e-06;0.0005321185524615674
4.11125e-06;0.0004948274911213482
4.11150e-06;0.00045753642978125543
4.11175e-06;0.0004203570862389299
4.11200e-06;0.00038432833886958297
4.11225e-06;0.0003482995915003582
4.11250e-06;0.0003124507372459943
4.11275e-06;0.0002784546256489447
4.11300e-06;0.00024461361592133046
4.11325e-06;0.0002124967891058238
4.11350e-06;0.00018182986702181748
4.11375e-06;0.00015281136177914019
4.11400e-06;0.00012564868500145298
4.11425e-06;0.000100596493506292
4.11450e-06;7.791269141825924e-05
4.11475e-06;5.773544803120364e-05
4.11500e-06;4.010010842438842e-05
4.11525e-06;2.5023494322297157e-05
4.11550e-06;1.2522445051575286e-05
4.11575e-06;2.614089152860947e-06
4.11600e-06;-4.678870402837543e-06
4.11625e-06;-9.304161153219266e-06
4.11650e-06;-1.1207467243104526e-05
4.11675e-06;-1.040948728091387e-05
4.11700e-06;-6.995332905752837e-06
4.11725e-06;-1.061712764719312e-06
4.11750e-06;7.294680089317623e-06
4.11775e-06;1.797733505271472e-05
4.11800e-06;3.089324034439274e-05
4.11825e-06;4.596790580558982e-05
4.11850e-06;6.312812517724639e-05
4.11875e-06;8.225370739193149e-05
4.11900e-06;0.0001031841209788111
4.11925e-06;0.00012575158299932276
4.11950e-06;0.00014978831907850224
4.11975e-06;0.00017517074448719085
4.12000e-06;0.0002020550367977603
4.12025e-06;0.00022911096198064085
4.12050e-06;0.00025793455650464274
4.12075e-06;0.00028675815102854695
4.12100e-06;0.0003156359423001411
4.12125e-06;0.0003450719129461044
4.12150e-06;0.000374507883591968
4.12175e-06;0.00040394385423783155
4.12200e-06;0.0004331686976928672
4.12225e-06;0.00046021911466768365
4.12250e-06;0.0004872695316425001
4.12275e-06;0.0005143199486174082
4.12300e-06;0.0005410162908919601
4.12325e-06;0.0005640659716409145
4.12350e-06;0.0005867668869717254
4.12375e-06;0.0006058758217653467
4.12400e-06;0.000624567079299853
4.12425e-06;0.0006389566242581017
4.12450e-06;0.0006529054672525954
4.12475e-06;0.0006623154632350507
4.12500e-06;0.0006712687386120467
4.12525e-06;0.0006755181888970344
4.12550e-06;0.0006792928496312275
4.12575e-06;0.0006781775908481255
4.12600e-06;0.0006765794314509287
4.12625e-06;0.0006700078156376064
4.12650e-06;0.0006629739181564004
4.12675e-06;0.0006511789214757085
4.12700e-06;0.000638946648589862
4.12725e-06;0.0006222108110278523
4.12750e-06;0.0006050614354503911
4.12775e-06;0.0005836529779084803
4.12800e-06;0.0005618609306944062
4.12825e-06;0.0005361182434093724
4.12850e-06;0.0005100399309377272
4.12875e-06;0.00048050497088852266
4.12900e-06;0.00045068508044199284
4.12925e-06;0.00041793065466766443
4.12950e-06;0.00038494119093684714
4.12975e-06;0.0003495310406332218
4.13000e-06;0.00031393963742888014
4.13025e-06;0.0002764814869559225
4.13050e-06;0.00023889201852274892
4.13075e-06;0.00019995008928948846
4.13100e-06;0.000161008160056228
4.13125e-06;0.00012203202861455512
4.13150e-06;8.270364416857492e-05
4.13175e-06;4.340445475280301e-05
4.13200e-06;4.4482895063743395e-06
4.13225e-06;-3.4010161476196544e-05
4.13250e-06;-7.175745925187565e-05
4.13275e-06;-0.00010857413655193229
4.13300e-06;-0.00014424306116742115
4.13325e-06;-0.0001785482726321267
4.13350e-06;-0.0002112738575475588
4.13375e-06;-0.00024220752937606128
4.13400e-06;-0.000271192087851685
4.13425e-06;-0.00029842174804232686
4.13450e-06;-0.0003256119360229394
4.13475e-06;-0.0003523955945638378
4.13500e-06;-0.0003791069030554526
4.13525e-06;-0.00040507306895319953
4.13550e-06;-0.0004310392348510344
4.13575e-06;-0.00045687163535097796
4.13600e-06;-0.00048132636857084736
4.13625e-06;-0.0005057811017907996
4.13650e-06;-0.000530235835010669
4.13675e-06;-0.0005546905682306212
4.13700e-06;-0.0005791453014504905
4.13725e-06;-0.0006036000346703599
4.13750e-06;-0.0006280547678903122
4.13775e-06;-0.0006525095011101816
4.13800e-06;-0.0006770650599073232
4.13825e-06;-0.0007016911188172343
4.13850e-06;-0.0007263171777270622
4.13875e-06;-0.00075094323663689
4.13900e-06;-0.0007755692955468013
4.13925e-06;-0.000800195354456629
4.13950e-06;-0.0008248214133664569
4.13975e-06;-0.0008494474722763681
4.14000e-06;-0.0008739916917651539
4.14025e-06;-0.000897693036381865
4.14050e-06;-0.0009213943809986565
4.14075e-06;-0.0009450957256153677
4.14100e-06;-0.000968797070232159
4.14125e-06;-0.0009924984148488702
4.14150e-06;-0.0010161997594655813
4.14175e-06;-0.0010399011040823727
4.14200e-06;-0.0010632791227586397
4.14225e-06;-0.0010833271654015237
4.14250e-06;-0.0011033752080444755
4.14275e-06;-0.0011234232506873595
4.14300e-06;-0.0011434712933302434
4.14325e-06;-0.0011635193359731955
4.14350e-06;-0.0011835673786160794
4.14375e-06;-0.0012036154212589634
4.14400e-06;-0.0012227400139088018
4.14425e-06;-0.0012323538746312696
4.14450e-06;-0.0012419677353537374
4.14475e-06;-0.0012515815960762377
4.14500e-06;-0.0012611954567987055
4.14525e-06;-0.001270809317521206
4.14550e-06;-0.0012804231782436739
4.14575e-06;-0.0012900370389661417
4.14600e-06;-0.001299650899688642
4.14625e-06;-0.0013092647604111098
4.14650e-06;-0.0013188786211335776
4.14675e-06;-0.0013284924818560782
