Time(s);Current(A)
1.47500e-05;-0.0027684095222837756
1.47503e-05;-0.0027736480565455587
1.47505e-05;-0.0027788865908073062
1.47508e-05;-0.002783161640947126
1.47510e-05;-0.0027864555219329684
1.47513e-05;-0.002789749402918789
1.47515e-05;-0.002793043283904632
1.47518e-05;-0.002796337164890475
1.47520e-05;-0.00279773159112065
1.47523e-05;-0.0027991173409040184
1.47525e-05;-0.002800503090687386
1.47528e-05;-0.002801888840470745
1.47530e-05;-0.002803274590254113
1.47533e-05;-0.0028046603400374813
1.47535e-05;-0.00280604608982084
1.47538e-05;-0.002807431839604208
1.47540e-05;-0.0028075655283883514
1.47543e-05;-0.0028076934979308693
1.47545e-05;-0.0028078214674733875
1.47548e-05;-0.002807949437015906
1.47550e-05;-0.002808077406558423
1.47553e-05;-0.002808205376100942
1.47555e-05;-0.00280833334564346
1.47558e-05;-0.0028084613151859775
1.47560e-05;-0.0028082947122480763
1.47563e-05;-0.002808126763743787
1.47565e-05;-0.002807958815239499
1.47568e-05;-0.002806740012752675
1.47570e-05;-0.0028055164101100593
1.47573e-05;-0.0028042928074674435
1.47575e-05;-0.002800821705285217
1.47578e-05;-0.002797340336835616
1.47580e-05;-0.002793858968386015
1.47583e-05;-0.002790377599936437
1.47585e-05;-0.002786896231486836
1.47588e-05;-0.0027818336803390677
1.47590e-05;-0.00277516092342337
1.47593e-05;-0.0027684881665076275
1.47595e-05;-0.0027618154095918846
1.47598e-05;-0.0027551426526761873
1.47600e-05;-0.0027484698957604445
1.47603e-05;-0.0027383967889878305
1.47605e-05;-0.0027283081498868855
1.47608e-05;-0.002718219510785872
1.47610e-05;-0.0027081308716848584
1.47613e-05;-0.002698042232583913
1.47615e-05;-0.0026879535934828994
1.47618e-05;-0.002677864954381886
1.47620e-05;-0.002667776315280941
1.47623e-05;-0.0026556282376227775
1.47625e-05;-0.002643470752733747
1.47628e-05;-0.002631313267844799
1.47630e-05;-0.0026191557829557685
1.47633e-05;-0.002606998298066738
1.47635e-05;-0.00259484081317779
1.47638e-05;-0.0025826833282887596
1.47640e-05;-0.002570525843399729
1.47643e-05;-0.002558731390628381
1.47645e-05;-0.002546938596137527
1.47648e-05;-0.002535145801646673
1.47650e-05;-0.0025243388877374405
1.47653e-05;-0.0025135364771944756
1.47655e-05;-0.0025027340666515106
1.47658e-05;-0.002492902780543149
1.47660e-05;-0.0024836882718664217
1.47663e-05;-0.0024751744255965494
1.47665e-05;-0.002467809647557456
1.47668e-05;-0.002462525621477767
1.47670e-05;-0.0024599934016874296
1.47673e-05;-0.002460302021463112
1.47675e-05;-0.0024646709939952238
1.47678e-05;-0.002469058454644252
1.47680e-05;-0.0024785190554333495
1.47683e-05;-0.0024880028296259487
1.47685e-05;-0.0025027945289353036
1.47688e-05;-0.002517610474113574
1.47690e-05;-0.0025388192688662707
1.47693e-05;-0.002560057265273124
1.47695e-05;-0.0025858826078307548
1.47698e-05;-0.0026145113269088146
1.47700e-05;-0.0026457282055204184
1.47703e-05;-0.0026793294977955524
1.47705e-05;-0.0027152535531208733
1.47708e-05;-0.0027536280322285373
1.47710e-05;-0.00279447855089162
1.47713e-05;-0.00283760242300092
1.47715e-05;-0.0028827238406700264
1.47718e-05;-0.002929566434983348
1.47720e-05;-0.0029778538359665407
1.47723e-05;-0.003021009648734421
1.47725e-05;-0.003036228158464333
1.47728e-05;-0.003114916694223614
1.47730e-05;-0.003147303796878058
1.47733e-05;-0.0032211621278566225
1.47735e-05;-0.003268398123085289
1.47738e-05;-0.003331099565226384
1.47740e-05;-0.0033732733875460256
1.47743e-05;-0.0034252260338334126
1.47745e-05;-0.0034817442880120688
1.47748e-05;-0.0035338571279560755
1.47750e-05;-0.0035825529674112073
1.47753e-05;-0.003630666504926883
1.47755e-05;-0.003675914017159094
1.47758e-05;-0.0037174143021774016
1.47760e-05;-0.0037559421104671944
1.47763e-05;-0.003791531886668735
1.47765e-05;-0.0038241896332540637
1.47768e-05;-0.0038545446809889017
1.47770e-05;-0.00388372535401128
1.47773e-05;-0.003911931752208353
1.47775e-05;-0.003937781962353326
1.47778e-05;-0.003960757222976475
1.47780e-05;-0.003980735514651089
1.47783e-05;-0.003999127272854471
1.47785e-05;-0.004015750068254419
1.47788e-05;-0.0040299684081488716
1.47790e-05;-0.004043090578235741
1.47793e-05;-0.004055275196119144
1.47795e-05;-0.004065690003270894
1.47798e-05;-0.004074043179578364
1.47800e-05;-0.004080244686197503
1.47803e-05;-0.0040853113138340546
1.47805e-05;-0.00408914583974401
1.47808e-05;-0.004091305184990787
1.47810e-05;-0.004092684141323724
1.47813e-05;-0.004093415140728727
1.47815e-05;-0.004092708062713465
1.47818e-05;-0.0040910521711757936
1.47820e-05;-0.0040883444071992845
1.47823e-05;-0.004084704565747044
1.47825e-05;-0.004080380964003898
1.47828e-05;-0.004075135208249913
1.47830e-05;-0.004069609205753469
1.47833e-05;-0.004063735212598018
1.47835e-05;-0.004057552860517077
1.47838e-05;-0.0040509024060669694
1.47840e-05;-0.004043837160185293
1.47843e-05;-0.0040365371224507065
1.47845e-05;-0.00402902903268485
1.47848e-05;-0.004021635869951045
1.47850e-05;-0.004014344545514381
1.47853e-05;-0.0040074122806130685
1.47855e-05;-0.004000798182908579
1.47858e-05;-0.003994184085204088
1.47860e-05;-0.003988163098219537
1.47863e-05;-0.003982667674147589
1.47865e-05;-0.003977172250075641
1.47868e-05;-0.003973000359117724
1.47870e-05;-0.003970001267596815
1.47873e-05;-0.003967002176075906
1.47875e-05;-0.003964003084555017
1.47878e-05;-0.003961003993034108
1.47880e-05;-0.003958004901513199
1.47883e-05;-0.003956859620464906
1.47885e-05;-0.003957357024329967
1.47888e-05;-0.0039578544281950265
1.47890e-05;-0.003958351832060084
1.47893e-05;-0.003958849235925144
1.47895e-05;-0.003959346639790204
1.47898e-05;-0.003961646542273566
1.47900e-05;-0.003965543661587045
1.47903e-05;-0.003969440780900523
1.47905e-05;-0.003973337900213976
1.47908e-05;-0.003977235019527454
1.47910e-05;-0.003981132138840933
1.47913e-05;-0.003985029258154411
1.47915e-05;-0.003990224874817416
1.47918e-05;-0.003996571106409975
1.47920e-05;-0.004002917338002534
1.47923e-05;-0.004009263569595051
1.47925e-05;-0.00401560980118761
1.47928e-05;-0.0040219560327801685
1.47930e-05;-0.004028302264372685
1.47933e-05;-0.004035030328111754
1.47935e-05;-0.004042096738146649
1.47938e-05;-0.004049147841036513
1.47940e-05;-0.004056185380071595
1.47943e-05;-0.004063124657111465
1.47945e-05;-0.004069976862954151
1.47948e-05;-0.00407663674192686
1.47950e-05;-0.004083126197626781
1.47953e-05;-0.004089408759979958
1.47955e-05;-0.00409531838043488
1.47958e-05;-0.004100849387419158
1.47960e-05;-0.004105960471497308
1.47963e-05;-0.004110473990199324
1.47965e-05;-0.004113550435534729
1.47968e-05;-0.00411358277223029
1.47970e-05;-0.004109295620750375
1.47973e-05;-0.004100410725110933
1.47975e-05;-0.00408601730207465
1.47978e-05;-0.004068628345453302
1.47980e-05;-0.004048097597324287
1.47983e-05;-0.0040227625717432665
1.47985e-05;-0.003993312131395575
1.47988e-05;-0.0039561233345139805
1.47990e-05;-0.003913903222577936
1.47993e-05;-0.003871683110641605
1.47995e-05;-0.0038229413525521488
1.47998e-05;-0.0037684206812962622
1.48000e-05;-0.0037086077909784967
1.48003e-05;-0.003644105398393418
1.48005e-05;-0.003579603005808339
1.48008e-05;-0.0035098125089854364
1.48010e-05;-0.0034353361560926204
1.48013e-05;-0.003357072642708675
1.48015e-05;-0.0032754532784997547
1.48018e-05;-0.0031910862817660633
1.48020e-05;-0.0031042845730901423
1.48023e-05;-0.0030160475109609983
1.48025e-05;-0.0029257553072428648
1.48028e-05;-0.0028340124571497476
1.48030e-05;-0.0027410128183078704
1.48033e-05;-0.0026471952304341516
1.48035e-05;-0.0025531102941039174
1.48038e-05;-0.0024593181357212878
1.48040e-05;-0.002366381260061263
1.48043e-05;-0.002274841090971633
1.48045e-05;-0.002185137117449555
1.48048e-05;-0.002097590813840167
1.48050e-05;-0.002012574718358676
1.48053e-05;-0.0019306145471084937
1.48055e-05;-0.0018523061143872334
1.48058e-05;-0.001778251255346735
1.48060e-05;-0.001709053117769837
1.48063e-05;-0.0016453024432438626
1.48065e-05;-0.0015874996668409495
1.48068e-05;-0.00153595211568158
1.48070e-05;-0.001490808838279374
1.48073e-05;-0.0014521800118743391
1.48075e-05;-0.0014201816704799595
1.48078e-05;-0.0013949322717426574
1.48080e-05;-0.0013765510726157376
1.48083e-05;-0.0013651495741234057
1.48085e-05;-0.0013607826783894011
1.48088e-05;-0.001363384374731295
1.48090e-05;-0.001372789375877813
1.48093e-05;-0.0013888081216773189
1.48095e-05;-0.0014112547320080612
1.48098e-05;-0.001439944799512968
1.48100e-05;-0.001474694490339715
1.48103e-05;-0.001515315060965776
1.48105e-05;-0.0015615823179667629
1.48108e-05;-0.0016131963803130947
1.48110e-05;-0.001669795304556241
1.48113e-05;-0.0017310017229704815
1.48115e-05;-0.0017964407039801295
1.48118e-05;-0.0018657384043829107
1.48120e-05;-0.0019385211169365404
1.48123e-05;-0.0020144121381206414
1.48125e-05;-0.002093012860690034
1.48128e-05;-0.0021738769582694078
1.48130e-05;-0.0022565192354667613
1.48133e-05;-0.002340445230290054
1.48135e-05;-0.002425161821494264
1.48138e-05;-0.002510176353495635
1.48140e-05;-0.0025949966363734297
1.48143e-05;-0.0026791287238615504
1.48145e-05;-0.002762064698492061
1.48148e-05;-0.0028432668031055214
1.48150e-05;-0.002922173028425128
1.48153e-05;-0.002998215666131594
1.48155e-05;-0.0030708277736086593
1.48158e-05;-0.0031394429020173693
1.48160e-05;-0.003203495040062584
1.48163e-05;-0.003262526067133611
1.48165e-05;-0.0033166625538888455
1.48168e-05;-0.0033668022027735487
1.48170e-05;-0.0034137570954970507
1.48173e-05;-0.0034576268032969317
1.48175e-05;-0.0034981527456495916
1.48178e-05;-0.003535051130117761
1.48180e-05;-0.0035680384783638996
1.48183e-05;-0.003596899097258435
1.48185e-05;-0.0036217833519413827
1.48188e-05;-0.003643324743902871
1.48190e-05;-0.0036621031183412516
1.48193e-05;-0.003678251682349709
1.48195e-05;-0.003691679660452953
1.48198e-05;-0.0037022804162160717
1.48200e-05;-0.0037099471897595335
1.48203e-05;-0.0037146161940243916
1.48205e-05;-0.003716452786617859
1.48208e-05;-0.0037159244951356957
1.48210e-05;-0.0037134656829264615
1.48213e-05;-0.0037092308992502337
1.48215e-05;-0.0037032343032367067
1.48218e-05;-0.003695015672751115
1.48220e-05;-0.003685560653142975
1.48223e-05;-0.003674741445961094
1.48225e-05;-0.0036619628710271427
1.48228e-05;-0.0036478096694260074
1.48230e-05;-0.0036330277175218107
1.48233e-05;-0.0036175713871254675
1.48235e-05;-0.0036015174814148895
1.48238e-05;-0.0035849487495098306
1.48240e-05;-0.003567923823599894
1.48243e-05;-0.003550610962886246
1.48245e-05;-0.0035330429595001062
1.48248e-05;-0.0035157473368831425
1.48250e-05;-0.0034986930743121057
1.48253e-05;-0.003482540842866398
1.48255e-05;-0.003467187912613751
1.48258e-05;-0.0034518349823610007
1.48260e-05;-0.0034377270332330632
1.48263e-05;-0.003424722277631865
1.48265e-05;-0.0034123791857166813
1.48268e-05;-0.003400740230348287
1.48270e-05;-0.0033892056838464306
1.48273e-05;-0.003377824558554297
1.48275e-05;-0.0033665793817373173
1.48278e-05;-0.0033553342049204133
1.48280e-05;-0.003344507896604212
1.48283e-05;-0.0033340527529662567
1.48285e-05;-0.0033238053667880123
1.48288e-05;-0.0033137420771233266
1.48290e-05;-0.003303509318435562
1.48293e-05;-0.0032931263911023167
1.48295e-05;-0.0032827434637690014
1.48298e-05;-0.0032724206951613728
1.48300e-05;-0.003262151233961801
1.48303e-05;-0.0032518817727621597
1.48305e-05;-0.0032416123115625185
1.48308e-05;-0.003231287176795333
1.48310e-05;-0.003220912708975404
1.48313e-05;-0.0032105382411554747
1.48315e-05;-0.003200163773335616
1.48318e-05;-0.0031898378439786258
1.48320e-05;-0.003179554925167781
1.48323e-05;-0.003169272006357007
1.48325e-05;-0.0031589890875461622
1.48328e-05;-0.0031487061687353176
1.48330e-05;-0.003138662214208762
1.48333e-05;-0.0031288300089579025
1.48335e-05;-0.0031189978037070433
1.48338e-05;-0.003109165598456184
1.48340e-05;-0.003099333393205391
1.48343e-05;-0.0030899785898255015
1.48345e-05;-0.0030810468182838665
1.48348e-05;-0.0030721150467422917
1.48350e-05;-0.003063640308693226
1.48353e-05;-0.003055570553804612
1.48355e-05;-0.0030475007989160525
1.48358e-05;-0.00303983857618827
1.48360e-05;-0.0030327925096510044
1.48363e-05;-0.003026288823248187
1.48365e-05;-0.003020575813436257
1.48368e-05;-0.0030160825842965233
1.48370e-05;-0.0030131436288902908
1.48373e-05;-0.003012254419159033
1.48375e-05;-0.0030124951660445718
1.48378e-05;-0.003014743247481973
1.48380e-05;-0.003018770053463985
1.48383e-05;-0.003022796859445997
1.48385e-05;-0.0030289477169602843
1.48388e-05;-0.0030369807234123082
1.48390e-05;-0.0030469700817478693
1.48393e-05;-0.0030586929882404404
1.48395e-05;-0.003071772490456454
1.48398e-05;-0.003086879811023138
1.48400e-05;-0.0031034851588559705
1.48403e-05;-0.0031214892572214853
1.48405e-05;-0.003140856066362356
1.48408e-05;-0.003161620286939622
1.48410e-05;-0.003183779366780273
1.48413e-05;-0.003207230708191303
1.48415e-05;-0.003231825416836511
1.48418e-05;-0.0032574112355340723
1.48420e-05;-0.003283836372762954
1.48423e-05;-0.003310956662457188
1.48425e-05;-0.003338667091111615
1.48428e-05;-0.0033669072005852612
1.48430e-05;-0.0033955935147786695
1.48433e-05;-0.003424579483799947
1.48435e-05;-0.003453689797149202
1.48438e-05;-0.0034827471332029097
1.48440e-05;-0.0035115742125139205
1.48443e-05;-0.00353999852780328
1.48445e-05;-0.003567872371842049
1.48448e-05;-0.0035950759054213495
1.48450e-05;-0.003621474641945781
1.48453e-05;-0.0036468948619953457
1.48455e-05;-0.0036711447522114814
1.48458e-05;-0.003694031172546212
1.48460e-05;-0.0037153609970098536
1.48463e-05;-0.00373489590478736
1.48465e-05;-0.0037521744853578204
1.48468e-05;-0.0037665002624293355
1.48470e-05;-0.003777346040367476
1.48473e-05;-0.0037845743611604455
1.48475e-05;-0.0037882221540010094
1.48478e-05;-0.0037874207291930108
1.48480e-05;-0.0037841579569681564
1.48483e-05;-0.003777163204043119
1.48485e-05;-0.0037668614957993667
1.48488e-05;-0.003751364019969119
1.48490e-05;-0.0037312625087390474
1.48493e-05;-0.0037111609975091124
1.48495e-05;-0.0036861493286207696
1.48498e-05;-0.0036567867069036146
1.48500e-05;-0.0036239797306784065
1.48503e-05;-0.0035881206683420212
1.48505e-05;-0.0035490213673378033
1.48508e-05;-0.0035070508498514694
1.48510e-05;-0.0034620251373291893
1.48513e-05;-0.003414292177827744
1.48515e-05;-0.0033640832876270254
1.48518e-05;-0.003311680443906169
1.48520e-05;-0.003257421300245294
1.48523e-05;-0.003201517265720138
1.48525e-05;-0.0031442439823886775
1.48528e-05;-0.0030857573903641127
1.48530e-05;-0.0030263769968623764
1.48533e-05;-0.0029662045945628435
1.48535e-05;-0.0029058604806608407
1.48538e-05;-0.0028453642109355776
1.48540e-05;-0.002785443378761409
1.48543e-05;-0.002726032449081538
1.48545e-05;-0.002667479213298944
1.48548e-05;-0.002610449990288247
1.48550e-05;-0.002555039022745078
1.48553e-05;-0.002502285463088743
1.48555e-05;-0.00245114758825485
1.48558e-05;-0.0024031318772158557
1.48560e-05;-0.00235788275502091
1.48563e-05;-0.002315375525169193
1.48565e-05;-0.0022767249417501544
1.48568e-05;-0.0022400031156622744
1.48570e-05;-0.0022044642198356646
1.48573e-05;-0.0021694519625502485
1.48575e-05;-0.00213567038737601
1.48578e-05;-0.0021029793351927226
1.48580e-05;-0.002071571367402956
1.48583e-05;-0.002042274212305979
1.48585e-05;-0.002014558204147019
1.48588e-05;-0.001987839144177799
1.48590e-05;-0.0019614395640368903
1.48593e-05;-0.0019350399838959818
1.48595e-05;-0.001909227301090493
1.48598e-05;-0.0018839346754397294
1.48600e-05;-0.0018595710947328814
1.48603e-05;-0.0018360307525064163
1.48605e-05;-0.001813202439410331
1.48608e-05;-0.001791005064336302
1.48610e-05;-0.0017689899965360487
1.48613e-05;-0.0017471364735175893
1.48615e-05;-0.0017252829504991298
1.48618e-05;-0.0017042324912121731
1.48620e-05;-0.0016838936368588303
1.48623e-05;-0.0016635547825054875
1.48625e-05;-0.0016432610789648586
1.48628e-05;-0.0016244177290972253
1.48630e-05;-0.0016055743792295918
1.48633e-05;-0.0015867310293620862
1.48635e-05;-0.0015688196479227295
1.48638e-05;-0.0015517340955001927
1.48640e-05;-0.0015346485430777718
1.48643e-05;-0.001517562990655235
1.48645e-05;-0.001500558796458125
1.48648e-05;-0.0014861680259053358
1.48650e-05;-0.0014717772553524489
1.48653e-05;-0.001457386484799562
1.48655e-05;-0.0014429957142467727
1.48658e-05;-0.0014298037942128776
1.48660e-05;-0.0014176741907934247
1.48663e-05;-0.0014062488086261393
1.48665e-05;-0.00139569606348209
1.48668e-05;-0.001385129601270164
1.48670e-05;-0.0013743557706887807
1.48673e-05;-0.0013631707148922003
1.48675e-05;-0.0013516212672290719
1.48678e-05;-0.0013398722711802087
1.48680e-05;-0.0013279464527816138
1.48683e-05;-0.001316020634383019
1.48685e-05;-0.001303781297263194
1.48688e-05;-0.001291264147237464
1.48690e-05;-0.001277860386389511
1.48693e-05;-0.0012636709884733131
1.48695e-05;-0.0012494815905572114
1.48698e-05;-0.0012345092908121601
1.48700e-05;-0.001218843251850079
1.48703e-05;-0.0012031772128881042
1.48705e-05;-0.0011875111739260231
1.48708e-05;-0.0011709465191430514
1.48710e-05;-0.0011535855895106095
1.48713e-05;-0.0011362246598780501
1.48715e-05;-0.0011188637302454907
1.48718e-05;-0.001100974164041047
1.48720e-05;-0.0010826161662808704
1.48723e-05;-0.0010642581685206937
1.48725e-05;-0.0010457718499768266
1.48728e-05;-0.0010271718247625717
1.48730e-05;-0.0010085717995483169
1.48733e-05;-0.0009899399873194387
1.48735e-05;-0.000971280008214443
1.48738e-05;-0.0009528616104215419
1.48740e-05;-0.0009346572808863002
1.48743e-05;-0.0009169038023203202
1.48745e-05;-0.0008995498285032399
1.48748e-05;-0.0008825713735168205
1.48750e-05;-0.0008662051184969077
1.48753e-05;-0.0008504248169767994
1.48755e-05;-0.0008353436894561741
1.48758e-05;-0.0008210768089657544
1.48760e-05;-0.0008077392247047896
1.48763e-05;-0.0007954955762730484
1.48765e-05;-0.0007847589078938993
1.48768e-05;-0.0007762184831489388
1.48770e-05;-0.0007704084369904456
1.48773e-05;-0.0007674576105622446
1.48775e-05;-0.0007673096485728988
1.48778e-05;-0.000769895838636078
1.48780e-05;-0.0007751474957118579
1.48783e-05;-0.0007830269502456985
1.48785e-05;-0.0007936521206524617
1.48788e-05;-0.000808177915092585
1.48790e-05;-0.0008249717856925254
1.48793e-05;-0.0008442687602591597
1.48795e-05;-0.0008673253754170576
1.48798e-05;-0.0008931921473950926
1.48800e-05;-0.0009216852599146518
1.48803e-05;-0.0009526403322106562
1.48805e-05;-0.0009859903344530687
1.48808e-05;-0.0010217767484420423
1.48810e-05;-0.0010599800971480156
1.48813e-05;-0.001100421797815206
1.48815e-05;-0.0011428506591020225
1.48818e-05;-0.0011870107524672177
1.48820e-05;-0.00123264619000462
1.48823e-05;-0.001279513133725908
1.48825e-05;-0.0013274288238788229
1.48828e-05;-0.001376278529973323
1.48830e-05;-0.0014259093599917857
1.48833e-05;-0.0014760686639205883
1.48835e-05;-0.001526458406880534
1.48838e-05;-0.0015767775935420034
1.48840e-05;-0.0016267251738824146
1.48843e-05;-0.0016760078131750438
1.48845e-05;-0.0017243704299931275
1.48848e-05;-0.0017716004715495205
1.48850e-05;-0.0018174616154574517
1.48853e-05;-0.0018616550687015523
1.48855e-05;-0.001903853468312441
1.48858e-05;-0.0019437277152044464
1.48860e-05;-0.001980948819678629
1.48863e-05;-0.0020153370366986292
1.48865e-05;-0.002047495792808064
1.48868e-05;-0.0020789992186334345
1.48870e-05;-0.0021111633941706663
1.48873e-05;-0.002144226121902334
1.48875e-05;-0.002177905808800665
1.48878e-05;-0.002211885120756928
1.48880e-05;-0.0022458469424342375
1.48883e-05;-0.002279567482702791
1.48885e-05;-0.002313313507538756
1.48888e-05;-0.00234796008345337
1.48890e-05;-0.0023842203453023716
1.48893e-05;-0.002422131843218582
1.48895e-05;-0.0024614069802851818
1.48898e-05;-0.0025017356260853586
1.48900e-05;-0.0025428078970909387
1.48903e-05;-0.0025843725178969308
1.48905e-05;-0.002626485359762682
1.48908e-05;-0.002669948809467331
1.48910e-05;-0.002714325631655527
1.48913e-05;-0.0027596528547236174
1.48915e-05;-0.0028062452850842823
1.48918e-05;-0.002853473543146425
1.48920e-05;-0.0029010190840249553
1.48923e-05;-0.002948640866894056
1.48925e-05;-0.002996328569241947
1.48928e-05;-0.0030440746836747586
1.48930e-05;-0.0030920133718667763
1.48933e-05;-0.0031400948035972213
1.48935e-05;-0.0031879632609145736
1.48938e-05;-0.003235316049922967
1.48940e-05;-0.0032815273265741885
1.48943e-05;-0.0033270010139246305
1.48945e-05;-0.003371468009604684
