Time(s);Current(A)
1.40000e-05;0.001843892129889757
1.40003e-05;0.0018427900577876611
1.40005e-05;0.0018416879856855578
1.40008e-05;0.0018468050405437795
1.40010e-05;0.0018524800061457763
1.40013e-05;0.0018581549717478117
1.40015e-05;0.001863829937349847
1.40018e-05;0.0018695049029518439
1.40020e-05;0.0018751798685538792
1.40023e-05;0.0018808548341559144
1.40025e-05;0.0018865297997579114
1.40028e-05;0.0018922047653599466
1.40030e-05;0.001897879730961982
1.40033e-05;0.0019035546965639788
1.40035e-05;0.0019092296621660142
1.40038e-05;0.0019150469808525078
1.40040e-05;0.001920877069870838
1.40043e-05;0.0019267071588892077
1.40045e-05;0.0019325372479075775
1.40048e-05;0.0019383673369259076
1.40050e-05;0.0019441974259442774
1.40053e-05;0.0019500275149626472
1.40055e-05;0.0019558576039810168
1.40058e-05;0.001961687692999347
1.40060e-05;0.001967517782017717
1.40063e-05;0.0019733478710360864
1.40065e-05;0.0019791779600544165
1.40068e-05;0.0019914852669214037
1.40070e-05;0.002004373637570078
1.40073e-05;0.002017262008218665
1.40075e-05;0.0020301503788673395
1.40078e-05;0.002043038749516014
1.40080e-05;0.002055927120164601
1.40083e-05;0.0020688154908132753
1.40085e-05;0.00208170386146195
1.40088e-05;0.0020945922321105367
1.40090e-05;0.002107480602759211
1.40093e-05;0.002120368973407885
1.40095e-05;0.002136414381162028
1.40098e-05;0.002156861325333996
1.40100e-05;0.0021773082695059633
1.40103e-05;0.0021977552136777925
1.40105e-05;0.0022182021578497605
1.40108e-05;0.002238649102021728
1.40110e-05;0.002259096046193557
1.40113e-05;0.0022795429903655247
1.40115e-05;0.0022999899345374926
1.40118e-05;0.002320436878709322
1.40120e-05;0.0023408838228812894
1.40123e-05;0.0023613307670532573
1.40125e-05;0.002379165260982305
1.40128e-05;0.0023967653949973885
1.40130e-05;0.0024143655290124718
1.40133e-05;0.002431965663027436
1.40135e-05;0.002449565797042519
1.40138e-05;0.0024671659310576024
1.40140e-05;0.0024847660650726858
1.40143e-05;0.00250236619908765
1.40145e-05;0.002519966333102733
1.40148e-05;0.0025375664671178164
1.40150e-05;0.0025551666011327805
1.40153e-05;0.002572766735147864
1.40155e-05;0.002590366869162947
1.40158e-05;0.0026046422074339705
1.40160e-05;0.0026142821204432434
1.40163e-05;0.0026239220334525163
1.40165e-05;0.0026335619464617236
1.40168e-05;0.002643201859470996
1.40170e-05;0.002652841772480269
1.40173e-05;0.0026624816854894763
1.40175e-05;0.0026721215984987488
1.40178e-05;0.0026817615115080217
1.40180e-05;0.002691401424517229
1.40183e-05;0.0027010413375265015
1.40185e-05;0.0027106812505357744
1.40188e-05;0.0027203211635449817
1.40190e-05;0.002729961076554254
1.40193e-05;0.002736708511050166
1.40195e-05;0.002743196464616858
1.40198e-05;0.0027496844181835937
1.40200e-05;0.0027561723717503296
1.40203e-05;0.0027626603253170213
1.40205e-05;0.002769148278883757
1.40208e-05;0.0027756362324504926
1.40210e-05;0.0027821241860171847
1.40213e-05;0.0027886121395839206
1.40215e-05;0.002795100093150656
1.40218e-05;0.002801588046717348
1.40220e-05;0.002808076000284084
1.40223e-05;0.0028145639538508195
1.40225e-05;0.0028210519074175554
1.40228e-05;0.0028275398609842474
1.40230e-05;0.0028332917550285583
1.40233e-05;0.002838017435985476
1.40235e-05;0.002842743116942361
1.40238e-05;0.002847468797899279
1.40240e-05;0.002852194478856196
1.40243e-05;0.0028569201598130814
1.40245e-05;0.002861645840769999
1.40248e-05;0.0028663715217269164
1.40250e-05;0.0028710972026838016
1.40253e-05;0.0028758228836407193
1.40255e-05;0.0028805485645976366
1.40258e-05;0.002885274245554522
1.40260e-05;0.0028899999265114395
1.40263e-05;0.0028947256074683568
1.40265e-05;0.0028994512884252424
1.40268e-05;0.0029041769693821597
1.40270e-05;0.002914712457740609
1.40273e-05;0.0029257691372564184
1.40275e-05;0.002936825816772303
1.40278e-05;0.0029478824962881874
1.40280e-05;0.002958939175803997
1.40283e-05;0.0029699958553198813
1.40285e-05;0.002981052534835766
1.40288e-05;0.0029921092143515757
1.40290e-05;0.00300316589386746
1.40293e-05;0.0030142225733833447
1.40295e-05;0.003025279252899154
1.40298e-05;0.0030363359324150387
1.40300e-05;0.003047392611930923
1.40303e-05;0.003063195440662443
1.40305e-05;0.0030794240409959595
1.40308e-05;0.003095652641329476
1.40310e-05;0.003111881241662992
1.40313e-05;0.003128109841996399
1.40315e-05;0.0031443384423299153
1.40318e-05;0.0031605670426634314
1.40320e-05;0.003176795642996838
1.40323e-05;0.003193024243330354
1.40325e-05;0.0032092528436638706
1.40328e-05;0.0032254814439972774
1.40330e-05;0.0032417100443307935
1.40333e-05;0.00325793864466431
1.40335e-05;0.003270403241440415
1.40338e-05;0.003282530173775002
1.40340e-05;0.003294657106109589
1.40343e-05;0.003306784038444094
1.40345e-05;0.003318910970778681
1.40348e-05;0.003331037903113268
1.40350e-05;0.0033431648354477726
1.40353e-05;0.0033552917677823597
1.40355e-05;0.0033674187001169467
1.40358e-05;0.003365162777723433
1.40360e-05;0.0033616165859300788
1.40363e-05;0.0033580703941367245
1.40365e-05;0.003354524202343394
1.40368e-05;0.0033509780105500397
1.40370e-05;0.003347431818756685
1.40373e-05;0.003343885626963355
1.40375e-05;0.00334033943517
1.40378e-05;0.003336793243376646
1.40380e-05;0.0033144895622312575
1.40383e-05;0.0032905031682315352
1.40385e-05;0.0032665167742318133
1.40388e-05;0.003242530380232253
1.40390e-05;0.0032185439862325313
1.40393e-05;0.003194557592232809
1.40395e-05;0.0031705711982330867
1.40398e-05;0.003146584804233527
1.40400e-05;0.0031225984102338047
1.40403e-05;0.0030867129245912435
1.40405e-05;0.0030497599850861155
1.40408e-05;0.0030128070455807373
1.40410e-05;0.0029758541060753586
1.40413e-05;0.0029389011665702305
1.40415e-05;0.0029019482270648523
1.40418e-05;0.002864995287559474
1.40420e-05;0.002828042348054346
1.40423e-05;0.0027910894085489673
1.40425e-05;0.002754651476873878
1.40428e-05;0.00271825974596078
1.40430e-05;0.0026818680150474355
1.40433e-05;0.002645476284134091
1.40435e-05;0.002609084553220993
1.40438e-05;0.0025726928223076483
1.40440e-05;0.002536301091394304
1.40443e-05;0.002499909360481206
1.40445e-05;0.002469481988588452
1.40448e-05;0.002447370117144325
1.40450e-05;0.0024252582457003477
1.40453e-05;0.0024031463742562203
1.40455e-05;0.0023810345028120934
1.40458e-05;0.002358922631368116
1.40460e-05;0.0023368107599239887
1.40463e-05;0.0023146988884798617
1.40465e-05;0.0022925870170358844
1.40468e-05;0.0022885415552568577
1.40470e-05;0.0022861168103677143
1.40473e-05;0.0022836920654785873
1.40475e-05;0.002281267320589444
1.40478e-05;0.0022788425757003005
1.40480e-05;0.002276417830811157
1.40483e-05;0.00227399308592203
1.40485e-05;0.0022715683410328867
1.40488e-05;0.0022691435961437433
1.40490e-05;0.0022667188512546163
1.40493e-05;0.00227888661688681
1.40495e-05;0.002292363459901188
1.40498e-05;0.002305840302915474
1.40500e-05;0.002319317145929852
1.40503e-05;0.0023327939889442296
1.40505e-05;0.002346270831958516
1.40508e-05;0.0023597476749728937
1.40510e-05;0.0023732245179872713
1.40513e-05;0.002386701361001558
1.40515e-05;0.0024001782040159354
1.40518e-05;0.0024187984699347324
1.40520e-05;0.002437880146423017
1.40523e-05;0.00245696182291143
1.40525e-05;0.0024760434993998438
1.40528e-05;0.002495125175888128
1.40530e-05;0.0025142068523765415
1.40533e-05;0.002533288528864955
1.40535e-05;0.002552370205353239
1.40538e-05;0.0025692994781434954
1.40540e-05;0.0025832278729081572
1.40543e-05;0.0025971562676727245
1.40545e-05;0.0026110846624373863
1.40548e-05;0.002625013057202048
1.40550e-05;0.0026389414519666153
1.40553e-05;0.002652869846731277
1.40555e-05;0.002666798241495939
1.40558e-05;0.0026807266362605065
1.40560e-05;0.0026839807479607956
1.40563e-05;0.002686277281969505
1.40565e-05;0.0026885738159782143
1.40568e-05;0.0026908703499869085
1.40570e-05;0.002693166883995618
1.40573e-05;0.0026954634180043273
1.40575e-05;0.0026930752989376408
1.40578e-05;0.002684155843540035
1.40580e-05;0.0026752363881424285
1.40583e-05;0.002666316932744883
1.40585e-05;0.002657397477347277
1.40588e-05;0.0026484780219496705
1.40590e-05;0.002639558566552125
1.40593e-05;0.00262527953498991
1.40595e-05;0.0026055050149206365
1.40598e-05;0.002585280633025147
1.40600e-05;0.0025650562511295213
1.40603e-05;0.002544831869233895
1.40605e-05;0.0025246074873384056
1.40608e-05;0.0025043831054427793
1.40610e-05;0.002484158723547153
1.40613e-05;0.0024639343416516636
1.40615e-05;0.0024420747200937574
1.40618e-05;0.002417935249837331
1.40620e-05;0.002393795779581068
1.40623e-05;0.002369656309324641
1.40625e-05;0.0023455168390682144
1.40628e-05;0.002321377368811951
1.40630e-05;0.0022972378985555244
1.40633e-05;0.0022730984282990974
1.40635e-05;0.0022489589580428344
1.40638e-05;0.0022343971714881825
1.40640e-05;0.0022206945879544226
1.40643e-05;0.0022069920044207555
1.40645e-05;0.0021932894208869956
1.40648e-05;0.0021795868373532356
1.40650e-05;0.0021658842538194757
1.40653e-05;0.0021521816702858086
1.40655e-05;0.0021384790867520487
1.40658e-05;0.0021247765032182883
1.40660e-05;0.0021110739196846216
1.40663e-05;0.0020973713361508613
1.40665e-05;0.0020836687526171013
1.40668e-05;0.0020699661690834342
1.40670e-05;0.0020666725409730162
1.40673e-05;0.0020778910629929877
1.40675e-05;0.002089109585012883
1.40678e-05;0.0021003281070328546
1.40680e-05;0.0021115466290528265
1.40683e-05;0.002122765151072722
1.40685e-05;0.0021339836730926934
1.40688e-05;0.002145202195112665
1.40690e-05;0.0021564207171325604
1.40693e-05;0.002167639239152532
1.40695e-05;0.0021788577611725033
1.40698e-05;0.002190076283192399
1.40700e-05;0.0022012948052123706
1.40703e-05;0.002212513327232342
1.40705e-05;0.0022367706845171256
1.40708e-05;0.0022621977407607688
1.40710e-05;0.002287624797004412
1.40713e-05;0.002313051853247883
1.40715e-05;0.002338478909491526
1.40718e-05;0.0023639059657351693
1.40720e-05;0.00238933302197864
1.40723e-05;0.002414760078222283
1.40725e-05;0.002440348770651044
1.40728e-05;0.002465951963276438
1.40730e-05;0.002491555155902005
1.40733e-05;0.0025171583485275725
1.40735e-05;0.00254276154115314
1.40738e-05;0.0025683647337785337
1.40740e-05;0.002593967926404101
1.40743e-05;0.0026195711190296683
1.40745e-05;0.0026300299581815175
1.40748e-05;0.00263913021475024
1.40750e-05;0.0026482304713189627
1.40753e-05;0.0026573307278876233
1.40755e-05;0.002666430984456346
1.40758e-05;0.002675531241025068
1.40760e-05;0.002684631497593729
1.40763e-05;0.0026937317541624517
1.40765e-05;0.002702832010731174
1.40768e-05;0.002711932267299835
1.40770e-05;0.002721032523868557
1.40773e-05;0.00271638025245433
1.40775e-05;0.0026925542270280754
1.40778e-05;0.0026687282016016594
1.40780e-05;0.002644902176175244
1.40783e-05;0.002621076150748989
1.40785e-05;0.0025972501253225732
1.40788e-05;0.0025734240998961577
1.40790e-05;0.002549598074469903
1.40793e-05;0.002525772049043487
1.40795e-05;0.0025019460236170715
1.40798e-05;0.002478119998190817
1.40800e-05;0.002454293972764401
1.40803e-05;0.002412390432799325
1.40805e-05;0.0023688651797352626
1.40808e-05;0.0023253399266709054
1.40810e-05;0.002281814673606548
1.40813e-05;0.002238289420542486
1.40815e-05;0.0021947641674781282
1.40818e-05;0.002149704657617455
1.40820e-05;0.002102506089218319
1.40823e-05;0.002055307520819503
1.40825e-05;0.002008108952420367
1.40828e-05;0.0019609103840212312
1.40830e-05;0.0019137118156224153
1.40833e-05;0.0018665132472232794
1.40835e-05;0.001825344906685881
1.40838e-05;0.0017847175309754007
1.40840e-05;0.0017440901552646451
1.40843e-05;0.0017034627795538895
1.40845e-05;0.0016628354038434091
1.40848e-05;0.0016222080281326535
1.40850e-05;0.0015969329028644918
1.40853e-05;0.0015730350103795915
1.40855e-05;0.0015491371178945291
1.40858e-05;0.001525239225409467
1.40860e-05;0.0015013413329245666
1.40863e-05;0.0014774434404395043
1.40865e-05;0.0014670608471321095
1.40868e-05;0.0014578906958165113
1.40870e-05;0.0014557831804539653
1.40873e-05;0.0014543092460643095
1.40875e-05;0.0014600021084212177
1.40878e-05;0.0014663378958963483
1.40880e-05;0.0014811868429482886
1.40883e-05;0.0014967994957839647
1.40885e-05;0.0015124121486197466
1.40888e-05;0.001537339981336517
1.40890e-05;0.0015631034681587888
1.40893e-05;0.001588866954981235
1.40895e-05;0.001622831866821179
1.40898e-05;0.0016575325190949365
1.40900e-05;0.0016922331713689293
1.40903e-05;0.0017357966607960613
1.40905e-05;0.0017801552251815846
1.40908e-05;0.0018245137895668074
1.40910e-05;0.001868872353952331
1.40913e-05;0.0019132309183378543
1.40915e-05;0.001957589482723077
1.40918e-05;0.002006957789557109
1.40920e-05;0.002056775514641831
1.40923e-05;0.002106593239726216
1.40925e-05;0.002156410964810938
1.40928e-05;0.00220622868989566
1.40930e-05;0.002256046414980044
1.40933e-05;0.0023003021978817953
1.40935e-05;0.0023440590253277624
1.40938e-05;0.0023878158527734328
1.40940e-05;0.0024315726802193994
1.40943e-05;0.0024753295076653664
1.40945e-05;0.002519086335111037
1.40948e-05;0.0025628431625570034
1.40950e-05;0.002588286218007449
1.40953e-05;0.0026120863659707095
1.40955e-05;0.002635886513934131
1.40958e-05;0.002659686661897553
1.40960e-05;0.002683486809860813
1.40963e-05;0.002707286957824235
1.40965e-05;0.0027310871057876565
1.40968e-05;0.002737800071119723
1.40970e-05;0.002742980164889972
1.40973e-05;0.002748160258660221
1.40975e-05;0.002742874774453716
1.40978e-05;0.0027366504352466887
1.40980e-05;0.0027304260960396612
1.40983e-05;0.0027080322697087046
1.40985e-05;0.0026841878972275967
1.40988e-05;0.0026603435247464892
1.40990e-05;0.0026364991522653813
1.40993e-05;0.0026126547797844352
1.40995e-05;0.0025888104073033273
1.40998e-05;0.00256496603482222
1.41000e-05;0.0025336954150015525
1.41003e-05;0.0024920711322043375
1.41005e-05;0.002450446849407122
1.41008e-05;0.002408822566610189
1.41010e-05;0.0023671982838129736
1.41013e-05;0.0023255740010157586
1.41015e-05;0.002283949718218825
1.41018e-05;0.00224232543542161
1.41020e-05;0.002195833108026899
1.41023e-05;0.002148904073933201
1.41025e-05;0.002101975039839185
1.41028e-05;0.0020550460057451696
1.41030e-05;0.002008116971651472
1.41033e-05;0.001961187937557456
1.41035e-05;0.0019198944297142487
1.41038e-05;0.0018791064784698629
1.41040e-05;0.0018383185272252008
1.41043e-05;0.0017975305759805385
1.41045e-05;0.0017567426247361527
1.41048e-05;0.0017159546734914904
1.41050e-05;0.0016861297767508752
1.41053e-05;0.0016572883630604951
1.41055e-05;0.0016284469493699195
1.41058e-05;0.001599605535679344
1.41060e-05;0.001570764121988964
1.41063e-05;0.0015419227082983883
1.41065e-05;0.0015130812946078129
1.41068e-05;0.0014892949225001504
1.41070e-05;0.0014659620323770215
1.41073e-05;0.0014426291422538927
1.41075e-05;0.0014192962521307638
1.41078e-05;0.001395963362007793
1.41080e-05;0.001372630471884664
1.41083e-05;0.0013492975817615352
1.41085e-05;0.0013286143576959663
1.41088e-05;0.001308168832134422
1.41090e-05;0.0012877233065728781
1.41093e-05;0.0012672777810114728
1.41095e-05;0.0012468322554499286
1.41098e-05;0.0012263867298883846
1.41100e-05;0.001205941204326979
1.41103e-05;0.001185495678765435
1.41105e-05;0.0011650501532038911
1.41108e-05;0.0011446046276424855
1.41110e-05;0.0011241591020809416
1.41113e-05;0.001106736181921016
1.41115e-05;0.00108958441622646
1.41118e-05;0.0010724326505317876
1.41120e-05;0.0010552808848371153
1.41123e-05;0.001038129119142559
1.41125e-05;0.0010209773534478866
1.41128e-05;0.0010038255877532142
1.41130e-05;0.000986673822058658
1.41133e-05;0.0009695220563639855
1.41135e-05;0.0009523702906693132
1.41138e-05;0.000935218524974757
1.41140e-05;0.0009213556278342795
1.41143e-05;0.0009077877713213157
1.41145e-05;0.0008942199148084439
1.41148e-05;0.0008831139921255228
1.41150e-05;0.0008722289267040608
1.41153e-05;0.0008613438612826724
1.41155e-05;0.0008544645261891199
1.41158e-05;0.000847944540571028
1.41160e-05;0.000845721801963011
1.41163e-05;0.0008438845644577626
1.41165e-05;0.0008461982146938774
1.41168e-05;0.0008488842363105689
1.41170e-05;0.00085563418476005
1.41173e-05;0.000862748703426714
1.41175e-05;0.0008744989649741471
1.41178e-05;0.0008866650937007408
1.41180e-05;0.0009035471958270004
1.41183e-05;0.0009208523625204048
1.41185e-05;0.0009433041496269087
1.41188e-05;0.0009662176341506024
1.41190e-05;0.0009891311186742962
1.41193e-05;0.0010175783011440822
1.41195e-05;0.001046521905312875
1.41198e-05;0.0010754655094816674
1.41200e-05;0.00111096371200878
1.41203e-05;0.0011470499200406034
1.41205e-05;0.0011831361280724266
1.41208e-05;0.0012192223361040054
1.41210e-05;0.0012553085441358285
1.41213e-05;0.001291394752167652
1.41215e-05;0.001331348121061275
1.41218e-05;0.0013716484085228042
1.41220e-05;0.0014119486959843332
1.41223e-05;0.0014522489834455895
1.41225e-05;0.0014925492709071185
1.41228e-05;0.0015328495583686477
1.41230e-05;0.0015696979297435338
1.41233e-05;0.0016062366336837696
1.41235e-05;0.001642775337624005
1.41238e-05;0.0016793140415639932
1.41240e-05;0.0017158527455042288
1.41243e-05;0.0017523914494444646
1.41245e-05;0.0017850090155801925
1.41248e-05;0.001812159737227611
1.41250e-05;0.0018393104588750294
1.41253e-05;0.001866461180522448
1.41255e-05;0.0018936119021696824
1.41258e-05;0.0019207626238171007
1.41260e-05;0.0019479133454645193
1.41263e-05;0.001975021449527958
1.41265e-05;0.002002125730416992
1.41268e-05;0.0020292300113060264
1.41270e-05;0.0020563342921948767
1.41273e-05;0.002083438573083911
1.41275e-05;0.0021105428539729453
1.41278e-05;0.002137647134861796
1.41280e-05;0.0021647514157508304
1.41283e-05;0.0021918556966398647
1.41285e-05;0.002218959977528715
1.41288e-05;0.0022460642584177493
1.41290e-05;0.0022731685393067836
1.41293e-05;0.0023002728201956344
1.41295e-05;0.0023290886343272283
1.41298e-05;0.0023602906655577132
1.41300e-05;0.0023914926967879865
1.41303e-05;0.002422694728018472
1.41305e-05;0.002453896759248957
1.41308e-05;0.00248509879047923
1.41310e-05;0.0025163008217097154
1.41313e-05;0.0025475028529402003
1.41315e-05;0.002578704884170474
1.41318e-05;0.002609906915400959
1.41320e-05;0.002641108946631444
1.41323e-05;0.0026723109778617176
1.41325e-05;0.0027035130090922025
1.41328e-05;0.0027347150403226874
1.41330e-05;0.0027565772010713628
1.41333e-05;0.0027776014927453478
1.41335e-05;0.0027986257844193323
1.41338e-05;0.0028196500760933173
1.41340e-05;0.0028406743677671597
1.41343e-05;0.0028616986594411442
1.41345e-05;0.0028827229511151293
1.41348e-05;0.0029037472427889716
1.41350e-05;0.002924771534462956
1.41353e-05;0.002945795826136941
1.41355e-05;0.0029668201178107835
1.41358e-05;0.002987844409484768
1.41360e-05;0.003008868701158753
1.41363e-05;0.0030298929928325954
1.41365e-05;0.00305091728450658
1.41368e-05;0.0030643372025839113
1.41370e-05;0.003067155114310708
1.41373e-05;0.0030699730260375234
1.41375e-05;0.003072790937764339
1.41378e-05;0.0030756088494911355
1.41380e-05;0.003078426761217951
1.41383e-05;0.0030812446729447667
1.41385e-05;0.003084062584671563
1.41388e-05;0.003086880496398379
1.41390e-05;0.0030896984081251948
1.41393e-05;0.0030925163198519913
1.41395e-05;0.003095334231578807
1.41398e-05;0.0030981521433056224
1.41400e-05;0.003100970055032419
1.41403e-05;0.0031037879667592345
1.41405e-05;0.00310660587848605
1.41408e-05;0.0031018370444900003
1.41410e-05;0.003096387612231196
1.41413e-05;0.0030909381799723913
1.41415e-05;0.0030854887477136236
1.41418e-05;0.003080039315454819
1.41420e-05;0.003074589883196014
1.41423e-05;0.0030691404509372096
1.41425e-05;0.003063691018678442
1.41428e-05;0.0030582415864196374
1.41430e-05;0.0030527921541608325
1.41433e-05;0.003047342721902065
1.41435e-05;0.0030418932896432603
1.41438e-05;0.0030364438573844557
1.41440e-05;0.003030994425125688
1.41443e-05;0.003025544992866883
1.41445e-05;0.0030183526246982855
1.41448e-05;0.0030110038997469882
1.41450e-05;0.0030036551747956415
1.41453e-05;0.002996306449844295
1.41455e-05;0.002988957724892998
1.41458e-05;0.0029816089999416514
1.41460e-05;0.0029742602749903047
1.41463e-05;0.002966911550039008
1.41465e-05;0.002959562825087661
1.41468e-05;0.0029522141001363145
1.41470e-05;0.0029448653751850172
1.41473e-05;0.0029375166502336706
1.41475e-05;0.002930167925282324
1.41478e-05;0.002922819200331027
1.41480e-05;0.0029154704753796804
1.41483e-05;0.002901619982766444
1.41485e-05;0.0028871862240282937
