Time(s);Current(A)
1.15000e-05;-0.004254347905473904
1.15003e-05;-0.004263827651696416
1.15005e-05;-0.004273307397918929
1.15007e-05;-0.004282787144141378
1.15010e-05;-0.004292266890363891
1.15013e-05;-0.004301746636586405
1.15015e-05;-0.004311226382808854
1.15018e-05;-0.004320706129031367
1.15020e-05;-0.004321849229265908
1.15023e-05;-0.004319826334545668
1.15025e-05;-0.004317803439825442
1.15028e-05;-0.004315780545105201
1.15030e-05;-0.004313757650384962
1.15033e-05;-0.004311734755664735
1.15035e-05;-0.0043097118609444944
1.15038e-05;-0.004305601446125126
1.15040e-05;-0.004294290748377091
1.15043e-05;-0.004282980050628981
1.15045e-05;-0.004271669352880869
1.15048e-05;-0.004260358655132836
1.15050e-05;-0.004249047957384724
1.15053e-05;-0.0042377372596366135
1.15055e-05;-0.0042224770706640324
1.15058e-05;-0.004205716989611252
1.15060e-05;-0.004188956908558472
1.15063e-05;-0.004172196827505806
1.15065e-05;-0.0041554367464530255
1.15068e-05;-0.004138676665400245
1.15070e-05;-0.004121569107488446
1.15073e-05;-0.004103240772905969
1.15075e-05;-0.00408483566574556
1.15078e-05;-0.004066430558585275
1.15080e-05;-0.0040481597323918095
1.15083e-05;-0.0040303520686630154
1.15085e-05;-0.004012544404934343
1.15088e-05;-0.003995116628305837
1.15090e-05;-0.0039789991598295415
1.15092e-05;-0.003962881691353355
1.15095e-05;-0.0039473831573105245
1.15098e-05;-0.003934019454466938
1.15100e-05;-0.003920655751623442
1.15103e-05;-0.003908093199240914
1.15105e-05;-0.003898293978331239
1.15108e-05;-0.003888494757421564
1.15110e-05;-0.003880167949766742
1.15113e-05;-0.0038769197959801615
1.15115e-05;-0.0038736716421935813
1.15118e-05;-0.0038704234884070227
1.15120e-05;-0.0038671753346204425
1.15123e-05;-0.0038639271808338623
1.15125e-05;-0.0038606790270473037
1.15128e-05;-0.0038594291866613857
1.15130e-05;-0.00386507193709491
1.15133e-05;-0.0038707146875283953
1.15135e-05;-0.0038763574379619193
1.15138e-05;-0.0038820001883954434
1.15140e-05;-0.0038876429388289293
1.15143e-05;-0.0038932856892624533
1.15145e-05;-0.0039004835401828526
1.15148e-05;-0.0039130452501132664
1.15150e-05;-0.003925606960043767
1.15153e-05;-0.003938168669974266
1.15155e-05;-0.00395073037990468
1.15158e-05;-0.003963292089835179
1.15160e-05;-0.003975853799765679
1.15163e-05;-0.003988415509696093
1.15165e-05;-0.004003119418557471
1.15168e-05;-0.004018636866943028
1.15170e-05;-0.004034154315328479
1.15173e-05;-0.004049671763714036
1.15175e-05;-0.0040651892120995925
1.15177e-05;-0.004080706660485044
1.15180e-05;-0.004096224108870601
1.15183e-05;-0.004111548721554291
1.15185e-05;-0.004126208204539926
1.15188e-05;-0.004140867687525661
1.15190e-05;-0.004154425793360659
1.15193e-05;-0.0041641850245861135
1.15195e-05;-0.004173944255811501
1.15198e-05;-0.0041837034870369555
1.15200e-05;-0.00419346271826241
1.15203e-05;-0.004203221949487798
1.15205e-05;-0.004212981180713253
1.15208e-05;-0.004222740411938706
1.15210e-05;-0.004232499643164095
1.15213e-05;-0.004242258874389549
1.15215e-05;-0.004245832901112767
1.15218e-05;-0.004247057982434199
1.15220e-05;-0.00424828306375564
1.15223e-05;-0.004249508145077081
1.15225e-05;-0.004250733226398514
1.15228e-05;-0.0042519583077199555
1.15230e-05;-0.004253183389041396
1.15233e-05;-0.004254408470362829
1.15235e-05;-0.00425563355168427
1.15238e-05;-0.0042553306467907346
1.15240e-05;-0.004249757405543702
1.15243e-05;-0.00424418416429663
1.15245e-05;-0.004238610923049559
1.15248e-05;-0.004233037681802526
1.15250e-05;-0.004227464440555454
1.15253e-05;-0.004221891199308383
1.15255e-05;-0.00421631795806135
1.15258e-05;-0.004210744716814279
1.15260e-05;-0.004204463915928446
1.15262e-05;-0.004195742597418661
1.15265e-05;-0.004187021278908818
1.15268e-05;-0.004178299960398974
1.15270e-05;-0.0041695786418891895
1.15273e-05;-0.004160857323379346
1.15275e-05;-0.004152136004869502
1.15278e-05;-0.004143414686359659
1.15280e-05;-0.004134693367849875
1.15283e-05;-0.004126111708755601
1.15285e-05;-0.004118011763493527
1.15288e-05;-0.004109911818231507
1.15290e-05;-0.004101811872969432
1.15293e-05;-0.004093711927707358
1.15295e-05;-0.004085611982445338
1.15298e-05;-0.00407794706355797
1.15300e-05;-0.00407178263943659
1.15303e-05;-0.004065618215315252
1.15305e-05;-0.004059453791193872
1.15308e-05;-0.004053289367072492
1.15310e-05;-0.004047124942951154
1.15313e-05;-0.004041196149705744
1.15315e-05;-0.004036080095449696
1.15318e-05;-0.004030964041193684
1.15320e-05;-0.004025847986937636
1.15323e-05;-0.004020731932681589
1.15325e-05;-0.0040156158784255755
1.15328e-05;-0.0040104998241695285
1.15330e-05;-0.004005383769913481
1.15333e-05;-0.004000267715657467
1.15335e-05;-0.00399515166140142
1.15338e-05;-0.0039900356071453725
1.15340e-05;-0.00398491955288936
1.15343e-05;-0.003979803498633312
1.15345e-05;-0.003974687444377265
1.15347e-05;-0.003969685250841957
1.15350e-05;-0.00396507578617422
1.15353e-05;-0.003960466321506482
1.15355e-05;-0.003955856856838776
1.15358e-05;-0.0039512473921710384
1.15360e-05;-0.003946637927503301
1.15362e-05;-0.003942028462835595
1.15365e-05;-0.003937418998167857
1.15368e-05;-0.00393280953350012
1.15370e-05;-0.003928200068832382
1.15373e-05;-0.003923590604164676
1.15375e-05;-0.0039189811394969385
1.15378e-05;-0.003914371674829201
1.15380e-05;-0.003909762210161495
1.15383e-05;-0.0039053121714350664
1.15385e-05;-0.0039014120253232205
1.15388e-05;-0.003897511879211401
1.15390e-05;-0.003893611733099555
1.15393e-05;-0.0038898393920115564
1.15395e-05;-0.0038865078765391967
1.15398e-05;-0.0038831763610668144
1.15400e-05;-0.003879844845594432
1.15403e-05;-0.003876225602013842
1.15405e-05;-0.00387161392545499
1.15408e-05;-0.0038670022488961377
1.15410e-05;-0.0038617194117139706
1.15413e-05;-0.003854121604540043
1.15415e-05;-0.003846523797366115
1.15418e-05;-0.0038380073062237005
1.15420e-05;-0.003826322086545689
1.15423e-05;-0.003814636866867677
1.15425e-05;-0.0038029516471897447
1.15428e-05;-0.0037912664275117328
1.15430e-05;-0.003779581207833721
1.15432e-05;-0.003763543226618039
1.15435e-05;-0.003745852203986242
1.15438e-05;-0.003728161181354445
1.15440e-05;-0.003710470158722768
1.15443e-05;-0.003692779136090971
1.15445e-05;-0.0036740259941135233
1.15447e-05;-0.0036516093857055817
1.15450e-05;-0.003629192777297488
1.15453e-05;-0.0036067761688893946
1.15455e-05;-0.003584359560481301
1.15458e-05;-0.003561385241249005
1.15460e-05;-0.0035364872635392348
1.15463e-05;-0.0035115892858294646
1.15465e-05;-0.003486691308119863
1.15468e-05;-0.003461793330410093
1.15470e-05;-0.0034367675084283748
1.15473e-05;-0.0034113007254563308
1.15475e-05;-0.0033858948555960844
1.15478e-05;-0.0033607845961055884
1.15480e-05;-0.0033360826219003626
1.15483e-05;-0.003311900239477967
1.15485e-05;-0.0032883053307248126
1.15488e-05;-0.0032653786562333183
1.15490e-05;-0.003243253917031136
1.15493e-05;-0.00322208979895569
1.15495e-05;-0.0032020445745139414
1.15498e-05;-0.003183276597366925
1.15500e-05;-0.003165952240670937
1.15503e-05;-0.003150273938341354
1.15505e-05;-0.0031364712748428417
1.15508e-05;-0.003124702884000469
1.15510e-05;-0.003115020268976767
1.15513e-05;-0.003107671669719353
1.15515e-05;-0.0031027740771300775
1.15517e-05;-0.0030988340083089685
1.15520e-05;-0.003098196634421964
1.15523e-05;-0.0030988013071465443
1.15525e-05;-0.0031036900521713338
1.15528e-05;-0.003108578797196156
1.15530e-05;-0.0031153195101481044
1.15532e-05;-0.0031284480385194687
1.15535e-05;-0.003141576566890922
1.15538e-05;-0.003154705095262375
1.15540e-05;-0.0031678336236338283
1.15543e-05;-0.003182888115757223
1.15545e-05;-0.0032045856500054555
1.15548e-05;-0.003226283184253688
1.15550e-05;-0.0032479807185017743
1.15553e-05;-0.003269678252750007
1.15555e-05;-0.003292731180491245
1.15558e-05;-0.0033204591370642254
1.15560e-05;-0.0033481870936373937
1.15563e-05;-0.003375915050210562
1.15565e-05;-0.0034036430067835425
1.15568e-05;-0.0034313709633567112
1.15570e-05;-0.0034594337850530773
1.15573e-05;-0.003488651624914789
1.15575e-05;-0.0035178694647766988
1.15578e-05;-0.003547087304638608
1.15580e-05;-0.00357630514450032
1.15583e-05;-0.003605522984362229
1.15585e-05;-0.0036342504754172896
1.15588e-05;-0.0036612866533428717
1.15590e-05;-0.0036866438908979126
1.15593e-05;-0.0037062101203934757
1.15595e-05;-0.003725776349888906
1.15598e-05;-0.0037453425793844692
1.15600e-05;-0.0037649088088800324
1.15602e-05;-0.0037844750383754628
1.15605e-05;-0.0038040412678710255
1.15608e-05;-0.0038236074973665886
1.15610e-05;-0.003843173726862019
1.15613e-05;-0.003862739956357582
1.15615e-05;-0.0038759783997179722
1.15617e-05;-0.0038868137496698187
1.15620e-05;-0.0038976490996217384
1.15623e-05;-0.003908484449573658
1.15625e-05;-0.003919319799525578
1.15628e-05;-0.003930155149477424
1.15630e-05;-0.0039409904994293435
1.15633e-05;-0.003951825849381264
1.15635e-05;-0.00396266119933311
1.15638e-05;-0.003972298022842789
1.15640e-05;-0.003977800883997905
1.15643e-05;-0.003983303745152984
1.15645e-05;-0.0039888066063081
1.15648e-05;-0.003994309467463216
1.15650e-05;-0.003999812328618295
1.15653e-05;-0.004005315189773411
1.15655e-05;-0.004010818050928527
1.15658e-05;-0.004016320912083606
1.15660e-05;-0.004021823773238722
1.15663e-05;-0.004027326634393838
1.15665e-05;-0.004032829495548917
1.15668e-05;-0.004036099800801249
1.15670e-05;-0.004038522251802395
1.15673e-05;-0.004040944702803525
1.15675e-05;-0.004043367153804672
1.15678e-05;-0.004045789604805818
1.15680e-05;-0.004048212055806948
1.15683e-05;-0.004050634506808095
1.15685e-05;-0.004053056957809242
1.15687e-05;-0.004055479408810372
1.15690e-05;-0.004057901859811518
1.15693e-05;-0.004060324310812665
1.15695e-05;-0.004062506231015194
1.15698e-05;-0.00406385851139354
1.15700e-05;-0.0040648425918960165
1.15702e-05;-0.004064556675865611
1.15705e-05;-0.0040642707598352035
1.15708e-05;-0.0040629254929206975
1.15710e-05;-0.004057926308560579
1.15713e-05;-0.004052927124200495
1.15715e-05;-0.0040469196987552355
1.15718e-05;-0.004037434643994064
1.15720e-05;-0.004027949589232958
1.15723e-05;-0.004016885859188249
1.15725e-05;-0.0040003769558338426
1.15728e-05;-0.003983868052479547
1.15730e-05;-0.003967359149125141
1.15733e-05;-0.003950850245770735
1.15735e-05;-0.00393250533540056
1.15738e-05;-0.003907827662045816
1.15740e-05;-0.0038831499886910702
1.15743e-05;-0.0038584723153364925
1.15745e-05;-0.003833794641981748
1.15748e-05;-0.003807706734727645
1.15750e-05;-0.0037767546428816535
1.15753e-05;-0.0037458025510354524
1.15755e-05;-0.0037148504591892513
1.15758e-05;-0.0036838983673432597
1.15760e-05;-0.0036505933538452757
1.15763e-05;-0.0036163947749842515
1.15765e-05;-0.0035821961961234584
1.15768e-05;-0.0035479976172624337
1.15770e-05;-0.0035135956690808406
1.15772e-05;-0.003478505916951085
1.15775e-05;-0.0034435231940923923
1.15778e-05;-0.003408853479786547
1.15780e-05;-0.0033746966487964744
1.15783e-05;-0.0033412161510510325
1.15785e-05;-0.0033085289198644214
1.15787e-05;-0.003276767558982846
1.15790e-05;-0.003246126054379686
1.15793e-05;-0.0032168258279972723
1.15795e-05;-0.0031890882494468678
1.15798e-05;-0.00316313450784011
1.15800e-05;-0.003139161981750394
1.15803e-05;-0.0031172289863793654
1.15805e-05;-0.0030971802886359577
1.15808e-05;-0.0030790417024393287
1.15810e-05;-0.003062897458439013
1.15813e-05;-0.0030475857198002283
1.15815e-05;-0.0030351454620944802
1.15818e-05;-0.003023604117601531
1.15820e-05;-0.0030151633082772045
1.15823e-05;-0.0030077515677166917
1.15825e-05;-0.003003889295389538
1.15828e-05;-0.0030000270230624107
1.15830e-05;-0.0029977072343179896
1.15833e-05;-0.0030007077863220275
1.15835e-05;-0.0030037083383260446
1.15838e-05;-0.003006708890330082
1.15840e-05;-0.0030097094423341196
1.15843e-05;-0.0030127099943381367
1.15845e-05;-0.003020997456016143
1.15848e-05;-0.0030312927190844106
1.15850e-05;-0.003041587982152609
1.15853e-05;-0.0030518832452208766
1.15855e-05;-0.0030621785082891443
1.15857e-05;-0.003073536018674331
1.15860e-05;-0.003088557436895626
1.15863e-05;-0.003103578855116921
1.15865e-05;-0.0031186002733381143
1.15868e-05;-0.003133621691559409
1.15870e-05;-0.003148643109780704
1.15872e-05;-0.0031639190827103393
1.15875e-05;-0.003180073066792581
1.15878e-05;-0.003196227050874823
1.15880e-05;-0.003212381034957065
1.15883e-05;-0.003228535019039197
1.15885e-05;-0.003244689003121439
1.15888e-05;-0.003260223199778894
1.15890e-05;-0.0032736196230888446
1.15893e-05;-0.003287016046398886
1.15895e-05;-0.0033004124697089275
1.15898e-05;-0.003313808893018878
1.15900e-05;-0.0033264509880276834
1.15903e-05;-0.0033364912507417117
1.15905e-05;-0.0033465315134556723
1.15908e-05;-0.0033565717761697006
1.15910e-05;-0.003366612038883729
1.15913e-05;-0.0033761787901637574
1.15915e-05;-0.0033841123038484636
1.15918e-05;-0.00339204581753317
1.15920e-05;-0.0033999793312178223
1.15923e-05;-0.003407912844902529
1.15925e-05;-0.003415846358587235
1.15928e-05;-0.0034237798722718876
1.15930e-05;-0.003431713385956594
1.15933e-05;-0.0034396468996413
1.15935e-05;-0.0034475804133259525
1.15938e-05;-0.0034555139270106587
1.15940e-05;-0.00346317885973283
1.15942e-05;-0.00346991740188857
1.15945e-05;-0.003476655944044356
1.15948e-05;-0.003483394486200142
1.15950e-05;-0.0034901330283558826
1.15953e-05;-0.0034968715705116686
1.15955e-05;-0.0035036101126674547
1.15957e-05;-0.0035103486548231947
1.15960e-05;-0.0035170871969789808
1.15963e-05;-0.003523825739134767
1.15965e-05;-0.003530564281290553
1.15968e-05;-0.0035369907983618266
1.15970e-05;-0.0035423410772216155
1.15973e-05;-0.0035476913560814043
1.15975e-05;-0.0035530416349411568
1.15978e-05;-0.0035583919138009452
1.15980e-05;-0.003563742192660734
1.15983e-05;-0.0035690924715204866
1.15985e-05;-0.0035744427503802754
1.15988e-05;-0.003579793029240064
1.15990e-05;-0.0035851433080998163
1.15993e-05;-0.003590493586959605
1.15995e-05;-0.003595254268380613
1.15998e-05;-0.0035979813078776015
1.16000e-05;-0.0036007083473746085
1.16003e-05;-0.003603435386871616
1.16005e-05;-0.003606162426368604
1.16008e-05;-0.0036088894658656114
1.16010e-05;-0.0036116165053626183
1.16013e-05;-0.003614343544859607
1.16015e-05;-0.003617070584356614
1.16018e-05;-0.003619797623853621
1.16020e-05;-0.0036225246633506095
1.16023e-05;-0.0036247346264552355
1.16025e-05;-0.003625161087528721
1.16027e-05;-0.003625587548602203
1.16030e-05;-0.003626014009675689
1.16033e-05;-0.0036264404707491743
1.16035e-05;-0.0036268669318226567
1.16038e-05;-0.0036272933928961425
1.16040e-05;-0.003627719853969628
1.16042e-05;-0.00362814631504311
1.16045e-05;-0.003628572776116596
1.16048e-05;-0.0036289992371900813
1.16050e-05;-0.0036294256982635667
1.16053e-05;-0.0036298521593370494
1.16055e-05;-0.003630278620410535
1.16058e-05;-0.00363070508148402
1.16060e-05;-0.003631131542557503
1.16063e-05;-0.0036315580036309883
1.16065e-05;-0.0036311872157354422
1.16068e-05;-0.003630513657849778
1.16070e-05;-0.003629840099964109
1.16073e-05;-0.0036291665420784404
1.16075e-05;-0.003628492984192776
1.16078e-05;-0.0036278194263071072
1.16080e-05;-0.0036271458684214385
1.16083e-05;-0.003626472310535774
1.16085e-05;-0.0036257987526501054
1.16088e-05;-0.0036251251947644367
1.16090e-05;-0.0036244516368787727
1.16093e-05;-0.003623778078993104
1.16095e-05;-0.0036231045211074352
1.16098e-05;-0.003622430963221771
1.16100e-05;-0.003621757405336102
1.16103e-05;-0.0036210838474504334
1.16105e-05;-0.003620140122422553
1.16108e-05;-0.003618264535770046
1.16110e-05;-0.0036163889491175384
1.16113e-05;-0.003614513362465044
1.16115e-05;-0.0036126377758125363
1.16118e-05;-0.003610762189160029
1.16120e-05;-0.0036088866025075343
1.16123e-05;-0.0036070110158550267
1.16125e-05;-0.0036051354292025196
1.16127e-05;-0.0036032598425500247
1.16130e-05;-0.003601384255897517
1.16133e-05;-0.00359950866924501
1.16135e-05;-0.003597236536838949
1.16138e-05;-0.0035935966371790718
1.16140e-05;-0.00358995673751917
1.16143e-05;-0.003586316837859268
1.16145e-05;-0.003582676938199391
1.16148e-05;-0.003579037038539489
1.16150e-05;-0.003575397138879587
1.16153e-05;-0.00357175723921971
1.16155e-05;-0.003568117339559808
1.16158e-05;-0.0035644774398999064
1.16160e-05;-0.0035608375402400292
1.16163e-05;-0.0035571976405801274
1.16165e-05;-0.003553445126380167
1.16168e-05;-0.0035493041816426676
1.16170e-05;-0.0035451632369051405
1.16173e-05;-0.0035410222921676135
1.16175e-05;-0.0035368813474301146
1.16178e-05;-0.003532740402692587
1.16180e-05;-0.00352859945795506
1.16183e-05;-0.003524458513217561
1.16185e-05;-0.003520317568480034
1.16188e-05;-0.003516382650307159
1.16190e-05;-0.003513158359813719
1.16193e-05;-0.003509934069320257
1.16195e-05;-0.0035067097788267954
1.16198e-05;-0.0035034854883333553
1.16200e-05;-0.0035002611978398935
1.16203e-05;-0.0034970369073464317
1.16205e-05;-0.0034938126168529916
1.16208e-05;-0.00349058832635953
1.16210e-05;-0.0034875122577030892
1.16212e-05;-0.003484947436420376
1.16215e-05;-0.0034823826151376457
1.16218e-05;-0.0034798177938549155
1.16220e-05;-0.003477252972572185
1.16223e-05;-0.003474688151289472
1.16225e-05;-0.0034721233300067417
1.16228e-05;-0.003469558508724011
1.16230e-05;-0.003466993687441298
1.16233e-05;-0.003464428866158568
1.16235e-05;-0.0034618640448758372
1.16238e-05;-0.0034592992235931244
1.16240e-05;-0.003456734402310394
1.16243e-05;-0.0034541695810276635
1.16245e-05;-0.0034516047597449506
1.16248e-05;-0.0034490399384622204
1.16250e-05;-0.0034464751171794897
1.16253e-05;-0.0034439697591361544
1.16255e-05;-0.003441669501944216
1.16258e-05;-0.0034393692447522773
1.16260e-05;-0.0034370689875603544
1.16263e-05;-0.003434768730368416
1.16265e-05;-0.0034324684731764773
1.16268e-05;-0.0034301682159845544
1.16270e-05;-0.003427867958792616
1.16273e-05;-0.0034255677016006773
1.16275e-05;-0.0034232674444087544
1.16278e-05;-0.003420967187216816
1.16280e-05;-0.0034186669300248773
1.16283e-05;-0.0034163666728329544
1.16285e-05;-0.0034140664156410163
1.16288e-05;-0.0034117661584490777
1.16290e-05;-0.003409465901257155
1.16293e-05;-0.0034071656440652163
1.16295e-05;-0.003404971262447949
1.16297e-05;-0.003403142067301202
1.16300e-05;-0.0034013128721544425
1.16303e-05;-0.0033991977586756467
1.16305e-05;-0.003396096454502177
1.16308e-05;-0.0033929951503287284
1.16310e-05;-0.0033893225327997238
1.16313e-05;-0.0033836793388792707
1.16315e-05;-0.0033780361449588553
1.16318e-05;-0.0033716049942985036
1.16320e-05;-0.0033624560199882357
1.16323e-05;-0.0033533070456780298
1.16325e-05;-0.0033441580713677614
1.16328e-05;-0.0033350090970574934
1.16330e-05;-0.0033258601227472875
1.16333e-05;-0.0033130471781041186
1.16335e-05;-0.003298842773194616
1.16338e-05;-0.00328463836828521
1.16340e-05;-0.0032704339633757074
1.16343e-05;-0.0032562295584662054
1.16345e-05;-0.0032411336270833416
1.16348e-05;-0.003222962638896148
1.16350e-05;-0.003204791650708954
1.16353e-05;-0.003186620662521883
1.16355e-05;-0.0031684496743346895
1.16358e-05;-0.003149805793169873
1.16360e-05;-0.003129530807588374
1.16363e-05;-0.003109255822006738
1.16365e-05;-0.0030889808364251013
1.16368e-05;-0.0030687058508436023
1.16370e-05;-0.0030483191074943375
1.16373e-05;-0.003027546888790114
1.16375e-05;-0.0030068552595981786
1.16378e-05;-0.002986441600085182
1.16380e-05;-0.0029661522263457894
1.16382e-05;-0.002946395259360353
1.16385e-05;-0.0029271129500852188
1.16388e-05;-0.002908374281020574
1.16390e-05;-0.0028902893401957365
1.16393e-05;-0.002872987348618046
1.16395e-05;-0.0028565975272944986
1.16398e-05;-0.002841249097232441
1.16400e-05;-0.002827085670423501
1.16403e-05;-0.0028143270803745587
1.16405e-05;-0.00280327480696333
1.16408e-05;-0.00279415375709501
1.16410e-05;-0.002787024580941168
1.16413e-05;-0.0027821011324363535
1.16415e-05;-0.0027794744535299815
1.16418e-05;-0.0027777342330917113
1.16420e-05;-0.0027790515888735092
1.16423e-05;-0.002781551935896497
1.16425e-05;-0.002788132661208745
1.16428e-05;-0.0027947133865209926
1.16430e-05;-0.002803076511119816
1.16433e-05;-0.0028175874947210283
1.16435e-05;-0.0028320984783222407
1.16438e-05;-0.002846609461923355
1.16440e-05;-0.0028611204455245673
1.16443e-05;-0.0028774787500673873
1.16445e-05;-0.0029002088416539423
1.16448e-05;-0.0029229389332406513
1.16450e-05;-0.0029456690248273604
