Time(s);Current(A)
4.50000e-06;-0.012283722102384226
4.50025e-06;-0.01226230744043483
4.50050e-06;-0.012240892778485505
4.50075e-06;-0.01221585349219257
4.50100e-06;-0.012182834720294786
4.50125e-06;-0.012149815948397112
4.50150e-06;-0.01211679717649944
4.50175e-06;-0.012083778404601656
4.50200e-06;-0.012050759632703982
4.50225e-06;-0.01201086423808645
4.50250e-06;-0.011969380440125512
4.50275e-06;-0.011927896642164718
4.50300e-06;-0.011886412844203921
4.50325e-06;-0.011843640595342625
4.50350e-06;-0.011798031866218538
4.50375e-06;-0.011752423137094452
4.50400e-06;-0.01170681440797021
4.50425e-06;-0.011661205678846126
4.50450e-06;-0.01161467809987476
4.50475e-06;-0.01156793827948382
4.50500e-06;-0.011521502220487385
4.50525e-06;-0.011475627337679198
4.50550e-06;-0.01143054753794542
4.50575e-06;-0.011386428667035719
4.50600e-06;-0.011343412345654474
4.50625e-06;-0.011301711659125328
4.50650e-06;-0.011261601281539442
4.50675e-06;-0.011223366954170887
4.50700e-06;-0.011187294593050328
4.50725e-06;-0.01115367011420804
4.50750e-06;-0.011122738579090758
4.50775e-06;-0.011094611535426638
4.50800e-06;-0.011069279569828493
4.50825e-06;-0.01104791678058344
4.50850e-06;-0.011027349918506919
4.50875e-06;-0.011011569473522193
4.50900e-06;-0.010996894623713976
4.50925e-06;-0.010987224838676365
4.50950e-06;-0.01097871115336049
4.50975e-06;-0.01097632981669528
4.51000e-06;-0.01097536496650798
4.51025e-06;-0.010974400116320676
4.51050e-06;-0.01098287432562855
4.51075e-06;-0.010993528825213527
4.51100e-06;-0.011004183324798538
4.51125e-06;-0.011014837824383512
4.51150e-06;-0.011025492323968487
4.51175e-06;-0.011039988304408282
4.51200e-06;-0.011062941172588131
4.51225e-06;-0.01108589404076798
4.51250e-06;-0.011108846908947907
4.51275e-06;-0.011131799777127756
4.51300e-06;-0.011154752645307681
4.51325e-06;-0.011184050113392336
4.51350e-06;-0.011214813095015748
4.51375e-06;-0.011245576076639263
4.51400e-06;-0.011276339058262674
4.51425e-06;-0.011307102039886085
4.51450e-06;-0.0113378650215096
4.51475e-06;-0.011369716323845393
4.51500e-06;-0.011401819012992389
4.51525e-06;-0.011433921702139492
4.51550e-06;-0.011466024391286488
4.51575e-06;-0.011498127080433483
4.51600e-06;-0.011530229769580588
4.51625e-06;-0.01155916875038859
4.51650e-06;-0.0115873769589694
4.51675e-06;-0.011615585167550308
4.51700e-06;-0.011635830313415226
4.51725e-06;-0.011654236103545582
4.51750e-06;-0.011672641893675876
4.51775e-06;-0.01169104768380617
4.51800e-06;-0.011709453473936524
4.51825e-06;-0.011727859264066817
4.51850e-06;-0.01174626505419711
4.51875e-06;-0.01176010871578948
4.51900e-06;-0.011763909008599284
4.51925e-06;-0.01176770930140909
4.51950e-06;-0.011771509594218908
4.51975e-06;-0.011775309887028712
4.52000e-06;-0.011779110179838518
4.52025e-06;-0.011782910472648336
4.52050e-06;-0.01178671076545814
4.52075e-06;-0.011780416438276865
4.52100e-06;-0.011771790395544664
4.52125e-06;-0.011763164352812494
4.52150e-06;-0.011754538310080293
4.52175e-06;-0.011745912267348124
4.52200e-06;-0.011737286224615952
4.52225e-06;-0.011728660181883753
4.52250e-06;-0.011713366519799026
4.52275e-06;-0.011696532731216768
4.52300e-06;-0.011679698942634455
4.52325e-06;-0.011662865154052198
4.52350e-06;-0.01164603136546994
4.52375e-06;-0.011629197576887627
4.52400e-06;-0.01161236378830537
4.52425e-06;-0.011593139862476133
4.52450e-06;-0.011573363848485823
4.52475e-06;-0.011553587834495579
4.52500e-06;-0.011533562153605714
4.52525e-06;-0.01151347880316578
4.52550e-06;-0.011493395452725914
4.52575e-06;-0.011473965271245602
4.52600e-06;-0.011454685962628487
4.52625e-06;-0.011435406654011371
4.52650e-06;-0.011418889028779139
4.52675e-06;-0.011403009313651536
4.52700e-06;-0.011387129598523931
4.52725e-06;-0.011371249883396273
4.52750e-06;-0.011355370168268668
4.52775e-06;-0.011339490453141064
4.52800e-06;-0.011323610738013405
4.52825e-06;-0.011307420506434447
4.52850e-06;-0.011291158549913003
4.52875e-06;-0.011274896593391506
4.52900e-06;-0.011258634636870062
4.52925e-06;-0.01124237268034862
4.52950e-06;-0.01122611072382712
4.52975e-06;-0.011209848767305679
4.53000e-06;-0.011190076577037404
4.53025e-06;-0.011169493572036256
4.53050e-06;-0.01114891056703511
4.53075e-06;-0.011128327562033892
4.53100e-06;-0.011107744557032744
4.53125e-06;-0.011087161552031596
4.53150e-06;-0.011063405507705957
4.53175e-06;-0.011038916535826872
4.53200e-06;-0.011014427563947786
4.53225e-06;-0.01098993859206862
4.53250e-06;-0.010965449620189534
4.53275e-06;-0.010940960648310448
4.53300e-06;-0.01091483257540686
4.53325e-06;-0.010888325893169872
4.53350e-06;-0.010861819210932882
4.53375e-06;-0.01083495820344935
4.53400e-06;-0.010808015351806583
4.53425e-06;-0.010781072500163724
4.53450e-06;-0.010754078706385879
4.53475e-06;-0.010727073145689754
4.53500e-06;-0.010700590372350051
4.53525e-06;-0.010674228355552986
4.53550e-06;-0.010648796915381844
4.53575e-06;-0.01062358042535147
4.53600e-06;-0.010599140928975511
4.53625e-06;-0.010575484647186661
4.53650e-06;-0.010552697907394822
4.53675e-06;-0.010530936240470112
4.53700e-06;-0.010510355933848775
4.53725e-06;-0.010491111936590554
4.53750e-06;-0.010474005712482953
4.53775e-06;-0.010457334107074761
4.53800e-06;-0.010443340746589947
4.53825e-06;-0.010429966023095894
4.53850e-06;-0.010421755221714268
4.53875e-06;-0.01041473721386993
4.53900e-06;-0.010407719206025595
4.53925e-06;-0.010400701198181235
4.53950e-06;-0.010393683190336898
4.53975e-06;-0.010394156963484228
4.54000e-06;-0.010395612835860374
4.54025e-06;-0.010397068708236517
4.54050e-06;-0.010398524580612658
4.54075e-06;-0.010399980452988804
4.54100e-06;-0.010409188464209051
4.54125e-06;-0.010418754552850403
4.54150e-06;-0.010428320641491788
4.54175e-06;-0.010437886730133138
4.54200e-06;-0.01044745281877449
4.54225e-06;-0.010459384489417722
4.54250e-06;-0.010474780878189647
4.54275e-06;-0.010490177266961626
4.54300e-06;-0.010505573655733551
4.54325e-06;-0.010520970044505478
4.54350e-06;-0.010536366433277456
4.54375e-06;-0.010556040609127288
4.54400e-06;-0.010576436573511367
4.54425e-06;-0.010596832537895515
4.54450e-06;-0.010616678663655468
4.54475e-06;-0.010636432015463063
4.54500e-06;-0.010656185367270725
4.54525e-06;-0.010675716393025954
4.54550e-06;-0.01069520990583523
4.54575e-06;-0.010714703418644573
4.54600e-06;-0.010733159409876144
4.54625e-06;-0.010751440340693271
4.54650e-06;-0.01076972127151046
4.54675e-06;-0.010785074510870978
4.54700e-06;-0.010799933762549018
4.54725e-06;-0.010814793014227008
4.54750e-06;-0.01082647382678597
4.54775e-06;-0.010837618343154715
4.54800e-06;-0.010848762859523423
4.54825e-06;-0.010853969080805383
4.54850e-06;-0.010858173336999375
4.54875e-06;-0.010862377593193353
4.54900e-06;-0.010866581849387333
4.54925e-06;-0.010870786105581325
4.54950e-06;-0.010874990361775303
4.54975e-06;-0.010879194617969282
4.55000e-06;-0.010875290177434974
4.55025e-06;-0.01087001756120183
4.55050e-06;-0.010864744944968686
4.55075e-06;-0.010859472328735523
4.55100e-06;-0.010854199712502378
4.55125e-06;-0.010848927096269216
4.55150e-06;-0.010843654480036073
4.55175e-06;-0.010832221131744393
4.55200e-06;-0.010819748286703512
4.55225e-06;-0.010807275441662675
4.55250e-06;-0.010794802596621836
4.55275e-06;-0.010782329751580956
4.55300e-06;-0.010769856906540119
4.55325e-06;-0.010755987033393675
4.55350e-06;-0.010739585869733061
4.55375e-06;-0.010723184706072501
4.55400e-06;-0.010706783542411943
4.55425e-06;-0.010690382378751329
4.55450e-06;-0.01067398121509077
4.55475e-06;-0.01065758005143021
4.55500e-06;-0.010640571368192778
4.55525e-06;-0.010623460178529368
4.55550e-06;-0.0106063489888659
4.55575e-06;-0.010589735044566949
4.55600e-06;-0.010573205000190098
4.55625e-06;-0.010557470229649299
4.55650e-06;-0.010541869645201915
4.55675e-06;-0.010527061943987925
4.55700e-06;-0.01051305340992423
4.55725e-06;-0.01049990620130537
4.55750e-06;-0.010487863136899598
4.55775e-06;-0.010477551690428001
4.55800e-06;-0.010469741389765566
4.55825e-06;-0.010465885244391142
4.55850e-06;-0.010462632600299287
4.55875e-06;-0.010463947999559686
4.55900e-06;-0.010466034162126825
4.55925e-06;-0.010472489948020988
4.55950e-06;-0.01047968301792603
4.55975e-06;-0.01049313481854708
4.56000e-06;-0.010507642651173581
4.56025e-06;-0.010522150483800083
4.56050e-06;-0.010546997431688831
4.56075e-06;-0.010573588892502015
4.56100e-06;-0.010600180353315199
4.56125e-06;-0.010626771814128471
4.56150e-06;-0.010653363274941655
4.56175e-06;-0.010684437703137295
4.56200e-06;-0.010723634868995078
4.56225e-06;-0.010762832034852727
4.56250e-06;-0.010802029200710377
4.56275e-06;-0.01084122636656816
4.56300e-06;-0.01088042353242581
4.56325e-06;-0.010926128474263077
4.56350e-06;-0.01097293146936882
4.56375e-06;-0.011019734464474405
4.56400e-06;-0.011066537459580148
4.56425e-06;-0.011113340454685733
4.56450e-06;-0.011160143449791316
4.56475e-06;-0.011206923335737492
4.56500e-06;-0.011253699322488413
4.56525e-06;-0.011300475309239333
4.56550e-06;-0.011347251295990412
4.56575e-06;-0.011394027282741333
4.56600e-06;-0.011440803269492254
4.56625e-06;-0.011482485678727622
4.56650e-06;-0.0115233086515816
4.56675e-06;-0.011564131624435578
4.56700e-06;-0.01158866305030206
4.56725e-06;-0.011610445612890258
4.56750e-06;-0.011632228175478458
4.56775e-06;-0.011654010738066729
4.56800e-06;-0.011675793300654927
4.56825e-06;-0.011697575863243199
4.56850e-06;-0.011719358425831397
4.56875e-06;-0.011741140988419595
4.56900e-06;-0.011762923551007868
4.56925e-06;-0.011784706113596066
4.56950e-06;-0.011806488676184263
4.56975e-06;-0.011828271238772536
4.57000e-06;-0.011850053801360734
4.57025e-06;-0.011871836363948932
4.57050e-06;-0.011893618926537204
4.57075e-06;-0.011915401489125402
4.57100e-06;-0.011930945530440542
4.57125e-06;-0.01193518592678847
4.57150e-06;-0.011939426323136383
4.57175e-06;-0.011943666719484297
4.57200e-06;-0.011947907115832225
4.57225e-06;-0.011952147512180138
4.57250e-06;-0.011956387908528066
4.57275e-06;-0.01196062830487598
4.57300e-06;-0.011964868701223891
4.57325e-06;-0.01196910909757182
4.57350e-06;-0.011973349493919733
4.57375e-06;-0.011977589890267646
4.57400e-06;-0.011981830286615574
4.57425e-06;-0.011986070682963488
4.57450e-06;-0.011990311079311401
4.57475e-06;-0.011994551475659329
4.57500e-06;-0.011998791872007242
4.57525e-06;-0.011998807939619513
4.57550e-06;-0.0119981112386935
4.57575e-06;-0.01199741453776749
4.57600e-06;-0.011996717836841479
4.57625e-06;-0.011996021135915467
4.57650e-06;-0.011995324434989456
4.57675e-06;-0.011994627734063443
4.57700e-06;-0.011993931033137433
4.57725e-06;-0.011993234332211422
4.57750e-06;-0.011992537631285409
4.57775e-06;-0.011991840930359399
4.57800e-06;-0.01199114422943339
4.57825e-06;-0.011990447528507376
4.57850e-06;-0.011992846719393557
4.57875e-06;-0.011995768278310125
4.57900e-06;-0.011998689837226705
4.57925e-06;-0.012001611396143273
4.57950e-06;-0.012004532955059842
4.57975e-06;-0.01200745451397642
4.58000e-06;-0.012010376072892988
4.58025e-06;-0.012013297631809557
4.58050e-06;-0.012016219190726136
4.58075e-06;-0.012019140749642705
4.58100e-06;-0.012022062308559284
4.58125e-06;-0.012024983867475853
4.58150e-06;-0.012027905426392422
4.58175e-06;-0.012035013234229971
4.58200e-06;-0.012042827385420549
4.58225e-06;-0.012050641536611126
4.58250e-06;-0.01205845568780173
4.58275e-06;-0.012066269838992307
4.58300e-06;-0.012074083990182885
4.58325e-06;-0.012081898141373488
4.58350e-06;-0.012089712292564066
4.58375e-06;-0.012097526443754643
4.58400e-06;-0.012105340594945247
4.58425e-06;-0.012113244581897444
4.58450e-06;-0.01212131134324921
4.58475e-06;-0.012129378104601003
4.58500e-06;-0.012137444865952769
4.58525e-06;-0.012145511627304562
4.58550e-06;-0.012153578388656328
4.58575e-06;-0.012161645150008093
4.58600e-06;-0.012169711911359887
4.58625e-06;-0.012177778672711652
4.58650e-06;-0.012185845434063418
4.58675e-06;-0.012193912195415211
4.58700e-06;-0.01219715474281103
4.58725e-06;-0.012199583303383542
4.58750e-06;-0.012202011863956062
4.58775e-06;-0.012204440424528572
4.58800e-06;-0.012206868985101085
4.58825e-06;-0.012209297545673604
4.58850e-06;-0.012211726106246117
4.58875e-06;-0.012214154666818628
4.58900e-06;-0.012212814255740034
4.58925e-06;-0.012204644803682866
4.58950e-06;-0.012196475351625671
4.58975e-06;-0.012188305899568505
4.59000e-06;-0.012180136447511338
4.59025e-06;-0.012171966995454144
4.59050e-06;-0.012163797543396977
4.59075e-06;-0.012155628091339809
4.59100e-06;-0.012147458639282615
4.59125e-06;-0.012131026473236878
4.59150e-06;-0.012113200144251485
4.59175e-06;-0.012095373815266031
4.59200e-06;-0.012077547486280638
4.59225e-06;-0.012059721157295245
4.59250e-06;-0.012041894828309791
4.59275e-06;-0.012024068499324398
4.59300e-06;-0.012006242170339005
4.59325e-06;-0.011984186566326719
4.59350e-06;-0.011961417359191876
4.59375e-06;-0.011938648152056957
4.59400e-06;-0.011915878944922114
4.59425e-06;-0.011893109737787271
4.59450e-06;-0.01187034053065235
4.59475e-06;-0.011847571323517507
4.59500e-06;-0.011824802116382664
4.59525e-06;-0.011802264399277243
4.59550e-06;-0.011779765741350326
4.59575e-06;-0.011757267083423409
4.59600e-06;-0.011734768425496415
4.59625e-06;-0.011714538648762244
4.59650e-06;-0.0116946916990359
4.59675e-06;-0.01167484474930949
4.59700e-06;-0.011654997799583146
4.59725e-06;-0.011637407977252878
4.59750e-06;-0.011623021503657089
4.59775e-06;-0.011609111269682632
4.59800e-06;-0.011595201035708129
4.59825e-06;-0.01158690553064201
4.59850e-06;-0.011579557395528293
4.59875e-06;-0.011572209260414553
4.59900e-06;-0.011574678761457416
4.59925e-06;-0.011578804786555126
4.59950e-06;-0.01158293081165285
4.59975e-06;-0.011587056836750561
4.60000e-06;-0.011591182861848272
4.60025e-06;-0.011595308886945998
4.60050e-06;-0.011599434912043708
4.60075e-06;-0.01161672200195141
4.60100e-06;-0.011636229750691538
4.60125e-06;-0.011655737499431598
4.60150e-06;-0.011675245248171658
4.60175e-06;-0.011694752996911783
4.60200e-06;-0.011714260745651843
4.60225e-06;-0.01173376849439197
4.60250e-06;-0.011762677352814601
4.60275e-06;-0.011793172455021475
4.60300e-06;-0.01182366755722845
4.60325e-06;-0.011854162659435324
4.60350e-06;-0.011884657761642197
4.60375e-06;-0.011915152863849173
4.60400e-06;-0.011945647966056046
4.60425e-06;-0.01197702818393669
4.60450e-06;-0.012010012152592061
4.60475e-06;-0.012042996121247323
4.60500e-06;-0.012075980089902584
4.60525e-06;-0.012108964058557957
4.60550e-06;-0.012141948027213217
4.60575e-06;-0.012174931995868478
4.60600e-06;-0.012207915964523851
4.60625e-06;-0.012237194020851237
4.60650e-06;-0.012265846780741095
4.60675e-06;-0.012294499540630856
4.60700e-06;-0.012318472562895876
4.60725e-06;-0.012341655975745857
4.60750e-06;-0.01236483938859576
4.60775e-06;-0.01237657675502248
4.60800e-06;-0.012386382836675154
4.60825e-06;-0.012396188918327793
4.60850e-06;-0.012405994999980432
4.60875e-06;-0.012415801081633104
4.60900e-06;-0.012425607163285743
4.60925e-06;-0.012435413244938381
4.60950e-06;-0.012437969088547903
4.60975e-06;-0.01242738814651318
4.61000e-06;-0.012416807204478455
4.61025e-06;-0.012406226262443696
4.61050e-06;-0.012395645320408972
4.61075e-06;-0.012385064378374213
4.61100e-06;-0.01237448343633949
4.61125e-06;-0.012363902494304765
4.61150e-06;-0.012339484351454523
4.61175e-06;-0.012312731465736918
4.61200e-06;-0.012285978580019313
4.61225e-06;-0.012259225694301618
4.61250e-06;-0.012232472808584013
4.61275e-06;-0.012205719922866407
4.61300e-06;-0.012175797749692671
4.61325e-06;-0.012140133109898752
4.61350e-06;-0.012104468470104834
4.61375e-06;-0.012068803830310794
4.61400e-06;-0.012033139190516875
4.61425e-06;-0.011997474550722956
4.61450e-06;-0.011961809910928916
4.61475e-06;-0.01192445215230307
4.61500e-06;-0.011886808714718701
4.61525e-06;-0.01184916527713446
4.61550e-06;-0.011812640375998096
4.61575e-06;-0.011776304204867635
4.61600e-06;-0.011739968033737296
4.61625e-06;-0.011706460742485833
4.61650e-06;-0.011673430766495267
4.61675e-06;-0.011640400790504813
4.61700e-06;-0.011616836698147412
4.61725e-06;-0.011594869778844396
4.61750e-06;-0.011572902859541457
4.61775e-06;-0.011550935940238516
4.61800e-06;-0.011528969020935502
4.61825e-06;-0.01150700210163256
4.61850e-06;-0.011485035182329621
4.61875e-06;-0.011463068263026606
4.61900e-06;-0.011441101343723665
4.61925e-06;-0.01141913442442065
4.61950e-06;-0.011409193910194007
4.61975e-06;-0.011401282604319421
4.62000e-06;-0.011393371298444808
4.62025e-06;-0.011385459992570223
4.62050e-06;-0.011377548686695636
4.62075e-06;-0.011369637380821024
4.62100e-06;-0.011361726074946437
4.62125e-06;-0.011353814769071852
4.62150e-06;-0.011345903463197238
4.62175e-06;-0.011337992157322651
4.62200e-06;-0.011337997730771317
4.62225e-06;-0.01133933911467554
4.62250e-06;-0.011340680498579758
4.62275e-06;-0.011342021882483977
4.62300e-06;-0.0113433632663882
4.62325e-06;-0.01134470465029242
4.62350e-06;-0.011346046034196642
4.62375e-06;-0.011347387418100862
4.62400e-06;-0.01134872880200508
4.62425e-06;-0.011350070185909304
4.62450e-06;-0.01135403103289473
4.62475e-06;-0.011358433860366224
4.62500e-06;-0.011362836687837734
4.62525e-06;-0.011367239515309229
4.62550e-06;-0.011371642342780723
4.62575e-06;-0.011376045170252234
4.62600e-06;-0.011380447997723728
4.62625e-06;-0.011384850825195223
4.62650e-06;-0.011389253652666732
4.62675e-06;-0.011393656480138226
4.62700e-06;-0.011396817655121965
4.62725e-06;-0.01139976932680179
4.62750e-06;-0.011402720998481605
4.62775e-06;-0.011400441500176618
4.62800e-06;-0.01139727934959493
4.62825e-06;-0.011394117199013253
4.62850e-06;-0.011390955048431566
4.62875e-06;-0.011387792897849887
4.62900e-06;-0.01138463074726821
4.62925e-06;-0.011381468596686524
4.62950e-06;-0.011374322343630996
4.62975e-06;-0.011359957251711093
4.63000e-06;-0.011345592159791144
4.63025e-06;-0.011331227067871241
4.63050e-06;-0.011316861975951338
4.63075e-06;-0.011302496884031388
4.63100e-06;-0.011288131792111486
4.63125e-06;-0.011273766700191583
4.63150e-06;-0.01125137317974743
4.63175e-06;-0.011227625027216326
4.63200e-06;-0.011203876874685222
4.63225e-06;-0.011180128722154037
4.63250e-06;-0.011156380569622933
4.63275e-06;-0.011132632417091748
4.63300e-06;-0.011107074043875197
4.63325e-06;-0.011078235711992419
4.63350e-06;-0.011049397380109544
4.63375e-06;-0.011020559048226766
4.63400e-06;-0.010991720716343988
4.63425e-06;-0.010962882384461112
4.63450e-06;-0.010934044052578334
4.63475e-06;-0.010904560993532637
4.63500e-06;-0.010874969150046704
4.63525e-06;-0.010845377306560872
4.63550e-06;-0.010816955264670148
4.63575e-06;-0.010788730602723756
4.63600e-06;-0.01076050594077746
4.63625e-06;-0.010734789134917233
4.63650e-06;-0.01070949547815926
4.63675e-06;-0.010684201821401373
4.63700e-06;-0.010660555773962235
4.63725e-06;-0.01063989504787479
4.63750e-06;-0.010619234321787347
4.63775e-06;-0.010598573595699831
4.63800e-06;-0.010579125929732838
4.63825e-06;-0.010559882942696127
4.63850e-06;-0.010540639955659353
4.63875e-06;-0.010521396968622643
4.63900e-06;-0.010502153981585934
4.63925e-06;-0.01048291099454916
4.63950e-06;-0.01046366800751245
4.63975e-06;-0.010444095139016568
4.64000e-06;-0.010423924554695483
4.64025e-06;-0.010403753970374465
4.64050e-06;-0.010383583386053448
4.64075e-06;-0.010363412801732362
4.64100e-06;-0.010343242217411345
4.64125e-06;-0.010323071633090259
4.64150e-06;-0.010302901048769242
4.64175e-06;-0.01028119226484495
4.64200e-06;-0.010259223941394047
4.64225e-06;-0.01023725561794322
4.64250e-06;-0.010215287294492392
4.64275e-06;-0.01019331897104149
4.64300e-06;-0.010171350647590663
4.64325e-06;-0.010149217230545803
4.64350e-06;-0.010126784678611564
4.64375e-06;-0.010104352126677402
4.64400e-06;-0.010081919574743239
4.64425e-06;-0.010059487022809
4.64450e-06;-0.010037054470874836
4.64475e-06;-0.010014621918940673
4.64500e-06;-0.00999313267431874
4.64525e-06;-0.009971802593392321
4.64550e-06;-0.00995047251246583
4.64575e-06;-0.009930548371558321
4.64600e-06;-0.009910861454094384
4.64625e-06;-0.009891174536630378
4.64650e-06;-0.009872943629031107
4.64675e-06;-0.00985495839313142
4.64700e-06;-0.009838620282502281
4.64725e-06;-0.009822560090364325
