Time(s);Current(A)
2.50000e-07;0.000863770884879006
2.50250e-07;0.0008360345464026718
2.50500e-07;0.0008055962069871865
2.50750e-07;0.0007739398347815285
2.51000e-07;0.0007422834625758638
2.51250e-07;0.0007091274268218861
2.51500e-07;0.0006752953589653282
2.51750e-07;0.0006404724836523211
2.52000e-07;0.0006052029630575827
2.52250e-07;0.0005699334424628517
2.52500e-07;0.0005346639218681133
2.52750e-07;0.0004998656719928167
2.53000e-07;0.0004652798658591328
2.53250e-07;0.00043069405972544157
2.53500e-07;0.00039610825359175035
2.53750e-07;0.00036317072894856796
2.54000e-07;0.00033097623176839665
2.54250e-07;0.00030007961101007595
2.54500e-07;0.00027084505710729407
2.54750e-07;0.00024333181099413213
2.55000e-07;0.00021777026311406165
2.55250e-07;0.00019423839833519003
2.55500e-07;0.00017236756743040172
2.55750e-07;0.00015152951293303613
2.56000e-07;0.00013140304963836939
2.56250e-07;0.00011203615491067395
2.56500e-07;9.357426021361424e-05
2.56750e-07;7.61634698168415e-05
2.57000e-07;5.9949860613793607e-05
2.57250e-07;4.498403453373987e-05
2.57500e-07;3.103683880527744e-05
2.57750e-07;1.7716517492437856e-05
2.58000e-07;4.82369455757479e-06
2.58250e-07;-7.609739150833164e-06
2.58500e-07;-1.949087257902262e-05
2.58750e-07;-3.072637286083619e-05
2.59000e-07;-4.12229391475239e-05
2.59250e-07;-5.094707711066082e-05
2.59500e-07;-6.0040524811754684e-05
2.59750e-07;-6.874685298438967e-05
2.60000e-07;-7.718911354119536e-05
2.60250e-07;-8.53454969163502e-05
2.60500e-07;-9.30095101915221e-05
2.60750e-07;-0.00010049419683976083
2.61000e-07;-0.00010732872157505651
2.61250e-07;-0.0001138701603541517
2.61500e-07;-0.00011992309878960357
2.61750e-07;-0.00012575582655526804
2.62000e-07;-0.00013133503736461927
2.62250e-07;-0.00013679996547288675
2.62500e-07;-0.0001418223113186038
2.62750e-07;-0.00014664514586869537
2.63000e-07;-0.000151467980418788
2.63250e-07;-0.0001557017194647537
2.63500e-07;-0.00015966990063092987
2.63750e-07;-0.00016363808179710684
2.64000e-07;-0.00016719181832453955
2.64250e-07;-0.00017055872769273535
2.64500e-07;-0.00017392563706093185
2.64750e-07;-0.00017729254642912835
2.65000e-07;-0.0001803031403481935
2.65250e-07;-0.0001831531111177963
2.65500e-07;-0.0001860030818873991
2.65750e-07;-0.0001888530526570013
2.66000e-07;-0.00019227506901686663
2.66250e-07;-0.00019595495733981528
2.66500e-07;-0.00019963484566276466
2.66750e-07;-0.00020381632476474169
2.67000e-07;-0.0002082239155631535
2.67250e-07;-0.00021263150636156627
2.67500e-07;-0.00021771395210926658
2.67750e-07;-0.00022310061516679638
2.68000e-07;-0.0002284872782243273
2.68250e-07;-0.00023473052935558082
2.68500e-07;-0.00024135992112297446
2.68750e-07;-0.0002479893128903695
2.69000e-07;-0.00025560924875336
2.69250e-07;-0.00026367571117787034
2.69500e-07;-0.0002717421736023824
2.69750e-07;-0.00027980863602689455
2.70000e-07;-0.00028787509845140495
2.70250e-07;-0.00029594156087591703
2.70500e-07;-0.00030426425077269845
2.70750e-07;-0.00031368440846946366
2.71000e-07;-0.00032310456616622886
2.71250e-07;-0.00033252472386299207
2.71500e-07;-0.00034194488155975727
2.71750e-07;-0.0003513650392565225
2.72000e-07;-0.0003607851969532857
2.72250e-07;-0.0003701844316086887
2.72500e-07;-0.00037957423438341354
2.72750e-07;-0.00038896403715813643
2.73000e-07;-0.00039835383993286127
2.73250e-07;-0.0004077436427075861
2.73500e-07;-0.000417133445482309
2.73750e-07;-0.00042537121973059403
2.74000e-07;-0.00043308967198304
2.74250e-07;-0.0004408081242354876
2.74500e-07;-0.0004485265764879352
2.74750e-07;-0.00045624502874038115
2.75000e-07;-0.00046396348099282875
2.75250e-07;-0.0004699581316196016
2.75500e-07;-0.0004751757111234546
2.75750e-07;-0.0004803932906273087
2.76000e-07;-0.00048394366639584706
2.76250e-07;-0.00048674248475810255
2.76500e-07;-0.0004895413031203587
2.76750e-07;-0.0004906153970652497
2.77000e-07;-0.0004909120039027111
2.77250e-07;-0.0004912086107401726
2.77500e-07;-0.0004897121865144736
2.77750e-07;-0.00048740748328443545
2.78000e-07;-0.00048510278005439684
2.78250e-07;-0.00048106847097268855
2.78500e-07;-0.0004762544742857779
2.78750e-07;-0.00047144047759886735
2.79000e-07;-0.0004650925403331821
2.79250e-07;-0.00045805311925039736
2.79500e-07;-0.00045101369816761264
2.79750e-07;-0.00044262076902915667
2.80000e-07;-0.00043361769310290246
2.80250e-07;-0.00042461461717664825
2.80500e-07;-0.0004142561073685867
2.80750e-07;-0.0004032865826311392
2.81000e-07;-0.0003923170578936917
2.81250e-07;-0.0003813475331562465
2.81500e-07;-0.000370378008418799
2.81750e-07;-0.0003592041832967901
2.82000e-07;-0.0003471553033198131
2.82250e-07;-0.0003351064233428361
2.82500e-07;-0.0003230575433658616
2.82750e-07;-0.0003110086633888846
2.83000e-07;-0.0002989597834119076
2.83250e-07;-0.0002872354391813912
2.83500e-07;-0.0002756573921542006
2.83750e-07;-0.0002640793451270101
2.84000e-07;-0.00025329126128216626
2.84250e-07;-0.00024285928429325463
2.84500e-07;-0.000232427307304343
2.84750e-07;-0.00022301259782055662
2.85000e-07;-0.00021405646152219076
2.85250e-07;-0.00020552571213251325
2.85500e-07;-0.00019718672255898415
2.85750e-07;-0.00018771176638395195
2.86000e-07;-0.0001765480690460764
2.86250e-07;-0.0001637836683661367
2.86500e-07;-0.0001495750283900732
2.86750e-07;-0.00013407957173682973
2.87000e-07;-0.00011745471601016808
2.87250e-07;-9.973146412180337e-05
2.87500e-07;-8.058276782286172e-05
2.87750e-07;-5.950467957037784e-05
2.88000e-07;-3.6291315265901854e-05
2.88250e-07;-1.1064005092074827e-05
2.88500e-07;1.5971423508518446e-05
2.88750e-07;4.460855187811064e-05
2.89000e-07;7.464099230765563e-05
2.89250e-07;0.00010594153620531292
2.89500e-07;0.00013860726407035872
2.89750e-07;0.0001728460453945079
2.90000e-07;0.00020867902668372643
2.90250e-07;0.0002463014821740981
2.90500e-07;0.0002845102859181534
2.90750e-07;0.0003239086784852083
2.91000e-07;0.00036384332482342427
2.91250e-07;0.0004047938243881996
2.91500e-07;0.00044620225959692255
2.91750e-07;0.0004876106948056367
2.92000e-07;0.0005290191300143597
2.92250e-07;0.0005705529946805958
2.92500e-07;0.0006121434015892407
2.92750e-07;0.0006537338084978944
2.93000e-07;0.000695324215406548
2.93250e-07;0.0007350832519320576
2.93500e-07;0.0007740167265025703
2.93750e-07;0.0008129502010730749
2.94000e-07;0.0008491430913127884
2.94250e-07;0.0008841005557867313
2.94500e-07;0.0009190580202606668
2.94750e-07;0.0009497575633885809
2.95000e-07;0.0009785376816404212
2.95250e-07;0.0010073177998922553
2.95500e-07;0.0010326264827943278
2.95750e-07;0.0010563702801983986
2.96000e-07;0.0010801140776024642
2.96250e-07;0.001099747175713092
2.96500e-07;0.0011175272150561436
2.96750e-07;0.0011353072543991915
2.97000e-07;0.001153087293742243
2.97250e-07;0.0011708673330852947
2.97500e-07;0.0011886473724283426
2.97750e-07;0.0012064274117713943
2.98000e-07;0.001224207451114442
2.98250e-07;0.001237338796921528
2.98500e-07;0.001248374561977095
2.98750e-07;0.0012594103270326597
2.99000e-07;0.0012704460920882267
2.99250e-07;0.0012814818571437938
2.99500e-07;0.0012925176221993584
2.99750e-07;0.0013035533872549254
3.00000e-07;0.0013145891523104925
3.00250e-07;0.0013226867422881782
3.00500e-07;0.0013294598347290468
3.00750e-07;0.0013362329271699156
3.01000e-07;0.0013430060196107827
3.01250e-07;0.0013497791120516515
3.01500e-07;0.0013565522044925186
3.01750e-07;0.0013633252969333875
3.02000e-07;0.001370098389374256
3.02250e-07;0.0013768714818151234
3.02500e-07;0.001383091221997117
3.02750e-07;0.0013869408561135346
3.03000e-07;0.0013907904902299513
3.03250e-07;0.0013946401243463686
3.03500e-07;0.0013984897584627862
3.03750e-07;0.001402339392579203
3.04000e-07;0.0014061890266956203
3.04250e-07;0.0014100386608120379
3.04500e-07;0.0014138882949284546
3.04750e-07;0.001417737929044872
3.05000e-07;0.0014200869884354024
3.05250e-07;0.0014217596049743042
3.05500e-07;0.0014234322215132067
3.05750e-07;0.0014194062917653283
3.06000e-07;0.0014128115190042612
3.06250e-07;0.0014062167462431938
3.06500e-07;0.0013939061750028708
3.06750e-07;0.0013790189836476406
3.07000e-07;0.0013600512074365095
3.07250e-07;0.0013392439477204203
3.07500e-07;0.0013135285194874552
3.07750e-07;0.0012856005419888345
3.08000e-07;0.0012519609653818468
3.08250e-07;0.0012157466616909067
3.08500e-07;0.0011745449096404593
3.08750e-07;0.001131094869829036
3.09000e-07;0.0010834534700374537
3.09250e-07;0.0010339226505133845
3.09500e-07;0.0009802205918801495
3.09750e-07;0.0009246381837853708
3.10000e-07;0.0008649199236367157
3.10250e-07;0.0008033372661281637
3.10500e-07;0.000738610918118645
3.10750e-07;0.0006724674284430627
3.11000e-07;0.0006038203514156603
3.11250e-07;0.00053404468429651
3.11500e-07;0.00046426901717737433
3.11750e-07;0.00039249038388547295
3.12000e-07;0.0003198088351130932
3.12250e-07;0.00024712728634072883
3.12500e-07;0.00017444573756834908
3.12750e-07;0.00010197001146435396
3.13000e-07;3.0272957992384928e-05
3.13250e-07;-4.016637732999741e-05
3.13500e-07;-0.000109058489474274
3.13750e-07;-0.00017616329204044756
3.14000e-07;-0.00024114244757865626
3.14250e-07;-0.00030355346076183117
3.14500e-07;-0.00036292716854376616
3.14750e-07;-0.00041879429369342754
3.15000e-07;-0.0004706856753951065
3.15250e-07;-0.000518254579268833
3.15500e-07;-0.0005615379569829377
3.15750e-07;-0.0006008584670174914
3.16000e-07;-0.0006363791331908519
3.16250e-07;-0.0006680085853027076
3.16500e-07;-0.0006955845370788749
3.16750e-07;-0.0007189443240910194
3.17000e-07;-0.000737925211856692
3.17250e-07;-0.0007524413062296583
3.17500e-07;-0.0007626470065298174
3.17750e-07;-0.0007688756652401225
3.18000e-07;-0.0007713605800206153
3.18250e-07;-0.0007701757232124672
3.18500e-07;-0.0007641093815384245
3.18750e-07;-0.0007563552188860056
3.19000e-07;-0.0007437002700502592
3.19250e-07;-0.0007288360998249237
3.19500e-07;-0.0007096048981665221
3.19750e-07;-0.0006884050859852282
3.20000e-07;-0.0006636114816255417
3.20250e-07;-0.0006371978346332457
3.20500e-07;-0.0006076337768092025
3.20750e-07;-0.0005766495478666658
3.21000e-07;-0.0005429420804023735
3.21250e-07;-0.0005080070064753361
3.21500e-07;-0.0004707217359109206
3.21750e-07;-0.0004323770221292707
3.22000e-07;-0.000394032308347629
3.22250e-07;-0.00035438650107835464
3.22500e-07;-0.0003141541749414527
3.22750e-07;-0.00027392184880455924
3.23000e-07;-0.00023368952266765723
3.23250e-07;-0.00019345719653075525
3.23500e-07;-0.00015375291185991776
3.23750e-07;-0.00011496831474843534
3.24000e-07;-7.738386020731808e-05
3.24250e-07;-4.12821659081262e-05
3.24500e-07;-6.934909886334e-06
3.24750e-07;2.538633163561129e-05
3.25000e-07;5.5410004263136976e-05
3.25250e-07;8.291402960114192e-05
3.25500e-07;0.00010783855589615724
3.25750e-07;0.0001302614672664282
3.26000e-07;0.00015022121302207166
3.26250e-07;0.00016766557918499947
3.26500e-07;0.00018251584317207286
3.26750e-07;0.00019469310096455173
3.27000e-07;0.00020411847666032578
3.27250e-07;0.00021074410267359783
3.27500e-07;0.00021462371268302674
3.27750e-07;0.0002158973123057129
3.28000e-07;0.00021468023281179393
3.28250e-07;0.0002110309785524079
3.28500e-07;0.00020499144464981435
3.28750e-07;0.00019660344525243773
3.29000e-07;0.00018590878702553088
3.29250e-07;0.00017296869184685074
3.29500e-07;0.00015790804598232307
3.29750e-07;0.00014090575532138837
3.30000e-07;0.00012212525297249357
3.30250e-07;0.00010169436577084561
3.30500e-07;7.973052951868362e-05
3.30750e-07;5.6351097889556856e-05
3.31000e-07;3.167342241964314e-05
3.31250e-07;5.827015749186291e-06
3.31500e-07;-2.1018746473294698e-05
3.31750e-07;-4.866066353374286e-05
3.32000e-07;-7.703629569479894e-05
3.32250e-07;-0.00010564036608886603
3.32500e-07;-0.0001345240933527716
3.32750e-07;-0.00016353388690797425
3.33000e-07;-0.00019254368046318305
3.33250e-07;-0.00022091545550915513
3.33500e-07;-0.00024899961871392197
3.33750e-07;-0.0002770837819186888
3.34000e-07;-0.0003037009370333074
3.34250e-07;-0.00032965678077251896
3.34500e-07;-0.00035379990053897804
3.34750e-07;-0.0003771258639504533
3.35000e-07;-0.00039814701468982115
3.35250e-07;-0.0004181291808124663
3.35500e-07;-0.0004360426886930351
3.35750e-07;-0.00045302366781898185
3.36000e-07;-0.00046842427590166523
3.36250e-07;-0.00048311246981614265
3.36500e-07;-0.0004960246106972294
3.36750e-07;-0.000508136126086051
3.37000e-07;-0.000518243026982201
3.37250e-07;-0.0005274462693530598
3.37500e-07;-0.0005345248239776756
3.37750e-07;-0.0005406455923533703
3.38000e-07;-0.0005467663607290651
3.38250e-07;-0.0005507707264230448
3.38500e-07;-0.0005538210406855543
3.38750e-07;-0.0005568713549480639
3.39000e-07;-0.0005577228839663351
3.39250e-07;-0.00055758322438525
3.39500e-07;-0.000557443564804165
3.39750e-07;-0.0005556436959813398
3.40000e-07;-0.0005530954227942089
3.40250e-07;-0.000550547149607078
3.40500e-07;-0.0005460138650781802
3.40750e-07;-0.000540585758912331
3.41000e-07;-0.0005351576527464829
3.41250e-07;-0.0005297295465806337
3.41500e-07;-0.0005243014404147844
3.41750e-07;-0.0005188733342489364
3.42000e-07;-0.0005130887155044294
3.42250e-07;-0.0005057770900266432
3.42500e-07;-0.0004984654645488585
3.42750e-07;-0.0004911538390710722
3.43000e-07;-0.00048384221359328597
3.43250e-07;-0.0004765305881155013
3.43500e-07;-0.000469218962637715
3.43750e-07;-0.00046223422184237363
3.44000e-07;-0.00045539683712530175
3.44250e-07;-0.00044855945240822846
3.44500e-07;-0.00044172206769115517
3.44750e-07;-0.0004355982216184982
3.45000e-07;-0.0004297960310469405
3.45250e-07;-0.00042399384047538396
3.45500e-07;-0.0004181916499038262
3.45750e-07;-0.00041035216096216656
3.46000e-07;-0.0004015942799568738
3.46250e-07;-0.00039031564299352975
3.46500e-07;-0.00037790067651644857
3.46750e-07;-0.0003661394477700954
3.47000e-07;-0.000359907900222802
3.47250e-07;-0.0003364906689680889
3.47500e-07;-0.0003193699444142016
3.47750e-07;-0.00029351173796673925
3.48000e-07;-0.00026916788358534086
3.48250e-07;-0.00024367995193131468
3.48500e-07;-0.0002169191531152033
3.48750e-07;-0.0001869239172859937
3.49000e-07;-0.00015597286115559195
3.49250e-07;-0.00012343405543026176
3.49500e-07;-8.861413247647052e-05
3.49750e-07;-5.216645940963065e-05
3.50000e-07;-1.172640582222563e-05
3.50250e-07;2.6791399551726274e-05
3.50500e-07;6.765103902263042e-05
3.50750e-07;0.00010732433564377714
3.51000e-07;0.00014032631013653567
3.51250e-07;0.00017895374004182107
3.51500e-07;0.0002228552175170799
3.51750e-07;0.0002708587682217833
3.52000e-07;0.00031974741900279264
3.52250e-07;0.0003657020202638961
3.52500e-07;0.0004107962518731416
3.52750e-07;0.00045525736013158057
3.53000e-07;0.000499532813678587
3.53250e-07;0.000542743054572698
3.53500e-07;0.0005856409365127052
3.53750e-07;0.0006284983550899348
3.54000e-07;0.0006713439083427808
3.54250e-07;0.00070964597507021
3.54500e-07;0.0007466157268883077
3.54750e-07;0.0007801192898315699
3.55000e-07;0.0008126064405788989
3.55250e-07;0.0008411213853702608
3.55500e-07;0.0008684715354189935
3.55750e-07;0.0008928613561414435
3.56000e-07;0.0009163831010204011
3.56250e-07;0.0009345368564697522
3.56500e-07;0.0009511165228775275
3.56750e-07;0.0009632975651993509
3.57000e-07;0.0009741887715290405
3.57250e-07;0.0009806581514774347
3.57500e-07;0.0009858308916798324
3.57750e-07;0.000987509424716706
3.58000e-07;0.0009881633295794076
3.58250e-07;0.0009841086763005076
3.58500e-07;0.0009786733031320685
3.58750e-07;0.0009694304355494409
3.59000e-07;0.0009590710726175177
3.59250e-07;0.0009445474265320661
3.59500e-07;0.0009288026617086029
3.59750e-07;0.0009130578968851364
3.60000e-07;0.0008929668087849858
3.60250e-07;0.0008716012211854148
3.60500e-07;0.0008502356335858393
3.60750e-07;0.0008253343852533273
3.61000e-07;0.0007993963530583553
3.61250e-07;0.0007734583208633833
3.61500e-07;0.0007450824748330644
3.61750e-07;0.0007159917734376256
3.62000e-07;0.0006869010720421867
3.62250e-07;0.0006578103706467542
3.62500e-07;0.0006284763261357486
3.62750e-07;0.0005984950863334412
3.63000e-07;0.0005685138465311399
3.63250e-07;0.0005385326067288323
3.63500e-07;0.0005085513669265249
3.63750e-07;0.0004801121133143307
3.64000e-07;0.00045212502593605235
3.64250e-07;0.0004257179901150436
3.64500e-07;0.000399774282673138
3.64750e-07;0.00037622416992758284
3.65000e-07;0.00035337594589305476
3.65250e-07;0.00033267581331547757
3.65500e-07;0.0003140973673173273
3.65750e-07;0.000297425943941811
3.66000e-07;0.000282517053782743
3.66250e-07;0.0002692899089369385
3.66500e-07;0.0002578821145587213
3.66750e-07;0.00024839663142190376
3.67000e-07;0.00024088967895456793
3.67250e-07;0.0002354049626656922
3.67500e-07;0.00023191304513533114
3.67750e-07;0.00023033948085459234
3.68000e-07;0.0002305302175037092
3.68250e-07;0.00023237107874518565
3.68500e-07;0.0002358847552930302
3.68750e-07;0.00024107218156926827
3.69000e-07;0.00024790504879957645
3.69250e-07;0.0002563471569053365
3.69500e-07;0.0002663165529082837
3.69750e-07;0.00027817387902573224
3.70000e-07;0.0002904846974455214
3.70250e-07;0.0003045246157271495
3.70500e-07;0.0003190715687524235
3.70750e-07;0.0003351505596617321
3.71000e-07;0.0003516787996010939
3.71250e-07;0.0003697010633179253
3.71500e-07;0.0003881614289510912
3.71750e-07;0.000406621794584261
3.72000e-07;0.0004261090084413596
3.72250e-07;0.00044589733141162655
3.72500e-07;0.00046568565438189765
3.72750e-07;0.0004854739773521646
3.73000e-07;0.0005052623003224357
3.73250e-07;0.000524265724073606
3.73500e-07;0.0005430389869282675
3.73750e-07;0.000561812249782933
3.74000e-07;0.0005805855126375986
3.74250e-07;0.0005993587754922601
3.74500e-07;0.0006156443802100082
3.74750e-07;0.0006312005134070078
3.75000e-07;0.0006467566466040041
3.75250e-07;0.0006597902184504628
3.75500e-07;0.0006720840838890136
3.75750e-07;0.0006815598944058674
3.76000e-07;0.0006902093490907954
3.76250e-07;0.0006958118090378765
3.76500e-07;0.000700520779701946
3.76750e-07;0.0007022015020025769
3.77000e-07;0.0007029942321365573
3.77250e-07;0.0007007051303327105
3.77500e-07;0.0006975123237162846
3.77750e-07;0.0006910600334458513
3.78000e-07;0.0006836519444413934
3.78250e-07;0.0006731087774944866
3.78500e-07;0.0006616462920767653
3.78750e-07;0.000647328258988531
3.79000e-07;0.0006321728758356438
3.79250e-07;0.0006143961734214223
3.79500e-07;0.0005958508052007652
3.79750e-07;0.0005748405925582187
3.80000e-07;0.000553107598202962
3.80250e-07;0.0005288181279878783
3.80500e-07;0.0005037790064016752
3.80750e-07;0.0004787398848154666
3.81000e-07;0.0004514989606715652
3.81250e-07;0.00042361238822241344
3.81500e-07;0.0003957258157732558
3.81750e-07;0.0003664679202629548
3.82000e-07;0.000336807903133129
3.82250e-07;0.0003071478860032969
3.82500e-07;0.00027748786887346486
3.82750e-07;0.00024782785174363905
3.83000e-07;0.00021816783461380695
3.83250e-07;0.00018850781748397488
3.83500e-07;0.00015962938528112314
3.83750e-07;0.00013155388693295912
3.84000e-07;0.00010435886981355313
3.84250e-07;7.82351413141395e-05
3.84500e-07;5.337997008783633e-05
3.84750e-07;2.9990136198955467e-05
3.85000e-07;8.261707892091561e-06
3.85250e-07;-1.1574584603919349e-05
3.85500e-07;-2.9197792162373185e-05
3.85750e-07;-4.4287410092751076e-05
3.86000e-07;-5.6683746412177894e-05
3.86250e-07;-6.635608566167683e-05
3.86500e-07;-7.329835939636491e-05
3.86750e-07;-7.750539170089714e-05
3.87000e-07;-7.89724440651365e-05
3.87250e-07;-7.767308565320595e-05
3.87500e-07;-7.352438006178503e-05
3.87750e-07;-6.644367368715467e-05
3.88000e-07;-5.6449065619275273e-05
3.88250e-07;-4.36394368398975e-05
3.88500e-07;-2.8129113011483e-05
3.88750e-07;-1.0032962435804343e-05
3.89000e-07;1.0533868723160156e-05
3.89250e-07;3.346983342392327e-05
3.89500e-07;5.870877689110229e-05
3.89750e-07;8.618436998453753e-05
3.90000e-07;0.00011576717124965483
3.90250e-07;0.00014727717095261222
3.90500e-07;0.0001805246481180726
3.90750e-07;0.00021531959026757346
3.91000e-07;0.00025191063953281656
3.91250e-07;0.0002889283471875494
3.91500e-07;0.0003277235828380037
3.91750e-07;0.0003670400541160503
3.92000e-07;0.00040635652539408856
3.92250e-07;0.00044646063320696676
3.92500e-07;0.0004867957045965216
3.92750e-07;0.000527130775986085
3.93000e-07;0.0005674658473756483
3.93250e-07;0.0006060728991266339
3.93500e-07;0.0006441732328945769
3.93750e-07;0.00068227356666252
