Time(s);Current(A)
9.25000e-06;-0.014247328174082455
9.25025e-06;-0.014242016530998595
9.25050e-06;-0.0142367048879147
9.25075e-06;-0.014231393244830802
9.25100e-06;-0.014226081601746942
9.25125e-06;-0.014220769958663046
9.25150e-06;-0.01421545831557915
9.25175e-06;-0.014210146672495289
9.25200e-06;-0.014204835029411392
9.25225e-06;-0.014199523386327496
9.25250e-06;-0.014194211743243637
9.25275e-06;-0.01418890010015974
9.25300e-06;-0.014184383286420887
9.25325e-06;-0.014181974066679079
9.25350e-06;-0.014179564846937255
9.25375e-06;-0.014177155627195431
9.25400e-06;-0.014174746407453625
9.25425e-06;-0.014172337187711801
9.25450e-06;-0.014169927967969977
9.25475e-06;-0.014167518748228169
9.25500e-06;-0.014165109528486345
9.25525e-06;-0.014162700308744522
9.25550e-06;-0.014160291089002713
9.25575e-06;-0.01415788186926089
9.25600e-06;-0.014155472649519066
9.25625e-06;-0.014156091079306219
9.25650e-06;-0.014157594308447445
9.25675e-06;-0.014159097537588683
9.25700e-06;-0.014160600766729918
9.25725e-06;-0.014162103995871147
9.25750e-06;-0.014163607225012382
9.25775e-06;-0.014165110454153619
9.25800e-06;-0.014166613683294846
9.25825e-06;-0.014168116912436083
9.25850e-06;-0.01416962014157732
9.25875e-06;-0.014171123370718547
9.25900e-06;-0.014172626599859784
9.25925e-06;-0.014174358988272483
9.25950e-06;-0.01417669902247476
9.25975e-06;-0.014179039056677056
9.26000e-06;-0.01418137909087935
9.26025e-06;-0.014183719125081628
9.26050e-06;-0.014186059159283922
9.26075e-06;-0.014188399193486217
9.26100e-06;-0.014190739227688496
9.26125e-06;-0.01419307926189079
9.26150e-06;-0.014195419296093085
9.26175e-06;-0.014197759330295363
9.26200e-06;-0.014200099364497657
9.26225e-06;-0.01420243939869995
9.26250e-06;-0.014204779432902229
9.26275e-06;-0.014204855281426045
9.26300e-06;-0.014204269445033182
9.26325e-06;-0.014203683608640326
9.26350e-06;-0.014203097772247463
9.26375e-06;-0.014202511935854601
9.26400e-06;-0.014201926099461743
9.26425e-06;-0.01420134026306888
9.26450e-06;-0.014200754426676019
9.26475e-06;-0.014200168590283157
9.26500e-06;-0.014199582753890298
9.26525e-06;-0.014198996917497436
9.26550e-06;-0.014198411081104574
9.26575e-06;-0.014197825244711715
9.26600e-06;-0.014196513514618177
9.26625e-06;-0.014193276982406872
9.26650e-06;-0.014190040450195592
9.26675e-06;-0.014186803917984287
9.26700e-06;-0.014183567385772984
9.26725e-06;-0.014180330853561702
9.26750e-06;-0.014177094321350399
9.26775e-06;-0.014173857789139094
9.26800e-06;-0.014170621256927814
9.26825e-06;-0.014167384724716509
9.26850e-06;-0.014164148192505206
9.26875e-06;-0.014160911660293924
9.26900e-06;-0.01415767512808262
9.26925e-06;-0.014153735880445224
9.26950e-06;-0.014149591271470797
9.26975e-06;-0.01414544666249634
9.27000e-06;-0.014141302053521883
9.27025e-06;-0.014137157444547454
9.27050e-06;-0.014133012835572997
9.27075e-06;-0.01412886822659854
9.27100e-06;-0.014124723617624112
9.27125e-06;-0.014120579008649655
9.27150e-06;-0.014116434399675198
9.27175e-06;-0.014112289790700769
9.27200e-06;-0.014108145181726312
9.27225e-06;-0.014104071280849794
9.27250e-06;-0.014100184871745951
9.27275e-06;-0.014095949053847628
9.27300e-06;-0.014090786732816534
9.27325e-06;-0.014084280208098458
9.27350e-06;-0.014074209351437923
9.27375e-06;-0.014062389282940313
9.27400e-06;-0.014045930950401709
9.27425e-06;-0.014029472617863215
9.27450e-06;-0.014011103673829196
9.27475e-06;-0.01398766849344329
9.27500e-06;-0.013964233313057541
9.27525e-06;-0.013937675727269755
9.27550e-06;-0.013902838675043688
9.27575e-06;-0.013868001622817858
9.27600e-06;-0.013833164570591791
9.27625e-06;-0.013798327518365724
9.27650e-06;-0.013754600179405463
9.27675e-06;-0.013708274745820084
9.27700e-06;-0.013661949312234705
9.27725e-06;-0.01361562387864964
9.27750e-06;-0.013568706608681145
9.27775e-06;-0.013520220007110641
9.27800e-06;-0.013471733405540464
9.27825e-06;-0.01342324680396996
9.27850e-06;-0.013365124563869324
9.27875e-06;-0.013302032816000862
9.27900e-06;-0.013238941068131971
9.27925e-06;-0.013175903653255222
9.27950e-06;-0.013114002500940464
9.27975e-06;-0.013051764998028738
9.28000e-06;-0.012989940481743633
9.28025e-06;-0.01292932791366933
9.28050e-06;-0.01286690432743144
9.28075e-06;-0.012804593064006291
9.28100e-06;-0.012742613443730776
9.28125e-06;-0.012689816567421396
9.28150e-06;-0.012630333489534153
9.28175e-06;-0.012576938941318432
9.28200e-06;-0.012525890609610695
9.28225e-06;-0.012477603366176362
9.28250e-06;-0.012431853564820416
9.28275e-06;-0.012388600499468905
9.28300e-06;-0.012348946900400525
9.28325e-06;-0.012313904449943536
9.28350e-06;-0.012282860500730384
9.28375e-06;-0.012255085330867568
9.28400e-06;-0.01223078887854227
9.28425e-06;-0.012210107649014776
9.28450e-06;-0.012192780854909487
9.28475e-06;-0.012178831135943436
9.28500e-06;-0.012170316519305044
9.28525e-06;-0.012162393410119241
9.28550e-06;-0.01216147792002839
9.28575e-06;-0.012161349535857232
9.28600e-06;-0.012170546035840717
9.28625e-06;-0.0121797425358242
9.28650e-06;-0.01218893903580762
9.28675e-06;-0.012198135535791105
9.28700e-06;-0.012214535052869159
9.28725e-06;-0.012236196995072883
9.28750e-06;-0.012257858937276756
9.28775e-06;-0.012279520879480628
9.28800e-06;-0.012301774607027163
9.28825e-06;-0.012331039245848446
9.28850e-06;-0.012360303884669731
9.28875e-06;-0.012389894283319552
9.28900e-06;-0.0124233439753503
9.28925e-06;-0.012456793667381049
9.28950e-06;-0.012490409126967755
9.28975e-06;-0.01252598844328579
9.29000e-06;-0.012561567759603825
9.29025e-06;-0.012597145444827101
9.29050e-06;-0.012632703806386966
9.29075e-06;-0.01266818431035728
9.29100e-06;-0.01270274243147225
9.29125e-06;-0.01273714882452793
9.29150e-06;-0.01276975768749423
9.29175e-06;-0.012802116050552235
9.29200e-06;-0.01283150672836175
9.29225e-06;-0.012860559769556568
9.29250e-06;-0.012885612812475012
9.29275e-06;-0.01291025768299178
9.29300e-06;-0.012930066914153852
9.29325e-06;-0.012949310964941247
9.29350e-06;-0.012961859294870674
9.29375e-06;-0.012974407624800184
9.29400e-06;-0.0129862342859158
9.29425e-06;-0.012989511299615007
9.29450e-06;-0.012992788313314236
9.29475e-06;-0.01299532505163708
9.29500e-06;-0.012989091709645207
9.29525e-06;-0.012982858367653291
9.29550e-06;-0.012975751588514446
9.29575e-06;-0.012958297154742266
9.29600e-06;-0.012940842720969967
9.29625e-06;-0.012923388287197668
9.29650e-06;-0.012905933853425488
9.29675e-06;-0.012881741248360449
9.29700e-06;-0.012852625828111674
9.29725e-06;-0.012823510407863099
9.29750e-06;-0.012794394987614326
9.29775e-06;-0.01276469313040305
9.29800e-06;-0.01272804372444703
9.29825e-06;-0.012691394318490761
9.29850e-06;-0.01265446284188114
9.29875e-06;-0.012614189659787042
9.29900e-06;-0.01257379490676399
9.29925e-06;-0.012531900887328605
9.29950e-06;-0.012489265589716756
9.29975e-06;-0.012446106820600458
9.30000e-06;-0.01240266314354442
9.30025e-06;-0.012359173752376686
9.30050e-06;-0.012315865393441778
9.30075e-06;-0.012272971343429093
9.30100e-06;-0.012230742356678528
9.30125e-06;-0.012189442131377444
9.30150e-06;-0.012149325063574355
9.30175e-06;-0.012110648499360268
9.30200e-06;-0.012073684384927206
9.30225e-06;-0.012038704014028566
9.30250e-06;-0.01200597276328072
9.30275e-06;-0.011975792993560299
9.30300e-06;-0.011948662309160701
9.30325e-06;-0.011925191029120081
9.30350e-06;-0.011905694025741043
9.30375e-06;-0.011890207793732128
9.30400e-06;-0.011878726600171795
9.30425e-06;-0.011871242704507179
9.30450e-06;-0.011867745800784443
9.30475e-06;-0.0118682459655446
9.30500e-06;-0.011873049572036672
9.30525e-06;-0.01188386455543443
9.30550e-06;-0.011895487317366475
9.30575e-06;-0.011916679872992613
9.30600e-06;-0.011937872428618894
9.30625e-06;-0.011960123963454125
9.30650e-06;-0.011994921279250104
9.30675e-06;-0.012029718595046321
9.30700e-06;-0.012064515910842538
9.30725e-06;-0.012099313226638753
9.30750e-06;-0.012141815478186505
9.30775e-06;-0.01218994684972435
9.30800e-06;-0.012238078221262194
9.30825e-06;-0.012286209592799711
9.30850e-06;-0.012334906772985127
9.30875e-06;-0.012390307117217846
9.30900e-06;-0.012445707461450189
9.30925e-06;-0.012501342852478314
9.30950e-06;-0.012559762854938794
9.30975e-06;-0.012618182857398876
9.31000e-06;-0.012676622505489525
9.31025e-06;-0.012735294896367726
9.31050e-06;-0.012793853835543642
9.31075e-06;-0.01285106870659257
9.31100e-06;-0.012908068998064768
9.31125e-06;-0.012962527154292464
9.31150e-06;-0.013016232239014672
9.31175e-06;-0.013061015647006255
9.31200e-06;-0.013105799054997534
9.31225e-06;-0.013150582462989117
9.31250e-06;-0.0131953658709807
9.31275e-06;-0.013240149278971979
9.31300e-06;-0.013277628855615934
9.31325e-06;-0.013309772353624834
9.31350e-06;-0.013341915851633518
9.31375e-06;-0.01337405934964242
9.31400e-06;-0.013406202847651321
9.31425e-06;-0.013437397610569585
9.31450e-06;-0.013457352660237624
9.31475e-06;-0.013477307709905663
9.31500e-06;-0.013497262759573568
9.31525e-06;-0.013517217809241608
9.31550e-06;-0.013537172858909647
9.31575e-06;-0.013557127908577687
9.31600e-06;-0.013577082958245591
9.31625e-06;-0.01359703800791363
9.31650e-06;-0.01361699305758167
9.31675e-06;-0.013636948107249575
9.31700e-06;-0.013656903156917614
9.31725e-06;-0.013676858206585653
9.31750e-06;-0.013696813256253559
9.31775e-06;-0.013716058619183055
9.31800e-06;-0.013726896286937774
9.31825e-06;-0.013737733954692419
9.31850e-06;-0.013748571622447137
9.31875e-06;-0.013759409290201856
9.31900e-06;-0.0137702469579565
9.31925e-06;-0.013781084625711218
9.31950e-06;-0.013791922293465937
9.31975e-06;-0.013802759961220582
9.32000e-06;-0.0138135976289753
9.32025e-06;-0.013824435296730017
9.32050e-06;-0.013835272964484663
9.32075e-06;-0.01384611063223938
9.32100e-06;-0.013856948299994098
9.32125e-06;-0.013867466935971106
9.32150e-06;-0.013874205986121034
9.32175e-06;-0.013880945036270964
9.32200e-06;-0.013887684086420847
9.32225e-06;-0.013894156144482894
9.32250e-06;-0.013897465133590508
9.32275e-06;-0.0139007741226981
9.32300e-06;-0.013904083111805715
9.32325e-06;-0.013906747383527072
9.32350e-06;-0.013901773655317372
9.32375e-06;-0.013896140880251973
9.32400e-06;-0.01388270034329595
9.32425e-06;-0.013869259806339927
9.32450e-06;-0.013855060363282877
9.32475e-06;-0.013831870120734092
9.32500e-06;-0.013808679878185308
9.32525e-06;-0.01378435016492423
9.32550e-06;-0.01374652108370678
9.32575e-06;-0.013708692002489333
9.32600e-06;-0.013670862921272143
9.32625e-06;-0.013633033840054693
9.32650e-06;-0.013586666640505741
9.32675e-06;-0.013534061609240944
9.32700e-06;-0.013481456577975792
9.32725e-06;-0.013428851546710639
9.32750e-06;-0.013375421680897814
9.32775e-06;-0.013312219957898401
9.32800e-06;-0.013249018234898987
9.32825e-06;-0.013185450880867361
9.32850e-06;-0.013117551877242445
9.32875e-06;-0.013049504915200185
9.32900e-06;-0.01297961584319471
9.32925e-06;-0.012908595464157336
9.32950e-06;-0.012836652778140452
9.32975e-06;-0.012764170023128822
9.33000e-06;-0.012691567153109512
9.33025e-06;-0.01261926311825539
9.33050e-06;-0.012547674716121763
9.33075e-06;-0.012477206196989431
9.33100e-06;-0.01240816688873114
9.33125e-06;-0.01234078619179408
9.33150e-06;-0.0122753835157115
9.33175e-06;-0.012212389940025164
9.33200e-06;-0.012152257156184143
9.33225e-06;-0.012095436855636327
9.33250e-06;-0.01204237681520341
9.33275e-06;-0.011993433199220596
9.33300e-06;-0.011948373414961305
9.33325e-06;-0.011906364808034083
9.33350e-06;-0.011866930309330986
9.33375e-06;-0.011830163318060893
9.33400e-06;-0.011796281691212683
9.33425e-06;-0.01176550235445339
9.33450e-06;-0.011738167838833566
9.33475e-06;-0.011715575350157256
9.33500e-06;-0.011693412020633358
9.33525e-06;-0.011676332961598888
9.33550e-06;-0.011659708591370084
9.33575e-06;-0.011648470942743915
9.33600e-06;-0.011637233294117822
9.33625e-06;-0.011626730039258218
9.33650e-06;-0.011624927185018273
9.33675e-06;-0.01162312433077834
9.33700e-06;-0.011621321476538394
9.33725e-06;-0.01161951862229845
9.33750e-06;-0.011618382922058343
9.33775e-06;-0.011625151029472607
9.33800e-06;-0.011631919136886871
9.33825e-06;-0.01163868724430109
9.33850e-06;-0.011645455351715354
9.33875e-06;-0.011652612394277203
9.33900e-06;-0.011664377171480524
9.33925e-06;-0.011676141948683924
9.33950e-06;-0.011688041901354565
9.33975e-06;-0.011701543284718674
9.34000e-06;-0.011715044668082875
9.34025e-06;-0.01172861086027852
9.34050e-06;-0.01174294484602433
9.34075e-06;-0.01175728151401494
9.34100e-06;-0.011771649958696107
9.34125e-06;-0.011785860455410897
9.34150e-06;-0.01179819973446641
9.34175e-06;-0.011810539013522005
9.34200e-06;-0.0118228782925776
9.34225e-06;-0.011835217571633113
9.34250e-06;-0.011847325365721686
9.34275e-06;-0.01185669074553202
9.34300e-06;-0.011866111727550008
9.34325e-06;-0.011876191431775072
9.34350e-06;-0.011886458603156801
9.34375e-06;-0.011898946707559735
9.34400e-06;-0.011911434811962754
9.34425e-06;-0.011924070270673746
9.34450e-06;-0.011938451443430002
9.34475e-06;-0.011952832616186355
9.34500e-06;-0.011967610579925632
9.34525e-06;-0.011987089346794011
9.34550e-06;-0.012006568113662523
9.34575e-06;-0.012026046880531034
9.34600e-06;-0.012045525647399415
9.34625e-06;-0.012065004414267926
9.34650e-06;-0.012084960064912607
9.34675e-06;-0.012110565382117624
9.34700e-06;-0.012136170699322815
9.34725e-06;-0.012161776016528006
9.34750e-06;-0.012187381333733023
9.34775e-06;-0.012212986650938213
9.34800e-06;-0.012238901436009173
9.34825e-06;-0.012268482502762156
9.34850e-06;-0.012298063569515339
9.34875e-06;-0.012327644636268521
9.34900e-06;-0.012357225703021503
9.34925e-06;-0.012386806769774687
9.34950e-06;-0.01241638783652787
9.34975e-06;-0.01244588554657224
9.35000e-06;-0.012474395725410503
9.35025e-06;-0.01250290590424896
9.35050e-06;-0.012531416083087419
9.35075e-06;-0.012559926261925682
9.35100e-06;-0.01258843644076414
9.35125e-06;-0.012616946619602597
9.35150e-06;-0.012645094219023352
9.35175e-06;-0.01266894632148183
9.35200e-06;-0.012692798423940306
9.35225e-06;-0.012716256816372794
9.35250e-06;-0.012735050905928535
9.35275e-06;-0.012753844995484275
9.35300e-06;-0.012771864599828563
9.35325e-06;-0.012780708838135367
9.35350e-06;-0.01278955307644217
9.35375e-06;-0.012798397314748914
9.35400e-06;-0.012807241553055716
9.35425e-06;-0.01281608579136252
9.35450e-06;-0.012824930029669264
9.35475e-06;-0.012832669079599051
9.35500e-06;-0.012827314906117576
9.35525e-06;-0.012821960732636138
9.35550e-06;-0.012816606559154663
9.35575e-06;-0.012811252385673188
9.35600e-06;-0.01280589821219175
9.35625e-06;-0.012800544038710275
9.35650e-06;-0.012794289071545374
9.35675e-06;-0.012777362355392051
9.35700e-06;-0.012760435639238612
9.35725e-06;-0.012743508923085175
9.35750e-06;-0.01272658220693185
9.35775e-06;-0.012709655490778413
9.35800e-06;-0.012692728774624974
9.35825e-06;-0.012671815990321798
9.35850e-06;-0.012647991039498542
9.35875e-06;-0.012624166088675125
9.35900e-06;-0.012600341137851708
9.35925e-06;-0.012576516187028453
9.35950e-06;-0.012552691236205036
9.35975e-06;-0.012528719234057845
9.36000e-06;-0.012503005107332028
9.36025e-06;-0.012477290980606036
9.36050e-06;-0.01245160123572598
9.36075e-06;-0.01242620034382609
9.36100e-06;-0.012400875025982671
9.36125e-06;-0.012376445037866645
9.36150e-06;-0.012352185323960251
9.36175e-06;-0.012329942857351568
9.36200e-06;-0.012307700390742884
9.36225e-06;-0.012285731682243891
9.36250e-06;-0.012267006200117813
9.36275e-06;-0.012248280717991738
9.36300e-06;-0.0122295870120079
9.36325e-06;-0.012211269759610363
9.36350e-06;-0.012192802446496074
9.36375e-06;-0.01217255735636922
9.36400e-06;-0.012152312266242228
9.36425e-06;-0.012131976269767995
9.36450e-06;-0.012110563301132582
9.36475e-06;-0.012089150332497023
9.36500e-06;-0.012067524306640952
9.36525e-06;-0.012043374180958761
9.36550e-06;-0.012019224055276407
9.36575e-06;-0.011994641556582112
9.36600e-06;-0.011964936712624096
9.36625e-06;-0.011935231868665876
9.36650e-06;-0.011905527024707657
9.36675e-06;-0.01187582218074944
9.36700e-06;-0.011846117336791421
9.36725e-06;-0.011816412492833201
9.36750e-06;-0.011786707648874984
9.36775e-06;-0.011757002804916965
9.36800e-06;-0.011726983872521496
9.36825e-06;-0.011693243918288326
9.36850e-06;-0.011659473263227605
9.36875e-06;-0.011625338893884085
9.36900e-06;-0.011591180855543469
9.36925e-06;-0.011556723053721917
9.36950e-06;-0.011522029420051379
9.36975e-06;-0.011487267553365588
9.37000e-06;-0.011452637688018321
9.37025e-06;-0.01141833998586955
9.37050e-06;-0.011384573170005682
9.37075e-06;-0.01135152198855352
9.37100e-06;-0.011319279485068298
9.37125e-06;-0.011287854821823028
9.37150e-06;-0.011257329982500881
9.37175e-06;-0.011227888169851695
9.37200e-06;-0.011199731553367469
9.37225e-06;-0.011173063161369639
9.37250e-06;-0.011148084209851621
9.37275e-06;-0.01112495320359226
9.37300e-06;-0.011103552652652691
9.37325e-06;-0.01108348889671017
9.37350e-06;-0.011064537173184908
9.37375e-06;-0.011046738805681315
9.37400e-06;-0.011030250631682652
9.37425e-06;-0.011015670776777047
9.37450e-06;-0.011001322682311555
9.37475e-06;-0.010989720265676996
9.37500e-06;-0.01097834117611851
9.37525e-06;-0.010969607853895481
9.37550e-06;-0.010960874531672514
9.37575e-06;-0.010952630482294954
9.37600e-06;-0.010950182873436604
9.37625e-06;-0.010947735264578269
9.37650e-06;-0.010945287655719919
9.37675e-06;-0.010942840046861569
9.37700e-06;-0.010940392438003236
9.37725e-06;-0.010937944829144886
9.37750e-06;-0.010935497220286534
9.37775e-06;-0.010933049611428202
9.37800e-06;-0.010930602002569852
9.37825e-06;-0.010928520901908899
9.37850e-06;-0.010930781842679201
9.37875e-06;-0.01093304278344952
9.37900e-06;-0.010935401034124107
9.37925e-06;-0.010938912120230385
9.37950e-06;-0.010942423206336685
9.37975e-06;-0.010945983563586465
9.38000e-06;-0.010950127638602617
9.38025e-06;-0.010954271713618798
9.38050e-06;-0.010958437077441943
9.38075e-06;-0.010962854650854172
9.38100e-06;-0.010967272224266432
9.38125e-06;-0.010971652415403581
9.38150e-06;-0.010975589736808171
9.38175e-06;-0.010979527058212786
9.38200e-06;-0.010983417718225528
9.38225e-06;-0.01098672621862753
9.38250e-06;-0.01098965840330403
9.38275e-06;-0.010992274163488936
9.38300e-06;-0.01099526039907588
9.38325e-06;-0.010999853636063518
9.38350e-06;-0.011006742717096063
9.38375e-06;-0.011015905073798236
9.38400e-06;-0.011027172354263242
9.38425e-06;-0.011040442975712779
9.38450e-06;-0.011056121325595143
9.38475e-06;-0.01107211317188718
9.38500e-06;-0.011091819026243468
9.38525e-06;-0.011112059879675756
9.38550e-06;-0.011138638894632527
9.38575e-06;-0.011165217909589478
9.38600e-06;-0.011192483550189763
9.38625e-06;-0.011227883680044203
9.38650e-06;-0.011263283809898881
9.38675e-06;-0.01129868393975356
9.38700e-06;-0.011334084069608
9.38725e-06;-0.011370205215832395
9.38750e-06;-0.0114148682800142
9.38775e-06;-0.011459531344195702
9.38800e-06;-0.011504194408377506
9.38825e-06;-0.01154885747255931
9.38850e-06;-0.011593856305447117
9.38875e-06;-0.011642833007441854
9.38900e-06;-0.011691809709436592
9.38925e-06;-0.011740907402414381
9.38950e-06;-0.01179143848178615
9.38975e-06;-0.011841969561157921
9.39000e-06;-0.011892430056414624
9.39025e-06;-0.011942054338039576
9.39050e-06;-0.011991678619664528
9.39075e-06;-0.012041099473569265
9.39100e-06;-0.012088110308829418
9.39125e-06;-0.012134888694965451
9.39150e-06;-0.012178913244389801
9.39175e-06;-0.012221914505383845
9.39200e-06;-0.012252792815786078
9.39225e-06;-0.012283671126188313
9.39250e-06;-0.012314549436590338
9.39275e-06;-0.012345427746992573
9.39300e-06;-0.012376306057394806
9.39325e-06;-0.012407184367796831
9.39350e-06;-0.012438062678199066
9.39375e-06;-0.012468940988601301
9.39400e-06;-0.012498359134935322
9.39425e-06;-0.012510478642559365
9.39450e-06;-0.012522598150183408
9.39475e-06;-0.01253471765780737
9.39500e-06;-0.012546837165431413
9.39525e-06;-0.012558956673055456
9.39550e-06;-0.012571076180679418
9.39575e-06;-0.012583195688303461
9.39600e-06;-0.012595315195927504
9.39625e-06;-0.012606374757777346
9.39650e-06;-0.012604877087597076
9.39675e-06;-0.012603379417416806
9.39700e-06;-0.012601881747236546
9.39725e-06;-0.012600384077056275
9.39750e-06;-0.012598886406876007
