Time(s);Current(A)
9.75000e-06;0.0043765397749774265
9.75025e-06;0.004370864273330087
9.75050e-06;0.004365188771682749
9.75075e-06;0.004359513270035448
9.75100e-06;0.0043538377683881085
9.75125e-06;0.00434816226674077
9.75150e-06;0.004342486765093431
9.75175e-06;0.004336811263446131
9.75200e-06;0.004331135761798791
9.75225e-06;0.004325460260151452
9.75250e-06;0.004319784758504152
9.75275e-06;0.004317734280442228
9.75300e-06;0.004315691890036093
9.75325e-06;0.004313649499629974
9.75350e-06;0.00431160710922384
9.75375e-06;0.004309564718817707
9.75400e-06;0.004307522328411587
9.75425e-06;0.004305479938005454
9.75450e-06;0.00430343754759932
9.75475e-06;0.004301395157193201
9.75500e-06;0.004299352766787067
9.75525e-06;0.004297310376380934
9.75550e-06;0.004295267985974813
9.75575e-06;0.00429322559556868
9.75600e-06;0.004291183205162546
9.75625e-06;0.004289140814756427
9.75650e-06;0.004287098424350293
9.75675e-06;0.00428505603394416
9.75700e-06;0.00428301364353804
9.75725e-06;0.004280971253131907
9.75750e-06;0.004278928862725773
9.75775e-06;0.004276886472319654
9.75800e-06;0.00427484408191352
9.75825e-06;0.004272801691507386
9.75850e-06;0.004277683683517339
9.75875e-06;0.004282581124260529
9.75900e-06;0.004287478565003719
9.75925e-06;0.004292376005746876
9.75950e-06;0.004297273446490066
9.75975e-06;0.004302170887233256
9.76000e-06;0.004307068327976446
9.76025e-06;0.004311965768719603
9.76050e-06;0.004316863209462793
9.76075e-06;0.004321760650205983
9.76100e-06;0.00432665809094914
9.76125e-06;0.00433155553169233
9.76150e-06;0.00433645297243552
9.76175e-06;0.004341350413178677
9.76200e-06;0.004346247853921867
9.76225e-06;0.004351145294665057
9.76250e-06;0.004356042735408214
9.76275e-06;0.004360940176151404
9.76300e-06;0.0043658376168945945
9.76325e-06;0.004370735057637751
9.76350e-06;0.0043756324983809415
9.76375e-06;0.004380529939124131
9.76400e-06;0.004385427379867289
9.76425e-06;0.004386473080532089
9.76450e-06;0.00438751018772207
9.76475e-06;0.004388547294912045
9.76500e-06;0.0043895844021020255
9.76525e-06;0.004390621509292007
9.76550e-06;0.0043916586164819815
9.76575e-06;0.004392695723671963
9.76600e-06;0.004393732830861944
9.76625e-06;0.004394769938051918
9.76650e-06;0.0043958070452418995
9.76675e-06;0.004396844152431881
9.76700e-06;0.0043978812596218555
9.76725e-06;0.004398918366811836
9.76750e-06;0.0043999554740018175
9.76775e-06;0.004400992581191792
9.76800e-06;0.0044020296883817735
9.76825e-06;0.004403066795571755
9.76850e-06;0.0044041039027617355
9.76875e-06;0.00440514100995171
9.76900e-06;0.0044061781171416915
9.76925e-06;0.004403976880726561
9.76950e-06;0.00439850833628993
9.76975e-06;0.004393039791853262
9.77000e-06;0.004387571247416595
9.77025e-06;0.004382102702979964
9.77050e-06;0.0043766341585432965
9.77075e-06;0.004371165614106628
9.77100e-06;0.004365697069669998
9.77125e-06;0.00436022852523333
9.77150e-06;0.004354759980796662
9.77175e-06;0.004349291436360031
9.77200e-06;0.004343822891923364
9.77225e-06;0.0043383543474866965
9.77250e-06;0.0043328858030500655
9.77275e-06;0.004327417258613398
9.77300e-06;0.00432194871417673
9.77325e-06;0.0043164801697401
9.77350e-06;0.0043110116253034314
9.77375e-06;0.004305543080866764
9.77400e-06;0.004300074536430133
9.77425e-06;0.004294605991993466
9.77450e-06;0.004292152587490305
9.77475e-06;0.004289705909954548
9.77500e-06;0.004287259232418773
9.77525e-06;0.004284812554882999
9.77550e-06;0.0042823658773472415
9.77575e-06;0.004279919199811467
9.77600e-06;0.004277472522275692
9.77625e-06;0.004275025844739935
9.77650e-06;0.0042725791672041605
9.77675e-06;0.004270132489668386
9.77700e-06;0.004267685812132612
9.77725e-06;0.004265239134596854
9.77750e-06;0.00426279245706108
9.77775e-06;0.004260345779525306
9.77800e-06;0.004257899101989548
9.77825e-06;0.004255452424453774
9.77850e-06;0.0042530057469179995
9.77875e-06;0.004250559069382241
9.77900e-06;0.004248112391846468
9.77925e-06;0.004245665714310693
9.77950e-06;0.004243219036774935
9.77975e-06;0.004240772359239161
9.78000e-06;0.004238325681703387
9.78025e-06;0.004235879004167629
9.78050e-06;0.004233432326631855
9.78075e-06;0.004233613008738366
9.78100e-06;0.00423379955265006
9.78125e-06;0.0042339860965617555
9.78150e-06;0.004234172640473452
9.78175e-06;0.004234359184385146
9.78200e-06;0.004234545728296841
9.78225e-06;0.004234732272208537
9.78250e-06;0.004234918816120231
9.78275e-06;0.004235105360031927
9.78300e-06;0.004235291903943623
9.78325e-06;0.004235478447855317
9.78350e-06;0.004235664991767012
9.78375e-06;0.0042358515356787085
9.78400e-06;0.004236038079590403
9.78425e-06;0.004236224623502098
9.78450e-06;0.004236411167413794
9.78475e-06;0.004236597711325488
9.78500e-06;0.004236784255237184
9.78525e-06;0.0042369707991488795
9.78550e-06;0.004237157343060575
9.78575e-06;0.004237343886972269
9.78600e-06;0.004237530430883965
9.78625e-06;0.004237716974795661
9.78650e-06;0.004237903518707355
9.78675e-06;0.0042380900626190505
9.78700e-06;0.004236040415662644
9.78725e-06;0.004233985779623213
9.78750e-06;0.004231931143583769
9.78775e-06;0.004229876507544325
9.78800e-06;0.004227821871504895
9.78825e-06;0.00422576723546545
9.78850e-06;0.0042237125994260055
9.78875e-06;0.0042216579633865756
9.78900e-06;0.004219603327347131
9.78925e-06;0.004217548691307687
9.78950e-06;0.004215494055268256
9.78975e-06;0.0042134394192288125
9.79000e-06;0.004211384783189368
9.79025e-06;0.004209330147149938
9.79050e-06;0.004207275511110493
9.79075e-06;0.004205220875071049
9.79100e-06;0.004203166239031619
9.79125e-06;0.004201111602992174
9.79150e-06;0.00419905696695273
9.79175e-06;0.004197002330913299
9.79200e-06;0.004194947694873856
9.79225e-06;0.004192893058834411
9.79250e-06;0.004190838422794981
9.79275e-06;0.004188783786755536
9.79300e-06;0.004186729150716092
9.79325e-06;0.004184674514676662
9.79350e-06;0.004182619878637217
9.79375e-06;0.004180565242597773
9.79400e-06;0.004178510606558329
9.79425e-06;0.004176455970518899
9.79450e-06;0.004174401334479454
9.79475e-06;0.00417234669844001
9.79500e-06;0.004170292062400579
9.79525e-06;0.004168237426361136
9.79550e-06;0.004166182790321691
9.79575e-06;0.00416412815428226
9.79600e-06;0.004162073518242816
9.79625e-06;0.004158528968985404
9.79650e-06;0.0041549810956374306
9.79675e-06;0.004151433222289433
9.79700e-06;0.004147885348941435
9.79725e-06;0.004144337475593462
9.79750e-06;0.004140789602245464
9.79775e-06;0.0041372417288974665
9.79800e-06;0.004133693855549492
9.79825e-06;0.004130145982201495
9.79850e-06;0.004126598108853497
9.79875e-06;0.004123050235505524
9.79900e-06;0.004119502362157526
9.79925e-06;0.004115954488809528
9.79950e-06;0.004112406615461555
9.79975e-06;0.004108858742113557
9.80000e-06;0.0041053108687655595
9.80025e-06;0.004101762995417585
9.80050e-06;0.004098215122069588
9.80075e-06;0.00409466724872159
9.80100e-06;0.004091119375373617
9.80125e-06;0.004087571502025619
9.80150e-06;0.004084023628677621
9.80175e-06;0.004080475755329648
9.80200e-06;0.00407692788198165
9.80225e-06;0.0040733800086336525
9.80250e-06;0.004069832135285655
9.80275e-06;0.0040662842619376815
9.80300e-06;0.004062736388589684
9.80325e-06;0.004059188515241686
9.80350e-06;0.004055640641893712
9.80375e-06;0.004052092768545714
9.80400e-06;0.004048544895197717
9.80425e-06;0.004044997021849743
9.80450e-06;0.0040414491485017455
9.80475e-06;0.004037901275153748
9.80500e-06;0.0040343534018057745
9.80525e-06;0.004030805528457777
9.80550e-06;0.004039261047873741
9.80575e-06;0.004047743347618771
9.80600e-06;0.004056225647363859
9.80625e-06;0.004064707947108946
9.80650e-06;0.004073190246853976
9.80675e-06;0.0040816725465990635
9.80700e-06;0.0040901548463441505
9.80725e-06;0.004098637146089181
9.80750e-06;0.004107119445834268
9.80775e-06;0.004115601745579356
9.80800e-06;0.004124084045324386
9.80825e-06;0.004132566345069473
9.80850e-06;0.004151792984519945
9.80875e-06;0.004181860063288981
9.80900e-06;0.00421192714205822
9.80925e-06;0.00424199422082746
9.80950e-06;0.004272061299596496
9.80975e-06;0.004302128378365735
9.81000e-06;0.004332195457134975
9.81025e-06;0.004362262535904011
9.81050e-06;0.00439232961467325
9.81075e-06;0.00442239669344249
9.81100e-06;0.00445246377221173
9.81125e-06;0.004482530850980765
9.81150e-06;0.004512597929750005
9.81175e-06;0.004549101379874318
9.81200e-06;0.004585619189950546
9.81225e-06;0.004622137000027021
9.81250e-06;0.004658654810103496
9.81275e-06;0.004695172620179724
9.81300e-06;0.004731690430256199
9.81325e-06;0.004768208240332674
9.81350e-06;0.0048047260504089015
9.81375e-06;0.004841243860485377
9.81400e-06;0.004877761670561852
9.81425e-06;0.004902885861305157
9.81450e-06;0.004927984632162014
9.81475e-06;0.004953083403018871
9.81500e-06;0.004978182173875558
9.81525e-06;0.005003280944732416
9.81550e-06;0.005028379715589273
9.81575e-06;0.00505347848644596
9.81600e-06;0.005078577257302818
9.81625e-06;0.005103676028159675
9.81650e-06;0.005128774799016363
9.81675e-06;0.0051388815827121655
9.81700e-06;0.005148954918334331
9.81725e-06;0.005159028253956428
9.81750e-06;0.005169101589578594
9.81775e-06;0.005179174925200759
9.81800e-06;0.005189248260822856
9.81825e-06;0.005199321596445022
9.81850e-06;0.005209394932067187
9.81875e-06;0.0052194682676892845
9.81900e-06;0.005229541603311449
9.81925e-06;0.005239614938933615
9.81950e-06;0.005249688274555781
9.81975e-06;0.005259761610177878
9.82000e-06;0.005269834945800043
9.82025e-06;0.005279908281422208
9.82050e-06;0.005289981617044305
9.82075e-06;0.005300054952666471
9.82100e-06;0.005310128288288636
9.82125e-06;0.005320201623910733
9.82150e-06;0.005330274959532899
9.82175e-06;0.005340348295155064
9.82200e-06;0.005350421630777162
9.82225e-06;0.005360494966399326
9.82250e-06;0.005370568302021492
9.82275e-06;0.005380641637643589
9.82300e-06;0.005390714973265755
9.82325e-06;0.00540078830888792
9.82350e-06;0.005410861644510017
9.82375e-06;0.0054209349801321825
9.82400e-06;0.005431008315754348
9.82425e-06;0.005441081651376445
9.82450e-06;0.00545115498699861
9.82475e-06;0.005461228322620776
9.82500e-06;0.005471301658242873
9.82525e-06;0.005469708172488096
9.82550e-06;0.00546808865731452
9.82575e-06;0.005466469142140954
9.82600e-06;0.005464849626967378
9.82625e-06;0.005463230111793802
9.82650e-06;0.005461610596620237
9.82675e-06;0.005459991081446661
9.82700e-06;0.005458371566273085
9.82725e-06;0.00545675205109952
9.82750e-06;0.005455132535925944
9.82775e-06;0.005453513020752368
9.82800e-06;0.005451893505578792
9.82825e-06;0.005450273990405227
9.82850e-06;0.005448654475231651
9.82875e-06;0.005447034960058075
9.82900e-06;0.005445415444884509
9.82925e-06;0.005443795929710933
9.82950e-06;0.005442176414537357
9.82975e-06;0.005440556899363792
9.83000e-06;0.005438937384190216
9.83025e-06;0.00543731786901664
9.83050e-06;0.005435698353843075
9.83075e-06;0.005434078838669499
9.83100e-06;0.0054324593234959225
9.83125e-06;0.005430839808322357
9.83150e-06;0.005429220293148781
9.83175e-06;0.005427600777975205
9.83200e-06;0.00542598126280164
9.83225e-06;0.0054243617476280636
9.83250e-06;0.0054227422324544874
9.83275e-06;0.005421122717280923
9.83300e-06;0.0054195032021073465
9.83325e-06;0.00541788368693377
9.83350e-06;0.0054162641717602055
9.83375e-06;0.005410574297468427
9.83400e-06;0.005404875341946926
9.83425e-06;0.005399176386425462
9.83450e-06;0.005393477430903962
9.83475e-06;0.00538777847538246
9.83500e-06;0.005382079519860997
9.83525e-06;0.005376380564339496
9.83550e-06;0.005370681608817995
9.83575e-06;0.005364982653296531
9.83600e-06;0.005359283697775031
9.83625e-06;0.005353584742253529
9.83650e-06;0.005347885786732028
9.83675e-06;0.005342186831210565
9.83700e-06;0.005336487875689064
9.83725e-06;0.005325208406803489
9.83750e-06;0.005308298511274597
9.83775e-06;0.005291388615745589
9.83800e-06;0.0052744787202165825
9.83825e-06;0.0052575688246876895
9.83850e-06;0.005240658929158683
9.83875e-06;0.005223749033629675
9.83900e-06;0.005206839138100783
9.83925e-06;0.005189929242571776
9.83950e-06;0.005173019347042769
9.83975e-06;0.0051561094515138765
9.84000e-06;0.005139199555984869
9.84025e-06;0.005122289660455862
9.84050e-06;0.00510537976492697
9.84075e-06;0.0050884698693979625
9.84100e-06;0.0050649176487072645
9.84125e-06;0.005041350608566994
9.84150e-06;0.005017783568426564
9.84175e-06;0.004994216528286134
9.84200e-06;0.004970649488145864
9.84225e-06;0.004947082448005433
9.84250e-06;0.004923515407865003
9.84275e-06;0.004899948367724733
9.84300e-06;0.0048763813275843025
9.84325e-06;0.004852814287443872
9.84350e-06;0.004829247247303602
9.84375e-06;0.004805680207163172
9.84400e-06;0.004788503034091912
9.84425e-06;0.004771340117220619
9.84450e-06;0.004754177200349211
9.84475e-06;0.004737014283477802
9.84500e-06;0.004719851366606393
9.84525e-06;0.004702688449735102
9.84550e-06;0.004685525532863693
9.84575e-06;0.004668362615992285
9.84600e-06;0.004651199699120992
9.84625e-06;0.004634036782249583
9.84650e-06;0.004616873865378175
9.84675e-06;0.004599710948506882
9.84700e-06;0.004586272916184719
9.84725e-06;0.004572843194317003
9.84750e-06;0.004559413472449378
9.84775e-06;0.004545983750581662
9.84800e-06;0.0045325540287139456
9.84825e-06;0.004519124306846321
9.84850e-06;0.004505694584978605
9.84875e-06;0.0044922648631108885
9.84900e-06;0.004478835141243264
9.84925e-06;0.004465405419375548
9.84950e-06;0.004451975697507832
9.84975e-06;0.004438545975640207
9.85000e-06;0.004425116253772491
9.85025e-06;0.004411686531904775
9.85050e-06;0.00439825681003715
9.85075e-06;0.0043848270881694336
9.85100e-06;0.004371397366301718
9.85125e-06;0.004357967644434093
9.85150e-06;0.0043459452757201944
9.85175e-06;0.004335342847821968
9.85200e-06;0.004324740419923813
9.85225e-06;0.004314137992025587
9.85250e-06;0.00430353556412736
9.85275e-06;0.0042929331362292055
9.85300e-06;0.004282330708330979
9.85325e-06;0.004271728280432752
9.85350e-06;0.004261125852534526
9.85375e-06;0.004250523424636371
9.85400e-06;0.004239920996738145
9.85425e-06;0.004229318568839918
9.85450e-06;0.0042187161409417626
9.85475e-06;0.004208113713043536
9.85500e-06;0.004197511285145309
9.85525e-06;0.004186908857247155
9.85550e-06;0.004176306429348928
9.85575e-06;0.004165704001450702
9.85600e-06;0.004155101573552547
9.85625e-06;0.004152199609711711
9.85650e-06;0.004149314826096805
9.85675e-06;0.004146430042481918
9.85700e-06;0.004143545258867011
9.85725e-06;0.004140660475252105
9.85750e-06;0.004137775691637218
9.85775e-06;0.004134890908022311
9.85800e-06;0.004132006124407405
9.85825e-06;0.004129121340792519
9.85850e-06;0.0041262365571776115
9.85875e-06;0.004123351773562705
9.85900e-06;0.004120466989947819
9.85925e-06;0.004117582206332912
9.85950e-06;0.004114697422718006
9.85975e-06;0.004111812639103119
9.86000e-06;0.0041089278554882125
9.86025e-06;0.004106043071873306
9.86050e-06;0.004103158288258419
9.86075e-06;0.0041002735046435125
9.86100e-06;0.004099143235467754
9.86125e-06;0.0040997831734768415
9.86150e-06;0.004100423111485932
9.86175e-06;0.004101063049495024
9.86200e-06;0.004101702987504111
9.86225e-06;0.004102342925513203
9.86250e-06;0.004102982863522293
9.86275e-06;0.004103622801531385
9.86300e-06;0.004104262739540472
9.86325e-06;0.004104902677549563
9.86350e-06;0.004105542615558655
9.86375e-06;0.004106182553567742
9.86400e-06;0.0041068224915768335
9.86425e-06;0.004107462429585924
9.86450e-06;0.0041081023675950115
9.86475e-06;0.004108742305604103
9.86500e-06;0.004109382243613194
9.86525e-06;0.004110022181622281
9.86550e-06;0.004110662119631373
9.86575e-06;0.004111302057640464
9.86600e-06;0.004121593359055597
9.86625e-06;0.004131906193277999
9.86650e-06;0.0041422190275004
9.86675e-06;0.004152531861722732
9.86700e-06;0.004162844695945135
9.86725e-06;0.004173157530167537
9.86750e-06;0.004183470364389869
9.86775e-06;0.00419378319861227
9.86800e-06;0.0042040960328346725
9.86825e-06;0.0042144088670570045
9.86850e-06;0.004224721701279406
9.86875e-06;0.004235034535501808
9.86900e-06;0.00424534736972414
9.86925e-06;0.004255660203946542
9.86950e-06;0.004278666053426992
9.86975e-06;0.004301700221834157
9.87000e-06;0.004324734390241478
9.87025e-06;0.004347768558648799
9.87050e-06;0.004370802727055964
9.87075e-06;0.004393836895463285
9.87100e-06;0.004416871063870606
9.87125e-06;0.004439905232277927
9.87150e-06;0.004462939400685093
9.87175e-06;0.004485973569092414
9.87200e-06;0.004509007737499735
9.87225e-06;0.0045320419059068995
9.87250e-06;0.0045550760743142205
9.87275e-06;0.0045781102427215415
9.87300e-06;0.004598862407012962
9.87325e-06;0.004619609480007684
9.87350e-06;0.004640356553002407
9.87375e-06;0.004661103625996988
9.87400e-06;0.004681850698991711
9.87425e-06;0.004702597771986433
9.87450e-06;0.004723344844981015
9.87475e-06;0.004744091917975738
9.87500e-06;0.00476483899097046
9.87525e-06;0.004785586063965042
9.87550e-06;0.004796891569818349
9.87575e-06;0.004798671061166277
9.87600e-06;0.004800450552514194
9.87625e-06;0.004802230043862122
9.87650e-06;0.00480400953521005
9.87675e-06;0.004805789026557966
9.87700e-06;0.004807568517905894
9.87725e-06;0.004809348009253822
9.87750e-06;0.004811127500601739
9.87775e-06;0.004812906991949667
9.87800e-06;0.004814686483297596
9.87825e-06;0.004792803927368514
9.87850e-06;0.004770868579900853
9.87875e-06;0.004748933232433192
9.87900e-06;0.00472699788496568
9.87925e-06;0.004705062537498019
9.87950e-06;0.004683127190030358
9.87975e-06;0.004661191842562697
9.88000e-06;0.004639256495095185
9.88025e-06;0.004617321147627524
9.88050e-06;0.004595385800159863
9.88075e-06;0.004560579187495616
9.88100e-06;0.004525743858216312
9.88125e-06;0.004490908528937008
9.88150e-06;0.004456073199657941
9.88175e-06;0.004421237870378637
9.88200e-06;0.004386402541099334
9.88225e-06;0.004351567211820266
9.88250e-06;0.004316731882540963
9.88275e-06;0.004281896553261659
9.88300e-06;0.004247061223982592
9.88325e-06;0.004219687640950964
9.88350e-06;0.004192330705552044
9.88375e-06;0.004164973770153311
9.88400e-06;0.004137616834754392
9.88425e-06;0.004110259899355472
9.88450e-06;0.0040829029639567384
9.88475e-06;0.004055546028557819
9.88500e-06;0.0040281890931589
9.88525e-06;0.004000832157760166
9.88550e-06;0.003973475222361246
9.88575e-06;0.003946118286962327
9.88600e-06;0.003918761351563593
9.88625e-06;0.003891404416164674
9.88650e-06;0.003864047480765755
9.88675e-06;0.003852387856991315
9.88700e-06;0.003840763254922567
9.88725e-06;0.0038291386528538193
9.88750e-06;0.00381751405078515
9.88775e-06;0.0038058894487164024
9.88800e-06;0.0037942648466476546
9.88825e-06;0.003782640244578907
9.88850e-06;0.0037710156425102377
9.88875e-06;0.00375939104044149
9.88900e-06;0.0037477664383727422
9.88925e-06;0.003736141836304073
9.88950e-06;0.0037245172342353253
9.88975e-06;0.0037128926321665775
9.89000e-06;0.0037012680300979083
9.89025e-06;0.0036974417761513187
9.89050e-06;0.0036936329208182074
9.89075e-06;0.0036898240654851216
9.89100e-06;0.00368601521015201
9.89125e-06;0.0036822063548188986
9.89150e-06;0.003678397499485813
9.89175e-06;0.003674588644152701
9.89200e-06;0.00367077978881959
9.89225e-06;0.003666970933486504
9.89250e-06;0.0036631620781533924
9.89275e-06;0.003659353222820281
9.89300e-06;0.0036555443674871953
9.89325e-06;0.003651735512154084
9.89350e-06;0.0036479266568209723
9.89375e-06;0.0036441178014878866
9.89400e-06;0.0036403089461547753
9.89425e-06;0.0036369791248058677
9.89450e-06;0.0036341326220222635
9.89475e-06;0.00363128611923864
9.89500e-06;0.003628439616455016
9.89525e-06;0.003625593113671412
9.89550e-06;0.0036227466108877883
9.89575e-06;0.0036199001081041646
9.89600e-06;0.0036170536053205605
9.89625e-06;0.0036142071025369368
9.89650e-06;0.003611360599753313
9.89675e-06;0.0036085140969696894
9.89700e-06;0.003605667594186085
9.89725e-06;0.0036028210914024615
9.89750e-06;0.003599974588618838
9.89775e-06;0.0035971280858352337
9.89800e-06;0.00359428158305161
9.89825e-06;0.0035914350802679863
9.89850e-06;0.003584730511016722
9.89875e-06;0.0035780173341720804
9.89900e-06;0.003571304157327439
9.89925e-06;0.0035645909804828428
9.89950e-06;0.003557877803638201
9.89975e-06;0.0035511646267935596
9.90000e-06;0.0035444514499489636
9.90025e-06;0.003537738273104322
9.90050e-06;0.0035310250962596805
9.90075e-06;0.0035243119194150845
