Time(s);Current(A)
2.05000e-06;0.004803374520979199
2.05025e-06;0.004771328092182334
2.05050e-06;0.004739281663385414
2.05075e-06;0.004707235234588494
2.05100e-06;0.004675188805791628
2.05125e-06;0.004643142376994708
2.05150e-06;0.0046110959481977885
2.05175e-06;0.004579049519400869
2.05200e-06;0.004547039582647165
2.05225e-06;0.0045152645570772885
2.05250e-06;0.004483489531507412
2.05275e-06;0.004451714505937589
2.05300e-06;0.004419939480367713
2.05325e-06;0.004388164454797836
2.05350e-06;0.004356389429227959
2.05375e-06;0.0043246144036581365
2.05400e-06;0.00429283937808826
2.05425e-06;0.004261064352518384
2.05450e-06;0.00422928932694856
2.05475e-06;0.004197514301378684
2.05500e-06;0.004171187535094761
2.05525e-06;0.004147999789570313
2.05550e-06;0.004124812044045825
2.05575e-06;0.004101624298521338
2.05600e-06;0.00407843655299685
2.05625e-06;0.0040552488074724015
2.05650e-06;0.004032061061947914
2.05675e-06;0.004008873316423426
2.05700e-06;0.0039856855708989775
2.05725e-06;0.00396249782537449
2.05750e-06;0.003939310079850003
2.05775e-06;0.003919194109644076
2.05800e-06;0.0039188521590387635
2.05825e-06;0.00391851020843345
2.05850e-06;0.003918168257828137
2.05875e-06;0.0039178263072228246
2.05900e-06;0.003917484356617511
2.05925e-06;0.003917142406012198
2.05950e-06;0.003916800455406886
2.05975e-06;0.003916458504801573
2.06000e-06;0.00391611655419626
2.06025e-06;0.003915774603590947
2.06050e-06;0.003915432652985634
2.06075e-06;0.003918124912682949
2.06100e-06;0.003940349373721862
2.06125e-06;0.0039625738347607384
2.06150e-06;0.003984798295799652
2.06175e-06;0.004007022756838566
2.06200e-06;0.004029247217877479
2.06225e-06;0.004051471678916355
2.06250e-06;0.004073696139955269
2.06275e-06;0.004095920600994183
2.06300e-06;0.0041181450620330585
2.06325e-06;0.004140369523071972
2.06350e-06;0.004162593984110886
2.06375e-06;0.004185749980309323
2.06400e-06;0.004214902572155142
2.06425e-06;0.00424405516400096
2.06450e-06;0.0042732077558467795
2.06475e-06;0.004302360347692549
2.06500e-06;0.004331512939538368
2.06525e-06;0.004360665531384187
2.06550e-06;0.004389117716505417
2.06575e-06;0.004413061155099247
2.06600e-06;0.004437004593693078
2.06625e-06;0.004460948032286908
2.06650e-06;0.004484891470880698
2.06675e-06;0.004508834909474528
2.06700e-06;0.004532778348068358
2.06725e-06;0.0045573220817582425
2.06750e-06;0.0045857301107714524
2.06775e-06;0.004614138139784662
2.06800e-06;0.004642546168797824
2.06825e-06;0.004670954197811034
2.06850e-06;0.004699362226824244
2.06875e-06;0.004727770255837454
2.06900e-06;0.004756178284850615
2.06925e-06;0.004784586313863825
2.06950e-06;0.004816008204479406
2.06975e-06;0.004866831305218375
2.07000e-06;0.0049176544059574305
2.07025e-06;0.004968477506696486
2.07050e-06;0.005019300607435541
2.07075e-06;0.00507012370817451
2.07100e-06;0.005120946808913565
2.07125e-06;0.00517176990965262
2.07150e-06;0.00522259301039159
2.07175e-06;0.005275897384746165
2.07200e-06;0.005345174526646796
2.07225e-06;0.005414451668547309
2.07250e-06;0.00548372881044794
2.07275e-06;0.0055530059523485695
2.07300e-06;0.0056222830942492
2.07325e-06;0.0056915602361497135
2.07350e-06;0.005760837378050344
2.07375e-06;0.005830114519950975
2.07400e-06;0.005899571394878227
2.07425e-06;0.005969131823192569
2.07450e-06;0.006038692251506911
2.07475e-06;0.006108252679821253
2.07500e-06;0.006177813108135478
2.07525e-06;0.00624737353644982
2.07550e-06;0.006316933964764162
2.07575e-06;0.006386494393078387
2.07600e-06;0.0064530687165223
2.07625e-06;0.006500420508977036
2.07650e-06;0.006547772301431691
2.07675e-06;0.006595124093886426
2.07700e-06;0.006642475886341162
2.07725e-06;0.006689827678795898
2.07750e-06;0.006737179471250553
2.07775e-06;0.006784531263705288
2.07800e-06;0.006802863558391207
2.07825e-06;0.006804476236561409
2.07850e-06;0.0068060889147316134
2.07875e-06;0.006807701592901818
2.07900e-06;0.006809314271072023
2.07925e-06;0.006810926949242225
2.07950e-06;0.00681253962741243
2.07975e-06;0.0068070221320781195
2.08000e-06;0.00675560538434053
2.08025e-06;0.0067041886366028544
2.08050e-06;0.0066527718888651785
2.08075e-06;0.00660135514112759
2.08100e-06;0.006549938393389914
2.08125e-06;0.006498521645652238
2.08150e-06;0.0064471048979145625
2.08175e-06;0.006390424904150861
2.08200e-06;0.006299863679071861
2.08225e-06;0.006209302453992861
2.08250e-06;0.006118741228914015
2.08275e-06;0.006028180003835015
2.08300e-06;0.005937618778756015
2.08325e-06;0.005847057553677015
2.08350e-06;0.0057564963285981685
2.08375e-06;0.005664304403255911
2.08400e-06;0.005561615128454266
2.08425e-06;0.005458925853652796
2.08450e-06;0.005356236578851151
2.08475e-06;0.005253547304049507
2.08500e-06;0.005150858029248037
2.08525e-06;0.005048168754446392
2.08550e-06;0.0049549195342318535
2.08575e-06;0.004867109212162637
2.08600e-06;0.0047792988900935696
2.08625e-06;0.004691488568024353
2.08650e-06;0.004603678245955137
2.08675e-06;0.00451586792388607
2.08700e-06;0.0044316362951664105
2.08725e-06;0.00437044188275615
2.08750e-06;0.004309247470345995
2.08775e-06;0.00425101866703044
2.08800e-06;0.004211880456713941
2.08825e-06;0.004172742246397442
2.08850e-06;0.004136728010237394
2.08875e-06;0.004120823814630668
2.08900e-06;0.004104919619023942
2.08925e-06;0.004092210607588248
2.08950e-06;0.004100070038795432
2.08975e-06;0.0041079294700026164
2.09000e-06;0.004118794331145052
2.09025e-06;0.004149006125024685
2.09050e-06;0.00417921791890437
2.09075e-06;0.004212165579838801
2.09100e-06;0.004262724909328582
2.09125e-06;0.004313284238818449
2.09150e-06;0.004367418335488264
2.09175e-06;0.004444564374433366
2.09200e-06;0.004521710413378598
2.09225e-06;0.00459885645232383
2.09250e-06;0.004676002491269062
2.09275e-06;0.004753148530214164
2.09300e-06;0.0048302945691593956
2.09325e-06;0.004909971691209725
2.09350e-06;0.005005942220740292
2.09375e-06;0.005101912750271021
2.09400e-06;0.005197883279801751
2.09425e-06;0.005293853809332481
2.09450e-06;0.0053898243388630475
2.09475e-06;0.005485794868393777
2.09500e-06;0.005580482602761485
2.09525e-06;0.00566691256627059
2.09550e-06;0.005753342529779841
2.09575e-06;0.005839772493289094
2.09600e-06;0.005926202456798198
2.09625e-06;0.00601263242030745
2.09650e-06;0.006099062383816701
2.09675e-06;0.006185492347325953
2.09700e-06;0.006245809017209518
2.09725e-06;0.006291080483385238
2.09750e-06;0.006336351949560959
2.09775e-06;0.006381623415736603
2.09800e-06;0.0064268948819123225
2.09825e-06;0.0064721663480880424
2.09850e-06;0.006517437814263763
2.09875e-06;0.006554602187244486
2.09900e-06;0.00653957855713207
2.09925e-06;0.006524554927019655
2.09950e-06;0.006509531296907265
2.09975e-06;0.00649450766679485
2.10000e-06;0.006479484036682435
2.10025e-06;0.006464460406570045
2.10050e-06;0.00644943677645763
2.10075e-06;0.0064344131463452145
2.10100e-06;0.006412166979980861
2.10125e-06;0.006343426992071171
2.10150e-06;0.006274687004161364
2.10175e-06;0.006205947016251557
2.10200e-06;0.006137207028341867
2.10225e-06;0.00606846704043206
2.10250e-06;0.005999727052522253
2.10275e-06;0.005930987064612446
2.10300e-06;0.005862247076702756
2.10325e-06;0.005790420675045901
2.10350e-06;0.005698726021438581
2.10375e-06;0.0056070313678314165
2.10400e-06;0.0055153367142240966
2.10425e-06;0.005423642060616777
2.10450e-06;0.005331947407009613
2.10475e-06;0.005240252753402293
2.10500e-06;0.005151924820789203
2.10525e-06;0.005065536628291424
2.10550e-06;0.004979148435793793
2.10575e-06;0.004892760243296014
2.10600e-06;0.004806372050798236
2.10625e-06;0.004719983858300604
2.10650e-06;0.004637311992888333
2.10675e-06;0.0045785633370393
2.10700e-06;0.004519814681190268
2.10725e-06;0.004461066025341334
2.10750e-06;0.004402317369492301
2.10775e-06;0.0043435687136432685
2.10800e-06;0.004284820057794334
2.10825e-06;0.004226071401945302
2.10850e-06;0.004167322746096269
2.10875e-06;0.004110884700778403
2.10900e-06;0.0040693208090761745
2.10925e-06;0.004027756917373946
2.10950e-06;0.003986193025671718
2.10975e-06;0.003944629133969561
2.11000e-06;0.0039030652422673328
2.11025e-06;0.0038615013505651045
2.11050e-06;0.0038199374588629466
2.11075e-06;0.003778373567160719
2.11100e-06;0.0037380351489546848
2.11125e-06;0.003705585503343538
2.11150e-06;0.0036731358577324455
2.11175e-06;0.0036406862121212986
2.11200e-06;0.0036082365665101516
2.11225e-06;0.0035757869208990593
2.11250e-06;0.0035433372752879124
2.11275e-06;0.0035108876296767655
2.11300e-06;0.003478437984065673
2.11325e-06;0.003445988338454526
2.11350e-06;0.003413538692843379
2.11375e-06;0.003381089047232232
2.11400e-06;0.0033498409088706777
2.11425e-06;0.003326327264557859
2.11450e-06;0.00330281362024504
2.11475e-06;0.003279299975932261
2.11500e-06;0.003255786331619442
2.11525e-06;0.0032322726873066235
2.11550e-06;0.0032087590429938045
2.11575e-06;0.0031852453986810254
2.11600e-06;0.003161731754368207
2.11625e-06;0.003138218110055388
2.11650e-06;0.003114704465742609
2.11675e-06;0.0030911908214297902
2.11700e-06;0.0030704779661349874
2.11725e-06;0.0030677947032550796
2.11750e-06;0.003065111440375168
2.11775e-06;0.0030624281774952558
2.11800e-06;0.003059744914615344
2.11825e-06;0.0030570616517354367
2.11850e-06;0.0030543783888555246
2.11875e-06;0.003051695125975613
2.11900e-06;0.0030490118630957055
2.11925e-06;0.0030463286002157934
2.11950e-06;0.0030644637531418387
2.11975e-06;0.0030945934599230134
2.12000e-06;0.0031247231667041373
2.12025e-06;0.0031548528734853124
2.12050e-06;0.003184982580266487
2.12075e-06;0.003215112287047611
2.12100e-06;0.003245241993828786
2.12125e-06;0.0032753717006099607
2.12150e-06;0.0033055014073910846
2.12175e-06;0.003338744161432712
2.12200e-06;0.0033920266160425887
2.12225e-06;0.0034453090706524658
2.12250e-06;0.0034985915252622526
2.12275e-06;0.0035518739798721293
2.12300e-06;0.0036051564344820063
2.12325e-06;0.003658438889091793
2.12350e-06;0.00371172134370167
2.12375e-06;0.003768699994740253
2.12400e-06;0.003827808213539281
2.12425e-06;0.0038869164323382093
2.12450e-06;0.003946024651137237
2.12475e-06;0.004005132869936265
2.12500e-06;0.004064241088735193
2.12525e-06;0.004123349307534221
2.12550e-06;0.004180378832544605
2.12575e-06;0.004224027127649046
2.12600e-06;0.004267675422753562
2.12625e-06;0.0043113237178580765
2.12650e-06;0.004354972012962592
2.12675e-06;0.0043986203080670335
2.12700e-06;0.004442268603171548
2.12725e-06;0.004485916898276064
2.12750e-06;0.004529565193380505
2.12775e-06;0.00457321348848502
2.12800e-06;0.004593053230116953
2.12825e-06;0.004599175646688522
2.12850e-06;0.00460529806326008
2.12875e-06;0.004611420479831649
2.12900e-06;0.004617542896403217
2.12925e-06;0.004623665312974775
2.12950e-06;0.004629787729546344
2.12975e-06;0.004635910146117913
2.13000e-06;0.0046420325626894705
2.13025e-06;0.004643314219037302
2.13050e-06;0.004613434322957507
2.13075e-06;0.004583554426877711
2.13100e-06;0.004553674530797966
2.13125e-06;0.004523794634718171
2.13150e-06;0.004493914738638374
2.13175e-06;0.004464034842558629
2.13200e-06;0.004434154946478834
2.13225e-06;0.004404275050399038
2.13250e-06;0.00436148148754595
2.13275e-06;0.004311247700949059
2.13300e-06;0.004261013914352083
2.13325e-06;0.004210780127755107
2.13350e-06;0.004160546341158215
2.13375e-06;0.004110312554561239
2.13400e-06;0.0040600787679642624
2.13425e-06;0.004009844981367371
2.13450e-06;0.003959370367587945
2.13475e-06;0.00390734547068655
2.13500e-06;0.0038553205737851563
2.13525e-06;0.00380329567688385
2.13550e-06;0.003751270779982456
2.13575e-06;0.0036992458830810617
2.13600e-06;0.0036472209861797555
2.13625e-06;0.0036042685685288706
2.13650e-06;0.0035665432700783322
2.13675e-06;0.003528817971627794
2.13700e-06;0.0034910926731773193
2.13725e-06;0.003453367374726781
2.13750e-06;0.0034156420762762427
2.13775e-06;0.0033806882996542894
2.13800e-06;0.0033635757130070073
2.13825e-06;0.0033464631263597257
2.13850e-06;0.0033313746718534112
2.13875e-06;0.003329316216132866
2.13900e-06;0.003327257760412321
2.13925e-06;0.003327310164035382
2.13950e-06;0.0033409508577346946
2.13975e-06;0.00335459155143403
2.14000e-06;0.0033703046297812725
2.14025e-06;0.003399358324039357
2.14050e-06;0.0034284120182974903
2.14075e-06;0.003460471977307704
2.14100e-06;0.0035118842430554957
2.14125e-06;0.0035632965088031997
2.14150e-06;0.0036147087745509914
2.14175e-06;0.0036661210402987826
2.14200e-06;0.003717533306046487
2.14225e-06;0.0037689455717942783
2.14250e-06;0.0038203578375420695
2.14275e-06;0.00388422034549054
2.14300e-06;0.003955256074590839
2.14325e-06;0.0040262918036911375
2.14350e-06;0.004097327532791436
2.14375e-06;0.004168363261891615
2.14400e-06;0.004239398990991914
2.14425e-06;0.0043104347200922126
2.14450e-06;0.00438128756968672
2.14475e-06;0.004450963164254964
2.14500e-06;0.004520638758823209
2.14525e-06;0.004590314353391454
2.14550e-06;0.00465998994795958
2.14575e-06;0.004729665542527825
2.14600e-06;0.00479934113709607
2.14625e-06;0.0048690167316641966
2.14650e-06;0.004923044574050554
2.14675e-06;0.004968056946286016
2.14700e-06;0.005013069318521402
2.14725e-06;0.005058081690756864
2.14750e-06;0.0051030940629923265
2.14775e-06;0.005148106435227788
2.14800e-06;0.0051931188074631745
2.14825e-06;0.005232544301169759
2.14850e-06;0.005236005235555417
2.14875e-06;0.00523946616994107
2.14900e-06;0.005242927104326728
2.14925e-06;0.005246388038712387
2.14950e-06;0.005249848973098045
2.14975e-06;0.005253309907483698
2.15000e-06;0.005256770841869356
2.15025e-06;0.005260231776255015
2.15050e-06;0.005263692710640667
2.15075e-06;0.0052618225423509924
2.15100e-06;0.005225634327333661
2.15125e-06;0.005189446112316392
2.15150e-06;0.00515325789729906
2.15175e-06;0.0051170696822817295
2.15200e-06;0.005080881467264399
2.15225e-06;0.005044693252247129
2.15250e-06;0.005008505037229798
2.15275e-06;0.004972316822212467
2.15300e-06;0.0049361286071951975
2.15325e-06;0.004897687066890484
2.15350e-06;0.0048447401367601554
2.15375e-06;0.004791793206629827
2.15400e-06;0.004738846276499588
2.15425e-06;0.004685899346369259
2.15450e-06;0.0046329524162389306
2.15475e-06;0.004580005486108691
2.15500e-06;0.004527058555978363
2.15525e-06;0.004477616395538463
2.15550e-06;0.0044301935121273004
2.15575e-06;0.004382770628716058
2.15600e-06;0.004335347745304814
2.15625e-06;0.004287924861893571
2.15650e-06;0.004240501978482409
2.15675e-06;0.004193079095071165
2.15700e-06;0.00414959742118121
2.15725e-06;0.004131486598456978
2.15750e-06;0.004113375775732714
2.15775e-06;0.004095264953008451
2.15800e-06;0.0040771541302841875
2.15825e-06;0.004059043307559955
2.15850e-06;0.004040932484835691
2.15875e-06;0.0040228216621114275
2.15900e-06;0.004004710839387195
2.15925e-06;0.003986600016662932
2.15950e-06;0.0039684891939386685
2.15975e-06;0.003950378371214436
2.16000e-06;0.003955607751303013
2.16025e-06;0.003974284615691216
2.16050e-06;0.0039929614800794195
2.16075e-06;0.004011638344467591
2.16100e-06;0.004030315208855794
2.16125e-06;0.004048992073243997
2.16150e-06;0.004067668937632169
2.16175e-06;0.004086345802020372
2.16200e-06;0.004105022666408576
2.16225e-06;0.004123699530796747
2.16250e-06;0.00414237639518495
2.16275e-06;0.00416351043070346
2.16300e-06;0.0042004620782270284
2.16325e-06;0.004237413725750534
2.16350e-06;0.004274365373274101
2.16375e-06;0.004311317020797669
2.16400e-06;0.004348268668321174
2.16425e-06;0.004385220315844742
2.16450e-06;0.00442217196336831
2.16475e-06;0.004459123610891878
2.16500e-06;0.004494406775630395
2.16525e-06;0.004528728642121661
2.16550e-06;0.004563050508612926
2.16575e-06;0.004597372375104132
2.16600e-06;0.004631694241595398
2.16625e-06;0.004666016108086663
2.16650e-06;0.0047003379745778695
2.16675e-06;0.004734659841069135
2.16700e-06;0.0047656035686622624
2.16725e-06;0.004774801114341257
2.16750e-06;0.004783998660020236
2.16775e-06;0.004793196205699231
2.16800e-06;0.004802393751378225
2.16825e-06;0.004811591297057204
2.16850e-06;0.004820788842736198
2.16875e-06;0.004829986388415193
2.16900e-06;0.004839183934094187
2.16925e-06;0.004848381479773166
2.16950e-06;0.004833636776689192
2.16975e-06;0.004805097719848482
2.17000e-06;0.0047765586630078224
2.17025e-06;0.004748019606167114
2.17050e-06;0.004719480549326405
2.17075e-06;0.0046909414924857454
2.17100e-06;0.004662402435645037
2.17125e-06;0.004633863378804328
2.17150e-06;0.00460532432196362
2.17175e-06;0.004573287014173374
2.17200e-06;0.004518730324016907
2.17225e-06;0.004464173633860442
2.17250e-06;0.004409616943704068
2.17275e-06;0.004355060253547602
2.17300e-06;0.0043005035633911365
2.17325e-06;0.004245946873234671
2.17350e-06;0.004191390183078297
2.17375e-06;0.00413231742516955
2.17400e-06;0.004070642729707568
2.17425e-06;0.004008968034245691
2.17450e-06;0.00394729333878371
2.17475e-06;0.0038856186433217283
2.17500e-06;0.003823943947859851
2.17525e-06;0.00376226925239787
2.17550e-06;0.003702074786663266
2.17575e-06;0.0036514090424820634
2.17600e-06;0.0036007432983009464
2.17625e-06;0.003550077554119744
2.17650e-06;0.0034994118099385416
2.17675e-06;0.003448746065757425
2.17700e-06;0.0033980803215762226
2.17725e-06;0.0033513959682446473
2.17750e-06;0.0033303411264005434
2.17775e-06;0.003309286284556475
2.17800e-06;0.003288231442712371
2.17825e-06;0.003267176600868267
2.17850e-06;0.0032461217590241988
2.17875e-06;0.003225066917180095
2.17900e-06;0.003207657869165251
2.17925e-06;0.003213717985158267
2.17950e-06;0.0032197781011512935
2.17975e-06;0.0032280636135796066
2.18000e-06;0.0032506747287074215
2.18025e-06;0.003273285843835198
2.18050e-06;0.0032979050938944715
2.18075e-06;0.0033354513634900945
2.18100e-06;0.003372997633085654
2.18125e-06;0.003413281536268928
2.18150e-06;0.0034711884797753558
2.18175e-06;0.003529095423281784
2.18200e-06;0.0035870023667881144
2.18225e-06;0.0036449093102945422
2.18250e-06;0.0037028162538009705
2.18275e-06;0.0037607231973073004
2.18300e-06;0.0038207425863114996
2.18325e-06;0.0038943604759904033
2.18350e-06;0.003967978365669183
2.18375e-06;0.004041596255348087
2.18400e-06;0.004115214145026991
2.18425e-06;0.004188832034705894
2.18450e-06;0.004262449924384674
2.18475e-06;0.0043354002756333864
2.18500e-06;0.004404053464279234
2.18525e-06;0.004472706652924965
2.18550e-06;0.004541359841570813
2.18575e-06;0.00461001303021666
2.18600e-06;0.004678666218862508
2.18625e-06;0.004747319407508239
2.18650e-06;0.004815972596154086
2.18675e-06;0.004869679608955194
2.18700e-06;0.004914775365605083
2.18725e-06;0.004959871122255049
2.18750e-06;0.005004966878905014
2.18775e-06;0.005050062635554904
2.18800e-06;0.00509515839220487
2.18825e-06;0.005140254148854836
2.18850e-06;0.005181693949550123
2.18875e-06;0.005199599169318579
2.18900e-06;0.005217504389087067
2.18925e-06;0.0052354096088555535
2.18950e-06;0.00525331482862401
2.18975e-06;0.005271220048392497
2.19000e-06;0.005289125268160984
2.19025e-06;0.005307030487929471
2.19050e-06;0.005324935707697927
2.19075e-06;0.005342840927466414
2.19100e-06;0.005360746147234902
2.19125e-06;0.005378651367003358
2.19150e-06;0.005393794360327238
2.19175e-06;0.005391156001083567
2.19200e-06;0.005388517641839899
2.19225e-06;0.005385879282596227
2.19250e-06;0.005383240923352555
2.19275e-06;0.005380602564108884
2.19300e-06;0.005377964204865216
2.19325e-06;0.005375325845621544
2.19350e-06;0.005372687486377872
2.19375e-06;0.005370049127134205
2.19400e-06;0.005367410767890533
2.19425e-06;0.005364772408646861
2.19450e-06;0.0053615465498713065
2.19475e-06;0.0053545387649867665
2.19500e-06;0.0053475309801022134
2.19525e-06;0.00534052319521766
2.19550e-06;0.0053335154103331195
2.19575e-06;0.005326507625448567
2.19600e-06;0.005319499840564014
2.19625e-06;0.0053124920556794734
2.19650e-06;0.005305484270794921
2.19675e-06;0.005298476485910368
2.19700e-06;0.005291468701025815
2.19725e-06;0.005284460916141274
2.19750e-06;0.005277453131256722
2.19775e-06;0.005270445346372169
2.19800e-06;0.005263437561487628
2.19825e-06;0.005264460848564566
2.19850e-06;0.005270111246853903
2.19875e-06;0.0052757616451432395
2.19900e-06;0.005281412043432567
2.19925e-06;0.005287062441721903
2.19950e-06;0.00529271284001124
2.19975e-06;0.005298363238300568
2.20000e-06;0.005304013636589905
2.20025e-06;0.005309664034879241
