Time(s);Current(A)
1.40000e-05;0.0022687980265790795
1.40003e-05;0.0022622116098511523
1.40005e-05;0.002255625193123181
1.40008e-05;0.002249038776395209
1.40010e-05;0.002242452359667282
1.40013e-05;0.0022358659429393105
1.40015e-05;0.0022292795262113386
1.40018e-05;0.0022226931094834115
1.40020e-05;0.0022161066927554396
1.40023e-05;0.0022095202760274682
1.40025e-05;0.002202933859299541
1.40028e-05;0.002196347442571569
1.40030e-05;0.002189761025843598
1.40033e-05;0.0021831746091156706
1.40035e-05;0.002176588192387699
1.40038e-05;0.0021700017756597274
1.40040e-05;0.0021634153589318
1.40043e-05;0.00215585450709925
1.40045e-05;0.002146420802078216
1.40048e-05;0.002136987097057245
1.40050e-05;0.0021275533920362103
1.40053e-05;0.002118119687015176
1.40055e-05;0.0021086859819941413
1.40058e-05;0.0021004153495299636
1.40060e-05;0.0020923625842228523
1.40063e-05;0.002084309818915741
1.40065e-05;0.0020762570536086845
1.40068e-05;0.0020682042883015733
1.40070e-05;0.0020618753713195406
1.40073e-05;0.002058859671212735
1.40075e-05;0.0020558439711059083
1.40078e-05;0.002056920379779125
1.40080e-05;0.0020658617749873343
1.40083e-05;0.0020782323358921936
1.40085e-05;0.0020971937142654634
1.40088e-05;0.0021192685572397896
1.40090e-05;0.0021473274437678047
1.40093e-05;0.0021789558164439244
1.40095e-05;0.0022174447009001195
1.40098e-05;0.002260218339269006
1.40100e-05;0.0023112272259266614
1.40103e-05;0.002366867205418825
1.40105e-05;0.0024314080926703214
1.40108e-05;0.0024959489799218177
1.40110e-05;0.0025651875079711595
1.40113e-05;0.0026434548482090555
1.40115e-05;0.002721722188446951
1.40118e-05;0.0028061026185042196
1.40120e-05;0.0029022323376721674
1.40123e-05;0.002998362056840115
1.40125e-05;0.0030944917760074115
1.40128e-05;0.0031906214951753593
1.40130e-05;0.003286751214343307
1.40133e-05;0.0033865654144329977
1.40135e-05;0.0034934611449532857
1.40138e-05;0.0036003568754735737
1.40140e-05;0.003707252605993862
1.40143e-05;0.003814148336513426
1.40145e-05;0.003921044067033714
1.40148e-05;0.004025219435143863
1.40150e-05;0.004124166297639054
1.40153e-05;0.004223113160134917
1.40155e-05;0.004322060022630779
1.40158e-05;0.0044210068851259715
1.40160e-05;0.004519953747621834
1.40163e-05;0.004618900610117696
1.40165e-05;0.004690956943725488
1.40168e-05;0.004757976134078185
1.40170e-05;0.004824995324430881
1.40173e-05;0.004892014514783123
1.40175e-05;0.00495903370513582
1.40178e-05;0.005026052895488517
1.40180e-05;0.005081078214710255
1.40183e-05;0.005113051450019451
1.40185e-05;0.005145024685328648
1.40188e-05;0.005168751922770923
1.40190e-05;0.0051766304460909
1.40193e-05;0.005184508969410878
1.40195e-05;0.0051841993441813965
1.40198e-05;0.005168152190559412
1.40200e-05;0.005152105036937428
1.40203e-05;0.005128494231161189
1.40205e-05;0.005090346171961936
1.40208e-05;0.005052198112762682
1.40210e-05;0.0050038986609193346
1.40213e-05;0.0049360883478596
1.40215e-05;0.004868278034799867
1.40218e-05;0.004800467721740594
1.40220e-05;0.0047326574086808595
1.40223e-05;0.004664847095621126
1.40225e-05;0.004597036782561393
1.40228e-05;0.004507316155358353
1.40230e-05;0.0044134912804620835
1.40233e-05;0.004319666405565813
1.40235e-05;0.00422584153067018
1.40238e-05;0.0041320166557739105
1.40240e-05;0.00403819178087764
1.40243e-05;0.003942673907692021
1.40245e-05;0.003843902111045578
1.40248e-05;0.0037451303143991345
1.40250e-05;0.0036463585177533603
1.40253e-05;0.003547586721106917
1.40255e-05;0.003448814924460474
1.40258e-05;0.0033625259151804352
1.40260e-05;0.0032785751859864226
1.40263e-05;0.00319462445679241
1.40265e-05;0.0031106737275989663
1.40268e-05;0.0030267229984049537
1.40270e-05;0.002950250499571902
1.40273e-05;0.0028881510744501807
1.40275e-05;0.002826051649328039
1.40278e-05;0.0027679583823916583
1.40280e-05;0.002717564905930629
1.40283e-05;0.002667171429469258
1.40285e-05;0.0026212559895090696
1.40288e-05;0.0025839472847804406
1.40290e-05;0.0025466385800515592
1.40293e-05;0.0025136007379601647
1.40295e-05;0.0024887714452904407
1.40298e-05;0.0024639421526205484
1.40300e-05;0.00244236827848814
1.40303e-05;0.0024270512817648306
1.40305e-05;0.002411734285041417
1.40308e-05;0.0023998877427015286
1.40310e-05;0.002394711374221578
1.40313e-05;0.0023895350057416623
1.40315e-05;0.002388571294667753
1.40318e-05;0.0023957042632226535
1.40320e-05;0.0024028372317775057
1.40323e-05;0.0024099702003324065
1.40325e-05;0.002417103168887307
1.40328e-05;0.002424236137442159
1.40330e-05;0.0024313691059970597
1.40333e-05;0.00243850207455196
1.40335e-05;0.0024541828057589427
1.40338e-05;0.0024714647068502958
1.40340e-05;0.0024887466079416484
1.40343e-05;0.002506028509032884
1.40345e-05;0.002523310410124237
1.40348e-05;0.0025405923112155897
1.40350e-05;0.0025578742123068257
1.40353e-05;0.0025745477813937964
1.40355e-05;0.0025900521432860846
1.40358e-05;0.0026055565051782683
1.40360e-05;0.0026210608670705566
1.40363e-05;0.0026365652289628448
1.40365e-05;0.002652069590855028
1.40368e-05;0.0026675739527473167
1.40370e-05;0.002683078314639605
1.40373e-05;0.002698582676531788
1.40375e-05;0.002714087038424077
1.40378e-05;0.002729591400316365
1.40380e-05;0.002743512374383538
1.40383e-05;0.002754390095056514
1.40385e-05;0.00276526781572949
1.40388e-05;0.002776145536402392
1.40390e-05;0.002787023257075368
1.40393e-05;0.002797900977748344
1.40395e-05;0.0028087786984213195
1.40398e-05;0.002819656419094222
1.40400e-05;0.002830534139767198
1.40403e-05;0.002841411860440174
1.40405e-05;0.0028522895811130757
1.40408e-05;0.0028630895569797966
1.40410e-05;0.002873740108212951
1.40413e-05;0.0028843906594460326
1.40415e-05;0.002895041210679187
1.40418e-05;0.0029056917619123407
1.40420e-05;0.002916342313145423
1.40423e-05;0.0029269928643785767
1.40425e-05;0.002937643415611731
1.40428e-05;0.002948293966844813
1.40430e-05;0.002958944518077967
1.40433e-05;0.002969595069311121
1.40435e-05;0.002980245620544203
1.40438e-05;0.002990896171777357
1.40440e-05;0.003000818132986493
1.40443e-05;0.0030093397524542163
1.40445e-05;0.0030178613719219977
1.40448e-05;0.0030263829913897786
1.40450e-05;0.003034904610857502
1.40453e-05;0.0030434262303252833
1.40455e-05;0.003051947849793064
1.40458e-05;0.003060469469260788
1.40460e-05;0.003068991088728569
1.40463e-05;0.00307751270819635
1.40465e-05;0.0030860343276640735
1.40468e-05;0.0030945559471318544
1.40470e-05;0.003103077566599636
1.40473e-05;0.0031068176868500733
1.40475e-05;0.003101367819974061
1.40478e-05;0.003095917953098049
1.40480e-05;0.0030904680862220367
1.40483e-05;0.0030850182193460614
1.40485e-05;0.003079568352470049
1.40488e-05;0.0030741184855940366
1.40490e-05;0.0030686686187180613
1.40493e-05;0.003063218751842049
1.40495e-05;0.003057768884966037
1.40498e-05;0.0030523190180900615
1.40500e-05;0.0030468691512140493
1.40503e-05;0.003034262775311566
1.40505e-05;0.0030079016704346703
1.40508e-05;0.002981540565557596
1.40510e-05;0.002955179460680521
1.40513e-05;0.0029288183558036254
1.40515e-05;0.002902457250926551
1.40518e-05;0.002876096146049476
1.40520e-05;0.0028497350411725805
1.40523e-05;0.002823373936295506
1.40525e-05;0.0027970128314184313
1.40528e-05;0.0027706517265415355
1.40530e-05;0.002744290621664461
1.40533e-05;0.002715069044297812
1.40535e-05;0.0026803496713315874
1.40538e-05;0.0026456302983651277
1.40540e-05;0.002610910925398668
1.40543e-05;0.0025761915524324434
1.40545e-05;0.0025414721794659837
1.40548e-05;0.0025067528064995235
1.40550e-05;0.0024732768637423922
1.40553e-05;0.0024421907797086305
1.40555e-05;0.0024111046956748687
1.40558e-05;0.0023800186116413177
1.40560e-05;0.002348932527607556
1.40563e-05;0.002317846443573794
1.40565e-05;0.002286760359540033
1.40568e-05;0.002258557077050603
1.40570e-05;0.0022358945063505535
1.40573e-05;0.002213231935650504
1.40575e-05;0.002194270552582548
1.40578e-05;0.002182422810059765
1.40580e-05;0.002170575067536982
1.40583e-05;0.0021629694223552014
1.40585e-05;0.002163517040029078
1.40588e-05;0.0021640646577029544
1.40590e-05;0.002167374859164226
1.40593e-05;0.0021790579667505727
1.40595e-05;0.002196628608884166
1.40598e-05;0.0022141992510176407
1.40600e-05;0.002236312472276534
1.40603e-05;0.002267156478963937
1.40605e-05;0.0022980004856511306
1.40608e-05;0.0023327431060380845
1.40610e-05;0.00237497881762754
1.40613e-05;0.0024172145292167095
1.40615e-05;0.002464588207785182
1.40618e-05;0.0025218370004678847
1.40620e-05;0.0025790857931501992
1.40623e-05;0.0026363345858329023
1.40625e-05;0.002693583378515605
1.40628e-05;0.0027508321711979195
1.40630e-05;0.002808080963880622
1.40633e-05;0.0028742945232250357
1.40635e-05;0.0029421873657924594
1.40638e-05;0.0030100802083603433
1.40640e-05;0.0030779730509282277
1.40643e-05;0.0031458658934956515
1.40645e-05;0.0032137587360635354
1.40648e-05;0.003279979847544642
1.40650e-05;0.0033429879108844034
1.40653e-05;0.0034059959742237375
1.40655e-05;0.003469004037563499
1.40658e-05;0.0035320121009032603
1.40660e-05;0.0035950201642425948
1.40663e-05;0.003658028227582356
1.40665e-05;0.0037147207436759194
1.40668e-05;0.0037592748497684964
1.40670e-05;0.0038038289558613753
1.40673e-05;0.0038483830619542537
1.40675e-05;0.0038929371680468308
1.40678e-05;0.00393749127413971
1.40680e-05;0.0039820453802325885
1.40683e-05;0.004020887023334152
1.40685e-05;0.004048749377515859
1.40688e-05;0.004076611731697565
1.40690e-05;0.004104474085879084
1.40693e-05;0.00413233644006079
1.40695e-05;0.004160198794242498
1.40698e-05;0.004188061148424016
1.40700e-05;0.0042159235026057226
1.40703e-05;0.004243785856787429
1.40705e-05;0.0042716482109689475
1.40708e-05;0.004299510565150655
1.40710e-05;0.0043273729193323614
1.40713e-05;0.00435523527351388
1.40715e-05;0.004383097627695586
1.40718e-05;0.004410959981877293
1.40720e-05;0.004438822336058811
1.40723e-05;0.004466684690240519
1.40725e-05;0.004494547044422225
1.40728e-05;0.0045224093986037436
1.40730e-05;0.00455027175278545
1.40733e-05;0.004573985290987632
1.40735e-05;0.004589724852046213
1.40738e-05;0.004605464413104687
1.40740e-05;0.004621203974163268
1.40743e-05;0.004636943535221849
1.40745e-05;0.004652683096280323
1.40748e-05;0.004668422657338904
1.40750e-05;0.0046841622183974845
1.40753e-05;0.004699901779455959
1.40755e-05;0.00471564134051454
1.40758e-05;0.00473138090157312
1.40760e-05;0.004747120462631595
1.40763e-05;0.0047628600236901755
1.40765e-05;0.004778599584748757
1.40768e-05;0.004794339145807231
1.40770e-05;0.004810078706865812
1.40773e-05;0.004825818267924393
1.40775e-05;0.0048415578289828665
1.40778e-05;0.004857297390041448
1.40780e-05;0.0048730369511000285
1.40783e-05;0.004888267020432034
1.40785e-05;0.00490251785245822
1.40788e-05;0.004916768684484406
1.40790e-05;0.004931019516510495
1.40793e-05;0.004945270348536681
1.40795e-05;0.004959521180562867
1.40798e-05;0.004973772012588956
1.40800e-05;0.0049880228446151425
1.40803e-05;0.005002273676641329
1.40805e-05;0.005016524508667418
1.40808e-05;0.005030775340693604
1.40810e-05;0.00504502617271979
1.40813e-05;0.005059277004745879
1.40815e-05;0.00507477123806987
1.40818e-05;0.005094102444184216
1.40820e-05;0.005113433650298563
1.40823e-05;0.005132764856412778
1.40825e-05;0.005152096062527125
1.40828e-05;0.005171427268641471
1.40830e-05;0.005190758474755687
1.40833e-05;0.00521027380201381
1.40835e-05;0.005231234616058205
1.40838e-05;0.005252195430102457
1.40840e-05;0.005273156244146852
1.40843e-05;0.005294117058191248
1.40845e-05;0.0053150778722355005
1.40848e-05;0.005336038686279895
1.40850e-05;0.00535699950032429
1.40853e-05;0.005372947921837169
1.40855e-05;0.00538880042904101
1.40858e-05;0.005404652936244852
1.40860e-05;0.005420505443448585
1.40863e-05;0.005436357950652427
1.40865e-05;0.0054522104578562675
1.40868e-05;0.005468062965060002
1.40870e-05;0.005483915472263843
1.40873e-05;0.005499767979467684
1.40875e-05;0.005496555432337413
1.40878e-05;0.00549297806710788
1.40880e-05;0.005489400701878347
1.40883e-05;0.00548582333664884
1.40885e-05;0.005482245971419307
1.40888e-05;0.0054786686061897745
1.40890e-05;0.005475091240960266
1.40893e-05;0.0054715138757307335
1.40895e-05;0.005467936510501201
1.40898e-05;0.005434221517766836
1.40900e-05;0.005399929828433673
1.40903e-05;0.00536563813910051
1.40905e-05;0.005331346449767347
1.40908e-05;0.005297054760434417
1.40910e-05;0.0052627630711012535
1.40913e-05;0.005228471381768091
1.40915e-05;0.005194179692435161
1.40918e-05;0.0051598880031019975
1.40920e-05;0.005115320447688665
1.40923e-05;0.005059675149280208
1.40925e-05;0.005004029850871373
1.40928e-05;0.0049483845524625385
1.40930e-05;0.004892739254054081
1.40933e-05;0.004837093955645247
1.40935e-05;0.004781448657236412
1.40938e-05;0.004725803358827954
1.40940e-05;0.00467015806041912
1.40943e-05;0.004614512762010285
1.40945e-05;0.0045567003177331535
1.40948e-05;0.004498846404177611
1.40950e-05;0.004440992490622068
1.40953e-05;0.004383138577066918
1.40955e-05;0.004325284663511375
1.40958e-05;0.004267430749955832
1.40960e-05;0.004221025525199985
1.40963e-05;0.004174839376079654
1.40965e-05;0.004128653226959323
1.40968e-05;0.0040824670778393055
1.40970e-05;0.004036280928718975
1.40973e-05;0.003990094779598644
1.40975e-05;0.003949431923358965
1.40978e-05;0.003908874757728803
1.40980e-05;0.003868317592098641
1.40983e-05;0.003827760426468754
1.40985e-05;0.0037872032608385923
1.40988e-05;0.0037466460952084303
1.40990e-05;0.0037060889295782687
1.40993e-05;0.0036655317639483816
1.40995e-05;0.00362497459831822
1.40998e-05;0.003584417432688058
1.41000e-05;0.0035347043849846996
1.41003e-05;0.0034848161354980147
1.41005e-05;0.00343492788601133
1.41008e-05;0.003385039636524983
1.41010e-05;0.0033351513870382983
1.41013e-05;0.0032852631375516134
1.41015e-05;0.003235374888065267
1.41018e-05;0.003185486638578582
1.41020e-05;0.003135598389091897
1.41023e-05;0.0030857101396055504
1.41025e-05;0.0030290495434479184
1.41028e-05;0.0029722593554930158
1.41030e-05;0.0029154691675384982
1.41033e-05;0.0028586789795835956
1.41035e-05;0.002801888791628693
1.41038e-05;0.002745098603674175
1.41040e-05;0.0026883084157192723
1.41043e-05;0.002633406955208957
1.41045e-05;0.002580541608936529
1.41048e-05;0.0025276762626637423
1.41050e-05;0.0024748109163909558
1.41053e-05;0.0024219455701185275
1.41055e-05;0.002369080223845741
1.41058e-05;0.0023162148775729544
1.41060e-05;0.0022633495313005266
1.41063e-05;0.0022196200921704035
1.41065e-05;0.0021760654725948634
1.41068e-05;0.0021325108530196183
1.41070e-05;0.0020980797428792703
1.41073e-05;0.002063823215058047
1.41075e-05;0.0020295666872368243
1.41078e-05;0.0020063972737988764
1.41080e-05;0.001983440017114176
1.41083e-05;0.0019604827604294754
1.41085e-05;0.0019492880190308363
1.41088e-05;0.0019383183584754885
1.41090e-05;0.0019273486979201407
1.41093e-05;0.0019285590995164223
1.41095e-05;0.0019300025718968683
1.41098e-05;0.0019314460442773143
1.41100e-05;0.0019445650652247426
1.41103e-05;0.001957907502869572
1.41105e-05;0.001971249940514402
1.41108e-05;0.001995254254224173
1.41110e-05;0.0020194625875674405
1.41113e-05;0.002043670920910708
1.41115e-05;0.0020772871189681276
1.41118e-05;0.0021110833406068467
1.41120e-05;0.0021448795622455662
1.41123e-05;0.0021893749104788364
1.41125e-05;0.002234074991150972
1.41128e-05;0.0022787750718231076
1.41130e-05;0.0023234751524949405
1.41133e-05;0.002368175233167076
1.41135e-05;0.002412875313839212
1.41138e-05;0.00246045052101126
1.41140e-05;0.0025111252151000492
1.41143e-05;0.0025617999091888384
1.41145e-05;0.002612474603277284
1.41148e-05;0.0026631492973660732
1.41150e-05;0.0027138239914548624
1.41153e-05;0.002764498685543308
1.41155e-05;0.0028038992201069464
1.41158e-05;0.0028430840187265234
1.41160e-05;0.0028822688173458346
1.41163e-05;0.0029214536159654116
1.41165e-05;0.0029606384145849885
1.41168e-05;0.002999823213204565
1.41170e-05;0.0030390080118238767
1.41173e-05;0.0030781928104434532
1.41175e-05;0.00311737760906303
1.41178e-05;0.003156562407682342
1.41180e-05;0.003186381743542968
1.41183e-05;0.003206104783018193
1.41185e-05;0.0032258278224932845
1.41188e-05;0.00324555086196851
1.41190e-05;0.003265273901443735
1.41193e-05;0.003284996940918827
1.41195e-05;0.003304719980394052
1.41198e-05;0.003324443019869277
1.41200e-05;0.003344166059344369
1.41203e-05;0.003363889098819594
1.41205e-05;0.0033836121382948194
1.41208e-05;0.003390913127997891
1.41210e-05;0.0033979764163774933
1.41213e-05;0.0034050397047570955
1.41215e-05;0.0034121029931366495
1.41218e-05;0.0034191662815162517
1.41220e-05;0.003426229569895854
1.41223e-05;0.003433292858275408
1.41225e-05;0.00344035614665501
1.41228e-05;0.0034474194350346122
1.41230e-05;0.0034544827234141663
1.41233e-05;0.0034615460117937685
1.41235e-05;0.0034686093001733706
1.41238e-05;0.003475672588552925
1.41240e-05;0.0034798180442416862
1.41243e-05;0.0034808179742459654
1.41245e-05;0.003481817904250238
1.41248e-05;0.0034828178342545175
1.41250e-05;0.0034838177642587966
1.41253e-05;0.003484817694263076
1.41255e-05;0.0034858176242673483
1.41258e-05;0.003486817554271628
1.41260e-05;0.003487817484275907
1.41263e-05;0.0034888174142801796
1.41265e-05;0.003489817344284459
1.41268e-05;0.003490817274288738
1.41270e-05;0.003491817204293011
1.41273e-05;0.0034928171342972904
1.41275e-05;0.0034795675306963777
1.41278e-05;0.003466045256073598
1.41280e-05;0.0034525229814507266
1.41283e-05;0.003439000706827855
1.41285e-05;0.0034254784322050756
1.41288e-05;0.0034119561575822045
1.41290e-05;0.003398433882959333
1.41293e-05;0.0033849116083365534
1.41295e-05;0.003371389333713682
1.41298e-05;0.003357867059090811
1.41300e-05;0.003344344784468031
1.41303e-05;0.0033054992647858234
1.41305e-05;0.003266169173797033
1.41308e-05;0.003226839082808509
1.41310e-05;0.0031875089918197187
1.41313e-05;0.0031481789008309287
1.41315e-05;0.003108848809842405
1.41318e-05;0.0030695187188536145
1.41320e-05;0.0030301886278648244
1.41323e-05;0.0029908585368763002
1.41325e-05;0.00295152844588751
1.41328e-05;0.0029121983548987197
1.41330e-05;0.0028606324963401804
1.41333e-05;0.00280883250104767
1.41335e-05;0.00275703250575516
1.41338e-05;0.0027052325104626497
1.41340e-05;0.0026534325151704903
1.41343e-05;0.00260163251987798
1.41345e-05;0.00254983252458547
1.41348e-05;0.002500879650397013
1.41350e-05;0.002451981257108758
1.41353e-05;0.0024030828638205034
1.41355e-05;0.00235418447053258
1.41358e-05;0.0023052860772443252
1.41360e-05;0.0022563876839560705
1.41363e-05;0.002207489290668147
1.41365e-05;0.0021680978371374435
1.41368e-05;0.002128888303033772
1.41370e-05;0.0020896787689303658
1.41373e-05;0.0020593235434265248
1.41375e-05;0.0020291377489687315
1.41378e-05;0.002010219665716764
1.41380e-05;0.001991517195019238
1.41383e-05;0.0019847946564028893
1.41385e-05;0.00197830135899737
1.41388e-05;0.001983489283554442
1.41390e-05;0.0019889007333742633
1.41393e-05;0.0020062894879969363
1.41395e-05;0.0020239074335563186
1.41398e-05;0.002054741274287739
1.41400e-05;0.00208582800692094
1.41403e-05;0.0021294507407968884
1.41405e-05;0.0021733133565088754
1.41408e-05;0.0022309759227791296
1.41410e-05;0.002288902557105707
1.41413e-05;0.002346829191432284
1.41415e-05;0.0024199360874077097
1.41418e-05;0.0024933334642927266
1.41420e-05;0.0025667308411777435
1.41423e-05;0.0026568943277332844
1.41425e-05;0.002747378641089051
1.41428e-05;0.0028378629544454307
1.41430e-05;0.0029283472678018107
1.41433e-05;0.003018831581157577
1.41435e-05;0.0031093158945139565
1.41438e-05;0.0032088458889435677
1.41440e-05;0.0033085489764143176
1.41443e-05;0.003408252063885743
1.41445e-05;0.0035079551513571687
1.41448e-05;0.003607658238827919
1.41450e-05;0.0037073613262993445
1.41453e-05;0.0037929287998538677
1.41455e-05;0.0038782257822869365
1.41458e-05;0.0039635227647205834
1.41460e-05;0.00404881974715423
1.41463e-05;0.0041341167295873
1.41465e-05;0.0042194137120209465
1.41468e-05;0.0043047106944545934
1.41470e-05;0.004390007676887662
1.41473e-05;0.004434937156671287
1.41475e-05;0.004479094186732174
1.41478e-05;0.004523251216792762
1.41480e-05;0.00456740824685365
1.41483e-05;0.004611565276914537
1.41485e-05;0.004655722306975125
1.41488e-05;0.0046998793370360125
1.41490e-05;0.0047440363670969
1.41493e-05;0.004742169166130192
