Time(s);Current(A)
1.25000e-06;0.012527990901505703
1.25025e-06;0.012500756959818225
1.25050e-06;0.012473523018130725
1.25075e-06;0.012446289076443247
1.25100e-06;0.012419055134755745
1.25125e-06;0.012391821193068267
1.25150e-06;0.01236458725138079
1.25175e-06;0.012337099091385426
1.25200e-06;0.012309439911573298
1.25225e-06;0.012281780731761147
1.25250e-06;0.01225412155194902
1.25275e-06;0.012226462372136891
1.25300e-06;0.012198803192324739
1.25325e-06;0.012171144012512613
1.25350e-06;0.01214348483270046
1.25375e-06;0.012115825652888332
1.25400e-06;0.012088166473076204
1.25425e-06;0.012060507293264053
1.25450e-06;0.012035267323773892
1.25475e-06;0.012011654825214138
1.25500e-06;0.011988042326654402
1.25525e-06;0.011964429828094647
1.25550e-06;0.011940817329534913
1.25575e-06;0.011917204830975178
1.25600e-06;0.011893592332415423
1.25625e-06;0.011869979833855687
1.25650e-06;0.011846367335295932
1.25675e-06;0.011822754836736197
1.25700e-06;0.011799142338176463
1.25725e-06;0.01178379881549528
1.25750e-06;0.011774018065816669
1.25775e-06;0.01176423731613805
1.25800e-06;0.011754456566459438
1.25825e-06;0.011744675816780827
1.25850e-06;0.011734895067102208
1.25875e-06;0.011725114317423596
1.25900e-06;0.011717501655303853
1.25925e-06;0.011729883651021539
1.25950e-06;0.011742265646739233
1.25975e-06;0.01175464764245692
1.26000e-06;0.011767029638174603
1.26025e-06;0.0117794116338923
1.26050e-06;0.011791793629609984
1.26075e-06;0.01180417562532768
1.26100e-06;0.011831139455634023
1.26125e-06;0.011867912896824092
1.26150e-06;0.011904686338014192
1.26175e-06;0.011941459779204262
1.26200e-06;0.011978233220394362
1.26225e-06;0.012015006661584431
1.26250e-06;0.0120517801027745
1.26275e-06;0.012088553543964601
1.26300e-06;0.012125326985154672
1.26325e-06;0.012162100426344772
1.26350e-06;0.012198873867534842
1.26375e-06;0.01224134426659976
1.26400e-06;0.012287647169704673
1.26425e-06;0.012333950072809585
1.26450e-06;0.012380252975914536
1.26475e-06;0.012426555879019448
1.26500e-06;0.0124728587821244
1.26525e-06;0.012519161685229312
1.26550e-06;0.012565464588334225
1.26575e-06;0.012611767491439175
1.26600e-06;0.012658070394544089
1.26625e-06;0.012704373297649039
1.26650e-06;0.01274198483994472
1.26675e-06;0.01277374945899713
1.26700e-06;0.012805514078049567
1.26725e-06;0.012837278697101977
1.26750e-06;0.012869043316154414
1.26775e-06;0.012900807935206824
1.26800e-06;0.012932572554259262
1.26825e-06;0.012951036288842978
1.26850e-06;0.012960552143772154
1.26875e-06;0.012970067998701337
1.26900e-06;0.012979583853630511
1.26925e-06;0.012989099708559694
1.26950e-06;0.012998615563488868
1.26975e-06;0.013008131418418042
1.27000e-06;0.01300962725981612
1.27025e-06;0.012995606163386214
1.27050e-06;0.01297477594868528
1.27075e-06;0.012953945733984366
1.27100e-06;0.01293311551928345
1.27125e-06;0.012912285304582516
1.27150e-06;0.012891455089881602
1.27175e-06;0.012870624875180668
1.27200e-06;0.012849794660479752
1.27225e-06;0.012828964445778837
1.27250e-06;0.012808134231077904
1.27275e-06;0.012787304016376988
1.27300e-06;0.012755984938645418
1.27325e-06;0.012717609707292698
1.27350e-06;0.012679234475939946
1.27375e-06;0.012640859244587226
1.27400e-06;0.012602484013234508
1.27425e-06;0.012564108781881756
1.27450e-06;0.012525733550529036
1.27475e-06;0.012487358319176285
1.27500e-06;0.012448983087823565
1.27525e-06;0.012410607856470846
1.27550e-06;0.012372232625118093
1.27575e-06;0.012336918009578398
1.27600e-06;0.012303662356510455
1.27625e-06;0.012270406703442541
1.27650e-06;0.012237151050374628
1.27675e-06;0.012203895397306687
1.27700e-06;0.012170639744238773
1.27725e-06;0.012137384091170832
1.27750e-06;0.012106885891892002
1.27775e-06;0.012090943796683908
1.27800e-06;0.012075001701475825
1.27825e-06;0.012059059606267743
1.27850e-06;0.012043117511059647
1.27875e-06;0.012027175415851564
1.27900e-06;0.012011233320643468
1.27925e-06;0.011995291225435386
1.27950e-06;0.01199875410360105
1.27975e-06;0.012009736981750615
1.28000e-06;0.012020719859900173
1.28025e-06;0.01203170273804974
1.28050e-06;0.012042685616199296
1.28075e-06;0.012053668494348854
1.28100e-06;0.01206465137249842
1.28125e-06;0.012075634250647976
1.28150e-06;0.012086617128797543
1.28175e-06;0.012097600006947101
1.28200e-06;0.012122136718912298
1.28225e-06;0.012154878388533939
1.28250e-06;0.012187620058155579
1.28275e-06;0.012220361727777247
1.28300e-06;0.01225310339739889
1.28325e-06;0.012285845067020558
1.28350e-06;0.012318586736642198
1.28375e-06;0.012351328406263839
1.28400e-06;0.012384070075885507
1.28425e-06;0.012416811745507149
1.28450e-06;0.012451947647862076
1.28475e-06;0.012489248713528411
1.28500e-06;0.012526549779194747
1.28525e-06;0.012563850844861113
1.28550e-06;0.012601151910527448
1.28575e-06;0.012638452976193815
1.28600e-06;0.01267575404186015
1.28625e-06;0.01270809984573438
1.28650e-06;0.012735964484982548
1.28675e-06;0.012763829124230715
1.28700e-06;0.012791693763478905
1.28725e-06;0.012819558402727072
1.28750e-06;0.012847423041975262
1.28775e-06;0.01287528768122343
1.28800e-06;0.012893238343036609
1.28825e-06;0.012902223552195979
1.28850e-06;0.012911208761355342
1.28875e-06;0.012920193970514712
1.28900e-06;0.012929179179674073
1.28925e-06;0.012938164388833436
1.28950e-06;0.012947149597992806
1.28975e-06;0.012956134807152167
1.29000e-06;0.012965120016311537
1.29025e-06;0.0129741052254709
1.29050e-06;0.01298309043463027
1.29075e-06;0.012992075643789631
1.29100e-06;0.013001060852948994
1.29125e-06;0.013010046062108364
1.29150e-06;0.013019031271267726
1.29175e-06;0.013028016480427096
1.29200e-06;0.013037001689586459
1.29225e-06;0.01304598689874582
1.29250e-06;0.01305497210790519
1.29275e-06;0.013063642872480753
1.29300e-06;0.013060110676396092
1.29325e-06;0.013056578480311434
1.29350e-06;0.013053046284226776
1.29375e-06;0.013049514088142115
1.29400e-06;0.013045981892057456
1.29425e-06;0.013042449695972794
1.29450e-06;0.013038917499888137
1.29475e-06;0.013035385303803475
1.29500e-06;0.013031853107718818
1.29525e-06;0.013028320911634158
1.29550e-06;0.013024788715549497
1.29575e-06;0.01302125651946484
1.29600e-06;0.013017724323380178
1.29625e-06;0.01301419212729552
1.29650e-06;0.013010659931210861
1.29675e-06;0.0130071277351262
1.29700e-06;0.013003595539041542
1.29725e-06;0.01300006334295688
1.29750e-06;0.012996531146872223
1.29775e-06;0.01299071035193406
1.29800e-06;0.012982819920989748
1.29825e-06;0.012974929490045441
1.29850e-06;0.012967039059101128
1.29875e-06;0.012959148628156822
1.29900e-06;0.012951258197212509
1.29925e-06;0.012943367766268202
1.29950e-06;0.012935477335323896
1.29975e-06;0.012927586904379583
1.30000e-06;0.012919696473435275
1.30025e-06;0.012911806042490962
1.30050e-06;0.012903915611546656
1.30075e-06;0.01289602518060235
1.30100e-06;0.012888134749658036
1.30125e-06;0.012876892464108244
1.30150e-06;0.012862619014329675
1.30175e-06;0.012848345564551118
1.30200e-06;0.012834072114772561
1.30225e-06;0.012819798664993992
1.30250e-06;0.012805525215215436
1.30275e-06;0.012791251765436867
1.30300e-06;0.01277697831565831
1.30325e-06;0.012762704865879741
1.30350e-06;0.012748431416101184
1.30375e-06;0.012734157966322627
1.30400e-06;0.012719884516544058
1.30425e-06;0.012705611066765501
1.30450e-06;0.012691337616986934
1.30475e-06;0.012677462666875448
1.30500e-06;0.012663948089774774
1.30525e-06;0.012650433512674088
1.30550e-06;0.012636918935573414
1.30575e-06;0.012623404358472728
1.30600e-06;0.012609889781372055
1.30625e-06;0.01259637520427138
1.30650e-06;0.012582860627170693
1.30675e-06;0.01256934605007002
1.30700e-06;0.012555831472969334
1.30725e-06;0.01254231689586866
1.30750e-06;0.012528802318767974
1.30775e-06;0.012522467215675372
1.30800e-06;0.012522624686800697
1.30825e-06;0.012522782157926023
1.30850e-06;0.012522939629051346
1.30875e-06;0.012523097100176671
1.30900e-06;0.012523254571301996
1.30925e-06;0.01252341204242732
1.30950e-06;0.012523569513552645
1.30975e-06;0.01252372698467797
1.31000e-06;0.012523884455803295
1.31025e-06;0.012524041926928619
1.31050e-06;0.012524199398053944
1.31075e-06;0.01253472346022204
1.31100e-06;0.01255462228461579
1.31125e-06;0.012574521109009557
1.31150e-06;0.012594419933403305
1.31175e-06;0.012614318757797055
1.31200e-06;0.012634217582190821
1.31225e-06;0.01265411640658457
1.31250e-06;0.012674015230978336
1.31275e-06;0.012693914055372086
1.31300e-06;0.012713812879765852
1.31325e-06;0.0127337117041596
1.31350e-06;0.01275361052855335
1.31375e-06;0.012773509352947117
1.31400e-06;0.012793408177340865
1.31425e-06;0.012813307001734631
1.31450e-06;0.012833487881405118
1.31475e-06;0.012853923830571734
1.31500e-06;0.012874359779738368
1.31525e-06;0.012894795728904984
1.31550e-06;0.012915231678071615
1.31575e-06;0.012935667627238231
1.31600e-06;0.012956103576404848
1.31625e-06;0.012976539525571481
1.31650e-06;0.012996975474738097
1.31675e-06;0.01301741142390473
1.31700e-06;0.013037847373071346
1.31725e-06;0.01305828332223798
1.31750e-06;0.013078719271404594
1.31775e-06;0.01309915522057121
1.31800e-06;0.013119591169737843
1.31825e-06;0.013128338086053617
1.31850e-06;0.013126514323621875
1.31875e-06;0.013124690561190134
1.31900e-06;0.013122866798758393
1.31925e-06;0.01312104303632665
1.31950e-06;0.01311921927389491
1.31975e-06;0.01311739551146317
1.32000e-06;0.013115571749031428
1.32025e-06;0.013113747986599688
1.32050e-06;0.013111924224167945
1.32075e-06;0.013110100461736204
1.32100e-06;0.013108276699304462
1.32125e-06;0.013096483883685325
1.32150e-06;0.013075675809061962
1.32175e-06;0.013054867734438615
1.32200e-06;0.013034059659815269
1.32225e-06;0.013013251585191904
1.32250e-06;0.012992443510568557
1.32275e-06;0.012971635435945194
1.32300e-06;0.012950827361321847
1.32325e-06;0.012930019286698501
1.32350e-06;0.012909211212075137
1.32375e-06;0.012888403137451791
1.32400e-06;0.012867595062828427
1.32425e-06;0.012844356816764194
1.32450e-06;0.012818920907135326
1.32475e-06;0.012793484997506436
1.32500e-06;0.012768049087877568
1.32525e-06;0.01274261317824868
1.32550e-06;0.01271717726861981
1.32575e-06;0.012691741358990921
1.32600e-06;0.012666305449362054
1.32625e-06;0.012640869539733184
1.32650e-06;0.012615433630104296
1.32675e-06;0.01259520064754639
1.32700e-06;0.012579672799392072
1.32725e-06;0.012564144951237765
1.32750e-06;0.012548617103083458
1.32775e-06;0.01253308925492914
1.32800e-06;0.012517561406774833
1.32825e-06;0.012502033558620514
1.32850e-06;0.012486505710466207
1.32875e-06;0.0124709778623119
1.32900e-06;0.012455450014157581
1.32925e-06;0.012450067904881748
1.32950e-06;0.012453860835808347
1.32975e-06;0.012457653766734942
1.33000e-06;0.01246144669766154
1.33025e-06;0.012465239628588136
1.33050e-06;0.012469032559514731
1.33075e-06;0.01247282549044133
1.33100e-06;0.012476618421367925
1.33125e-06;0.012480411352294524
1.33150e-06;0.012484204283221119
1.33175e-06;0.012487997214147714
1.33200e-06;0.012491790145074313
1.33225e-06;0.012495583076000908
1.33250e-06;0.012499376006927507
1.33275e-06;0.012503168937854102
1.33300e-06;0.012506961868780697
1.33325e-06;0.012510754799707296
1.33350e-06;0.012514750593901405
1.33375e-06;0.012526619102700151
1.33400e-06;0.012538487611498887
1.33425e-06;0.012550356120297633
1.33450e-06;0.012562224629096369
1.33475e-06;0.012574093137895105
1.33500e-06;0.01258596164669385
1.33525e-06;0.012597830155492585
1.33550e-06;0.012609698664291331
1.33575e-06;0.012621567173090067
1.33600e-06;0.012633435681888803
1.33625e-06;0.012645304190687549
1.33650e-06;0.012657172699486284
1.33675e-06;0.01266904120828503
1.33700e-06;0.012680909717083766
1.33725e-06;0.012692778225882502
1.33750e-06;0.012704646734681248
1.33775e-06;0.012716515243479984
1.33800e-06;0.012726428391072804
1.33825e-06;0.012734573257627772
1.33850e-06;0.012742718124182748
1.33875e-06;0.012750862990737716
1.33900e-06;0.012759007857292684
1.33925e-06;0.01276715272384766
1.33950e-06;0.012775297590402628
1.33975e-06;0.012783442456957601
1.34000e-06;0.01279158732351257
1.34025e-06;0.012799732190067538
1.34050e-06;0.012807877056622513
1.34075e-06;0.012816021923177481
1.34100e-06;0.012824166789732456
1.34125e-06;0.012832311656287424
1.34150e-06;0.012840456522842391
1.34175e-06;0.012848625963593232
1.34200e-06;0.01285774907936351
1.34225e-06;0.012866872195133796
1.34250e-06;0.012875995310904075
1.34275e-06;0.01288511842667436
1.34300e-06;0.012894241542444639
1.34325e-06;0.012903364658214917
1.34350e-06;0.012912487773985203
1.34375e-06;0.012921610889755481
1.34400e-06;0.012930734005525767
1.34425e-06;0.012939857121296045
1.34450e-06;0.012948980237066324
1.34475e-06;0.01295810335283661
1.34500e-06;0.012967226468606888
1.34525e-06;0.012976349584377173
1.34550e-06;0.012985472700147452
1.34575e-06;0.012992895170108373
1.34600e-06;0.012998779704404245
1.34625e-06;0.013004664238700113
1.34650e-06;0.013010548772995985
1.34675e-06;0.013016433307291853
1.34700e-06;0.013022317841587722
1.34725e-06;0.013028202375883594
1.34750e-06;0.013034086910179462
1.34775e-06;0.013039574881926464
1.34800e-06;0.013029673060313154
1.34825e-06;0.013019771238699834
1.34850e-06;0.013009869417086522
1.34875e-06;0.012999967595473212
1.34900e-06;0.012990065773859891
1.34925e-06;0.01298016395224658
1.34950e-06;0.012970262130633261
1.34975e-06;0.01296036030901995
1.35000e-06;0.012936805775813298
1.35025e-06;0.012900904761071167
1.35050e-06;0.012865003746329068
1.35075e-06;0.012829102731586937
1.35100e-06;0.012793201716844838
1.35125e-06;0.012757300702102738
1.35150e-06;0.012721399687360607
1.35175e-06;0.012685498672618508
1.35200e-06;0.012649597657876377
1.35225e-06;0.012613238894229563
1.35250e-06;0.012559115818060405
1.35275e-06;0.012504992741891293
1.35300e-06;0.01245086966572218
1.35325e-06;0.012396746589553023
1.35350e-06;0.012342623513383912
1.35375e-06;0.012288500437214753
1.35400e-06;0.012234377361045642
1.35425e-06;0.01218025428487653
1.35450e-06;0.012126131208707373
1.35475e-06;0.012071853623728274
1.35500e-06;0.012017436312647364
1.35525e-06;0.0119630190015665
1.35550e-06;0.011908601690485635
1.35575e-06;0.011854184379404725
1.35600e-06;0.01179976706832386
1.35625e-06;0.01174534975724295
1.35650e-06;0.011698667436136062
1.35675e-06;0.011658980055941365
1.35700e-06;0.011619292675746701
1.35725e-06;0.011579605295552037
1.35750e-06;0.01153991791535734
1.35775e-06;0.011500230535162677
1.35800e-06;0.011460543154967978
1.35825e-06;0.011435019867441068
1.35850e-06;0.01142230551588156
1.35875e-06;0.011409591164322042
1.35900e-06;0.011396876812762535
1.35925e-06;0.011384162461203015
1.35950e-06;0.011371448109643507
1.35975e-06;0.011358733758084
1.36000e-06;0.011346019406524481
1.36025e-06;0.011333305054964974
1.36050e-06;0.011320590703405456
1.36075e-06;0.011307876351845948
1.36100e-06;0.011295162000286428
1.36125e-06;0.01128244764872692
1.36150e-06;0.011269733297167413
1.36175e-06;0.011257604939954598
1.36200e-06;0.011268217842410912
1.36225e-06;0.011278830744867237
1.36250e-06;0.011289443647323554
1.36275e-06;0.01130005654977987
1.36300e-06;0.011310669452236195
1.36325e-06;0.011321282354692512
1.36350e-06;0.011331895257148837
1.36375e-06;0.011342508159605153
1.36400e-06;0.01135312106206147
1.36425e-06;0.011363733964517795
1.36450e-06;0.011374346866974111
1.36475e-06;0.011384959769430436
1.36500e-06;0.011395572671886752
1.36525e-06;0.011406185574343078
1.36550e-06;0.011417008740500638
1.36575e-06;0.011428022053273907
1.36600e-06;0.011439035366047188
1.36625e-06;0.011450048678820459
1.36650e-06;0.01146106199159374
1.36675e-06;0.01147207530436701
1.36700e-06;0.011483088617140282
1.36725e-06;0.011494101929913562
1.36750e-06;0.011505115242686834
1.36775e-06;0.011516128555460114
1.36800e-06;0.011527141868233384
1.36825e-06;0.011530819108832437
1.36850e-06;0.01152786215965803
1.36875e-06;0.011524905210483626
1.36900e-06;0.01152194826130922
1.36925e-06;0.011518991312134816
1.36950e-06;0.011516034362960408
1.36975e-06;0.011513077413786004
1.37000e-06;0.0115101204646116
1.37025e-06;0.011507163515437194
1.37050e-06;0.01150420656626279
1.37075e-06;0.011501249617088382
1.37100e-06;0.011490148643478186
1.37125e-06;0.011471682829072714
1.37150e-06;0.011453217014667224
1.37175e-06;0.01143475120026175
1.37200e-06;0.011416285385856262
1.37225e-06;0.011397819571450788
1.37250e-06;0.011379353757045314
1.37275e-06;0.011360887942639824
1.37300e-06;0.011342422128234352
1.37325e-06;0.011323956313828862
1.37350e-06;0.011305490499423388
1.37375e-06;0.011287024685017898
1.37400e-06;0.011268558870612426
1.37425e-06;0.011250093056206951
1.37450e-06;0.011231616781650378
1.37475e-06;0.011212734569710335
1.37500e-06;0.011193852357770276
1.37525e-06;0.011174970145830234
1.37550e-06;0.011156087933890191
1.37575e-06;0.011137205721950132
1.37600e-06;0.01111832351001009
1.37625e-06;0.011099441298070032
1.37650e-06;0.011080559086129989
1.37675e-06;0.011061676874189947
1.37700e-06;0.011042794662249888
1.37725e-06;0.011023912450309847
1.37750e-06;0.011005030238369788
1.37775e-06;0.010986148026429745
1.37800e-06;0.010967265814489686
1.37825e-06;0.010959237851739708
1.37850e-06;0.010961025652420216
1.37875e-06;0.010962813453100724
1.37900e-06;0.010964601253781231
1.37925e-06;0.01096638905446174
1.37950e-06;0.010968176855142248
1.37975e-06;0.010969964655822754
1.38000e-06;0.010971752456503264
1.38025e-06;0.010973540257183771
1.38050e-06;0.01097532805786428
1.38075e-06;0.010977115858544786
1.38100e-06;0.01098954633238659
1.38125e-06;0.011011601236273144
1.38150e-06;0.011033656140159678
1.38175e-06;0.011055711044046233
1.38200e-06;0.011077765947932767
1.38225e-06;0.011099820851819322
1.38250e-06;0.011121875755705855
1.38275e-06;0.011143930659592391
1.38300e-06;0.011165985563478946
1.38325e-06;0.01118804046736548
1.38350e-06;0.011210095371252034
1.38375e-06;0.011235648066350374
1.38400e-06;0.011264363899724066
1.38425e-06;0.01129307973309778
1.38450e-06;0.011321795566471471
1.38475e-06;0.011350511399845185
1.38500e-06;0.011379227233218877
1.38525e-06;0.011407943066592567
1.38550e-06;0.011436658899966283
1.38575e-06;0.011465374733339972
1.38600e-06;0.011494090566713688
1.38625e-06;0.011522806400087378
1.38650e-06;0.011551129490280495
1.38675e-06;0.0115642110091327
1.38700e-06;0.011577292527984893
1.38725e-06;0.011590374046837097
1.38750e-06;0.01160345556568929
1.38775e-06;0.011616537084541493
1.38800e-06;0.011629618603393687
1.38825e-06;0.011642700122245879
1.38850e-06;0.011655781641098083
1.38875e-06;0.011668863159950277
1.38900e-06;0.011681944678802481
1.38925e-06;0.011695026197654673
1.38950e-06;0.011693059276564811
1.38975e-06;0.0116774836826065
1.39000e-06;0.011661908088648202
1.39025e-06;0.01164633249468989
1.39050e-06;0.01163075690073159
1.39075e-06;0.011615181306773293
1.39100e-06;0.011599605712814981
1.39125e-06;0.011584030118856684
1.39150e-06;0.011568454524898372
1.39175e-06;0.011552878930940072
1.39200e-06;0.01153730333698176
1.39225e-06;0.011521727743023463
1.39250e-06;0.011496700843858261
1.39275e-06;0.01146312689787399
1.39300e-06;0.011429552951889745
1.39325e-06;0.011395979005905473
1.39350e-06;0.011362405059921228
1.39375e-06;0.011328831113936984
1.39400e-06;0.01129525716795271
1.39425e-06;0.011261683221968466
1.39450e-06;0.011228109275984194
1.39475e-06;0.01119453532999995
1.39500e-06;0.011160961384015705
1.39525e-06;0.011127387438031431
1.39550e-06;0.011095720745090482
1.39575e-06;0.011065778827796855
1.39600e-06;0.011035836910503253
1.39625e-06;0.011005894993209626
1.39650e-06;0.010975953075916025
1.39675e-06;0.010946011158622423
1.39700e-06;0.010916069241328796
1.39725e-06;0.010886127324035195
1.39750e-06;0.010856185406741568
1.39775e-06;0.010834941036080214
1.39800e-06;0.010821562069894434
1.39825e-06;0.01080818310370864
1.39850e-06;0.010794804137522858
1.39875e-06;0.010781425171337065
1.39900e-06;0.010768046205151283
1.39925e-06;0.010754667238965503
1.39950e-06;0.010741288272779708
1.39975e-06;0.010727909306593928
1.40000e-06;0.010725850676163717
1.40025e-06;0.010734029302661303
1.40050e-06;0.010742207929158898
1.40075e-06;0.010750386555656483
1.40100e-06;0.01075856518215407
1.40125e-06;0.010766743808651663
1.40150e-06;0.010774922435149251
1.40175e-06;0.010783101061646844
