Time(s);Current(A)
6.80000e-06;0.003133234679634001
6.80025e-06;0.0031087266370517707
6.80050e-06;0.0030842185944696234
6.80075e-06;0.003059710551887476
6.80100e-06;0.0030352183683764436
6.80125e-06;0.0030157311282986293
6.80150e-06;0.002996243888220815
6.80175e-06;0.002976756648142935
6.80200e-06;0.0029572694080651205
6.80225e-06;0.0029377821679872403
6.80250e-06;0.002918294927909426
6.80275e-06;0.0028988076878316118
6.80300e-06;0.0028793204477537315
6.80325e-06;0.0028677056558918945
6.80350e-06;0.002863864470716573
6.80375e-06;0.002860023285541239
6.80400e-06;0.0028561821003659175
6.80425e-06;0.0028523409151905957
6.80450e-06;0.0028484997300152613
6.80475e-06;0.00284465854483994
6.80500e-06;0.0028408173596646187
6.80525e-06;0.0028370472949037656
6.80550e-06;0.0028557220281190186
6.80575e-06;0.002874396761334272
6.80600e-06;0.002893071494549589
6.80625e-06;0.0029117462277648424
6.80650e-06;0.002930420960980159
6.80675e-06;0.002949095694195412
6.80700e-06;0.0029677704274106657
6.80725e-06;0.0029864451606259825
6.80750e-06;0.003005119893841236
6.80775e-06;0.003032063867427666
6.80800e-06;0.0030671732579814663
6.80825e-06;0.0031022826485351475
6.80850e-06;0.003137392039088829
6.80875e-06;0.0031725014296426295
6.80900e-06;0.003207610820196311
6.80925e-06;0.0032427202107499923
6.80950e-06;0.0032778296013037927
6.80975e-06;0.0033129389918574743
6.81000e-06;0.003348048611328905
6.81025e-06;0.003383230474651163
6.81050e-06;0.003418412337973302
6.81075e-06;0.00345359420129556
6.81100e-06;0.0034887760646176986
6.81125e-06;0.0035239579279398377
6.81150e-06;0.0035591397912620956
6.81175e-06;0.003594321654584234
6.81200e-06;0.0036295035179063732
6.81225e-06;0.003664685381228631
6.81250e-06;0.0036998672445507697
6.81275e-06;0.0037262269975492732
6.81300e-06;0.0037438754051178705
6.81325e-06;0.0037615238126864074
6.81350e-06;0.0037791722202549444
6.81375e-06;0.003796820627823541
6.81400e-06;0.003814469035392078
6.81425e-06;0.0038321174429606156
6.81450e-06;0.0038497658505292124
6.81475e-06;0.0038674142580977493
6.81500e-06;0.003885062665666346
6.81525e-06;0.0039026507782229073
6.81550e-06;0.003901210467615122
6.81575e-06;0.0038997701570073315
6.81600e-06;0.003898329846399546
6.81625e-06;0.0038968895357917605
6.81650e-06;0.00389544922518397
6.81675e-06;0.0038940089145761843
6.81700e-06;0.0038925686039683986
6.81725e-06;0.0038911282933606086
6.81750e-06;0.003889687982752823
6.81775e-06;0.003888247672145037
6.81800e-06;0.0038868073615372467
6.81825e-06;0.0038798134428620406
6.81850e-06;0.0038673356437457698
6.81875e-06;0.003854857844629456
6.81900e-06;0.0038423800455131846
6.81925e-06;0.0038299022463968713
6.81950e-06;0.0038174244472806
6.81975e-06;0.0038049466481643287
6.82000e-06;0.0037924688490480153
6.82025e-06;0.003779991049931744
6.82050e-06;0.0037675132508154727
6.82075e-06;0.0037550354516991593
6.82100e-06;0.0037425584248581825
6.82125e-06;0.0037303251193548446
6.82150e-06;0.003718091813851465
6.82175e-06;0.0037058585083481273
6.82200e-06;0.0036936252028447894
6.82225e-06;0.00368139189734141
6.82250e-06;0.003669158591838072
6.82275e-06;0.0036569252863347342
6.82300e-06;0.0036446919808313548
6.82325e-06;0.0036305997271060876
6.82350e-06;0.0036146718649491907
6.82375e-06;0.003598744002792347
6.82400e-06;0.003582816140635504
6.82425e-06;0.003566888278478607
6.82450e-06;0.003550960416321764
6.82475e-06;0.003535032554164921
6.82500e-06;0.003519104692008024
6.82525e-06;0.003503130913006018
6.82550e-06;0.003472666297725333
6.82575e-06;0.0034422016824445442
6.82600e-06;0.0034117370671638584
6.82625e-06;0.003381272451883173
6.82650e-06;0.003350807836602384
6.82675e-06;0.0033203432213216987
6.82700e-06;0.0032898786060410134
6.82725e-06;0.0032594139907602244
6.82750e-06;0.003228949375479539
6.82775e-06;0.00319276525057323
6.82800e-06;0.00315093342662504
6.82825e-06;0.00310910160267685
6.82850e-06;0.003067269778728518
6.82875e-06;0.003025437954780328
6.82900e-06;0.002983606130832138
6.82925e-06;0.002941774306883806
6.82950e-06;0.002899942482935616
6.82975e-06;0.002858110658987426
6.83000e-06;0.0028162794014518428
6.83025e-06;0.0027746268973632194
6.83050e-06;0.0027329743932745965
6.83075e-06;0.002691321889185832
6.83100e-06;0.002649669385097209
6.83125e-06;0.0026080168810085854
6.83150e-06;0.0025663643769198215
6.83175e-06;0.0025247434614799635
6.83200e-06;0.002493091565720495
6.83225e-06;0.002461439669961134
6.83250e-06;0.002429787774201773
6.83275e-06;0.0023981358784423046
6.83300e-06;0.0023664839826829432
6.83325e-06;0.0023348320869235823
6.83350e-06;0.002303171005733265
6.83375e-06;0.002268611106638835
6.83400e-06;0.002234051207544405
6.83425e-06;0.002199491308449858
6.83450e-06;0.002164931409355428
6.83475e-06;0.0021303715102609986
6.83500e-06;0.0020958116111664516
6.83525e-06;0.0020612517120720216
6.83550e-06;0.0020266918129775917
6.83575e-06;0.0019921319138830446
6.83600e-06;0.001957572014788615
6.83625e-06;0.0019229684634001775
6.83650e-06;0.001874588742703506
6.83675e-06;0.0018262090220068346
6.83700e-06;0.0017778293013099992
6.83725e-06;0.001729449580613328
6.83750e-06;0.0016810698599166564
6.83775e-06;0.001632690139219821
6.83800e-06;0.0015843104185231495
6.83825e-06;0.001535930697826478
6.83850e-06;0.0014875509771296426
6.83875e-06;0.0014391712564329714
6.83900e-06;0.0013907748562860952
6.83925e-06;0.0013371146106736496
6.83950e-06;0.001283454365061386
6.83975e-06;0.0012297941194491222
6.84000e-06;0.0011761338738366768
6.84025e-06;0.0011224827361556978
6.84050e-06;0.001071705958366529
6.84075e-06;0.0010209291805775324
6.84100e-06;0.0009701524027885357
6.84125e-06;0.000919375624999367
6.84150e-06;0.0008686147637696756
6.84175e-06;0.0008228769882613613
6.84200e-06;0.0007771529251375317
6.84225e-06;0.0007357563351878047
6.84250e-06;0.0006943775370851861
6.84275e-06;0.0006586136442742732
6.84300e-06;0.0006228668223996501
6.84325e-06;0.000592507394489352
6.84350e-06;0.0005621570848799297
6.84375e-06;0.0005346938923908838
6.84400e-06;0.000510223959267556
6.84425e-06;0.00048576454669141465
6.84450e-06;0.00046463300363921165
6.84475e-06;0.00044594080535541845
6.84500e-06;0.0004297934981170647
6.84525e-06;0.00041688612393248607
6.84550e-06;0.0004039867910950434
6.84575e-06;0.00039363312537863304
6.84600e-06;0.0003857754840570261
6.84625e-06;0.00037792898743788355
6.84650e-06;0.0003735996325863769
6.84675e-06;0.000369281583819559
6.84700e-06;0.0003685316072125169
6.84725e-06;0.0003677901801847914
6.84750e-06;0.00036974690346597375
6.84775e-06;0.0003717105894398414
6.84800e-06;0.00037587162228790155
6.84825e-06;0.0003800394635250119
6.84850e-06;0.0003863559551605496
6.84875e-06;0.0003926798841053245
6.84900e-06;0.00040135094353375766
6.84925e-06;0.0004100220029621614
6.84950e-06;0.0004186990694247995
6.84975e-06;0.00042927188778673866
6.85000e-06;0.000439844706148642
6.85025e-06;0.0004504175245105453
6.85050e-06;0.00046099034287248446
6.85075e-06;0.00047156316123438775
6.85100e-06;0.0004821691731984617
6.85125e-06;0.0004928079620066316
6.85150e-06;0.0005034467508147656
6.85175e-06;0.0005140855396228995
6.85200e-06;0.0005247243284310694
6.85225e-06;0.0005353565634028347
6.85250e-06;0.0005439204819300504
6.85275e-06;0.0005524844004572952
6.85300e-06;0.0005610516928882984
6.85325e-06;0.0005706837510971393
6.85350e-06;0.0005803333763857866
6.85375e-06;0.0005955269728680635
6.85400e-06;0.0006107372209965016
6.85425e-06;0.0006312025398085589
6.85450e-06;0.0006516818036790164
6.85475e-06;0.0006765619698446315
6.85500e-06;0.0007014589604837097
6.85525e-06;0.0007316655641802795
6.85550e-06;0.0007618949895539267
6.85575e-06;0.0007993266773690416
6.85600e-06;0.0008367783364037818
6.85625e-06;0.0008805326858666181
6.85650e-06;0.0009243030343680984
6.85675e-06;0.0009731224980681545
6.85700e-06;0.0010219574875542277
6.85725e-06;0.0010756922389724606
6.85750e-06;0.001129447433791013
6.85775e-06;0.0011896543338313218
6.85800e-06;0.0012498612338716305
6.85825e-06;0.001310087901870204
6.85850e-06;0.0013765531132250571
6.85875e-06;0.00144301832457991
6.85900e-06;0.001509483535934988
6.85925e-06;0.001575948747289841
6.85950e-06;0.001642413958644694
6.85975e-06;0.0017096916424543841
6.86000e-06;0.0017777715978222846
6.86025e-06;0.001845851553190185
6.86050e-06;0.001913931508558316
6.86075e-06;0.0019820114639262166
6.86100e-06;0.002050060669173796
6.86125e-06;0.0021084054852466075
6.86150e-06;0.0021667503013192216
6.86175e-06;0.002225095117392033
6.86200e-06;0.0022834399334646467
6.86225e-06;0.002341784749537261
6.86250e-06;0.002400129565610072
6.86275e-06;0.002446722304299974
6.86300e-06;0.0024817105173439292
6.86325e-06;0.0025166987303880035
6.86350e-06;0.002551686943431959
6.86375e-06;0.0025866751564759148
6.86400e-06;0.0026216633695199886
6.86425e-06;0.0026565846650871473
6.86450e-06;0.0026703875641348796
6.86475e-06;0.0026841904631826584
6.86500e-06;0.002697949752110759
6.86525e-06;0.0026979461820408894
6.86550e-06;0.00269794261197102
6.86575e-06;0.0026978991859362977
6.86600e-06;0.002685277669574422
6.86625e-06;0.0026726561532125896
6.86650e-06;0.0026599975233261176
6.86675e-06;0.0026356262861424243
6.86700e-06;0.002611255048958814
6.86725e-06;0.002586837634871194
6.86750e-06;0.0025478473138033884
6.86775e-06;0.0025088569927357147
6.86800e-06;0.0024698666716680413
6.86825e-06;0.0024308763506002357
6.86850e-06;0.0023918860295325623
6.86875e-06;0.0023528957084648886
6.86900e-06;0.0023082080937267555
6.86925e-06;0.002257894716976831
6.86950e-06;0.002207581340226907
6.86975e-06;0.0021572679634768123
6.87000e-06;0.002106954586726888
6.87025e-06;0.0020566412099767934
6.87050e-06;0.0020063292341910145
6.87075e-06;0.0019564593867917317
6.87100e-06;0.0019065895393922802
6.87125e-06;0.0018567196919929976
6.87150e-06;0.001806849844593715
6.87175e-06;0.0017569799971942632
6.87200e-06;0.0017127601284863993
6.87225e-06;0.0016741193008685492
6.87250e-06;0.0016354784732505682
6.87275e-06;0.0015968376456327181
6.87300e-06;0.0015581968180148678
6.87325e-06;0.0015195982684644681
6.87350e-06;0.0014943421972247583
6.87375e-06;0.0014691129228772651
6.87400e-06;0.0014523404435926536
6.87425e-06;0.0014355952622160178
6.87450e-06;0.0014274649907625799
6.87475e-06;0.0014193626132878755
6.87500e-06;0.001420063258902291
6.87525e-06;0.00142079236147159
6.87550e-06;0.0014305021560115482
6.87575e-06;0.0014402392050687687
6.87600e-06;0.0014585774704319577
6.87625e-06;0.0014769410735826832
6.87650e-06;0.001503300994903956
6.87675e-06;0.0015296899041649472
6.87700e-06;0.001565227078136481
6.87725e-06;0.0016007642521080148
6.87750e-06;0.0016363316276110623
6.87775e-06;0.0016814302635999932
6.87800e-06;0.0017265288995889241
6.87825e-06;0.001771657947015084
6.87850e-06;0.0018263844987676215
6.87875e-06;0.0018811110505203444
6.87900e-06;0.0019358376022728819
6.87925e-06;0.0019905641540254194
6.87950e-06;0.0020452907057781425
6.87975e-06;0.0021000294458478575
6.88000e-06;0.002158614680455117
6.88025e-06;0.0022171999150625748
6.88050e-06;0.0022757851496698345
6.88075e-06;0.0023343703842770938
6.88100e-06;0.0023929556188845517
6.88125e-06;0.0024514875354045952
6.88150e-06;0.0024931928689108725
6.88175e-06;0.0025348982024172915
6.88200e-06;0.0025766035359235688
6.88225e-06;0.0026183088694298464
6.88250e-06;0.002660014202936265
6.88275e-06;0.0027017195364425423
6.88300e-06;0.002743424869948961
6.88325e-06;0.0027851302034552386
6.88350e-06;0.002826835536961516
6.88375e-06;0.0028685408704679344
6.88400e-06;0.002910246203974212
6.88425e-06;0.0029354784193426856
6.88450e-06;0.002944444342753112
6.88475e-06;0.0029534102661635084
6.88500e-06;0.002962376189573905
6.88525e-06;0.002971342112984331
6.88550e-06;0.0029803080363947276
6.88575e-06;0.0029892739598051236
6.88600e-06;0.0029982398832155504
6.88625e-06;0.0030072058066259464
6.88650e-06;0.003016171730036343
6.88675e-06;0.0030251376534467696
6.88700e-06;0.0030340349802486424
6.88725e-06;0.003021283996352977
6.88750e-06;0.0030085330124573553
6.88775e-06;0.0029957820285617335
6.88800e-06;0.0029830310446660687
6.88825e-06;0.002970280060770447
6.88850e-06;0.002957529076874825
6.88875e-06;0.00294477809297916
6.88900e-06;0.002932027109083538
6.88925e-06;0.0029152559108746702
6.88950e-06;0.002894514973652143
6.88975e-06;0.002873774036429686
6.89000e-06;0.0028530330992072293
6.89025e-06;0.0028322921619847023
6.89050e-06;0.002811551224762245
6.89075e-06;0.0027908102875397883
6.89100e-06;0.0027700693503172613
6.89125e-06;0.002749342584623167
6.89150e-06;0.002733088192325794
6.89175e-06;0.0027168338000284767
6.89200e-06;0.002700579407731159
6.89225e-06;0.0026843250154337866
6.89250e-06;0.002668070623136469
6.89275e-06;0.002651816230839151
6.89300e-06;0.0026355618385417784
6.89325e-06;0.002619307446244461
6.89350e-06;0.0026030530539471433
6.89375e-06;0.002586798661649771
6.89400e-06;0.0025705442693524532
6.89425e-06;0.00255431064263859
6.89450e-06;0.0025446303981877896
6.89475e-06;0.0025349501537370216
6.89500e-06;0.002525269909286254
6.89525e-06;0.0025155896648354535
6.89550e-06;0.0025059094203846856
6.89575e-06;0.002496229175933885
6.89600e-06;0.002486548931483117
6.89625e-06;0.002476868687032349
6.89650e-06;0.0024671884425815486
6.89675e-06;0.0024575081981307806
6.89700e-06;0.002447827953680013
6.89725e-06;0.0024381548101077505
6.89750e-06;0.0024307226231316753
6.89775e-06;0.0024232904361556
6.89800e-06;0.0024158582491795
6.89825e-06;0.0024084260622034247
6.89850e-06;0.0024009938752273495
6.89875e-06;0.002393561688251249
6.89900e-06;0.002386129501275174
6.89925e-06;0.002378697314299099
6.89950e-06;0.0023712699606075983
6.89975e-06;0.0023653679366216164
6.90000e-06;0.0023594659126356145
6.90025e-06;0.0023535638886496325
6.90050e-06;0.0023476618646636506
6.90075e-06;0.0023417598406776487
6.90100e-06;0.0023358578166916668
6.90125e-06;0.002329955792705685
6.90150e-06;0.002324053768719683
6.90175e-06;0.002318154712217484
6.90200e-06;0.0023132057388748377
6.90225e-06;0.0023125421424365915
6.90250e-06;0.0023118785459983475
6.90275e-06;0.0023112149495601035
6.90300e-06;0.002310551353121857
6.90325e-06;0.002309887756683613
6.90350e-06;0.002309224160245369
6.90375e-06;0.002308560563807123
6.90400e-06;0.002307896967368879
6.90425e-06;0.002307233370930635
6.90450e-06;0.0023065697744923887
6.90475e-06;0.0023059061780541447
6.90500e-06;0.0023052425816158986
6.90525e-06;0.0023045789851776546
6.90550e-06;0.0023039153887394106
6.90575e-06;0.0023032517923011644
6.90600e-06;0.0023026187018354233
6.90625e-06;0.0023116129495997723
6.90650e-06;0.0023206071973641516
6.90675e-06;0.0023296014451285006
6.90700e-06;0.0023385956928928496
6.90725e-06;0.0023475899406572294
6.90750e-06;0.0023565841884215784
6.90775e-06;0.0023655784361859273
6.90800e-06;0.0023745726839503067
6.90825e-06;0.0023835669317146557
6.90850e-06;0.0023925611794790047
6.90875e-06;0.002401555427243384
6.90900e-06;0.002410549675007733
6.90925e-06;0.0024195439227721128
6.90950e-06;0.0024285381705364617
6.90975e-06;0.0024375324183008107
6.91000e-06;0.0024465327806753065
6.91025e-06;0.0024574628444991677
6.91050e-06;0.002468392908323029
6.91075e-06;0.0024793229721469276
6.91100e-06;0.002490253035970789
6.91125e-06;0.00250118309979465
6.91150e-06;0.0025121131636185487
6.91175e-06;0.00252304322744241
6.91200e-06;0.0025333543916232835
6.91225e-06;0.002543054426678793
6.91250e-06;0.002552754461734269
6.91275e-06;0.0025624544967897452
6.91300e-06;0.002572154531845254
6.91325e-06;0.0025818545669007305
6.91350e-06;0.0025915546019562394
6.91375e-06;0.0026013152735611935
6.91400e-06;0.002630212150837244
6.91425e-06;0.0026591090281133925
6.91450e-06;0.0026880059053894434
6.91475e-06;0.002716902782665494
6.91500e-06;0.0027457996599416423
6.91525e-06;0.0027746965372176927
6.91550e-06;0.0028035934144937436
6.91575e-06;0.002832490291769892
6.91600e-06;0.0028613871690459426
6.91625e-06;0.002890284046321993
6.91650e-06;0.002933168255467553
6.91675e-06;0.002989864180273287
6.91700e-06;0.0030465601050790212
6.91725e-06;0.0031032560298849474
6.91750e-06;0.0031599519546906814
6.91775e-06;0.003216647879496608
6.91800e-06;0.003273343804302342
6.91825e-06;0.0033300397291080763
6.91850e-06;0.0033867356539140025
6.91875e-06;0.003443431578719737
6.91900e-06;0.0035001614583908837
6.91925e-06;0.0035676071074913136
6.91950e-06;0.003635052756591515
6.91975e-06;0.0037024984056917166
6.92000e-06;0.0037699440547921464
6.92025e-06;0.003837389703892348
6.92050e-06;0.0039048353529925494
6.92075e-06;0.0039722558842252694
6.92100e-06;0.0040317495020451575
6.92125e-06;0.0040912431198650455
6.92150e-06;0.0041507367376851356
6.92175e-06;0.0042102303555050236
6.92200e-06;0.004269723973325114
6.92225e-06;0.004329217591145002
6.92250e-06;0.004388618435238411
6.92275e-06;0.004418740946327358
6.92300e-06;0.004448863457416201
6.92325e-06;0.004478985968505046
6.92350e-06;0.004509108479593992
6.92375e-06;0.004539230990682835
6.92400e-06;0.00456935350177168
6.92425e-06;0.004599476012860626
6.92450e-06;0.004629598523949469
6.92475e-06;0.004659721035038314
6.92500e-06;0.00468984354612726
6.92525e-06;0.004719966057216103
6.92550e-06;0.004750088568304948
6.92575e-06;0.004765056476117396
6.92600e-06;0.004765060052396082
6.92625e-06;0.004765063628674768
6.92650e-06;0.004765067204953456
6.92675e-06;0.004765070781232142
6.92700e-06;0.0047650743575108285
6.92725e-06;0.004765077933789515
6.92750e-06;0.004765081510068201
6.92775e-06;0.004765085086346888
6.92800e-06;0.004765088662625575
6.92825e-06;0.004765092238904261
6.92850e-06;0.004765095815182948
6.92875e-06;0.004765056261852005
6.92900e-06;0.004751405494346836
6.92925e-06;0.004737754726841621
6.92950e-06;0.004724103959336452
6.92975e-06;0.004710453191831283
6.93000e-06;0.004696802424326068
6.93025e-06;0.004683151656820899
6.93050e-06;0.004669500889315684
6.93075e-06;0.004655850121810515
6.93100e-06;0.004642199354305346
6.93125e-06;0.004628551273494616
6.93150e-06;0.004615751082896843
6.93175e-06;0.00460295089229907
6.93200e-06;0.004590150701701254
6.93225e-06;0.004577350511103482
6.93250e-06;0.004564550320505709
6.93275e-06;0.004551750129907893
6.93300e-06;0.004538949939310121
6.93325e-06;0.0045261497487123475
6.93350e-06;0.004513349558114532
6.93375e-06;0.004500531318688174
6.93400e-06;0.004482017074319394
6.93425e-06;0.00446350282995055
6.93450e-06;0.00444498858558177
6.93475e-06;0.004426474341212927
6.93500e-06;0.004407960096844147
6.93525e-06;0.004389445852475366
6.93550e-06;0.004370931608106523
6.93575e-06;0.004352417363737743
6.93600e-06;0.004333903119368963
6.93625e-06;0.004315388875000119
6.93650e-06;0.004296874630631339
6.93675e-06;0.0042783603862625585
6.93700e-06;0.004259846141893715
6.93725e-06;0.004236349163395898
6.93750e-06;0.004207932010870796
6.93775e-06;0.004179514858345598
6.93800e-06;0.004151097705820496
6.93825e-06;0.004122680553295394
6.93850e-06;0.0040942634007701964
6.93875e-06;0.004065846248245094
6.93900e-06;0.004037429095719896
6.93925e-06;0.004009011943194795
6.93950e-06;0.0039805947906696925
6.93975e-06;0.003952177638144494
6.94000e-06;0.003923760485619393
6.94025e-06;0.0038953433330942908
6.94050e-06;0.0038669390109941485
6.94075e-06;0.003842583825014002
6.94100e-06;0.0038182286390338557
6.94125e-06;0.0037938734530536264
6.94150e-06;0.00376951826707348
6.94175e-06;0.003745163081093333
6.94200e-06;0.0037208078951131043
6.94225e-06;0.0036964527091329575
6.94250e-06;0.003672097523152811
6.94275e-06;0.0036477423371725818
6.94300e-06;0.0036233871511924354
6.94325e-06;0.0035990928259450254
6.94350e-06;0.0035940054552147664
6.94375e-06;0.003588918084484507
6.94400e-06;0.0035838307137542307
6.94425e-06;0.0035787433430239713
6.94450e-06;0.0035736559722937124
6.94475e-06;0.0035685686015634356
6.94500e-06;0.0035634812308331766
6.94525e-06;0.0035583938601029172
6.94550e-06;0.003553306489372641
6.94575e-06;0.0035482191186423815
6.94600e-06;0.0035431971465455757
6.94625e-06;0.0035588142386856476
6.94650e-06;0.003574431330825666
6.94675e-06;0.0035900484229656852
6.94700e-06;0.003605665515105757
6.94725e-06;0.003621282607245776
6.94750e-06;0.003636899699385848
6.94775e-06;0.0036525167915258667
6.94800e-06;0.0036681338836658858
6.94825e-06;0.0036837509758059577
6.94850e-06;0.003699399764793465
