Time(s);Current(A)
1.50000e-06;0.01132742951459598
1.50025e-06;0.011282477805841034
1.50050e-06;0.011244779553270974
1.50075e-06;0.011207081300700915
1.50100e-06;0.011169383048130822
1.50125e-06;0.011131684795560762
1.50150e-06;0.01109398654299067
1.50175e-06;0.01105628829042061
1.50200e-06;0.011018590037850518
1.50225e-06;0.010980891785280458
1.50250e-06;0.010943193532710399
1.50275e-06;0.010905495280140306
1.50300e-06;0.010891320852337485
1.50325e-06;0.010884314238690244
1.50350e-06;0.010877307625043006
1.50375e-06;0.01087030101139577
1.50400e-06;0.01086329439774853
1.50425e-06;0.010856287784101292
1.50450e-06;0.01084928117045405
1.50475e-06;0.010842274556806813
1.50500e-06;0.010842716522457716
1.50525e-06;0.010863664048940711
1.50550e-06;0.010884611575423687
1.50575e-06;0.01090555910190668
1.50600e-06;0.010926506628389655
1.50625e-06;0.01094745415487265
1.50650e-06;0.010968401681355626
1.50675e-06;0.010989349207838601
1.50700e-06;0.011010296734321594
1.50725e-06;0.011045535428124652
1.50750e-06;0.011085128704247027
1.50775e-06;0.011124721980369366
1.50800e-06;0.011164315256491707
1.50825e-06;0.011203908532614082
1.50850e-06;0.011243501808736421
1.50875e-06;0.011283095084858795
1.50900e-06;0.011322688360981136
1.50925e-06;0.011362281637103478
1.50950e-06;0.01140187491322585
1.50975e-06;0.011441468189348191
1.51000e-06;0.01147885778354755
1.51025e-06;0.011510180753238165
1.51050e-06;0.011541503722928805
1.51075e-06;0.01157282669261942
1.51100e-06;0.011604149662310034
1.51125e-06;0.011635472632000675
1.51150e-06;0.01166679560169129
1.51175e-06;0.01169811857138193
1.51200e-06;0.011729441541072545
1.51225e-06;0.01176076451076316
1.51250e-06;0.0117920874804538
1.51275e-06;0.011823410450144414
1.51300e-06;0.011830127717306068
1.51325e-06;0.011829347517341228
1.51350e-06;0.011828567317376385
1.51375e-06;0.011827787117411543
1.51400e-06;0.011827006917446703
1.51425e-06;0.01182622671748186
1.51450e-06;0.011825446517517019
1.51475e-06;0.011816922942692173
1.51500e-06;0.011787082249814404
1.51525e-06;0.011757241556936637
1.51550e-06;0.011727400864058844
1.51575e-06;0.011697560171181077
1.51600e-06;0.011667719478303284
1.51625e-06;0.011637878785425515
1.51650e-06;0.011608038092547748
1.51675e-06;0.01156063034891182
1.51700e-06;0.011507869846686348
1.51725e-06;0.011455109344460831
1.51750e-06;0.01140234884223536
1.51775e-06;0.011349588340009887
1.51800e-06;0.01129682783778437
1.51825e-06;0.011244067335558898
1.51850e-06;0.011191306833333381
1.51875e-06;0.01113854633110791
1.51900e-06;0.011084939272159946
1.51925e-06;0.011029001685513611
1.51950e-06;0.010973064098867278
1.51975e-06;0.010917126512220897
1.52000e-06;0.010861188925574564
1.52025e-06;0.010805251338928182
1.52050e-06;0.01074931375228185
1.52075e-06;0.010693376165635517
1.52100e-06;0.010637438578989135
1.52125e-06;0.010581500992342802
1.52150e-06;0.010535487766309708
1.52175e-06;0.010492498537147173
1.52200e-06;0.01044950930798464
1.52225e-06;0.010417643993154018
1.52250e-06;0.010389168184553434
1.52275e-06;0.010360692375952826
1.52300e-06;0.010355398638408751
1.52325e-06;0.01035716858114171
1.52350e-06;0.010358938523874667
1.52375e-06;0.010360708466607626
1.52400e-06;0.010362478409340584
1.52425e-06;0.010364248352073542
1.52450e-06;0.010377255325386619
1.52475e-06;0.010421197273662922
1.52500e-06;0.010465139221939224
1.52525e-06;0.010509081170215564
1.52550e-06;0.010553023118491867
1.52575e-06;0.010596965066768207
1.52600e-06;0.010640907015044509
1.52625e-06;0.010711636606378394
1.52650e-06;0.010790528511832955
1.52675e-06;0.010869420417287449
1.52700e-06;0.01094831232274201
1.52725e-06;0.011027204228196504
1.52750e-06;0.011106096133651065
1.52775e-06;0.011190092104770571
1.52800e-06;0.011288139309659348
1.52825e-06;0.011386186514548209
1.52850e-06;0.011484233719436986
1.52875e-06;0.011582280924325847
1.52900e-06;0.011680328129214625
1.52925e-06;0.011778375334103402
1.52950e-06;0.01187851446736677
1.52975e-06;0.011977274958273198
1.53000e-06;0.0120754211460357
1.53025e-06;0.012173567333798119
1.53050e-06;0.012265806670941416
1.53075e-06;0.01235624616439897
1.53100e-06;0.012446685657856445
1.53125e-06;0.012526876378837945
1.53150e-06;0.01260394425320995
1.53175e-06;0.012681012127582022
1.53200e-06;0.012734584655956557
1.53225e-06;0.012780998047785094
1.53250e-06;0.012827411439613669
1.53275e-06;0.012873824831442206
1.53300e-06;0.012920238223270783
1.53325e-06;0.01296665161509932
1.53350e-06;0.012976693916278585
1.53375e-06;0.012975653784183168
1.53400e-06;0.012974613652087751
1.53425e-06;0.012973573519992334
1.53450e-06;0.012972533387896919
1.53475e-06;0.012971493255801502
1.53500e-06;0.01293389466477166
1.53525e-06;0.01288515654851649
1.53550e-06;0.012836418432261278
1.53575e-06;0.012787680316006108
1.53600e-06;0.012738942199750896
1.53625e-06;0.012690204083495726
1.53650e-06;0.012631486369895724
1.53675e-06;0.012545295331222906
1.53700e-06;0.01245910429255016
1.53725e-06;0.01237291325387734
1.53750e-06;0.012286722215204594
1.53775e-06;0.012200531176531847
1.53800e-06;0.01211434013785903
1.53825e-06;0.012016379599804701
1.53850e-06;0.011914832842881416
1.53875e-06;0.011810563581032335
1.53900e-06;0.011705464759809553
1.53925e-06;0.011599478661810887
1.53950e-06;0.011493222206627858
1.53975e-06;0.011387920484097697
1.54000e-06;0.011282909672858216
1.54025e-06;0.01118072772554671
1.54050e-06;0.011079407745670344
1.54075e-06;0.010982935666214671
1.54100e-06;0.010887940763603813
1.54125e-06;0.010802073462064722
1.54150e-06;0.01071898738121548
1.54175e-06;0.01063590130036631
1.54200e-06;0.010574374559128045
1.54225e-06;0.010519417044668558
1.54250e-06;0.010464459530209117
1.54275e-06;0.01040950201574963
1.54300e-06;0.010354544501290188
1.54325e-06;0.010310519047439865
1.54350e-06;0.010296589001694265
1.54375e-06;0.010282658955948676
1.54400e-06;0.010268728910203076
1.54425e-06;0.010254798864457487
1.54450e-06;0.010240868818711899
1.54475e-06;0.010264060133146997
1.54500e-06;0.010298562491322811
1.54525e-06;0.010333064849498653
1.54550e-06;0.010367567207674467
1.54575e-06;0.010402069565850311
1.54600e-06;0.010436571924026125
1.54625e-06;0.01047107428220194
1.54650e-06;0.010505576640377783
1.54675e-06;0.010571650847431698
1.54700e-06;0.010647345137421532
1.54725e-06;0.010723039427411301
1.54750e-06;0.01079873371740107
1.54775e-06;0.010874428007390904
1.54800e-06;0.010950122297380674
1.54825e-06;0.011025816587370507
1.54850e-06;0.011101510877360277
1.54875e-06;0.011187751750980753
1.54900e-06;0.01127720621559522
1.54925e-06;0.011366660680209612
1.54950e-06;0.011456276229934625
1.54975e-06;0.01154594086301002
1.55000e-06;0.011635605496085492
1.55025e-06;0.011721591582914163
1.55050e-06;0.011806456800321708
1.55075e-06;0.011891322017729324
1.55100e-06;0.011962811222471528
1.55125e-06;0.012030224696594267
1.55150e-06;0.012097638170716952
1.55175e-06;0.012165051644839634
1.55200e-06;0.012232465118962374
1.55225e-06;0.012299878593085057
1.55250e-06;0.012352916232334858
1.55275e-06;0.012401573490686501
1.55300e-06;0.012450230749038145
1.55325e-06;0.01249888800738983
1.55350e-06;0.012547545265741474
1.55375e-06;0.01259620252409316
1.55400e-06;0.012633797991038736
1.55425e-06;0.012668022880887309
1.55450e-06;0.012702247770735853
1.55475e-06;0.012736472660584398
1.55500e-06;0.012770697550432971
1.55525e-06;0.012804922440281516
1.55550e-06;0.012839147330130089
1.55575e-06;0.012873372219978634
1.55600e-06;0.012907597109827178
1.55625e-06;0.012941821999675751
1.55650e-06;0.012976046889524296
1.55675e-06;0.013007680993299107
1.55700e-06;0.013032182794484091
1.55725e-06;0.013056684595669076
1.55750e-06;0.013081186396854082
1.55775e-06;0.013105688198039067
1.55800e-06;0.013130189999224074
1.55825e-06;0.013154691800409058
1.55850e-06;0.013179193601594063
1.55875e-06;0.01320369540277905
1.55900e-06;0.013228197203964034
1.55925e-06;0.013252699005149039
1.55950e-06;0.013277200806334025
1.55975e-06;0.013296702229194176
1.56000e-06;0.013314680014513266
1.56025e-06;0.013332657799832356
1.56050e-06;0.013350635585151462
1.56075e-06;0.013368613370470551
1.56100e-06;0.013386591155789657
1.56125e-06;0.013399276450541633
1.56150e-06;0.013410349099851667
1.56175e-06;0.01342142174916171
1.56200e-06;0.013432494398471741
1.56225e-06;0.013443567047781784
1.56250e-06;0.013454639697091816
1.56275e-06;0.013449982720171736
1.56300e-06;0.013440532856099278
1.56325e-06;0.013431082992026819
1.56350e-06;0.01342163312795435
1.56375e-06;0.013412183263881891
1.56400e-06;0.013402733399809425
1.56425e-06;0.013393283535736966
1.56450e-06;0.013363398058990438
1.56475e-06;0.013327285760067527
1.56500e-06;0.013291173461144648
1.56525e-06;0.013255061162221738
1.56550e-06;0.013218948863298859
1.56575e-06;0.01318283656437598
1.56600e-06;0.01314672426545307
1.56625e-06;0.01309174776363991
1.56650e-06;0.013031023255208636
1.56675e-06;0.012970298746777414
1.56700e-06;0.01290957423834614
1.56725e-06;0.012848849729914917
1.56750e-06;0.012788125221483693
1.56775e-06;0.012727400713052419
1.56800e-06;0.012666676204621197
1.56825e-06;0.012605951696189922
1.56850e-06;0.012538640543696265
1.56875e-06;0.012469322411428207
1.56900e-06;0.012400004279160092
1.56925e-06;0.012330686146892034
1.56950e-06;0.012261368014623917
1.56975e-06;0.012192049882355858
1.57000e-06;0.0121227317500878
1.57025e-06;0.012053413617819685
1.57050e-06;0.011984095485551627
1.57075e-06;0.011921785263746085
1.57100e-06;0.011861610383462872
1.57125e-06;0.01180143550317961
1.57150e-06;0.011744298921750837
1.57175e-06;0.011695526622886875
1.57200e-06;0.011646754324022872
1.57225e-06;0.011597982025158911
1.57250e-06;0.011550785736244426
1.57275e-06;0.011504069664579139
1.57300e-06;0.011457353592913852
1.57325e-06;0.011409262381765093
1.57350e-06;0.011360752159492657
1.57375e-06;0.01131224193722018
1.57400e-06;0.011263731714947746
1.57425e-06;0.01121522149267531
1.57450e-06;0.011165064361750186
1.57475e-06;0.011110373374878461
1.57500e-06;0.011055682388006692
1.57525e-06;0.011000991401134969
1.57550e-06;0.010946300414263244
1.57575e-06;0.010891609427391475
1.57600e-06;0.01083083242137984
1.57625e-06;0.0107682009782369
1.57650e-06;0.01070556953509401
1.57675e-06;0.010642938091951071
1.57700e-06;0.010580306648808182
1.57725e-06;0.010517675205665294
1.57750e-06;0.010455043762522353
1.57775e-06;0.010392412319379466
1.57800e-06;0.010329157562939577
1.57825e-06;0.010264186856623973
1.57850e-06;0.010199216150308367
1.57875e-06;0.010134245443992707
1.57900e-06;0.010069274737677103
1.57925e-06;0.010004304031361443
1.57950e-06;0.009939333325045839
1.57975e-06;0.009874362618730233
1.58000e-06;0.009809391912414573
1.58025e-06;0.009752285893746123
1.58050e-06;0.009697576280422867
1.58075e-06;0.009642866667099655
1.58100e-06;0.009588157053776396
1.58125e-06;0.009533447440453185
1.58150e-06;0.009478737827129973
1.58175e-06;0.0094366421059276
1.58200e-06;0.009398389893820419
1.58225e-06;0.009360137681713204
1.58250e-06;0.009321885469606023
1.58275e-06;0.009283633257498841
1.58300e-06;0.009245381045391627
1.58325e-06;0.009225561110081024
1.58350e-06;0.009211357571583723
1.58375e-06;0.009197154033086435
1.58400e-06;0.009182950494589146
1.58425e-06;0.009168746956091845
1.58450e-06;0.009154543417594556
1.58475e-06;0.009140339879097254
1.58500e-06;0.009126136340599965
1.58525e-06;0.009111932802102665
1.58550e-06;0.009097729263605376
1.58575e-06;0.009083525725108087
1.58600e-06;0.009069322186610785
1.58625e-06;0.009055118648113496
1.58650e-06;0.009040915109616195
1.58675e-06;0.009026711571118905
1.58700e-06;0.009027398197739138
1.58725e-06;0.009032621923971989
1.58750e-06;0.009037845650204835
1.58775e-06;0.009043069376437686
1.58800e-06;0.009048293102670532
1.58825e-06;0.00905351682890338
1.58850e-06;0.00905874055513623
1.58875e-06;0.009063964281369076
1.58900e-06;0.009069188007601928
1.58925e-06;0.009074411733834775
1.58950e-06;0.009079635460067625
1.58975e-06;0.009084859186300472
1.59000e-06;0.009090082912533319
1.59025e-06;0.00909530663876617
1.59050e-06;0.009100530364999016
1.59075e-06;0.009106922422265632
1.59100e-06;0.009113670475200437
1.59125e-06;0.009120418528135244
1.59150e-06;0.009127166581070054
1.59175e-06;0.00913391463400486
1.59200e-06;0.00914066268693967
1.59225e-06;0.009147410739874478
1.59250e-06;0.009154158792809283
1.59275e-06;0.009160906845744094
1.59300e-06;0.009174029935122242
1.59325e-06;0.009189095526490665
1.59350e-06;0.009204161117859074
1.59375e-06;0.009219226709227498
1.59400e-06;0.009234292300595907
1.59425e-06;0.009249357891964318
1.59450e-06;0.009264423483332741
1.59475e-06;0.009279489074701152
1.59500e-06;0.009294554666069575
1.59525e-06;0.009321821939027
1.59550e-06;0.009352807118694672
1.59575e-06;0.00938379229836237
1.59600e-06;0.00941477747803004
1.59625e-06;0.009445762657697738
1.59650e-06;0.00947674783736541
1.59675e-06;0.00950773301703308
1.59700e-06;0.009538718196700779
1.59725e-06;0.009569703376368451
1.59750e-06;0.009600688556036149
1.59775e-06;0.00963167373570382
1.59800e-06;0.009662658915371517
1.59825e-06;0.009697497764833314
1.59850e-06;0.009733510844640476
1.59875e-06;0.00976952392444767
1.59900e-06;0.009805537004254832
1.59925e-06;0.009841550084062024
1.59950e-06;0.009877563163869186
1.59975e-06;0.009913576243676349
1.60000e-06;0.009949589323483542
1.60025e-06;0.009985602403290704
1.60050e-06;0.010021615483097896
1.60075e-06;0.010057628562905058
1.60100e-06;0.01009364164271222
1.60125e-06;0.010122254598648257
1.60150e-06;0.010148612703890508
1.60175e-06;0.010174970809132784
1.60200e-06;0.010201328914375037
1.60225e-06;0.01022768701961731
1.60250e-06;0.010255260901049994
1.60275e-06;0.010283205234901331
1.60300e-06;0.010311149568752691
1.60325e-06;0.010339093902604029
1.60350e-06;0.01036703823645539
1.60375e-06;0.01040337101200581
1.60400e-06;0.01044225978309274
1.60425e-06;0.010481148554179705
1.60450e-06;0.010520037325266636
1.60475e-06;0.0105589260963536
1.60500e-06;0.010597814867440531
1.60525e-06;0.010636703638527463
1.60550e-06;0.010675592409614427
1.60575e-06;0.010726637336513417
1.60600e-06;0.010781386298215453
1.60625e-06;0.010836135259917442
1.60650e-06;0.010890884221619478
1.60675e-06;0.010945633183321467
1.60700e-06;0.011000382145023456
1.60725e-06;0.011055131106725492
1.60750e-06;0.011109880068427481
1.60775e-06;0.011170298840419196
1.60800e-06;0.011232445228851758
1.60825e-06;0.011294591617284319
1.60850e-06;0.011356738005716934
1.60875e-06;0.011418884394149497
1.60900e-06;0.01148103078258211
1.60925e-06;0.011543177171014673
1.60950e-06;0.011605323559447234
1.60975e-06;0.011664971673151264
1.61000e-06;0.011717742163306762
1.61025e-06;0.011770512653462305
1.61050e-06;0.011823283143617802
1.61075e-06;0.011876053633773346
1.61100e-06;0.011928824123928844
1.61125e-06;0.01198159461408434
1.61150e-06;0.012034365104239884
1.61175e-06;0.01208713559439538
1.61200e-06;0.012117751731155863
1.61225e-06;0.012141617337791672
1.61250e-06;0.01216548294442748
1.61275e-06;0.01218934855106331
1.61300e-06;0.01221321415769912
1.61325e-06;0.012237079764334947
1.61350e-06;0.012231326292402554
1.61375e-06;0.012216547755347697
1.61400e-06;0.012201769218292828
1.61425e-06;0.01218699068123797
1.61450e-06;0.012172212144183103
1.61475e-06;0.012157433607128246
1.61500e-06;0.012110556099994488
1.61525e-06;0.012053897893752968
1.61550e-06;0.011997239687511497
1.61575e-06;0.011940581481269977
1.61600e-06;0.011883923275028506
1.61625e-06;0.011827265068786987
1.61650e-06;0.011770606862545515
1.61675e-06;0.011688644799370783
1.61700e-06;0.011598972538319938
1.61725e-06;0.01150930027726917
1.61750e-06;0.011419628016218323
1.61775e-06;0.011329955755167554
1.61800e-06;0.011240283494116784
1.61825e-06;0.01115061123306594
1.61850e-06;0.011051379408590425
1.61875e-06;0.010949234742574237
1.61900e-06;0.010847090076558135
1.61925e-06;0.01074422088445389
1.61950e-06;0.010641130926024468
1.61975e-06;0.010538040967595131
1.62000e-06;0.01043820982995494
1.62025e-06;0.010339371669519582
1.62050e-06;0.010240533509084139
1.62075e-06;0.010148810932447128
1.62100e-06;0.010059256505876394
1.62125e-06;0.009969702079305585
1.62150e-06;0.009899658205918097
1.62175e-06;0.009835559284958353
1.62200e-06;0.009771460363998665
1.62225e-06;0.009707361443038976
1.62250e-06;0.009643262522079234
1.62275e-06;0.009579163601119545
1.62300e-06;0.009525568348010683
1.62325e-06;0.009500889159465748
1.62350e-06;0.009476209970920812
1.62375e-06;0.009451530782375856
1.62400e-06;0.009426851593830922
1.62425e-06;0.009402172405285965
1.62450e-06;0.00937749321674103
1.62475e-06;0.009387194865343774
1.62500e-06;0.009407372508109572
1.62525e-06;0.00942755015087537
1.62550e-06;0.009447727793641184
1.62575e-06;0.00946790543640698
1.62600e-06;0.009488083079172795
1.62625e-06;0.009508260721938592
1.62650e-06;0.009528438364704388
1.62675e-06;0.009548616007470203
1.62700e-06;0.009577847820977868
1.62725e-06;0.009632005307065313
1.62750e-06;0.009686162793152714
1.62775e-06;0.009740320279240114
1.62800e-06;0.00979447776532756
1.62825e-06;0.00984863525141496
1.62850e-06;0.009902792737502405
1.62875e-06;0.009956950223589806
1.62900e-06;0.010011107709677251
1.62925e-06;0.010065265195764651
1.62950e-06;0.010123473252928632
1.62975e-06;0.010182915537135231
1.63000e-06;0.010242357821341782
1.63025e-06;0.01030180010554838
1.63050e-06;0.01036124238975493
1.63075e-06;0.01042068467396148
1.63100e-06;0.010469624661044213
1.63125e-06;0.010515364551430874
1.63150e-06;0.010561104441817574
1.63175e-06;0.010606844332204234
1.63200e-06;0.010652584222590895
1.63225e-06;0.010698324112977595
1.63250e-06;0.010721410183640524
1.63275e-06;0.01073759353456563
1.63300e-06;0.010753776885490722
1.63325e-06;0.010769960236415828
1.63350e-06;0.010786143587340922
1.63375e-06;0.010802326938266014
1.63400e-06;0.01081851028919112
1.63425e-06;0.010834693640116215
1.63450e-06;0.01085087699104132
1.63475e-06;0.010867060341966413
1.63500e-06;0.010883243692891505
1.63525e-06;0.010899427043816613
1.63550e-06;0.010915610394741706
1.63575e-06;0.010924002206184821
1.63600e-06;0.010910944304833282
1.63625e-06;0.010897886403481742
1.63650e-06;0.01088482850213019
1.63675e-06;0.010871770600778652
1.63700e-06;0.0108587126994271
1.63725e-06;0.01084565479807556
1.63750e-06;0.010832596896724011
1.63775e-06;0.01081953899537247
1.63800e-06;0.010806481094020931
1.63825e-06;0.01079342319266938
1.63850e-06;0.01078036529131784
1.63875e-06;0.010767307389966289
1.63900e-06;0.01075424948861475
1.63925e-06;0.010735159231914856
1.63950e-06;0.010714230889680836
1.63975e-06;0.010693302547446833
1.64000e-06;0.010672374205212812
1.64025e-06;0.010651445862978809
1.64050e-06;0.010631145314147748
1.64075e-06;0.010612573048696125
1.64100e-06;0.010594000783244519
1.64125e-06;0.010575428517792897
1.64150e-06;0.010556856252341292
1.64175e-06;0.01053828398688967
1.64200e-06;0.010519333471633835
1.64225e-06;0.01050026770197847
1.64250e-06;0.010481201932323091
1.64275e-06;0.010462136162667727
1.64300e-06;0.010443070393012347
1.64325e-06;0.010424004623356983
1.64350e-06;0.010404938853701619
1.64375e-06;0.01037649809376948
1.64400e-06;0.010345200732557363
1.64425e-06;0.010313903371345218
1.64450e-06;0.0102826060101331
1.64475e-06;0.010251308648920984
1.64500e-06;0.01022001128770884
1.64525e-06;0.010188713926496722
1.64550e-06;0.010145127950194751
1.64575e-06;0.010097797578159248
1.64600e-06;0.010050467206123705
1.64625e-06;0.010003136834088202
1.64650e-06;0.0099558064620527
1.64675e-06;0.009908476090017155
1.64700e-06;0.009861145717981652
1.64725e-06;0.009813815345946109
1.64750e-06;0.009766484973910604
1.64775e-06;0.0097191546018751
1.64800e-06;0.009666233244040864
1.64825e-06;0.009611608287939685
1.64850e-06;0.00955698333183846
1.64875e-06;0.00950235837573728
1.64900e-06;0.0094477334196361
1.64925e-06;0.009393108463534874
1.64950e-06;0.009338483507433696
1.64975e-06;0.00928385855133247
1.65000e-06;0.009229233595231291
1.65025e-06;0.009174608639130112
1.65050e-06;0.00912807835769774
1.65075e-06;0.009084014559678878
1.65100e-06;0.009039950761659974
1.65125e-06;0.008995886963641111
1.65150e-06;0.00895182316562221
1.65175e-06;0.008907759367603345
1.65200e-06;0.008863695569584482
