Time(s);Current(A)
1.05000e-05;-0.0028555612127078005
1.05002e-05;-0.0028954069539278726
1.05005e-05;-0.002931792271795514
1.05008e-05;-0.0029644984309608164
1.05010e-05;-0.00299198200360079
1.05013e-05;-0.0030181391294314404
1.05015e-05;-0.003036779029548472
1.05017e-05;-0.003053128397345773
1.05020e-05;-0.0030694777651431846
1.05023e-05;-0.0030763687959879846
1.05025e-05;-0.003080377829230828
1.05028e-05;-0.0030843868624736985
1.05030e-05;-0.003079137665965703
1.05033e-05;-0.0030710674454157653
1.05035e-05;-0.0030629972248658825
1.05038e-05;-0.0030463945498232893
1.05040e-05;-0.003027191997708366
1.05043e-05;-0.003007989445593572
1.05045e-05;-0.0029810611731924193
1.05048e-05;-0.0029517788392422178
1.05050e-05;-0.0029224965052922144
1.05053e-05;-0.0028868372711509317
1.05055e-05;-0.002849234966980403
1.05058e-05;-0.0028116326628101285
1.05060e-05;-0.0027698196605470096
1.05063e-05;-0.002726723639729253
1.05065e-05;-0.002681051625341054
1.05068e-05;-0.0026345946941821537
1.05070e-05;-0.0025867167282602635
1.05073e-05;-0.002537757083857765
1.05075e-05;-0.0024881688147972473
1.05078e-05;-0.0024382363313736914
1.05080e-05;-0.0023882443310886793
1.05083e-05;-0.002338476851999928
1.05085e-05;-0.002289222711393943
1.05087e-05;-0.0022407888453706342
1.05090e-05;-0.002193503843278783
1.05093e-05;-0.0021477009945216814
1.05095e-05;-0.0021037099106567263
1.05098e-05;-0.002061858937266809
1.05100e-05;-0.002022476187105092
1.05102e-05;-0.001985890075458123
1.05105e-05;-0.0019524302863191286
1.05108e-05;-0.0019223991966475075
1.05110e-05;-0.0018960075952416165
1.05113e-05;-0.0018733625900961806
1.05115e-05;-0.0018545232375548786
1.05118e-05;-0.0018395413152479504
1.05120e-05;-0.0018284685387662766
1.05123e-05;-0.0018228990250841516
1.05125e-05;-0.0018187273402341302
1.05128e-05;-0.0018207462042560418
1.05130e-05;-0.0018246513562267396
1.05133e-05;-0.0018359740074766404
1.05135e-05;-0.001849556803955844
1.05138e-05;-0.0018631396004351395
1.05140e-05;-0.0018836034018854745
1.05143e-05;-0.0019061638763481288
1.05145e-05;-0.0019325733509721718
1.05148e-05;-0.001962587435346963
1.05150e-05;-0.001995637428148967
1.05153e-05;-0.0020315149463403163
1.05155e-05;-0.002069992889545919
1.05158e-05;-0.002110840864180168
1.05160e-05;-0.0021538283679063933
1.05163e-05;-0.0021987256122059057
1.05165e-05;-0.0022453023122449506
1.05168e-05;-0.0022933218982271945
1.05170e-05;-0.00234252542928292
1.05172e-05;-0.0023926280812918465
1.05175e-05;-0.0024433338735944765
1.05178e-05;-0.0024943445348090923
1.05180e-05;-0.0025453621114142786
1.05183e-05;-0.002596088099198703
1.05185e-05;-0.002646225025629099
1.05187e-05;-0.00269547080207228
1.05190e-05;-0.002743509147086011
1.05193e-05;-0.0027900083189795386
1.05195e-05;-0.0028346289371676396
1.05198e-05;-0.002877030370419263
1.05200e-05;-0.0029157305020245422
1.05203e-05;-0.0029534664121794217
1.05205e-05;-0.0029865985480264884
1.05208e-05;-0.003018327893236385
1.05210e-05;-0.0030451962471846083
1.05213e-05;-0.003070583435338044
1.05215e-05;-0.003095970623491651
1.05218e-05;-0.0031190534210444308
1.05220e-05;-0.0031357923477700455
1.05223e-05;-0.003152531274495774
1.05225e-05;-0.0031692702012215018
1.05228e-05;-0.003179966209973947
1.05230e-05;-0.003188820914572533
1.05233e-05;-0.0031976756191711185
1.05235e-05;-0.003201983535995926
1.05238e-05;-0.0032049060262350822
1.05240e-05;-0.003207828516474239
1.05243e-05;-0.0032061290300266962
1.05245e-05;-0.0032030212065951975
1.05248e-05;-0.0031999133831636987
1.05250e-05;-0.0031932296844871403
1.05253e-05;-0.003185456400618095
1.05255e-05;-0.0031776831167490494
1.05257e-05;-0.0031670230307101364
1.05260e-05;-0.0031554833231289344
1.05263e-05;-0.0031439436155477323
1.05265e-05;-0.003130033315754056
1.05268e-05;-0.003115400685902556
1.05270e-05;-0.0031007680560510556
1.05272e-05;-0.003084932701017853
1.05275e-05;-0.00306873087023834
1.05278e-05;-0.0030525290394588273
1.05280e-05;-0.0030358038010492457
1.05283e-05;-0.0030189190779918965
1.05285e-05;-0.003002034354934547
1.05288e-05;-0.002985539793332629
1.05290e-05;-0.002969164115672632
1.05293e-05;-0.0029527884380125243
1.05295e-05;-0.0029375601348352685
1.05298e-05;-0.002922681441798634
1.05300e-05;-0.002909130005580646
1.05303e-05;-0.0028959829904560866
1.05305e-05;-0.0028853880559722525
1.05308e-05;-0.002875570751882587
1.05310e-05;-0.0028657534477929216
1.05313e-05;-0.0028604075641092074
1.05315e-05;-0.0028564241422371303
1.05318e-05;-0.0028524407203650527
1.05320e-05;-0.002853787770074208
1.05323e-05;-0.0028567590383332016
1.05325e-05;-0.0028597303065921956
1.05328e-05;-0.0028627015748511693
1.05330e-05;-0.0028721668095819416
1.05333e-05;-0.0028836107849635143
1.05335e-05;-0.0028950547603450094
1.05338e-05;-0.002906498735726582
1.05340e-05;-0.0029231645037780525
1.05342e-05;-0.002941421375428545
1.05345e-05;-0.0029596782470791617
1.05348e-05;-0.002981227221261857
1.05350e-05;-0.00300377931382134
1.05353e-05;-0.0030287511628627663
1.05355e-05;-0.0030544603225350266
1.05357e-05;-0.003081689380872641
1.05360e-05;-0.003110228505135093
1.05363e-05;-0.003139748082252904
1.05365e-05;-0.0031701007650859533
1.05368e-05;-0.003201178627116261
1.05370e-05;-0.003232882917496992
1.05373e-05;-0.0032650671598788974
1.05375e-05;-0.0032975435216275467
1.05378e-05;-0.0033301163162508204
1.05380e-05;-0.003362589787553133
1.05383e-05;-0.003394767589598858
1.05385e-05;-0.003426463742152391
1.05388e-05;-0.003457516352357946
1.05390e-05;-0.00348776971089066
1.05393e-05;-0.0035170378952063294
1.05395e-05;-0.003545109375393118
1.05398e-05;-0.0035717676189522493
1.05400e-05;-0.0035967957364760974
1.05403e-05;-0.003619977265168683
1.05405e-05;-0.0036410796659843664
1.05408e-05;-0.0036588544165736796
1.05410e-05;-0.003675767118113375
1.05413e-05;-0.0036875715241716416
1.05415e-05;-0.0036978194097316607
1.05418e-05;-0.00370806729529168
1.05420e-05;-0.0037103693664399364
1.05423e-05;-0.003710250312370814
1.05425e-05;-0.0037101312583016923
1.05427e-05;-0.003710012204232571
1.05430e-05;-0.0037065799579425254
1.05433e-05;-0.0036940266609592643
1.05435e-05;-0.0036814733639760886
1.05438e-05;-0.0036689200669928275
1.05440e-05;-0.0036563667700095664
1.05442e-05;-0.0036367103811850094
1.05445e-05;-0.0036148896484821977
1.05448e-05;-0.003593068915779386
1.05450e-05;-0.003566384995123551
1.05453e-05;-0.0035382192393300987
1.05455e-05;-0.0035100534835366464
1.05458e-05;-0.0034781060347466204
1.05460e-05;-0.0034450062871735085
1.05463e-05;-0.0034119065396001724
1.05465e-05;-0.0033761990335206024
1.05468e-05;-0.0033396969317517995
1.05470e-05;-0.00330319482998275
1.05473e-05;-0.0032653631217415898
1.05475e-05;-0.0032271262764571483
1.05478e-05;-0.003188889431172448
1.05480e-05;-0.00315064919524848
1.05483e-05;-0.0031124079261818094
1.05485e-05;-0.003074943113507155
1.05488e-05;-0.0030377148905707634
1.05490e-05;-0.0030019389319693246
1.05493e-05;-0.002966605484810988
1.05495e-05;-0.0029341767447767517
1.05498e-05;-0.002902633082005383
1.05500e-05;-0.0028710894192338003
1.05503e-05;-0.0028434736335989407
1.05505e-05;-0.0028170546897096807
1.05508e-05;-0.0027930096394442297
1.05510e-05;-0.002769687925191996
1.05512e-05;-0.002747788375915472
1.05515e-05;-0.002726322166672731
1.05518e-05;-0.00270485595742999
1.05520e-05;-0.0026858849017788256
1.05523e-05;-0.002667674130595653
1.05525e-05;-0.0026494633594124797
1.05527e-05;-0.002633571226330277
1.05530e-05;-0.0026183855926560132
1.05533e-05;-0.002603199958981749
1.05535e-05;-0.002588014325307588
1.05538e-05;-0.002572828691633324
1.05540e-05;-0.0025597834436102617
1.05543e-05;-0.0025473903806759826
1.05545e-05;-0.002534997317741787
1.05548e-05;-0.0025226042548075075
1.05550e-05;-0.0025102111918732283
1.05553e-05;-0.002500766773709111
1.05555e-05;-0.002492220820805237
1.05558e-05;-0.002483674867901363
1.05560e-05;-0.0024751289149975474
1.05563e-05;-0.0024665829620936735
1.05565e-05;-0.0024580370091897997
1.05568e-05;-0.002449491056285984
1.05570e-05;-0.00244094510338211
1.05573e-05;-0.0024323991504782362
1.05575e-05;-0.0024238531975744205
1.05578e-05;-0.0024153072446705466
1.05580e-05;-0.0024067612917666728
1.05583e-05;-0.002398215338862857
1.05585e-05;-0.002389669385958983
1.05588e-05;-0.0023811234330551097
1.05590e-05;-0.0023725774801512936
1.05593e-05;-0.0023640315272474197
1.05595e-05;-0.002359070960173196
1.05597e-05;-0.0023552028762105996
1.05600e-05;-0.002351334792247977
1.05603e-05;-0.002347466708285354
1.05605e-05;-0.0023435986243227572
1.05608e-05;-0.0023397305403601346
1.05610e-05;-0.002335862456397512
1.05612e-05;-0.0023319943724349154
1.05615e-05;-0.0023281262884722923
1.05618e-05;-0.0023242582045096697
1.05620e-05;-0.002320390120547073
1.05623e-05;-0.00231652203658445
1.05625e-05;-0.0023126539526218274
1.05628e-05;-0.0023087858686592043
1.05630e-05;-0.002304917784696608
1.05633e-05;-0.002301049700733985
1.05635e-05;-0.0022971816167713624
1.05638e-05;-0.0022952339759600396
1.05640e-05;-0.00229387150277352
1.05643e-05;-0.002292509029587001
1.05645e-05;-0.0022911465564004908
1.05648e-05;-0.0022897840832139713
1.05650e-05;-0.002288421610027452
1.05653e-05;-0.002287059136840942
1.05655e-05;-0.0022856966636544225
1.05658e-05;-0.002284334190467903
1.05660e-05;-0.0022829717172813927
1.05663e-05;-0.002281609244094873
1.05665e-05;-0.0022802467709083537
1.05668e-05;-0.002278884297721844
1.05670e-05;-0.0022777455247401986
1.05673e-05;-0.002277222587114552
1.05675e-05;-0.002276699649488909
1.05678e-05;-0.0022761767118632623
1.05680e-05;-0.0022756537742376157
1.05682e-05;-0.002275130836611973
1.05685e-05;-0.0022746078989863265
1.05688e-05;-0.00227408496136068
1.05690e-05;-0.0022735620237350367
1.05693e-05;-0.00227303908610939
1.05695e-05;-0.0022725161484837436
1.05697e-05;-0.0022719932108581004
1.05700e-05;-0.002271470273232454
1.05703e-05;-0.0022709473356068073
1.05705e-05;-0.0022697446759325176
1.05708e-05;-0.0022683349019072367
1.05710e-05;-0.0022669251278819554
1.05713e-05;-0.002265515353856674
1.05715e-05;-0.0022641055798314023
1.05718e-05;-0.002262695805806121
1.05720e-05;-0.0022612860317808396
1.05723e-05;-0.0022592015423133984
1.05725e-05;-0.002255259595339995
1.05728e-05;-0.002251317648366592
1.05730e-05;-0.0022473757013932154
1.05733e-05;-0.0022434337544198118
1.05735e-05;-0.0022394918074464085
1.05738e-05;-0.002235549860473032
1.05740e-05;-0.002231607913499629
1.05743e-05;-0.0022256168194403937
1.05745e-05;-0.002219001341091079
1.05748e-05;-0.0022123858627417195
1.05750e-05;-0.00220577038439236
1.05753e-05;-0.0021991549060430458
1.05755e-05;-0.0021925394276936863
1.05758e-05;-0.002185923949344327
1.05760e-05;-0.002179308470995012
1.05763e-05;-0.0021726929926456527
1.05765e-05;-0.002165774337659469
1.05767e-05;-0.002158021052717359
1.05770e-05;-0.0021502677677751963
1.05773e-05;-0.002142514482833034
1.05775e-05;-0.0021347611978909235
1.05778e-05;-0.002127007912948761
1.05780e-05;-0.002119254628006598
1.05782e-05;-0.0021115013430644883
1.05785e-05;-0.0021037480581223254
1.05788e-05;-0.0020959947731801626
1.05790e-05;-0.0020888208304581136
1.05793e-05;-0.0020818234159039545
1.05795e-05;-0.002074826001349796
1.05798e-05;-0.0020682778762408822
1.05800e-05;-0.0020621525360638355
1.05803e-05;-0.0020564373091550812
1.05805e-05;-0.0020514320669584025
1.05808e-05;-0.0020481330697915325
1.05810e-05;-0.002047805194880756
1.05813e-05;-0.002051041830631618
1.05815e-05;-0.002057810874102556
1.05818e-05;-0.0020691630854124386
1.05820e-05;-0.002081663064178326
1.05823e-05;-0.0020988453373162698
1.05825e-05;-0.0021174543265103053
1.05828e-05;-0.0021415959467135826
1.05830e-05;-0.002167423384352644
1.05833e-05;-0.0021996370910500516
1.05835e-05;-0.002233796722518407
1.05838e-05;-0.0022722782590955514
1.05840e-05;-0.002314654299168435
1.05843e-05;-0.0023601656368633164
1.05845e-05;-0.0024086140441813794
1.05848e-05;-0.002460074472697536
1.05850e-05;-0.0025147273420502996
1.05853e-05;-0.0025724892494468133
1.05855e-05;-0.002633031451281006
1.05858e-05;-0.0026959745814043212
1.05860e-05;-0.0027609378223083262
1.05863e-05;-0.0028275407440490293
1.05865e-05;-0.0028954654148745933
1.05867e-05;-0.0029645643882768866
1.05870e-05;-0.003034756369853055
1.05873e-05;-0.0031057950172491402
1.05875e-05;-0.003177280300856207
1.05878e-05;-0.00324878035888033
1.05880e-05;-0.0033198627007370095
1.05883e-05;-0.0033900947270903365
1.05885e-05;-0.0034590832770922428
1.05888e-05;-0.003526542144879462
1.05890e-05;-0.0035922261875097603
1.05893e-05;-0.0036557872436957075
1.05895e-05;-0.003716780927008538
1.05898e-05;-0.003774742368077462
1.05900e-05;-0.0038292067281854923
1.05903e-05;-0.003879709634278046
1.05905e-05;-0.003926008462786473
1.05908e-05;-0.003968522379211518
1.05910e-05;-0.004008051133305708
1.05913e-05;-0.004044957378519666
1.05915e-05;-0.004079121204405828
1.05918e-05;-0.004109073596900496
1.05920e-05;-0.004137941569915208
1.05923e-05;-0.004161557799616101
1.05925e-05;-0.004183573799618724
1.05928e-05;-0.004200939627095389
1.05930e-05;-0.004216888526185571
1.05933e-05;-0.0042292501289324744
1.05935e-05;-0.004240518666424034
1.05938e-05;-0.004247098247235242
1.05940e-05;-0.004252249081954594
1.05943e-05;-0.004257399916673945
1.05945e-05;-0.004257812481731361
1.05948e-05;-0.004256781274810615
1.05950e-05;-0.00425296885141828
1.05952e-05;-0.004248308978916207
1.05955e-05;-0.004241284581662852
1.05958e-05;-0.00423353970313235
1.05960e-05;-0.00422293657518562
1.05963e-05;-0.0042114625258459285
1.05965e-05;-0.004199988476506236
1.05968e-05;-0.004186261020207387
1.05970e-05;-0.0041718469407201605
1.05973e-05;-0.004156480626963214
1.05975e-05;-0.004140824163161353
1.05978e-05;-0.004124372029345207
1.05980e-05;-0.004107677451313508
1.05983e-05;-0.004090982873281809
1.05985e-05;-0.004073947030382361
1.05988e-05;-0.004056807202549782
1.05990e-05;-0.0040401697246926415
1.05993e-05;-0.0040236853151220595
1.05995e-05;-0.004008511238915352
1.05998e-05;-0.003993736427150794
1.06000e-05;-0.003978961615386336
1.06003e-05;-0.003965581129663706
1.06005e-05;-0.003953263298419594
1.06008e-05;-0.003941145874264357
1.06010e-05;-0.003927831618683392
1.06013e-05;-0.003914152119876797
1.06015e-05;-0.0038985238957659953
1.06018e-05;-0.0038823018863306993
1.06020e-05;-0.003866079876895403
1.06023e-05;-0.0038485451547003
1.06025e-05;-0.003830610443050286
1.06028e-05;-0.0038104260125050365
1.06030e-05;-0.0037895560825408343
1.06033e-05;-0.0037686861525764903
1.06035e-05;-0.0037445554388818706
1.06037e-05;-0.0037194311497866393
1.06040e-05;-0.0036943068606912375
1.06043e-05;-0.0036664742538687384
1.06045e-05;-0.0036378164105101175
1.06048e-05;-0.003609158567151303
1.06050e-05;-0.003580500723792488
1.06053e-05;-0.003548732638112603
1.06055e-05;-0.0035160168476734274
1.06058e-05;-0.0034833010572340303
1.06060e-05;-0.003450585266794633
1.06063e-05;-0.003416471030984345
1.06065e-05;-0.003381930682608508
1.06068e-05;-0.003347390334232671
1.06070e-05;-0.0033122281307187934
1.06073e-05;-0.0032768764451600375
1.06075e-05;-0.003241524759601281
1.06078e-05;-0.0032065840552126805
1.06080e-05;-0.003171768578626259
1.06083e-05;-0.003136953102039838
1.06085e-05;-0.0031038004068464097
1.06088e-05;-0.0030711543685873403
1.06090e-05;-0.0030385083303282713
1.06093e-05;-0.003007819702168861
1.06095e-05;-0.0029777275056298166
1.06098e-05;-0.0029499098926737753
1.06100e-05;-0.002922785355518927
1.06103e-05;-0.002898626378538225
1.06105e-05;-0.002875371021019433
1.06108e-05;-0.0028559979454596367
1.06110e-05;-0.0028378078185935345
1.06113e-05;-0.0028252506737602673
1.06115e-05;-0.0028144099237713627
1.06118e-05;-0.002803569173782385
1.06120e-05;-0.0027996049376480723
1.06122e-05;-0.0027977360060714713
1.06125e-05;-0.0027958670744948574
1.06128e-05;-0.00280174876187595
1.06130e-05;-0.002809992097552955
1.06133e-05;-0.0028182354332300158
1.06135e-05;-0.002829229151716037
1.06138e-05;-0.002847794535056704
1.06140e-05;-0.0028663599183972456
1.06143e-05;-0.0028849253017379124
1.06145e-05;-0.0029080479336929524
1.06148e-05;-0.0029344636482423747
1.06150e-05;-0.0029632964970904285
1.06153e-05;-0.0029943991689179075
1.06155e-05;-0.0030275783365799748
1.06158e-05;-0.003062631422090235
1.06160e-05;-0.0030993556299578496
1.06163e-05;-0.0031375481646919363
1.06165e-05;-0.003177015510446691
1.06168e-05;-0.0032175832183022435
1.06170e-05;-0.00325907215099603
1.06173e-05;-0.00330126347329745
1.06175e-05;-0.003343908589241687
1.06178e-05;-0.0033867534262202793
1.06180e-05;-0.0034295443229109784
1.06183e-05;-0.0034720271913784616
1.06185e-05;-0.0035139536695646145
1.06188e-05;-0.003555087718645572
1.06190e-05;-0.0035951900836082586
1.06193e-05;-0.0036339967097042234
1.06195e-05;-0.0036712249825094044
1.06198e-05;-0.003706589288526576
1.06200e-05;-0.0037398032851129063
1.06203e-05;-0.0037705810715653095
1.06205e-05;-0.0037985322117759634
1.06207e-05;-0.003823001467576016
1.06210e-05;-0.003843297438854402
1.06213e-05;-0.0038590896353813855
1.06215e-05;-0.0038686154028187768
1.06218e-05;-0.003876555975505297
1.06220e-05;-0.0038759028540046123
1.06222e-05;-0.0038726311954102102
1.06225e-05;-0.003869359536815786
1.06228e-05;-0.003855182095222227
1.06230e-05;-0.0038376816127225883
1.06233e-05;-0.0038201811302230678
1.06235e-05;-0.003791905612533199
1.06238e-05;-0.0037603468933799936
1.06240e-05;-0.003728788174227002
1.06243e-05;-0.003687852077079642
1.06245e-05;-0.003644058650873927
1.06248e-05;-0.003600265224668509
1.06250e-05;-0.0035492991390371547
1.06253e-05;-0.003496147511965953
1.06255e-05;-0.0034381337081890563
1.06258e-05;-0.003378638377400861
1.06260e-05;-0.0033153327711249124
1.06263e-05;-0.0032508661568491784
1.06265e-05;-0.003183561042144107
1.06268e-05;-0.0031153910236499777
1.06270e-05;-0.003045191707556225
1.06273e-05;-0.002974374055397786
1.06275e-05;-0.00290273524394578
1.06278e-05;-0.0028307271922973854
1.06280e-05;-0.0027588859533393562
1.06283e-05;-0.0026876308941104834
1.06285e-05;-0.0026173654057563816
1.06288e-05;-0.0025484520464889994
1.06290e-05;-0.0024812479226763795
1.06292e-05;-0.0024161655412049737
1.06295e-05;-0.0023536628642352986
1.06298e-05;-0.0022971036318083274
1.06300e-05;-0.0022421640594197725
1.06303e-05;-0.0021872244870308455
1.06305e-05;-0.002138426373593854
1.06307e-05;-0.0020936603196815605
1.06310e-05;-0.0020508039740605452
1.06313e-05;-0.0020083289125694135
1.06315e-05;-0.001967579106486307
1.06318e-05;-0.0019273549934506321
1.06320e-05;-0.0018906619783981434
1.06323e-05;-0.001855044904710729
1.06325e-05;-0.001819427831023556
1.06328e-05;-0.00178663786640661
1.06330e-05;-0.0017547093345810676
1.06333e-05;-0.0017234411446237728
1.06335e-05;-0.0016923741637899642
1.06338e-05;-0.0016613071829561558
1.06340e-05;-0.0016322136136595134
1.06343e-05;-0.001603721351693444
1.06345e-05;-0.0015752290897273744
1.06348e-05;-0.0015482525922250545
1.06350e-05;-0.0015217379549410737
1.06353e-05;-0.0014952233176570929
1.06355e-05;-0.0014693068605214539
1.06358e-05;-0.0014435726715550008
1.06360e-05;-0.0014178384825885477
1.06363e-05;-0.0013936517040522686
1.06365e-05;-0.0013699364284020456
1.06368e-05;-0.0013462211527518224
1.06370e-05;-0.00132329854312843
1.06373e-05;-0.00130061746239221
1.06375e-05;-0.00127849833550042
1.06377e-05;-0.001256550438461215
1.06380e-05;-0.001235304136067576
1.06383e-05;-0.001214888976731943
1.06385e-05;-0.0011953349728739797
1.06388e-05;-0.0011765676317556267
1.06390e-05;-0.0011584286353206066
1.06392e-05;-0.001140885462168136
1.06395e-05;-0.0011240350739684759
1.06398e-05;-0.0011080018176123211
1.06400e-05;-0.0010929103467213755
1.06403e-05;-0.00107888525287806
1.06405e-05;-0.0010663029000555955
1.06408e-05;-0.001056227851709725
1.06410e-05;-0.0010499713081615937
1.06413e-05;-0.0010481500115099576
1.06415e-05;-0.0010507457366910906
1.06418e-05;-0.001057608146275815
1.06420e-05;-0.0010685855239118537
1.06423e-05;-0.0010835260019802129
1.06425e-05;-0.00110243559089352
1.06428e-05;-0.0011277204120843658
1.06430e-05;-0.0011546644472829053
1.06433e-05;-0.0011875315277532063
1.06435e-05;-0.0012259110506732897
1.06438e-05;-0.0012688789459300077
1.06440e-05;-0.001316110298359815
1.06443e-05;-0.0013672800143454213
