Time(s);Current(A)
1.23000e-05;0.0011674801142265798
1.23003e-05;0.0012478910356553464
1.23005e-05;0.0013277142865190767
1.23008e-05;0.0014036888399286266
1.23010e-05;0.0014796633933381765
1.23013e-05;0.0015556379467472116
1.23015e-05;0.0016316125001567617
1.23018e-05;0.0017007193924917356
1.23020e-05;0.001765835410237723
1.23023e-05;0.0018309514279841515
1.23025e-05;0.0018889505347987794
1.23028e-05;0.001942813925147266
1.23030e-05;0.001989585462900064
1.23033e-05;0.0020322358458658672
1.23035e-05;0.0020748862288313815
1.23038e-05;0.0021093296019065117
1.23040e-05;0.0021390037898299827
1.23042e-05;0.002168677977753253
1.23045e-05;0.0021893177643932784
1.23048e-05;0.002204707559497976
1.23050e-05;0.002220097354602569
1.23053e-05;0.0022274676478328476
1.23055e-05;0.00223017771891477
1.23058e-05;0.002232887789996693
1.23060e-05;0.002228180593720023
1.23063e-05;0.002219163140501482
1.23065e-05;0.0022101456872829417
1.23068e-05;0.002194251353027906
1.23070e-05;0.0021743607863609848
1.23073e-05;0.002154470219694064
1.23075e-05;0.0021270967578630685
1.23078e-05;0.002095374902038876
1.23080e-05;0.002063653046214684
1.23083e-05;0.0020319311903907065
1.23085e-05;0.002000209334566514
1.23088e-05;0.0019684874787423215
1.23090e-05;0.0019310678457913235
1.23093e-05;0.0018903371708850003
1.23095e-05;0.001849606495978677
1.23098e-05;0.0018088758210726295
1.23100e-05;0.001768145146166306
1.23103e-05;0.001727414471259983
1.23105e-05;0.0016869567059715066
1.23108e-05;0.0016466575315110088
1.23110e-05;0.0016063583570505111
1.23113e-05;0.0015660591825902863
1.23115e-05;0.0015257600081297886
1.23118e-05;0.0014867444530169175
1.23120e-05;0.001456135414782013
1.23123e-05;0.0014255263765469014
1.23125e-05;0.00139491733831179
1.23127e-05;0.0013643083000768855
1.23130e-05;0.0013336992618417738
1.23133e-05;0.0013104737176562167
1.23135e-05;0.0012915388043663013
1.23138e-05;0.0012726038910762577
1.23140e-05;0.001259362054940983
1.23143e-05;0.0012494285295550046
1.23145e-05;0.0012394950041690934
1.23148e-05;0.0012354678831207045
1.23150e-05;0.0012348730396312747
1.23153e-05;0.001234278196141849
1.23155e-05;0.001239227920513269
1.23158e-05;0.0012473996552238404
1.23160e-05;0.0012555713899343563
1.23163e-05;0.001268856178639256
1.23165e-05;0.0012851122201536329
1.23168e-05;0.0013013682616678996
1.23170e-05;0.0013221182125792061
1.23173e-05;0.0013454796244561826
1.23175e-05;0.0013688410363330008
1.23178e-05;0.0013973065723520601
1.23180e-05;0.0014287381719438473
1.23183e-05;0.0014601697715354214
1.23185e-05;0.0014916013711272083
1.23188e-05;0.0015230329707189953
1.23190e-05;0.0015544645703105694
1.23193e-05;0.0015864988399646128
1.23195e-05;0.001622480039883644
1.23198e-05;0.0016584612398024316
1.23200e-05;0.0016944424397214628
1.23203e-05;0.001730423639640494
1.23205e-05;0.0017664048395592813
1.23208e-05;0.0018023860394783126
1.23210e-05;0.001834053169293881
1.23212e-05;0.0018632133447661814
1.23215e-05;0.0018923735202386793
1.23218e-05;0.0019215336957111773
1.23220e-05;0.0019506938711834777
1.23223e-05;0.0019798540466559756
1.23225e-05;0.0020090142221284735
1.23228e-05;0.0020381743976009715
1.23230e-05;0.0020673345730732717
1.23233e-05;0.0020896223997722615
1.23235e-05;0.0021079166278061487
1.23238e-05;0.002126210855839912
1.23240e-05;0.0021445050838737986
1.23243e-05;0.002162799311907686
1.23245e-05;0.0021810935399414486
1.23248e-05;0.002199387767975336
1.23250e-05;0.002217681996009223
1.23253e-05;0.0022359762240429857
1.23255e-05;0.0022506641325304613
1.23258e-05;0.002263256368431694
1.23260e-05;0.0022758486043328407
1.23263e-05;0.0022884408402340734
1.23265e-05;0.0023010330761353056
1.23268e-05;0.002313625312036453
1.23270e-05;0.0023262175479376855
1.23273e-05;0.0023388097838389177
1.23275e-05;0.002351402019740065
1.23278e-05;0.002363994255641297
1.23280e-05;0.0023765864915425297
1.23283e-05;0.0023891787274436765
1.23285e-05;0.002401770963344909
1.23288e-05;0.0024143631992461414
1.23290e-05;0.0024263551975352597
1.23293e-05;0.0024344161958507007
1.23295e-05;0.002442477194166142
1.23297e-05;0.0024505381924815285
1.23300e-05;0.00245859919079697
1.23303e-05;0.002466660189112411
1.23305e-05;0.0024747211874277977
1.23308e-05;0.0024827821857432387
1.23310e-05;0.00249084318405868
1.23313e-05;0.002498904182374121
1.23315e-05;0.002506965180689508
1.23318e-05;0.002515026179004949
1.23320e-05;0.00252308717732039
1.23323e-05;0.0025311481756357767
1.23325e-05;0.0025392091739512178
1.23328e-05;0.0025367978946510203
1.23330e-05;0.002528301057807257
1.23333e-05;0.002519804220963436
1.23335e-05;0.002511307384119615
1.23338e-05;0.0025028105472758517
1.23340e-05;0.0024943137104320307
1.23343e-05;0.0024858168735882097
1.23345e-05;0.0024773200367444463
1.23348e-05;0.0024688231999006253
1.23350e-05;0.0024603263630568043
1.23353e-05;0.002451829526213041
1.23355e-05;0.002424175733434926
1.23358e-05;0.002385389619495376
1.23360e-05;0.002346603505556089
1.23363e-05;0.0023078173916165393
1.23365e-05;0.0022690312776769894
1.23368e-05;0.0022302451637377023
1.23370e-05;0.0021914590497981523
1.23373e-05;0.002152672935858603
1.23375e-05;0.0021138868219193157
1.23378e-05;0.002075100707979766
1.23380e-05;0.0020363145940402163
1.23382e-05;0.00198758129586702
1.23385e-05;0.0019330675777808099
1.23388e-05;0.0018785538596945996
1.23390e-05;0.0018240401416087589
1.23393e-05;0.0017695264235225486
1.23395e-05;0.0017148022993854445
1.23398e-05;0.0016587002106482275
1.23400e-05;0.001602598121911391
1.23403e-05;0.001546496033174174
1.23405e-05;0.001490393944436957
1.23408e-05;0.0014342918557001204
1.23410e-05;0.0013809635558205769
1.23413e-05;0.0013292471356419647
1.23415e-05;0.001277530715463703
1.23418e-05;0.0012299228069873023
1.23420e-05;0.0011847024005717404
1.23423e-05;0.0011394819941564851
1.23425e-05;0.001099127629373875
1.23428e-05;0.0010616009757599798
1.23430e-05;0.0010276995466627083
1.23433e-05;0.000995904776041945
1.23435e-05;0.0009671036052584277
1.23438e-05;0.0009400420487926872
1.23440e-05;0.0009163154536978766
1.23443e-05;0.0008945268419226124
1.23445e-05;0.0008764286897824789
1.23448e-05;0.0008604751049754852
1.23450e-05;0.0008477917618224929
1.23453e-05;0.0008370087926383461
1.23455e-05;0.0008289330808797642
1.23458e-05;0.0008224305866637769
1.23460e-05;0.0008186819569052454
1.23463e-05;0.0008165336285562439
1.23465e-05;0.0008171946255598916
1.23467e-05;0.0008194881529190267
1.23470e-05;0.000824632164131215
1.23473e-05;0.0008314326233634117
1.23475e-05;0.0008382330825955623
1.23478e-05;0.0008477163422196544
1.23480e-05;0.0008587586071306901
1.23483e-05;0.0008698008720417258
1.23485e-05;0.000883843216124424
1.23488e-05;0.00089962893973862
1.23490e-05;0.000915414663352816
1.23493e-05;0.000931200386966905
1.23495e-05;0.000946986110581101
1.23498e-05;0.0009627718341952969
1.23500e-05;0.0009798005837899134
1.23503e-05;0.0009975516696722991
1.23505e-05;0.0010153027555546846
1.23508e-05;0.00103305384143695
1.23510e-05;0.0010508049273193355
1.23513e-05;0.001068556013201721
1.23515e-05;0.001083986961132964
1.23518e-05;0.0010980696509741848
1.23520e-05;0.0011121523408154058
1.23523e-05;0.0011262350306565313
1.23525e-05;0.0011403177204977522
1.23528e-05;0.0011544004103389732
1.23530e-05;0.0011671784621432712
1.23533e-05;0.0011714123441177251
1.23535e-05;0.001175646226092179
1.23538e-05;0.0011798801080666044
1.23540e-05;0.0011841139900410583
1.23543e-05;0.0011883478720155123
1.23545e-05;0.0011925817539899376
1.23548e-05;0.0011911244901521491
1.23550e-05;0.0011863600378859312
1.23552e-05;0.0011815955856197455
1.23555e-05;0.00117312677014666
1.23558e-05;0.0011625053078189215
1.23560e-05;0.0011518838454912547
1.23563e-05;0.0011379815082835862
1.23565e-05;0.0011221726180203465
1.23568e-05;0.001106363727757107
1.23570e-05;0.00108762365033832
1.23573e-05;0.001067180227308043
1.23575e-05;0.0010467368042777658
1.23578e-05;0.0010230648319031462
1.23580e-05;0.0009975167134260797
1.23583e-05;0.0009719685949490134
1.23585e-05;0.0009464204764721201
1.23588e-05;0.0009208723579950537
1.23590e-05;0.0008953242395179874
1.23593e-05;0.000867960925639354
1.23595e-05;0.0008395427814281809
1.23598e-05;0.0008111246372170079
1.23600e-05;0.0007827064930060274
1.23603e-05;0.0007542883487948543
1.23605e-05;0.0007258702045836813
1.23608e-05;0.0006991599786097071
1.23610e-05;0.0006734422430087389
1.23613e-05;0.0006477245074077708
1.23615e-05;0.0006220067718069769
1.23618e-05;0.0005962890362060086
1.23620e-05;0.0005705713006050404
1.23623e-05;0.0005497678703160512
1.23625e-05;0.0005318201977602071
1.23628e-05;0.0005138725252043631
1.23630e-05;0.0004959248526486407
1.23633e-05;0.0004779771800927968
1.23635e-05;0.0004600295075369528
1.23637e-05;0.0004454150445997833
1.23640e-05;0.00043273754702006714
1.23643e-05;0.0004218302883225461
1.23645e-05;0.00041195173522175145
1.23648e-05;0.0004038836039218231
1.23650e-05;0.00039686752896170307
1.23653e-05;0.00039127006013203356
1.23655e-05;0.0003864969591775854
1.23658e-05;0.0003830563370622553
1.23660e-05;0.0003803900332906983
1.23663e-05;0.0003791111906663028
1.23665e-05;0.00037863861721925996
1.23668e-05;0.0003797594722897087
1.23670e-05;0.0003818062864780653
1.23673e-05;0.00038385310066643566
1.23675e-05;0.0003873023901418679
1.23678e-05;0.0003915666736790828
1.23680e-05;0.0003958309572163266
1.23683e-05;0.000401328339117079
1.23685e-05;0.00040754228825657724
1.23688e-05;0.00041375623739611767
1.23690e-05;0.0004210380127813293
1.23693e-05;0.00042894031393071855
1.23695e-05;0.00043684261508016134
1.23698e-05;0.00044474491622960413
1.23700e-05;0.00045264721737899336
1.23703e-05;0.00046054951852843616
1.23705e-05;0.00046857734451402286
1.23708e-05;0.0004766781143845721
1.23710e-05;0.00048477888425517613
1.23713e-05;0.0004928796541257802
1.23715e-05;0.0005009804239963294
1.23718e-05;0.0005090811938669335
1.23720e-05;0.0005161116249090399
1.23723e-05;0.0005225200700968408
1.23725e-05;0.0005289285152846852
1.23728e-05;0.0005353369604725295
1.23730e-05;0.0005420721886913159
1.23733e-05;0.0005489973141812587
1.23735e-05;0.0005559224396712014
1.23738e-05;0.0005628475651611441
1.23740e-05;0.0005710636459135706
1.23743e-05;0.0005800299151955739
1.23745e-05;0.000588996184477577
1.23748e-05;0.0005990054302843861
1.23750e-05;0.0006096207614051752
1.23753e-05;0.0006202360925259642
1.23755e-05;0.0006336204740437228
1.23758e-05;0.0006486139816916097
1.23760e-05;0.0006636074893394965
1.23763e-05;0.0006786009969872818
1.23765e-05;0.0006935945046351687
1.23768e-05;0.0007085880122830556
1.23770e-05;0.0007235815199308408
1.23773e-05;0.0007385750275787277
1.23775e-05;0.0007562527468363646
1.23778e-05;0.0007754902914566439
1.23780e-05;0.0007947278360770535
1.23783e-05;0.0008139653806974631
1.23785e-05;0.0008332029253177423
1.23788e-05;0.0008524404699381519
1.23790e-05;0.0008716780145585615
1.23793e-05;0.0008909155591788408
1.23795e-05;0.0009104798289790063
1.23798e-05;0.0009302339624323329
1.23800e-05;0.0009499880958855256
1.23803e-05;0.0009697422293388522
1.23805e-05;0.0009894963627921788
1.23808e-05;0.0010092504962453713
1.23810e-05;0.001029004629698698
1.23813e-05;0.001046093379478957
1.23815e-05;0.0010616332450205227
1.23818e-05;0.0010771731105621938
1.23820e-05;0.0010927129761038649
1.23823e-05;0.0011082528416455357
1.23825e-05;0.0011237927071871014
1.23828e-05;0.0011393325727287725
1.23830e-05;0.0011491309732911577
1.23833e-05;0.0011555929443918802
1.23835e-05;0.0011620549154926466
1.23838e-05;0.001168516886593413
1.23840e-05;0.0011749788576941355
1.23843e-05;0.001181440828794902
1.23845e-05;0.0011879027998956684
1.23848e-05;0.001194364770996391
1.23850e-05;0.0012008267420971573
1.23853e-05;0.0012072887131979236
1.23855e-05;0.0012137506842986464
1.23858e-05;0.0012142057566762172
1.23860e-05;0.0012111701530770987
1.23863e-05;0.0012081345494780007
1.23865e-05;0.001205098945878882
1.23868e-05;0.0012020633422797635
1.23870e-05;0.0011990277386806655
1.23873e-05;0.001195992135081547
1.23875e-05;0.0011929565314824282
1.23878e-05;0.0011899209278833302
1.23880e-05;0.0011868853242842116
1.23883e-05;0.001183849720685093
1.23885e-05;0.0011778770807070954
1.23888e-05;0.001170197696067061
1.23890e-05;0.0011625183114270263
1.23893e-05;0.0011548389267870439
1.23895e-05;0.0011471595421470094
1.23898e-05;0.001139480157506975
1.23900e-05;0.0011318007728669925
1.23903e-05;0.0011241213882269578
1.23905e-05;0.0011164854204492466
1.23908e-05;0.0011091337928758756
1.23910e-05;0.0011017821653025546
1.23913e-05;0.0010944305377291836
1.23915e-05;0.0010870789101558127
1.23918e-05;0.0010797272825824916
1.23920e-05;0.0010723756550091207
1.23923e-05;0.0010650240274357498
1.23925e-05;0.0010576723998624285
1.23928e-05;0.001050134933192562
1.23930e-05;0.0010424894733468998
1.23933e-05;0.0010348440135012895
1.23935e-05;0.0010271985536556274
1.23938e-05;0.0010195530938099653
1.23940e-05;0.001011907633964355
1.23943e-05;0.001004262174118693
1.23945e-05;0.0009966167142730308
1.23948e-05;0.0009853213458571291
1.23950e-05;0.0009719049747816926
1.23953e-05;0.0009584886037062562
1.23955e-05;0.0009450722326309107
1.23958e-05;0.0009316558615554742
1.23960e-05;0.0009182394904800377
1.23963e-05;0.0009048231194046921
1.23965e-05;0.0008914067483292556
1.23968e-05;0.0008745815083448619
1.23970e-05;0.0008557753365419195
1.23973e-05;0.0008369691647388494
1.23975e-05;0.0008181629929357795
1.23978e-05;0.000799356821132837
1.23980e-05;0.000780550649329767
1.23983e-05;0.000761744477526697
1.23985e-05;0.0007413289063308307
1.23988e-05;0.000719978095161747
1.23990e-05;0.0006986272839926634
1.23993e-05;0.0006772764728235798
1.23995e-05;0.0006559256616546408
1.23998e-05;0.0006345748504855571
1.24000e-05;0.0006132240393164736
1.24003e-05;0.0005924928050505638
1.24005e-05;0.0005721216138469697
1.24008e-05;0.0005517504226433754
1.24010e-05;0.0005313792314399192
1.24013e-05;0.000511008040236325
1.24015e-05;0.0004929187050083661
1.24018e-05;0.00047615538178898673
1.24020e-05;0.0004593920585694937
1.24023e-05;0.00044262873535000065
1.24025e-05;0.00042586541213062123
1.24028e-05;0.00041164627510495346
1.24030e-05;0.00039890559310931575
1.24033e-05;0.0003875864715992603
1.24035e-05;0.0003770934347740504
1.24038e-05;0.0003680449950457894
1.24040e-05;0.00035983602683487963
1.24043e-05;0.0003531921584590621
1.24045e-05;0.0003474577870884262
1.24048e-05;0.0003433252103071928
1.24050e-05;0.000340123454262891
1.24053e-05;0.0003383328310249791
1.24055e-05;0.00033736223283116555
1.24058e-05;0.00033772206107304825
1.24060e-05;0.00033885501498507177
1.24063e-05;0.00034129874564623364
1.24065e-05;0.0003445041833250882
1.24068e-05;0.0003492119246745206
1.24070e-05;0.00035479267147605286
1.24073e-05;0.0003603734182776229
1.24075e-05;0.00036737784546060035
1.24078e-05;0.0003752095892237392
1.24080e-05;0.00038304133298682494
1.24083e-05;0.00039235705298453047
1.24085e-05;0.00040253512815653755
1.24088e-05;0.00041271320332847563
1.24090e-05;0.00042289127850048277
1.24093e-05;0.00043306935367248985
1.24095e-05;0.0004434064432406463
1.24098e-05;0.0004547849297120663
1.24100e-05;0.0004661634161834863
1.24103e-05;0.0004775419026548292
1.24105e-05;0.0004889203891262491
1.24108e-05;0.0005002988755976692
1.24110e-05;0.0005102837330131612
1.24113e-05;0.0005194587370095741
1.24115e-05;0.0005286337410059872
1.24118e-05;0.000537808745002338
1.24120e-05;0.000546983748998751
1.24123e-05;0.000556158752995164
1.24125e-05;0.0005653337569915148
1.24128e-05;0.0005745087609879279
1.24130e-05;0.0005836837649843408
1.24133e-05;0.0005923302596888274
1.24135e-05;0.0005975155084111986
1.24138e-05;0.00060270075713357
1.24140e-05;0.0006078860058559061
1.24143e-05;0.0006130712545782775
1.24145e-05;0.0006182565033006487
1.24148e-05;0.0006234417520229849
1.24150e-05;0.0006286270007453562
1.24153e-05;0.0006338122494677275
1.24155e-05;0.0006389974981900637
1.24158e-05;0.0006425405748909857
1.24160e-05;0.0006451293670776299
1.24163e-05;0.0006477181592642743
1.24165e-05;0.0006503069514509012
1.24168e-05;0.0006528957436375454
1.24170e-05;0.0006554845358241898
1.24173e-05;0.0006580733280108165
1.24175e-05;0.0006606621201974609
1.24178e-05;0.0006632509123841053
1.24180e-05;0.000665839704570732
1.24183e-05;0.0006684284967573764
1.24185e-05;0.0006710172889440207
1.24188e-05;0.0006736060811306475
1.24190e-05;0.0006759899297781824
1.24193e-05;0.0006770315882078182
1.24195e-05;0.0006780732466374471
1.24198e-05;0.000679114905067083
1.24200e-05;0.0006801565634967189
1.24203e-05;0.0006811982219263477
1.24205e-05;0.0006822398803559836
1.24208e-05;0.0006832815387856195
1.24210e-05;0.0006843231972152484
1.24213e-05;0.0006853648556448842
1.24215e-05;0.0006864065140745201
1.24218e-05;0.000687448172504149
1.24220e-05;0.0006884898309337849
1.24223e-05;0.0006895314893634207
1.24225e-05;0.0006912929102381791
1.24228e-05;0.0006934725931138521
1.24230e-05;0.000695652275989525
1.24233e-05;0.0006978319588651832
1.24235e-05;0.0007000116417408563
1.24238e-05;0.0007021913246165292
1.24240e-05;0.000707959988227437
1.24243e-05;0.0007158142486540725
1.24245e-05;0.0007236685090807082
1.24248e-05;0.0007315227695073437
1.24250e-05;0.000739377029933926
1.24253e-05;0.0007472312903605616
1.24255e-05;0.0007584364405194538
1.24258e-05;0.0007715888301512817
1.24260e-05;0.0007847412197831988
1.24263e-05;0.0008010354801262679
1.24265e-05;0.0008191555166531273
1.24268e-05;0.0008372755531801096
1.24270e-05;0.0008553955897070919
1.24273e-05;0.0008735156262339514
1.24275e-05;0.0008916356627609337
1.24278e-05;0.0009097556992879159
1.24280e-05;0.0009308556406919505
1.24283e-05;0.0009536872381239125
1.24285e-05;0.0009765188355558745
1.24288e-05;0.0009993504329876817
1.24290e-05;0.0010221820304196438
1.24293e-05;0.0010450136278516058
1.24295e-05;0.001067845225283413
1.24298e-05;0.0010895147507273414
1.24300e-05;0.0011105089831515659
1.24303e-05;0.0011315032155756481
1.24305e-05;0.0011524974479998724
1.24308e-05;0.0011734916804240969
1.24310e-05;0.001194485912848179
1.24313e-05;0.0012154801452724034
1.24315e-05;0.0012364743776966279
1.24318e-05;0.00125746861012071
1.24320e-05;0.0012784628425449344
1.24323e-05;0.0012994570749691589
1.24325e-05;0.001320451307393241
1.24328e-05;0.0013357837426398373
1.24330e-05;0.001347826044269197
1.24333e-05;0.0013598683458985563
1.24335e-05;0.0013719106475278344
1.24338e-05;0.0013839529491571937
1.24340e-05;0.0013959952507865533
1.24343e-05;0.0014080375524158312
1.24345e-05;0.0014200798540451908
1.24348e-05;0.0014321221556745504
1.24350e-05;0.0014441644573038282
1.24353e-05;0.0014562067589331878
1.24355e-05;0.0014682490605625472
1.24358e-05;0.0014772928059122617
1.24360e-05;0.0014845940566953673
1.24363e-05;0.001491895307478473
1.24365e-05;0.0014991965582615292
1.24368e-05;0.001506497809044635
1.24370e-05;0.0015137990598277406
1.24373e-05;0.0015211003106107967
1.24375e-05;0.0015284015613939025
1.24378e-05;0.0015357028121770083
1.24380e-05;0.0015430040629600644
1.24383e-05;0.00155030531374317
1.24385e-05;0.0015576065645262758
1.24388e-05;0.001564907815309332
1.24390e-05;0.0015722090660924377
1.24393e-05;0.0015795103168755433
1.24395e-05;0.0015849351916327292
1.24398e-05;0.0015892696833103115
1.24400e-05;0.0015936041749878937
1.24403e-05;0.0015979386666654467
1.24405e-05;0.001602273158343029
1.24408e-05;0.0016066076500206113
1.24410e-05;0.001610942141698164
1.24413e-05;0.0016152766333757463
1.24415e-05;0.0016196111250533286
1.24417e-05;0.0016239456167308815
1.24420e-05;0.0016282801084084638
1.24423e-05;0.001632614600086046
1.24425e-05;0.0016369490917636283
1.24428e-05;0.0016412835834411811
1.24430e-05;0.0016456180751187634
1.24433e-05;0.0016527145757288782
1.24435e-05;0.0016614161105989714
1.24438e-05;0.0016701176454691237
1.24440e-05;0.001678819180339276
1.24443e-05;0.0016875207152093695
1.24445e-05;0.0016962222500795216
1.24448e-05;0.001704923784949674
1.24450e-05;0.0017136253198197673
1.24453e-05;0.0017223268546899195
1.24455e-05;0.0017310283895600718
1.24458e-05;0.0017397299244301652
1.24460e-05;0.0017484314593003173
1.24463e-05;0.0017571329941704697
1.24465e-05;0.0017714680725802526
1.24468e-05;0.0017890768661042748
1.24470e-05;0.0018066856596282972
1.24473e-05;0.0018242944531522002
