Time(s);Current(A)
1.30000e-06;0.009017458701148421
1.30025e-06;0.009029003893184794
1.30050e-06;0.009040549085221158
1.30075e-06;0.009052094277257523
1.30100e-06;0.009063639469293895
1.30125e-06;0.009084519032146307
1.30150e-06;0.009125520508493789
1.30175e-06;0.009166521984841235
1.30200e-06;0.009207523461188681
1.30225e-06;0.009248524937536163
1.30250e-06;0.009289526413883609
1.30275e-06;0.00933052789023109
1.30300e-06;0.009371529366578537
1.30325e-06;0.009412530842926018
1.30350e-06;0.009453532319273464
1.30375e-06;0.00949453379562091
1.30400e-06;0.009540292244192403
1.30425e-06;0.009596305201125945
1.30450e-06;0.009652318158059534
1.30475e-06;0.009708331114993075
1.30500e-06;0.009764344071926617
1.30525e-06;0.009820357028860206
1.30550e-06;0.009876369985793748
1.30575e-06;0.009932382942727337
1.30600e-06;0.00998839589966088
1.30625e-06;0.010044408856594422
1.30650e-06;0.01010042181352801
1.30675e-06;0.010150266230448401
1.30700e-06;0.01018681325100682
1.30725e-06;0.01022336027156521
1.30750e-06;0.01025990729212363
1.30775e-06;0.01029645431268202
1.30800e-06;0.010333001333240409
1.30825e-06;0.010369548353798828
1.30850e-06;0.010406095374357218
1.30875e-06;0.010442642394915637
1.30900e-06;0.010479189415474027
1.30925e-06;0.010515736436032415
1.30950e-06;0.010552283456590835
1.30975e-06;0.010588830477149223
1.31000e-06;0.010625377497707644
1.31025e-06;0.010661924518266034
1.31050e-06;0.010698471538824422
1.31075e-06;0.010719273260186624
1.31100e-06;0.010736545568655442
1.31125e-06;0.010753817877124275
1.31150e-06;0.010771090185593092
1.31175e-06;0.01078836249406191
1.31200e-06;0.010805634802530743
1.31225e-06;0.010822907110999562
1.31250e-06;0.010840179419468394
1.31275e-06;0.010857451727937213
1.31300e-06;0.010874724036406045
1.31325e-06;0.010891996344874864
1.31350e-06;0.010909268653343683
1.31375e-06;0.010926540961812515
1.31400e-06;0.010943813270281332
1.31425e-06;0.010961085578750166
1.31450e-06;0.010976301478565166
1.31475e-06;0.010987084420031453
1.31500e-06;0.010997867361497748
1.31525e-06;0.011008650302964036
1.31550e-06;0.01101943324443033
1.31575e-06;0.011030216185896616
1.31600e-06;0.011040999127362904
1.31625e-06;0.011051782068829199
1.31650e-06;0.011062565010295487
1.31675e-06;0.011073347951761781
1.31700e-06;0.011084130893228069
1.31725e-06;0.011088824929368623
1.31750e-06;0.011092154097132014
1.31775e-06;0.011095483264895406
1.31800e-06;0.0110988124326588
1.31825e-06;0.011102141600422192
1.31850e-06;0.011105470768185587
1.31875e-06;0.01110879993594898
1.31900e-06;0.011112129103712372
1.31925e-06;0.011115458271475767
1.31950e-06;0.011118787439239159
1.31975e-06;0.011115902523137332
1.32000e-06;0.011099622032718193
1.32025e-06;0.011083341542299053
1.32050e-06;0.0110670610518799
1.32075e-06;0.01105078056146076
1.32100e-06;0.011034500071041606
1.32125e-06;0.011018219580622468
1.32150e-06;0.011001939090203314
1.32175e-06;0.010985658599784174
1.32200e-06;0.010969378109365035
1.32225e-06;0.01095309761894588
1.32250e-06;0.010936817128526741
1.32275e-06;0.010906089224655345
1.32300e-06;0.010872122837559688
1.32325e-06;0.01083815645046403
1.32350e-06;0.010804190063368345
1.32375e-06;0.010770223676272688
1.32400e-06;0.010736257289177
1.32425e-06;0.010702290902081343
1.32450e-06;0.010668324514985686
1.32475e-06;0.01063435812789
1.32500e-06;0.010600391740794343
1.32525e-06;0.010566425353698656
1.32550e-06;0.01053211252737701
1.32575e-06;0.010497052889055579
1.32600e-06;0.01046199325073418
1.32625e-06;0.01042693361241278
1.32650e-06;0.01039187397409135
1.32675e-06;0.01035681433576995
1.32700e-06;0.010321754697448522
1.32725e-06;0.010286695059127122
1.32750e-06;0.010251635420805722
1.32775e-06;0.01022069882145176
1.32800e-06;0.010198650173418882
1.32825e-06;0.010176601525385987
1.32850e-06;0.01015455287735311
1.32875e-06;0.010132504229320232
1.32900e-06;0.010110455581287335
1.32925e-06;0.01008840693325446
1.32950e-06;0.010066358285221563
1.32975e-06;0.010044309637188685
1.33000e-06;0.010028498521202432
1.33025e-06;0.010026133526300832
1.33050e-06;0.010023768531399233
1.33075e-06;0.010021403536497633
1.33100e-06;0.010019038541596033
1.33125e-06;0.010016673546694431
1.33150e-06;0.010014308551792831
1.33175e-06;0.010011943556891233
1.33200e-06;0.010009578561989632
1.33225e-06;0.010007213567088032
1.33250e-06;0.01000484857218643
1.33275e-06;0.01000248357728483
1.33300e-06;0.010000118582383232
1.33325e-06;0.009997753587481631
1.33350e-06;0.009995388592580031
1.33375e-06;0.00999302359767843
1.33400e-06;0.00999065860277683
1.33425e-06;0.009997018083958401
1.33450e-06;0.01000533321412353
1.33475e-06;0.010013648344288658
1.33500e-06;0.010021963474453794
1.33525e-06;0.010030278604618923
1.33550e-06;0.010038593734784058
1.33575e-06;0.010046908864949187
1.33600e-06;0.010055223995114316
1.33625e-06;0.010063539125279452
1.33650e-06;0.01007185425544458
1.33675e-06;0.010080169385609716
1.33700e-06;0.010088484515774845
1.33725e-06;0.010096799645939973
1.33750e-06;0.010105114776105109
1.33775e-06;0.010113429906270238
1.33800e-06;0.010121745036435374
1.33825e-06;0.010129092817027336
1.33850e-06;0.010134355301801333
1.33875e-06;0.010139617786575328
1.33900e-06;0.010144880271349322
1.33925e-06;0.01015014275612332
1.33950e-06;0.010155405240897312
1.33975e-06;0.010160667725671311
1.34000e-06;0.010165930210445304
1.34025e-06;0.010171192695219298
1.34050e-06;0.010176455179993295
1.34075e-06;0.01018171766476729
1.34100e-06;0.010186980149541287
1.34125e-06;0.01019224263431528
1.34150e-06;0.010197505119089274
1.34175e-06;0.010202767603863272
1.34200e-06;0.010208030088637266
1.34225e-06;0.010213292573411263
1.34250e-06;0.010218555058185256
1.34275e-06;0.010223817542959255
1.34300e-06;0.010229080027733248
1.34325e-06;0.010234160523166131
1.34350e-06;0.010238848707874492
1.34375e-06;0.010243536892582849
1.34400e-06;0.01024822507729121
1.34425e-06;0.010252913261999567
1.34450e-06;0.010257601446707924
1.34475e-06;0.010262289631416285
1.34500e-06;0.010266977816124642
1.34525e-06;0.010271666000833003
1.34550e-06;0.01027635418554136
1.34575e-06;0.010281042370249717
1.34600e-06;0.010285730554958078
1.34625e-06;0.010290418739666433
1.34650e-06;0.010295106924374794
1.34675e-06;0.010299795109083151
1.34700e-06;0.010304483293791508
1.34725e-06;0.010309171478499869
1.34750e-06;0.010313859663208226
1.34775e-06;0.010318547847916587
1.34800e-06;0.010323236032624944
1.34825e-06;0.010325868611769621
1.34850e-06;0.010324069963771637
1.34875e-06;0.010322271315773653
1.34900e-06;0.010320472667775667
1.34925e-06;0.010318674019777683
1.34950e-06;0.010316875371779697
1.34975e-06;0.010315076723781713
1.35000e-06;0.010313278075783729
1.35025e-06;0.010311479427785743
1.35050e-06;0.010309680779787759
1.35075e-06;0.010307882131789773
1.35100e-06;0.010306083483791788
1.35125e-06;0.010304284835793804
1.35150e-06;0.010302486187795818
1.35175e-06;0.010300687539797834
1.35200e-06;0.010298888891799848
1.35225e-06;0.010297090243801864
1.35250e-06;0.010295291595803878
1.35275e-06;0.010293492947805894
1.35300e-06;0.01029169429980791
1.35325e-06;0.010289895651809924
1.35350e-06;0.01028809700381194
1.35375e-06;0.010286298355813954
1.35400e-06;0.01028449970781597
1.35425e-06;0.010282701059817986
1.35450e-06;0.01028090241182
1.35475e-06;0.010279103763822016
1.35500e-06;0.01027730511582403
1.35525e-06;0.010275506467826045
1.35550e-06;0.010273707819828061
1.35575e-06;0.010271909171830075
1.35600e-06;0.010270110523832091
1.35625e-06;0.010268311875834105
1.35650e-06;0.010266513227836121
1.35675e-06;0.01026391107509528
1.35700e-06;0.010261128811455132
1.35725e-06;0.010258346547814984
1.35750e-06;0.010255564284174835
1.35775e-06;0.010252782020534687
1.35800e-06;0.010249999756894538
1.35825e-06;0.01024721749325439
1.35850e-06;0.010244435229614242
1.35875e-06;0.010241652965974093
1.35900e-06;0.010238870702333945
1.35925e-06;0.010236088438693794
1.35950e-06;0.010233306175053646
1.35975e-06;0.0102305239114135
1.36000e-06;0.010227741647773349
1.36025e-06;0.010224959384133201
1.36050e-06;0.010222177120493052
1.36075e-06;0.010219394856852904
1.36100e-06;0.010216612593212755
1.36125e-06;0.010213830329572607
1.36150e-06;0.01021104806593246
1.36175e-06;0.01020826580229231
1.36200e-06;0.010205483538652162
1.36225e-06;0.010202701275012013
1.36250e-06;0.010199919011371865
1.36275e-06;0.010197136747731718
1.36300e-06;0.010194354484091568
1.36325e-06;0.01019157222045142
1.36350e-06;0.010188789956811271
1.36375e-06;0.010186007693171123
1.36400e-06;0.010183225429530976
1.36425e-06;0.010180443165890826
1.36450e-06;0.010177660902250679
1.36475e-06;0.010174878638610529
1.36500e-06;0.010172619251964785
1.36525e-06;0.010171487020630624
1.36550e-06;0.010170354789296463
1.36575e-06;0.010169222557962303
1.36600e-06;0.010168090326628142
1.36625e-06;0.010166958095293981
1.36650e-06;0.01016582586395982
1.36675e-06;0.010164693632625661
1.36700e-06;0.0101635614012915
1.36725e-06;0.010162429169957339
1.36750e-06;0.01016129693862318
1.36775e-06;0.010160164707289018
1.36800e-06;0.010159032475954857
1.36825e-06;0.010157900244620698
1.36850e-06;0.010156768013286537
1.36875e-06;0.010155635781952378
1.36900e-06;0.010154503550618216
1.36925e-06;0.010153371319284055
1.36950e-06;0.010152239087949894
1.36975e-06;0.010151106856615735
1.37000e-06;0.010149974625281574
1.37025e-06;0.010148842393947413
1.37050e-06;0.010147710162613253
1.37075e-06;0.010146577931279092
1.37100e-06;0.010145445699944931
1.37125e-06;0.010144313468610772
1.37150e-06;0.010143181237276611
1.37175e-06;0.01014204900594245
1.37200e-06;0.010140916774608289
1.37225e-06;0.010140119419496841
1.37250e-06;0.010140043950253726
1.37275e-06;0.01013996848101061
1.37300e-06;0.010139893011767495
1.37325e-06;0.01013981754252438
1.37350e-06;0.010139742073281265
1.37375e-06;0.01013966660403815
1.37400e-06;0.010139591134795034
1.37425e-06;0.010139515665551919
1.37450e-06;0.010139440196308802
1.37475e-06;0.010139364727065687
1.37500e-06;0.010139289257822572
1.37525e-06;0.010139213788579456
1.37550e-06;0.010139138319336341
1.37575e-06;0.010139062850093226
1.37600e-06;0.01013898738085011
1.37625e-06;0.010138911911606995
1.37650e-06;0.01013883644236388
1.37675e-06;0.010138760973120765
1.37700e-06;0.01013868550387765
1.37725e-06;0.010138610034634534
1.37750e-06;0.010138534565391417
1.37775e-06;0.010138459096148302
1.37800e-06;0.010138383626905187
1.37825e-06;0.010138308157662071
1.37850e-06;0.010138232688418956
1.37875e-06;0.01013815721917584
1.37900e-06;0.010138081749932725
1.37925e-06;0.01013800628068961
1.37950e-06;0.010140003588680628
1.37975e-06;0.010146469140434468
1.38000e-06;0.01015293469218831
1.38025e-06;0.01015940024394215
1.38050e-06;0.010165865795695995
1.38075e-06;0.010172331347449834
1.38100e-06;0.010178796899203672
1.38125e-06;0.010185262450957517
1.38150e-06;0.010191728002711356
1.38175e-06;0.0101981935544652
1.38200e-06;0.010204659106219038
1.38225e-06;0.010211124657972883
1.38250e-06;0.010217590209726722
1.38275e-06;0.01022405576148056
1.38300e-06;0.010230521313234405
1.38325e-06;0.010236986864988244
1.38350e-06;0.010243452416742089
1.38375e-06;0.010249917968495927
1.38400e-06;0.010256383520249766
1.38425e-06;0.01026284907200361
1.38450e-06;0.010269314623757448
1.38475e-06;0.010276196499677741
1.38500e-06;0.010283975837143505
1.38525e-06;0.010291755174609268
1.38550e-06;0.010299534512075036
1.38575e-06;0.010307313849540799
1.38600e-06;0.010315093187006569
1.38625e-06;0.010322872524472332
1.38650e-06;0.010330651861938095
1.38675e-06;0.010338431199403865
1.38700e-06;0.010346210536869628
1.38725e-06;0.010353989874335398
1.38750e-06;0.010361769211801162
1.38775e-06;0.010369548549266932
1.38800e-06;0.010377327886732695
1.38825e-06;0.010385107224198458
1.38850e-06;0.010392886561664226
1.38875e-06;0.010400665899129989
1.38900e-06;0.01040844523659576
1.38925e-06;0.010416224574061522
1.38950e-06;0.010424003911527285
1.38975e-06;0.010431783248993055
1.39000e-06;0.010437142211694308
1.39025e-06;0.010437283621700369
1.39050e-06;0.010437425031706428
1.39075e-06;0.010437566441712487
1.39100e-06;0.010437707851718546
1.39125e-06;0.010437849261724605
1.39150e-06;0.010437990671730664
1.39175e-06;0.010438132081736723
1.39200e-06;0.010438273491742783
1.39225e-06;0.010438414901748842
1.39250e-06;0.010438556311754901
1.39275e-06;0.01043869772176096
1.39300e-06;0.01043883913176702
1.39325e-06;0.010438980541773078
1.39350e-06;0.010439121951779137
1.39375e-06;0.010439263361785196
1.39400e-06;0.010439404771791257
1.39425e-06;0.010439546181797316
1.39450e-06;0.010439687591803375
1.39475e-06;0.010439829001809434
1.39500e-06;0.010439970411815493
1.39525e-06;0.010440111821821552
1.39550e-06;0.010440253231827611
1.39575e-06;0.010440394641833672
1.39600e-06;0.01044053605183973
1.39625e-06;0.01044067746184579
1.39650e-06;0.010440818871851849
1.39675e-06;0.010440960281857908
1.39700e-06;0.010441101691863967
1.39725e-06;0.010441243101870026
1.39750e-06;0.010441384511876086
1.39775e-06;0.010441525921882145
1.39800e-06;0.010441667331888204
1.39825e-06;0.010441808741894263
1.39850e-06;0.010441950151900322
1.39875e-06;0.010442091561906381
1.39900e-06;0.01044223297191244
1.39925e-06;0.01043936407479676
1.39950e-06;0.010430005919791846
1.39975e-06;0.01042064776478694
1.40000e-06;0.010411289609782028
1.40025e-06;0.010401931454777122
1.40050e-06;0.010392573299772207
1.40075e-06;0.010383215144767302
1.40100e-06;0.010373856989762396
1.40125e-06;0.010364498834757483
1.40150e-06;0.010355140679752578
1.40175e-06;0.010345782524747663
1.40200e-06;0.010336424369742758
1.40225e-06;0.010327066214737852
1.40250e-06;0.010317708059732937
1.40275e-06;0.010308349904728033
1.40300e-06;0.010298991749723119
1.40325e-06;0.010289633594718213
1.40350e-06;0.010274892294526413
1.40375e-06;0.010258944326758683
1.40400e-06;0.010242996358990968
1.40425e-06;0.010227048391223239
1.40450e-06;0.010211100423455523
1.40475e-06;0.010195152455687794
1.40500e-06;0.010179204487920077
1.40525e-06;0.010163256520152361
1.40550e-06;0.010147308552384632
1.40575e-06;0.010131360584616916
1.40600e-06;0.010115412616849187
1.40625e-06;0.010099464649081472
1.40650e-06;0.010083516681313754
1.40675e-06;0.010067568713546025
1.40700e-06;0.01005162074577831
1.40725e-06;0.01003567277801058
1.40750e-06;0.010021009748743103
1.40775e-06;0.01000911663528892
1.40800e-06;0.009997223521834726
1.40825e-06;0.009985330408380544
1.40850e-06;0.00997343729492635
1.40875e-06;0.009961544181472168
1.40900e-06;0.009949651068017975
1.40925e-06;0.009937757954563793
1.40950e-06;0.009925864841109609
1.40975e-06;0.009913971727655416
1.41000e-06;0.009902078614201233
1.41025e-06;0.00989018550074704
1.41050e-06;0.009878292387292858
1.41075e-06;0.009866399273838674
1.41100e-06;0.00985450616038448
1.41125e-06;0.009842195286484778
1.41150e-06;0.00982898385488213
1.41175e-06;0.009815772423279493
1.41200e-06;0.009802560991676857
1.41225e-06;0.009789349560074209
1.41250e-06;0.009776138128471572
1.41275e-06;0.009762926696868924
1.41300e-06;0.009749715265266285
1.41325e-06;0.009736503833663639
1.41350e-06;0.009723292402061
1.41375e-06;0.009710080970458364
1.41400e-06;0.009696869538855716
1.41425e-06;0.00968365810725308
1.41450e-06;0.00967044667565043
1.41475e-06;0.009657235244047794
1.41500e-06;0.00964476670839658
1.41525e-06;0.009633899618451128
1.41550e-06;0.009623032528505686
1.41575e-06;0.009612165438560234
1.41600e-06;0.009601298348614791
1.41625e-06;0.009590431258669348
1.41650e-06;0.009579564168723895
1.41675e-06;0.009568697078778452
1.41700e-06;0.009557829988833
1.41725e-06;0.009546962898887557
1.41750e-06;0.009536095808942104
1.41775e-06;0.009525228718996661
1.41800e-06;0.009514361629051218
1.41825e-06;0.009503494539105766
1.41850e-06;0.009492627449160324
1.41875e-06;0.009481760359214872
1.41900e-06;0.009470893269269429
1.41925e-06;0.009460026179323984
1.41950e-06;0.009449159089378533
1.41975e-06;0.00943829199943309
1.42000e-06;0.009427424909487638
1.42025e-06;0.009416557819542195
1.42050e-06;0.009405690729596752
1.42075e-06;0.009394823639651299
1.42100e-06;0.009383956549705856
1.42125e-06;0.009375110855596652
1.42150e-06;0.00936671827072538
1.42175e-06;0.0093583256858541
1.42200e-06;0.009349933100982828
1.42225e-06;0.009341540516111555
1.42250e-06;0.009333147931240276
1.42275e-06;0.009324755346369002
1.42300e-06;0.009316362761497722
1.42325e-06;0.00930797017662645
1.42350e-06;0.009299577591755178
1.42375e-06;0.009291185006883898
1.42400e-06;0.009282792422012626
1.42425e-06;0.009274399837141347
1.42450e-06;0.009266007252270074
1.42475e-06;0.009257614667398802
1.42500e-06;0.009249222082527521
1.42525e-06;0.009240829497656249
1.42550e-06;0.00923243691278497
1.42575e-06;0.009224044327913697
1.42600e-06;0.009215651743042425
1.42625e-06;0.009207259158171145
1.42650e-06;0.009198866573299873
1.42675e-06;0.009190473988428594
1.42700e-06;0.00918208140355732
1.42725e-06;0.00917520083061142
1.42750e-06;0.009171579671046539
1.42775e-06;0.009167958511481658
1.42800e-06;0.009164337351916773
1.42825e-06;0.009160716192351892
1.42850e-06;0.009157095032787008
1.42875e-06;0.009153473873222127
1.42900e-06;0.009149852713657246
1.42925e-06;0.009146231554092362
1.42950e-06;0.00914261039452748
1.42975e-06;0.009138989234962598
1.43000e-06;0.009148469988799621
1.43025e-06;0.009160887623127828
1.43050e-06;0.009173305257456046
1.43075e-06;0.009185722891784253
1.43100e-06;0.00919814052611247
1.43125e-06;0.009210558160440677
1.43150e-06;0.009222975794768894
1.43175e-06;0.009235393429097101
1.43200e-06;0.009247811063425308
1.43225e-06;0.009260228697753526
1.43250e-06;0.009277645960340617
1.43275e-06;0.00930584081996455
1.43300e-06;0.00933403567958846
1.43325e-06;0.009362230539212368
1.43350e-06;0.009390425398836302
1.43375e-06;0.00941862025846021
1.43400e-06;0.009446815118084144
1.43425e-06;0.009475009977708053
1.43450e-06;0.009503204837331962
1.43475e-06;0.009531399696955895
1.43500e-06;0.009559594556579804
1.43525e-06;0.009587789416203736
1.43550e-06;0.009615984275827645
1.43575e-06;0.009643215867454423
1.43600e-06;0.009668370961834986
1.43625e-06;0.009693526056215547
1.43650e-06;0.009718681150596131
1.43675e-06;0.009743836244976692
1.43700e-06;0.009768991339357276
1.43725e-06;0.009794146433737837
1.43750e-06;0.0098193015281184
1.43775e-06;0.009844456622498984
1.43800e-06;0.009869611716879546
1.43825e-06;0.00989476681126013
1.43850e-06;0.00991992190564069
1.43875e-06;0.009945077000021254
1.43900e-06;0.009964021300222852
1.43925e-06;0.009969577117627162
1.43950e-06;0.009975132935031475
1.43975e-06;0.009980688752435784
1.44000e-06;0.009986244569840097
1.44025e-06;0.009991800387244407
1.44050e-06;0.009997356204648715
1.44075e-06;0.010002912022053029
1.44100e-06;0.010008467839457339
1.44125e-06;0.010014023656861652
1.44150e-06;0.01001957947426596
1.44175e-06;0.01002513529167027
1.44200e-06;0.010030691109074584
1.44225e-06;0.010036246926478892
1.44250e-06;0.010041802743883206
1.44275e-06;0.010047358561287516
1.44300e-06;0.010052914378691824
1.44325e-06;0.010058470196096138
1.44350e-06;0.010064026013500448
1.44375e-06;0.010060617620270116
1.44400e-06;0.010055199839973893
1.44425e-06;0.010049782059677666
1.44450e-06;0.010044364279381443
1.44475e-06;0.010038946499085221
1.44500e-06;0.010033528718788995
1.44525e-06;0.010028110938492771
1.44550e-06;0.010022693158196545
1.44575e-06;0.010017275377900323
1.44600e-06;0.0100118575976041
1.44625e-06;0.010006439817307873
1.44650e-06;0.01000102203701165
1.44675e-06;0.009995604256715423
1.44700e-06;0.0099901864764192
1.44725e-06;0.009984768696122978
1.44750e-06;0.009979350915826751
1.44775e-06;0.009973933135530529
1.44800e-06;0.009968515355234303
1.44825e-06;0.009960648899529858
1.44850e-06;0.009947503884009638
1.44875e-06;0.00993435886848943
1.44900e-06;0.009921213852969223
1.44925e-06;0.009908068837449005
1.44950e-06;0.009894923821928798
1.44975e-06;0.00988177880640858
1.45000e-06;0.009868633790888372
1.45025e-06;0.009855488775368165
1.45050e-06;0.009824928805776123
1.45075e-06;0.009790465159118794
1.45100e-06;0.009756001512461436
1.45125e-06;0.009721537865804108
1.45150e-06;0.00968707421914678
1.45175e-06;0.009652610572489423
1.45200e-06;0.009618146925832094
