Time(s);Current(A)
1.15500e-05;-0.0021286333555318375
1.15503e-05;-0.002147231486351184
1.15505e-05;-0.0021658296171706564
1.15508e-05;-0.0021844277479901287
1.15510e-05;-0.0022030258788094752
1.15513e-05;-0.0022216240096289475
1.15515e-05;-0.00224022214044842
1.15517e-05;-0.0022588202712677664
1.15520e-05;-0.002272495903309049
1.15523e-05;-0.002281410840489601
1.15525e-05;-0.0022903257776700917
1.15528e-05;-0.0022992407148506437
1.15530e-05;-0.002308155652031195
1.15532e-05;-0.0023170705892116865
1.15535e-05;-0.002325985526392238
1.15538e-05;-0.0023349004635727895
1.15540e-05;-0.002343815400753341
1.15543e-05;-0.0023527303379338323
1.15545e-05;-0.002361645275114384
1.15548e-05;-0.002368195191414535
1.15550e-05;-0.002372457825734691
1.15553e-05;-0.0023767204600548754
1.15555e-05;-0.00238098309437506
1.15558e-05;-0.0023852457286952155
1.15560e-05;-0.0023895083630154
1.15563e-05;-0.0023937709973355847
1.15565e-05;-0.0023980336316557407
1.15568e-05;-0.0024012948761634855
1.15570e-05;-0.0024035876468230365
1.15573e-05;-0.0024058804174825724
1.15575e-05;-0.0024081731881421234
1.15578e-05;-0.0024104659588016744
1.15580e-05;-0.00241275872946121
1.15583e-05;-0.002415051500120761
1.15585e-05;-0.002417344270780312
1.15588e-05;-0.0024179984637060273
1.15590e-05;-0.0024170679394079028
1.15593e-05;-0.002416137415109778
1.15595e-05;-0.0024152068908116597
1.15598e-05;-0.0024142763665135347
1.15600e-05;-0.00241334584221541
1.15602e-05;-0.0024124153179172917
1.15605e-05;-0.0024079783102719118
1.15608e-05;-0.002400150078370966
1.15610e-05;-0.002392321846470074
1.15613e-05;-0.0023844936145691283
1.15615e-05;-0.0023766653826681828
1.15617e-05;-0.00236883715076729
1.15620e-05;-0.0023610089188663445
1.15623e-05;-0.0023491653847700048
1.15625e-05;-0.002333438532588294
1.15628e-05;-0.00231771168040669
1.15630e-05;-0.002301984828224979
1.15633e-05;-0.0022862579760432686
1.15635e-05;-0.0022705311238616645
1.15638e-05;-0.0022548042716799537
1.15640e-05;-0.002239077419498243
1.15643e-05;-0.002223350567316639
1.15645e-05;-0.002207587295734207
1.15648e-05;-0.0021875013882420085
1.15650e-05;-0.002167415480749946
1.15653e-05;-0.002147329573257748
1.15655e-05;-0.0021272436657655495
1.15658e-05;-0.002107157758273487
1.15660e-05;-0.0020870718507812885
1.15663e-05;-0.0020669859432890904
1.15665e-05;-0.002046900035797028
1.15668e-05;-0.0020268141283048295
1.15670e-05;-0.0020076769301930557
1.15673e-05;-0.0019894572571183974
1.15675e-05;-0.0019712375840436154
1.15678e-05;-0.0019530179109688334
1.15680e-05;-0.001934798237894175
1.15683e-05;-0.0019188079813108982
1.15685e-05;-0.001904973859673852
1.15687e-05;-0.0018911397380368994
1.15690e-05;-0.0018773056163998532
1.15693e-05;-0.0018634714947628067
1.15695e-05;-0.0018521083103290095
1.15698e-05;-0.0018431348426996067
1.15700e-05;-0.0018341613750702038
1.15702e-05;-0.0018251879074408619
1.15705e-05;-0.001816214439811459
1.15708e-05;-0.001807240972182056
1.15710e-05;-0.0017982675045526532
1.15713e-05;-0.001789294036923311
1.15715e-05;-0.0017803205692939082
1.15718e-05;-0.0017713471016645053
1.15720e-05;-0.0017623736340351634
1.15723e-05;-0.0017534001664057605
1.15725e-05;-0.0017444266987763576
1.15728e-05;-0.0017354532311470155
1.15730e-05;-0.0017283731187721552
1.15733e-05;-0.0017231241265339614
1.15735e-05;-0.0017178751342958032
1.15738e-05;-0.0017126261420576095
1.15740e-05;-0.0017073771498194157
1.15743e-05;-0.0017021281575812575
1.15745e-05;-0.0016968791653430638
1.15748e-05;-0.00169163017310487
1.15750e-05;-0.0016863811808667118
1.15753e-05;-0.001681132188628518
1.15755e-05;-0.0016758831963903243
1.15758e-05;-0.0016706342041521661
1.15760e-05;-0.0016653852119139724
1.15763e-05;-0.0016601362196757786
1.15765e-05;-0.001655675312627876
1.15768e-05;-0.0016519765861892127
1.15770e-05;-0.0016482778597505497
1.15772e-05;-0.0016445791333119114
1.15775e-05;-0.0016408804068732481
1.15778e-05;-0.0016371879392618886
1.15780e-05;-0.0016342383348359906
1.15783e-05;-0.0016312887304100725
1.15785e-05;-0.0016283391259841547
1.15787e-05;-0.0016253895215582565
1.15790e-05;-0.0016224399171323386
1.15793e-05;-0.001617865351629365
1.15795e-05;-0.0016117192379750324
1.15798e-05;-0.0016055731243207415
1.15800e-05;-0.001599427010666409
1.15803e-05;-0.0015932808970120765
1.15805e-05;-0.0015871347833577856
1.15808e-05;-0.0015809886697034533
1.15810e-05;-0.0015716088093306645
1.15813e-05;-0.0015591014963996289
1.15815e-05;-0.0015465941834685085
1.15818e-05;-0.001534086870537388
1.15820e-05;-0.0015215795576063525
1.15823e-05;-0.001509072244675232
1.15825e-05;-0.0014965649317441117
1.15828e-05;-0.001480861572057765
1.15830e-05;-0.0014620672205675506
1.15833e-05;-0.0014432728690773361
1.15835e-05;-0.001424478517587249
1.15838e-05;-0.0014056841660970345
1.15840e-05;-0.00138688981460682
1.15843e-05;-0.0013680954631167328
1.15845e-05;-0.0013493011116265184
1.15848e-05;-0.0013289265796183518
1.15850e-05;-0.0013070238080682697
1.15853e-05;-0.001285121036518039
1.15855e-05;-0.0012632182649678083
1.15857e-05;-0.001241315493417726
1.15860e-05;-0.0012194127218674953
1.15863e-05;-0.0011975099503172646
1.15865e-05;-0.0011756071787671824
1.15868e-05;-0.0011543208936587175
1.15870e-05;-0.0011336308309101832
1.15872e-05;-0.0011129407681617891
1.15875e-05;-0.001092271811346672
1.15878e-05;-0.0010741079278202615
1.15880e-05;-0.0010559440442938512
1.15883e-05;-0.0010377801607675638
1.15885e-05;-0.0010211320960152278
1.15888e-05;-0.0010059500246498117
1.15890e-05;-0.0009908539866418117
1.15893e-05;-0.0009758411540505016
1.15895e-05;-0.0009590304092297752
1.15898e-05;-0.000940480850057658
1.15900e-05;-0.0009199738828229
1.15903e-05;-0.0008975738480761239
1.15905e-05;-0.0008751738133294997
1.15908e-05;-0.000851220966486631
1.15910e-05;-0.0008257663489155453
1.15913e-05;-0.0007980820248705612
1.15915e-05;-0.000768241285426663
1.15918e-05;-0.0007359741833805148
1.15920e-05;-0.0007013604739496077
1.15923e-05;-0.0006648596084007046
1.15925e-05;-0.0006265336180833152
1.15928e-05;-0.0005867157516496844
1.15930e-05;-0.0005454550474843598
1.15933e-05;-0.0005023392333323267
1.15935e-05;-0.00045742928717782804
1.15938e-05;-0.00041081197464873354
1.15940e-05;-0.000362543417355393
1.15942e-05;-0.000313176092769983
1.15945e-05;-0.0002627461176799003
1.15948e-05;-0.00021173573182333753
1.15950e-05;-0.0001601640134647866
1.15953e-05;-0.00010817688270725461
1.15955e-05;-5.5544459951526216e-05
1.15957e-05;-2.5869866200652877e-06
1.15960e-05;5.038231512368367e-05
1.15963e-05;0.00010304032230702414
1.15965e-05;0.00015506398107921523
1.15968e-05;0.00020614365956931404
1.15970e-05;0.00025605227651442425
1.15973e-05;0.00030467767722929705
1.15975e-05;0.0003518874775840587
1.15978e-05;0.0003974209650478391
1.15980e-05;0.0004409489432558455
1.15983e-05;0.00048213606356452846
1.15985e-05;0.0005206469916399262
1.15988e-05;0.0005561447656890512
1.15990e-05;0.0005882972710180887
1.15993e-05;0.0006168225738949668
1.15995e-05;0.000641545328882019
1.15998e-05;0.0006623818559649364
1.16000e-05;0.0006792791008816155
1.16003e-05;0.0006921859000706328
1.16005e-05;0.000701051088025296
1.16008e-05;0.0007058224951193658
1.16010e-05;0.0007064509714557884
1.16013e-05;0.0007029188104656204
1.16015e-05;0.0006952751289877236
1.16018e-05;0.0006836264327936084
1.16020e-05;0.0006680984116760377
1.16023e-05;0.0006488179001280017
1.16025e-05;0.0006259117622328264
1.16027e-05;0.0005995062397082223
1.16030e-05;0.0005697294598487206
1.16033e-05;0.0005367292334945995
1.16035e-05;0.0005006951923271614
1.16038e-05;0.0004618529223271107
1.16040e-05;0.00042044002501572995
1.16042e-05;0.00037669480207078447
1.16045e-05;0.00033085555614177794
1.16048e-05;0.0002831601894394535
1.16050e-05;0.00023384775749821826
1.16053e-05;0.00018316964038278145
1.16055e-05;0.00013140339046964608
1.16058e-05;7.884907565520872e-05
1.16060e-05;2.5814268694521806e-05
1.16063e-05;-2.7393049937442555e-05
1.16065e-05;-8.046490985236688e-05
1.16068e-05;-0.00013309363090435478
1.16070e-05;-0.00018497081863165401
1.16073e-05;-0.00023578037243679117
1.16075e-05;-0.00028518982332563107
1.16078e-05;-0.0003328526296130079
1.16080e-05;-0.00037841757669083997
1.16083e-05;-0.00042153319190717405
1.16085e-05;-0.00046184807707261706
1.16088e-05;-0.0004985406066287567
1.16090e-05;-0.0005331436786096318
1.16093e-05;-0.0005669007312522861
1.16095e-05;-0.0005998395734483036
1.16098e-05;-0.0006324147400353297
1.16100e-05;-0.0006646381851325802
1.16103e-05;-0.0006968616302298308
1.16105e-05;-0.0007290656257937576
1.16108e-05;-0.0007589611469619556
1.16110e-05;-0.0007888566681301534
1.16113e-05;-0.0008187521892981488
1.16115e-05;-0.0008493349304798671
1.16118e-05;-0.0008805823025614799
1.16120e-05;-0.0009118296746428809
1.16123e-05;-0.0009430770467244938
1.16125e-05;-0.0009743244188061067
1.16127e-05;-0.0010055717908875076
1.16130e-05;-0.0010368191629691206
1.16133e-05;-0.0010680665350507334
1.16135e-05;-0.0010993201899632719
1.16138e-05;-0.0011313195570879491
1.16140e-05;-0.0011633189242128432
1.16143e-05;-0.0011953182913377373
1.16145e-05;-0.0012273176584624145
1.16148e-05;-0.0012593170255873086
1.16150e-05;-0.0012913163927122026
1.16153e-05;-0.0013233157598368799
1.16155e-05;-0.001355315126961774
1.16158e-05;-0.0013859270803336285
1.16160e-05;-0.0014151972246293088
1.16163e-05;-0.0014444673689251876
1.16165e-05;-0.0014737375132210663
1.16168e-05;-0.0015030076575167468
1.16170e-05;-0.0015322778018126255
1.16173e-05;-0.0015615479461085042
1.16175e-05;-0.0015908180904041845
1.16178e-05;-0.0016153191460527364
1.16180e-05;-0.0016352078743277002
1.16183e-05;-0.0016550966026025293
1.16185e-05;-0.001674985330877493
1.16188e-05;-0.0016948740591524569
1.16190e-05;-0.0017147627874272858
1.16193e-05;-0.0017346515157022496
1.16195e-05;-0.0017545402439772134
1.16198e-05;-0.0017671836279033195
1.16200e-05;-0.001772819823969436
1.16203e-05;-0.0017784560200355525
1.16205e-05;-0.0017840922161016309
1.16208e-05;-0.0017897284121677474
1.16210e-05;-0.001795364608233864
1.16212e-05;-0.001801000804299942
1.16215e-05;-0.0018066370003660586
1.16218e-05;-0.001812273196432175
1.16220e-05;-0.001810987947670588
1.16223e-05;-0.0018030087639023973
1.16225e-05;-0.0017950295801341528
1.16228e-05;-0.001787050396365908
1.16230e-05;-0.0017790712125977173
1.16233e-05;-0.0017710920288294728
1.16235e-05;-0.001763112845061228
1.16238e-05;-0.0017551336612930376
1.16240e-05;-0.0017471544775247928
1.16243e-05;-0.001735206998371365
1.16245e-05;-0.0017194216628083486
1.16248e-05;-0.0017036363272452254
1.16250e-05;-0.0016878509916821022
1.16253e-05;-0.001672065656119086
1.16255e-05;-0.0016562803205559628
1.16258e-05;-0.0016404949849928396
1.16260e-05;-0.0016247096494298233
1.16263e-05;-0.0016085853957013344
1.16265e-05;-0.0015921333641420235
1.16268e-05;-0.0015756813325828241
1.16270e-05;-0.0015592293010235133
1.16273e-05;-0.0015427772694642024
1.16275e-05;-0.0015263252379050032
1.16278e-05;-0.0015098732063456924
1.16280e-05;-0.0014934211747863815
1.16283e-05;-0.0014785188902761929
1.16285e-05;-0.0014651154121976488
1.16288e-05;-0.0014530065623038024
1.16290e-05;-0.0014421497858056178
1.16293e-05;-0.0014346779645012567
1.16295e-05;-0.0014304798339706223
1.16297e-05;-0.001426281703440016
1.16300e-05;-0.0014265996213997188
1.16303e-05;-0.0014312851440777272
1.16305e-05;-0.0014359706667557354
1.16308e-05;-0.0014451100394315358
1.16310e-05;-0.0014585568628149373
1.16313e-05;-0.0014720036861983388
1.16315e-05;-0.001490577693275862
1.16318e-05;-0.0015141103520912459
1.16320e-05;-0.0015376430109066298
1.16323e-05;-0.0015656594452232986
1.16325e-05;-0.0015980122720917929
1.16328e-05;-0.0016303650989602872
1.16330e-05;-0.001666690225746782
1.16333e-05;-0.0017068570818469437
1.16335e-05;-0.0017470239379471057
1.16338e-05;-0.001791984713759922
1.16340e-05;-0.001841581831809782
1.16343e-05;-0.001891178949859642
1.16345e-05;-0.0019407760679091659
1.16348e-05;-0.001990373185959026
1.16350e-05;-0.002039970304008886
1.16353e-05;-0.0020896058875845367
1.16355e-05;-0.0021438069629619093
1.16358e-05;-0.002198008038339282
1.16360e-05;-0.002252209113716287
1.16363e-05;-0.0023064101890936596
1.16365e-05;-0.002360611264471032
1.16368e-05;-0.002414812339848038
1.16370e-05;-0.002467217311410509
1.16373e-05;-0.0025178852175905334
1.16375e-05;-0.002568553123770214
1.16378e-05;-0.00261621916854808
1.16380e-05;-0.0026609820239437546
1.16382e-05;-0.002705744879339126
1.16385e-05;-0.002743296536597251
1.16388e-05;-0.0027738740298079195
1.16390e-05;-0.0028044515230185875
1.16393e-05;-0.0028350290162290482
1.16395e-05;-0.0028656065094397167
1.16398e-05;-0.0028961840026503847
1.16400e-05;-0.0029157084706344263
1.16403e-05;-0.0029245432294078824
1.16405e-05;-0.0029333779881813384
1.16408e-05;-0.0029422127469547346
1.16410e-05;-0.0029510475057281907
1.16413e-05;-0.0029598822645016468
1.16415e-05;-0.00295746409003926
1.16418e-05;-0.0029441628693883896
1.16420e-05;-0.0029308616487375197
1.16423e-05;-0.0029175604280867397
1.16425e-05;-0.0029042592074358694
1.16428e-05;-0.002890957986784999
1.16430e-05;-0.0028775057022307504
1.16433e-05;-0.0028461235701956822
1.16435e-05;-0.002814741438160614
1.16438e-05;-0.002783359306125759
1.16440e-05;-0.0027519771740906907
1.16443e-05;-0.0027205950420556226
1.16445e-05;-0.0026892129100207674
1.16448e-05;-0.0026537374816740142
1.16450e-05;-0.002614303304804324
1.16453e-05;-0.0025737360027818664
1.16455e-05;-0.0025320728217451557
1.16458e-05;-0.002489802924300187
1.16460e-05;-0.002446946253384397
1.16463e-05;-0.0024039779092472507
1.16465e-05;-0.002360901562618883
1.16467e-05;-0.002318219711852818
1.16470e-05;-0.0022759193897597483
1.16473e-05;-0.002234596430277107
1.16475e-05;-0.0021942187072240093
1.16478e-05;-0.002155951669202247
1.16480e-05;-0.002119725937407214
1.16483e-05;-0.0020835002056121816
1.16485e-05;-0.002050645383553301
1.16488e-05;-0.00202105066848953
1.16490e-05;-0.00199145595342576
1.16493e-05;-0.0019632008632992953
1.16495e-05;-0.0019362413642655067
1.16498e-05;-0.0019092818652317177
1.16500e-05;-0.0018831420856475823
1.16503e-05;-0.0018577950811064898
1.16505e-05;-0.0018324480765653974
1.16508e-05;-0.0018071010720244766
1.16510e-05;-0.0017817605257891731
1.16513e-05;-0.0017571865189850114
1.16515e-05;-0.0017326125121810165
1.16518e-05;-0.0017080385053768548
1.16520e-05;-0.0016834644985726933
1.16523e-05;-0.0016586412605220989
1.16525e-05;-0.001633576983525099
1.16528e-05;-0.001608512706528099
1.16530e-05;-0.0015834484295312687
1.16533e-05;-0.0015583841525342688
1.16535e-05;-0.0015333198755372688
1.16538e-05;-0.0015080475896587266
1.16540e-05;-0.0014825741322080585
1.16543e-05;-0.0014571006747573906
1.16545e-05;-0.0014316272173068951
1.16548e-05;-0.001406153759856227
1.16550e-05;-0.0013806803024055592
1.16552e-05;-0.0013557477498377063
1.16555e-05;-0.00133133832245852
1.16558e-05;-0.0013069288950793337
1.16560e-05;-0.0012825194677001473
1.16563e-05;-0.0012581100403211264
1.16565e-05;-0.0012337006129419402
1.16568e-05;-0.0012093244365599227
1.16570e-05;-0.001188894837102999
1.16573e-05;-0.0011684652376459368
1.16575e-05;-0.0011480356381888745
1.16578e-05;-0.0011276060387319508
1.16580e-05;-0.0011071764392748885
1.16583e-05;-0.0010867468398178264
1.16585e-05;-0.0010685607016996594
1.16588e-05;-0.0010525442817227097
1.16590e-05;-0.0010368103293048664
1.16593e-05;-0.0010213495596591014
1.16595e-05;-0.0010058887900132316
1.16598e-05;-0.0009888742685613926
1.16600e-05;-0.0009703570675571375
1.16603e-05;-0.000951839866552757
1.16605e-05;-0.0009333226655483765
1.16608e-05;-0.0009148054645441214
1.16610e-05;-0.0008962471063418954
1.16613e-05;-0.000872803780411197
1.16615e-05;-0.0008493604544806575
1.16618e-05;-0.0008259171285499592
1.16620e-05;-0.0008024738026192608
1.16623e-05;-0.0007790304766887214
1.16625e-05;-0.0007535100191627312
1.16628e-05;-0.0007259807059337068
1.16630e-05;-0.0006984513927048688
1.16633e-05;-0.0006694710969462793
1.16635e-05;-0.0006390875128567021
1.16637e-05;-0.0006087039287673308
1.16640e-05;-0.0005771072928347904
1.16643e-05;-0.000544337478410108
1.16645e-05;-0.0005115676639854256
1.16648e-05;-0.0004787978495609652
1.16650e-05;-0.00044551547458125267
1.16653e-05;-0.0004117373870542272
1.16655e-05;-0.00037795929952743056
1.16658e-05;-0.00034418121200040507
1.16660e-05;-0.0003105853270466532
1.16663e-05;-0.00027716565561724805
1.16665e-05;-0.00024374598418761646
1.16668e-05;-0.00021117947318495008
1.16670e-05;-0.0001794380789894595
1.16673e-05;-0.0001483437695620883
1.16675e-05;-0.00011836325728493627
1.16678e-05;-8.94458095338803e-05
1.16680e-05;-6.179915437590356e-05
1.16683e-05;-3.563569051960758e-05
1.16685e-05;-1.1167785507574731e-05
1.16688e-05;1.1449453379328451e-05
1.16690e-05;3.2418846536971076e-05
1.16693e-05;5.245711388210435e-05
1.16695e-05;7.223161382791288e-05
1.16698e-05;9.188848217440376e-05
1.16700e-05;0.00011116120130344172
1.16703e-05;0.00013014442210140516
1.16705e-05;0.00014846689487992774
1.16708e-05;0.00016615033860957362
1.16710e-05;0.0001834669508006365
1.16713e-05;0.00020042878930741955
1.16715e-05;0.00021739062781408767
1.16718e-05;0.00023445478835038572
1.16720e-05;0.00025161790756271084
1.16722e-05;0.0002687810267749197
1.16725e-05;0.0002859441459872448
1.16728e-05;0.00030310726519956993
1.16730e-05;0.00032027038441189505
1.16733e-05;0.0003374335036241039
1.16735e-05;0.0003544859176359926
1.16738e-05;0.0003714312653580802
1.16740e-05;0.00038837661308005293
1.16743e-05;0.00040532196080214053
1.16745e-05;0.0004222673085242281
1.16748e-05;0.0004392126562462009
1.16750e-05;0.0004561580039682885
1.16753e-05;0.0004726649334800452
1.16755e-05;0.0004887478557094795
1.16758e-05;0.0005048307779390228
1.16760e-05;0.0005209137001685662
1.16763e-05;0.0005369966223980005
1.16765e-05;0.0005530795446275439
1.16768e-05;0.0005679456509008898
1.16770e-05;0.0005816349382957031
1.16773e-05;0.0005953242256906092
1.16775e-05;0.0006090135130855152
1.16778e-05;0.0006227028004803285
1.16780e-05;0.0006363920878752346
1.16783e-05;0.0006490117160549032
1.16785e-05;0.0006601745640027156
1.16788e-05;0.000670406626948829
1.16790e-05;0.0006792576375235851
1.16793e-05;0.0006850752266543014
1.16795e-05;0.0006887783107301374
1.16798e-05;0.0006893259013539348
1.16800e-05;0.0006868217204699545
1.16803e-05;0.0006820667501338309
1.16805e-05;0.0006737012133559118
1.16807e-05;0.0006617561325174707
1.16810e-05;0.0006476902221539009
1.16813e-05;0.0006310555761909569
1.16815e-05;0.0006100843455546247
1.16818e-05;0.0005855666058084669
1.16820e-05;0.0005577088977883506
1.16823e-05;0.000526732761796985
1.16825e-05;0.0004928597638369216
1.16828e-05;0.00045629167701847557
1.16830e-05;0.00041711176269986443
1.16833e-05;0.0003752473118853127
1.16835e-05;0.00033067708510868993
1.16838e-05;0.00028358469827437753
1.16840e-05;0.00023425937753671728
1.16843e-05;0.0001829997131572915
1.16845e-05;0.0001301042630823991
1.16848e-05;7.585921114967514e-05
1.16850e-05;2.047649002402102e-05
1.16853e-05;-3.5929688478153856e-05
1.16855e-05;-9.33241199022498e-05
1.16858e-05;-0.00015120591250205077
1.16860e-05;-0.0002090563555722825
1.16863e-05;-0.00026687647958027305
1.16865e-05;-0.0003246966035886554
1.16868e-05;-0.00038149233391179306
1.16870e-05;-0.0004372973426534419
1.16873e-05;-0.0004916605861977295
1.16875e-05;-0.0005446294557655782
1.16878e-05;-0.0005955029655345095
1.16880e-05;-0.0006443499905620081
1.16883e-05;-0.0006903374975996929
1.16885e-05;-0.0007335594797953733
1.16888e-05;-0.000773164303040565
1.16890e-05;-0.0008092708643511543
1.16892e-05;-0.0008411943847080672
1.16895e-05;-0.0008690723618259633
1.16898e-05;-0.0008925573854759359
1.16900e-05;-0.0009117938532544883
1.16903e-05;-0.0009265113283271697
1.16905e-05;-0.0009368583512350131
1.16908e-05;-0.0009425661418677403
1.16910e-05;-0.0009437871930745484
1.16913e-05;-0.0009403689972111741
1.16915e-05;-0.0009324640476131329
1.16918e-05;-0.0009201428571002228
1.16920e-05;-0.0009035505887338
1.16923e-05;-0.000882817548941259
1.16925e-05;-0.0008580798460259817
1.16928e-05;-0.0008294804807615448
1.16930e-05;-0.0007971463870585878
1.16933e-05;-0.0007613050174221583
1.16935e-05;-0.0007220716569826194
1.16938e-05;-0.0006798250429360948
