Time(s);Current(A)
1.25000e-06;-0.009180713603458042
1.25025e-06;-0.009222735188465551
1.25050e-06;-0.009264756773473095
1.25075e-06;-0.009306778358480605
1.25100e-06;-0.009349813545443992
1.25125e-06;-0.009393675423858942
1.25150e-06;-0.009437537302273891
1.25175e-06;-0.009481399180688877
1.25200e-06;-0.009525261059103824
1.25225e-06;-0.00956912293751881
1.25250e-06;-0.009610841854848631
1.25275e-06;-0.009650812977987696
1.25300e-06;-0.009690784101126792
1.25325e-06;-0.009727634226205782
1.25350e-06;-0.009761938872360055
1.25375e-06;-0.0097962435185143
1.25400e-06;-0.009826154863613615
1.25425e-06;-0.009852483042357158
1.25450e-06;-0.009878811221100679
1.25475e-06;-0.0098974984981907
1.25500e-06;-0.009909953873257524
1.25525e-06;-0.009922409248324361
1.25550e-06;-0.009934864623391186
1.25575e-06;-0.009947319998458012
1.25600e-06;-0.009959775373524847
1.25625e-06;-0.009972230748591673
1.25650e-06;-0.009974068804385776
1.25675e-06;-0.009967247398711045
1.25700e-06;-0.009960425993036315
1.25725e-06;-0.009953604587361579
1.25750e-06;-0.009946783181686849
1.25775e-06;-0.009939961776012113
1.25800e-06;-0.009933140370337384
1.25825e-06;-0.009918285175003986
1.25850e-06;-0.009896877639083427
1.25875e-06;-0.009875470103162885
1.25900e-06;-0.009854062567242328
1.25925e-06;-0.009832655031321786
1.25950e-06;-0.009811247495401229
1.25975e-06;-0.009785312263834375
1.26000e-06;-0.009755684253988562
1.26025e-06;-0.009726056244142724
1.26050e-06;-0.00969642823429691
1.26075e-06;-0.009666800224451072
1.26100e-06;-0.009637172214605258
1.26125e-06;-0.009606247194361968
1.26150e-06;-0.009574264335386213
1.26175e-06;-0.009542281476410484
1.26200e-06;-0.009510479862048971
1.26225e-06;-0.00947882607038294
1.26250e-06;-0.009447857332063096
1.26275e-06;-0.00941744732169544
1.26300e-06;-0.009388590970938478
1.26325e-06;-0.009361001781428903
1.26350e-06;-0.009333412591919353
1.26375e-06;-0.009312501687724514
1.26400e-06;-0.009297037577854411
1.26425e-06;-0.009281573467984307
1.26450e-06;-0.009266109358114191
1.26475e-06;-0.009250645248244089
1.26500e-06;-0.00923518113837397
1.26525e-06;-0.009219717028503868
1.26550e-06;-0.009204252918633764
1.26575e-06;-0.009188788808763648
1.26600e-06;-0.009173324698893546
1.26625e-06;-0.009157860589023428
1.26650e-06;-0.009142396479153325
1.26675e-06;-0.009126932369283221
1.26700e-06;-0.009111468259413105
1.26725e-06;-0.009096004149543003
1.26750e-06;-0.009080540039672885
1.26775e-06;-0.009065075929802782
1.26800e-06;-0.009049611819932666
1.26825e-06;-0.009034147710062562
1.26850e-06;-0.009019177565480464
1.26875e-06;-0.009013440475140432
1.26900e-06;-0.009007703384800404
1.26925e-06;-0.009001966294460371
1.26950e-06;-0.008996229204120344
1.26975e-06;-0.008990492113780316
1.27000e-06;-0.008984755023440285
1.27025e-06;-0.008979017933100257
1.27050e-06;-0.008973280842760225
1.27075e-06;-0.008967543752420197
1.27100e-06;-0.00896180666208017
1.27125e-06;-0.008956069571740137
1.27150e-06;-0.008950332481400109
1.27175e-06;-0.008944595391060076
1.27200e-06;-0.008938858300720049
1.27225e-06;-0.008933121210380021
1.27250e-06;-0.008927384120039988
1.27275e-06;-0.00892164702969996
1.27300e-06;-0.00891590993935993
1.27325e-06;-0.008910172849019902
1.27350e-06;-0.008905503299979968
1.27375e-06;-0.008901939369254692
1.27400e-06;-0.00889856705021201
1.27425e-06;-0.008895194731169323
1.27450e-06;-0.008893390007054395
1.27475e-06;-0.008892863809799737
1.27500e-06;-0.008892337612545079
1.27525e-06;-0.008893981905038779
1.27550e-06;-0.008897396444038181
1.27575e-06;-0.008900810983037579
1.27600e-06;-0.008907755754126823
1.27625e-06;-0.008917579774485056
1.27650e-06;-0.008927403794843287
1.27675e-06;-0.008937227815201527
1.27700e-06;-0.00894705183555976
1.27725e-06;-0.008956875855918
1.27750e-06;-0.00896714345401987
1.27775e-06;-0.00898570227716524
1.27800e-06;-0.009004261100310594
1.27825e-06;-0.009022819923455948
1.27850e-06;-0.009041378746601318
1.27875e-06;-0.009059937569746672
1.27900e-06;-0.009078496392892042
1.27925e-06;-0.009100464913882425
1.27950e-06;-0.009125214376685628
1.27975e-06;-0.009149963839488852
1.28000e-06;-0.009174713302292057
1.28025e-06;-0.00919946276509528
1.28050e-06;-0.009224212227898484
1.28075e-06;-0.009248961690701689
1.28100e-06;-0.00927373516683827
1.28125e-06;-0.009298957493156696
1.28150e-06;-0.00932417981947514
1.28175e-06;-0.009349402145793566
1.28200e-06;-0.00937462447211201
1.28225e-06;-0.009399846798430436
1.28250e-06;-0.00942506912474886
1.28275e-06;-0.009450291451067306
1.28300e-06;-0.009473327420184308
1.28325e-06;-0.00949458020133705
1.28350e-06;-0.009515832982489775
1.28375e-06;-0.00953237316856692
1.28400e-06;-0.009545069772811342
1.28425e-06;-0.009557766377055753
1.28450e-06;-0.009570462981300175
1.28475e-06;-0.009583159585544586
1.28500e-06;-0.009595856189788997
1.28525e-06;-0.009608552794033418
1.28550e-06;-0.00962124939827783
1.28575e-06;-0.009626610468731346
1.28600e-06;-0.009625988694497468
1.28625e-06;-0.00962536692026359
1.28650e-06;-0.009624745146029713
1.28675e-06;-0.009624123371795835
1.28700e-06;-0.009623501597561958
1.28725e-06;-0.00962287982332808
1.28750e-06;-0.0096222580490942
1.28775e-06;-0.00961549743000818
1.28800e-06;-0.0096037299830134
1.28825e-06;-0.009591962536018609
1.28850e-06;-0.009580195089023828
1.28875e-06;-0.009568427642029037
1.28900e-06;-0.009556660195034256
1.28925e-06;-0.009544892748039475
1.28950e-06;-0.009532799758943422
1.28975e-06;-0.009514621832403047
1.29000e-06;-0.009496443905862656
1.29025e-06;-0.009478265979322279
1.29050e-06;-0.009460088052781888
1.29075e-06;-0.009441910126241512
1.29100e-06;-0.009423732199701136
1.29125e-06;-0.009405554273160746
1.29150e-06;-0.009386690786017194
1.29175e-06;-0.009367268157203859
1.29200e-06;-0.00934784552839054
1.29225e-06;-0.009328422899577223
1.29250e-06;-0.009309098192781997
1.29275e-06;-0.009291603815619274
1.29300e-06;-0.009274109438456536
1.29325e-06;-0.009256615061293813
1.29350e-06;-0.00923912068413109
1.29375e-06;-0.0092234189757898
1.29400e-06;-0.009209179364064788
1.29425e-06;-0.009194939752339763
1.29450e-06;-0.00918040934315751
1.29475e-06;-0.009165641760230067
1.29500e-06;-0.009150874177302636
1.29525e-06;-0.009136106594375203
1.29550e-06;-0.00912133901144776
1.29575e-06;-0.00910657142852033
1.29600e-06;-0.009091803845592885
1.29625e-06;-0.009075202443337236
1.29650e-06;-0.009057105382205555
1.29675e-06;-0.009039008321073858
1.29700e-06;-0.009020911259942175
1.29725e-06;-0.009002814198810478
1.29750e-06;-0.008984717137678797
1.29775e-06;-0.008966620076547116
1.29800e-06;-0.008946489278354787
1.29825e-06;-0.008924699768838293
1.29850e-06;-0.008902910259321781
1.29875e-06;-0.008881120749805287
1.29900e-06;-0.008859331240288773
1.29925e-06;-0.008837541730772279
1.29950e-06;-0.008815646025412857
1.29975e-06;-0.008791765338515337
1.30000e-06;-0.008767884651617838
1.30025e-06;-0.00874400396472032
1.30050e-06;-0.00872012327782282
1.30075e-06;-0.00869624259092532
1.30100e-06;-0.0086723619040278
1.30125e-06;-0.008648543639985112
1.30150e-06;-0.008624776287880904
1.30175e-06;-0.008601008935776717
1.30200e-06;-0.008578010163428284
1.30225e-06;-0.008555638242981708
1.30250e-06;-0.008533266322535154
1.30275e-06;-0.008511746508253832
1.30300e-06;-0.008490921669824143
1.30325e-06;-0.008471062984878285
1.30350e-06;-0.008451992292517883
1.30375e-06;-0.00843419937468802
1.30400e-06;-0.008417448606860972
1.30425e-06;-0.008402488570019934
1.30450e-06;-0.00838898904930087
1.30475e-06;-0.008377869133578682
1.30500e-06;-0.008368690018283272
1.30525e-06;-0.008361952832194057
1.30550e-06;-0.008357207278015104
1.30575e-06;-0.008355494578879042
1.30600e-06;-0.008356255469422503
1.30625e-06;-0.008357016359965963
1.30650e-06;-0.008363226573465384
1.30675e-06;-0.008373881242381741
1.30700e-06;-0.008384535911298107
1.30725e-06;-0.008395190580214462
1.30750e-06;-0.008405845249130827
1.30775e-06;-0.00841706612720119
1.30800e-06;-0.008438870420649463
1.30825e-06;-0.008460674714097755
1.30850e-06;-0.008482479007546027
1.30875e-06;-0.00850428330099432
1.30900e-06;-0.008526087594442592
1.30925e-06;-0.00855250958647088
1.30950e-06;-0.008582697762965287
1.30975e-06;-0.008612885939459667
1.31000e-06;-0.008643074115954073
1.31025e-06;-0.008673262292448454
1.31050e-06;-0.008703450468942834
1.31075e-06;-0.008733775874186691
1.31100e-06;-0.008766666318951413
1.31125e-06;-0.008799556763716163
1.31150e-06;-0.008832447208480886
1.31175e-06;-0.008865337653245608
1.31200e-06;-0.008898228098010358
1.31225e-06;-0.008931118542775078
1.31250e-06;-0.008962499264622285
1.31275e-06;-0.008992648659889453
1.31300e-06;-0.009022798055156647
1.31325e-06;-0.009050568700354329
1.31350e-06;-0.009076399242402148
1.31375e-06;-0.009102229784449987
1.31400e-06;-0.009124655150560922
1.31425e-06;-0.009144303262917602
1.31450e-06;-0.009163951375274265
1.31475e-06;-0.009179888760632065
1.31500e-06;-0.00919279968548397
1.31525e-06;-0.009205710610335864
1.31550e-06;-0.009212355693167818
1.31575e-06;-0.009213890369490389
1.31600e-06;-0.009215425045812959
1.31625e-06;-0.00921695972213553
1.31650e-06;-0.0092184943984581
1.31675e-06;-0.009220029074780672
1.31700e-06;-0.009220830537749285
1.31725e-06;-0.009207926991837779
1.31750e-06;-0.009195023445926282
1.31775e-06;-0.009182119900014786
1.31800e-06;-0.009169216354103277
1.31825e-06;-0.00915631280819178
1.31850e-06;-0.009143409262280274
1.31875e-06;-0.009124713280546263
1.31900e-06;-0.00910129300132155
1.31925e-06;-0.009077872722096817
1.31950e-06;-0.009054452442872103
1.31975e-06;-0.00903103216364737
1.32000e-06;-0.009007611884422655
1.32025e-06;-0.008981281688718768
1.32050e-06;-0.008952578171748667
1.32075e-06;-0.008923874654778587
1.32100e-06;-0.008895171137808485
1.32125e-06;-0.008866467620838408
1.32150e-06;-0.008837764103868304
1.32175e-06;-0.008808719556348077
1.32200e-06;-0.008779396865086308
1.32225e-06;-0.008750514033985088
1.32250e-06;-0.008721989951831053
1.32275e-06;-0.008694328149478655
1.32300e-06;-0.008667369620572548
1.32325e-06;-0.008642087860826663
1.32350e-06;-0.008618173670196525
1.32375e-06;-0.008594259479566406
1.32400e-06;-0.008572506545468697
1.32425e-06;-0.008552516327286293
1.32450e-06;-0.008532526109103888
1.32475e-06;-0.008512239744061168
1.32500e-06;-0.00849171184231235
1.32525e-06;-0.008471183940563518
1.32550e-06;-0.00845041614617902
1.32575e-06;-0.008429452695906125
1.32600e-06;-0.008408489245633246
1.32625e-06;-0.008386569209291567
1.32650e-06;-0.008363868983526495
1.32675e-06;-0.008341168757761442
1.32700e-06;-0.00831846853199637
1.32725e-06;-0.008295768306231317
1.32750e-06;-0.008272903966232687
1.32775e-06;-0.008246972051133693
1.32800e-06;-0.00822104013603472
1.32825e-06;-0.008195108220935726
1.32850e-06;-0.008169176305836752
1.32875e-06;-0.00814324439073778
1.32900e-06;-0.00811600675275341
1.32925e-06;-0.008087704170151703
1.32950e-06;-0.008059401587549973
1.32975e-06;-0.008030806277797668
1.33000e-06;-0.00800197222044669
1.33025e-06;-0.007973138163095738
1.33050e-06;-0.007944196555874616
1.33075e-06;-0.007915167231223827
1.33100e-06;-0.007886129955748002
1.33125e-06;-0.007857086195597307
1.33150e-06;-0.00782826480207009
1.33175e-06;-0.007799898945480976
1.33200e-06;-0.0077721198787529975
1.33225e-06;-0.007745038403663804
1.33250e-06;-0.0077186715821867
1.33275e-06;-0.007693033300597999
1.33300e-06;-0.007668226854009912
1.33325e-06;-0.007644413213920722
1.33350e-06;-0.00762176234670034
1.33375e-06;-0.007600444475196822
1.33400e-06;-0.0075806513191342614
1.33425e-06;-0.007562801503142695
1.33450e-06;-0.007547668192822955
1.33475e-06;-0.007535949140962505
1.33500e-06;-0.007527886827179343
1.33525e-06;-0.007523452449455229
1.33550e-06;-0.007522576111301891
1.33575e-06;-0.007525187497864947
1.33600e-06;-0.0075312304005925364
1.33625e-06;-0.007541894032754788
1.33650e-06;-0.007555076438137183
1.33675e-06;-0.007573804159281752
1.33700e-06;-0.007597054627357027
1.33725e-06;-0.007620305095432303
1.33750e-06;-0.007650736782899096
1.33775e-06;-0.007687025456578127
1.33800e-06;-0.007723314130257188
1.33825e-06;-0.007759602803936219
1.33850e-06;-0.007796561240257109
1.33875e-06;-0.007846038683356135
1.33900e-06;-0.007895516126455162
1.33925e-06;-0.007944993569554231
1.33950e-06;-0.007994471012653256
1.33975e-06;-0.008048108532606445
1.34000e-06;-0.008105139001785598
1.34025e-06;-0.008162169470964752
1.34050e-06;-0.008221082319350165
1.34075e-06;-0.008281530431937299
1.34100e-06;-0.008341978544524484
1.34125e-06;-0.008402808809670969
1.34150e-06;-0.00846395075757619
1.34175e-06;-0.008525092705481465
1.34200e-06;-0.008585209167939391
1.34225e-06;-0.008644489246797579
1.34250e-06;-0.008702159155341884
1.34275e-06;-0.008758515812638352
1.34300e-06;-0.00881248696593844
1.34325e-06;-0.00886451250760161
1.34350e-06;-0.008912250759209697
1.34375e-06;-0.00895649230679423
1.34400e-06;-0.009000733854378802
1.34425e-06;-0.009039240719776246
1.34450e-06;-0.009073070391417436
1.34475e-06;-0.009106900063058657
1.34500e-06;-0.009132064043752471
1.34525e-06;-0.009150160306607674
1.34550e-06;-0.009168256569462864
1.34575e-06;-0.009186352832318053
1.34600e-06;-0.009204449095173258
1.34625e-06;-0.009222545358028448
1.34650e-06;-0.009240641620883651
1.34675e-06;-0.009247227653833633
1.34700e-06;-0.009244425969437026
1.34725e-06;-0.009241624285040415
1.34750e-06;-0.009238822600643808
1.34775e-06;-0.009236020916247199
1.34800e-06;-0.009233219231850592
1.34825e-06;-0.009230417547453981
1.34850e-06;-0.009219234222216897
1.34875e-06;-0.009201214849762843
1.34900e-06;-0.009183195477308772
1.34925e-06;-0.009165176104854717
1.34950e-06;-0.009147156732400647
1.34975e-06;-0.009129137359946592
1.35000e-06;-0.009110705129778811
1.35025e-06;-0.009084555884369922
1.35050e-06;-0.009058406638961056
1.35075e-06;-0.009032257393552167
1.35100e-06;-0.0090061081481433
1.35125e-06;-0.008979958902734434
1.35150e-06;-0.008953809657325545
1.35175e-06;-0.008926790372004473
1.35200e-06;-0.008899061484108706
1.35225e-06;-0.008871332596212964
1.35250e-06;-0.008844149066522157
1.35275e-06;-0.008817410329743659
1.35300e-06;-0.008791692376311642
1.35325e-06;-0.008766806971456608
1.35350e-06;-0.00874333501811478
1.35375e-06;-0.008721015872614101
1.35400e-06;-0.008701032217855426
1.35425e-06;-0.00868295338403699
1.35450e-06;-0.008664874550218539
1.35475e-06;-0.008650134378983603
1.35500e-06;-0.008638117213362472
1.35525e-06;-0.00862610004774135
1.35550e-06;-0.008617606550998693
1.35575e-06;-0.00861198695058346
1.35600e-06;-0.00860636735016823
1.35625e-06;-0.008606416313168417
1.35650e-06;-0.00861108854360467
1.35675e-06;-0.008615760774040925
1.35700e-06;-0.008620433004477178
1.35725e-06;-0.00862510523491343
1.35750e-06;-0.008629777465349686
1.35775e-06;-0.00863506446748715
1.35800e-06;-0.00865184260186985
1.35825e-06;-0.008668620736252538
1.35850e-06;-0.008685398870635224
1.35875e-06;-0.008702177005017925
1.35900e-06;-0.008718955139400613
1.35925e-06;-0.008735733273783314
1.35950e-06;-0.00875689684201083
1.35975e-06;-0.008781637160113325
1.36000e-06;-0.008806377478215843
1.36025e-06;-0.008831117796318339
1.36050e-06;-0.008855858114420854
1.36075e-06;-0.00888059843252335
1.36100e-06;-0.008905338750625868
1.36125e-06;-0.008930821023601541
1.36150e-06;-0.008956908433285176
1.36175e-06;-0.008982995842968836
1.36200e-06;-0.009009083252652471
1.36225e-06;-0.00903517066233613
1.36250e-06;-0.009061258072019766
1.36275e-06;-0.009087345481703403
1.36300e-06;-0.009111344230406125
1.36325e-06;-0.009133639471960704
1.36350e-06;-0.009155934713515302
1.36375e-06;-0.009176156670569358
1.36400e-06;-0.00919468766149777
1.36425e-06;-0.009210557690813116
1.36450e-06;-0.00922425744588571
1.36475e-06;-0.009233046497823997
1.36500e-06;-0.00923783039144894
1.36525e-06;-0.009242614285073884
1.36550e-06;-0.009241492682011734
1.36575e-06;-0.009235554569275986
1.36600e-06;-0.009229616456540232
1.36625e-06;-0.009217507477644386
1.36650e-06;-0.009200365554335998
1.36675e-06;-0.009183223631027625
1.36700e-06;-0.009158189701665336
1.36725e-06;-0.009126719070105621
1.36750e-06;-0.009095248438545934
1.36775e-06;-0.009063777806986221
1.36800e-06;-0.00903157238718287
1.36825e-06;-0.008985632521143379
1.36850e-06;-0.008939692655103847
1.36875e-06;-0.008893752789064355
1.36900e-06;-0.008847812923024823
1.36925e-06;-0.008796568517283433
1.36950e-06;-0.008740997741019513
1.36975e-06;-0.00868542696475564
1.37000e-06;-0.00862755694667255
1.37025e-06;-0.00856781167218834
1.37050e-06;-0.008507038432967278
1.37075e-06;-0.008444897929937873
1.37100e-06;-0.0083819875401791
1.37125e-06;-0.008318663043495197
1.37150e-06;-0.008255289612925699
1.37175e-06;-0.008192231719373166
1.37200e-06;-0.00812985103977223
1.37225e-06;-0.008068478757441403
1.37250e-06;-0.00800839809987685
1.37275e-06;-0.007949905460580288
1.37300e-06;-0.007893359402480642
1.37325e-06;-0.0078391560760286
1.37350e-06;-0.007789591382234544
1.37375e-06;-0.00774288524467668
1.37400e-06;-0.0076961791071188555
1.37425e-06;-0.0076540425566525225
1.37450e-06;-0.007615632951030199
1.37475e-06;-0.007577223345407907
1.37500e-06;-0.007541006030183852
1.37525e-06;-0.007506576742025038
1.37550e-06;-0.007472147453866224
1.37575e-06;-0.007441731793493821
1.37600e-06;-0.007414589638820086
1.37625e-06;-0.007387447484146327
1.37650e-06;-0.007360305329472593
1.37675e-06;-0.007333163174798857
1.37700e-06;-0.007306021020125099
1.37725e-06;-0.007282229838989988
1.37750e-06;-0.00726117170425534
1.37775e-06;-0.0072401135695207095
1.37800e-06;-0.007219055434786061
1.37825e-06;-0.00719799730005143
1.37850e-06;-0.0071769391653167995
1.37875e-06;-0.007158038105742561
1.37900e-06;-0.007140896351765567
1.37925e-06;-0.007123754597788559
1.37950e-06;-0.007106612843811564
1.37975e-06;-0.00708947108983457
1.38000e-06;-0.007072487073842784
1.38025e-06;-0.007058451449983507
1.38050e-06;-0.0070444158261242186
1.38075e-06;-0.007030380202264942
1.38100e-06;-0.007016344578405666
1.38125e-06;-0.007002308954546377
1.38150e-06;-0.006989157994043315
1.38175e-06;-0.006976728562962486
1.38200e-06;-0.006964958922122628
1.38225e-06;-0.006953727404703399
1.38250e-06;-0.006942955624507473
1.38275e-06;-0.006932558804945753
1.38300e-06;-0.006922429748653826
1.38325e-06;-0.006912738881317262
1.38350e-06;-0.006903482223221119
1.38375e-06;-0.006894722800527091
1.38400e-06;-0.006886527628455767
1.38425e-06;-0.006879006985169893
1.38450e-06;-0.006872334909845412
1.38475e-06;-0.006866661414398381
1.38500e-06;-0.006862040529934124
1.38525e-06;-0.006858471870800897
1.38550e-06;-0.006855947264278585
1.38575e-06;-0.006854458071985794
1.38600e-06;-0.006854292191667604
1.38625e-06;-0.006854827702148008
1.38650e-06;-0.0068566094403372
1.38675e-06;-0.006859407599012634
1.38700e-06;-0.006863725134709444
1.38725e-06;-0.006869281870850892
1.38750e-06;-0.006874838606992335
1.38775e-06;-0.006882487436037803
1.38800e-06;-0.006891842571299815
1.38825e-06;-0.006901197706561828
1.38850e-06;-0.006910552841823848
1.38875e-06;-0.0069199079770858605
1.38900e-06;-0.006931328480220572
1.38925e-06;-0.006944433492697017
1.38950e-06;-0.0069575385051734604
1.38975e-06;-0.006970643517649916
1.39000e-06;-0.00698374853012636
1.39025e-06;-0.006997843001408509
1.39050e-06;-0.007012744473043214
1.39075e-06;-0.00702764594467792
1.39100e-06;-0.007042836809246322
1.39125e-06;-0.00705826370203354
1.39150e-06;-0.007073690594820771
1.39175e-06;-0.007089001174731689
1.39200e-06;-0.0071042168901251255
1.39225e-06;-0.007119101363887366
1.39250e-06;-0.007133715677728232
1.39275e-06;-0.007147804467680378
1.39300e-06;-0.00716146464154355
1.39325e-06;-0.007174123011449003
1.39350e-06;-0.007185964312323952
1.39375e-06;-0.0071978056131989
1.39400e-06;-0.0072083475953718945
1.39425e-06;-0.007217829856165342
1.39450e-06;-0.007227312116958797
1.39475e-06;-0.0072369264640395545
1.39500e-06;-0.0072466485403959655
1.39525e-06;-0.007256370616752385
1.39550e-06;-0.007266403837838848
1.39575e-06;-0.007276690827859813
1.39600e-06;-0.00728697781788077
1.39625e-06;-0.007297264807901735
1.39650e-06;-0.007307551797922691
1.39675e-06;-0.007317838787943647
1.39700e-06;-0.0073281257779646124
1.39725e-06;-0.007339527422363536
