Time(s);Current(A)
1.07500e-05;-0.003324106010856375
1.07503e-05;-0.0033146612636362574
1.07505e-05;-0.0033040702205905602
1.07508e-05;-0.003292373443106205
1.07510e-05;-0.003279613734610201
1.07513e-05;-0.0032658896876590566
1.07515e-05;-0.0032513964146288162
1.07518e-05;-0.0032363359209693584
1.07520e-05;-0.0032208395676146992
1.07523e-05;-0.003204996020346404
1.07525e-05;-0.0031888869413949153
1.07528e-05;-0.0031725942258216382
1.07530e-05;-0.0031562012020562675
1.07533e-05;-0.0031398261617111055
1.07535e-05;-0.00312364757277758
1.07538e-05;-0.003107849007620066
1.07540e-05;-0.003092568756048818
1.07543e-05;-0.0030779189602754575
1.07545e-05;-0.0030640073107079772
1.07548e-05;-0.0030509412035981767
1.07550e-05;-0.0030388217996793012
1.07553e-05;-0.0030275981562753423
1.07555e-05;-0.00301696832973804
1.07558e-05;-0.0030066412560917763
1.07560e-05;-0.0029965469153795466
1.07563e-05;-0.002986739135348794
1.07565e-05;-0.002977292004999115
1.07567e-05;-0.0029684713688121742
1.07570e-05;-0.0029598389398680634
1.07573e-05;-0.002951739721141519
1.07575e-05;-0.0029440048976156355
1.07578e-05;-0.002936420607606587
1.07580e-05;-0.002928867930772421
1.07582e-05;-0.0029215160009822593
1.07585e-05;-0.00291423585241649
1.07588e-05;-0.0029073103769706654
1.07590e-05;-0.0029005117221759724
1.07593e-05;-0.0028940574501786376
1.07595e-05;-0.0028877263193164016
1.07598e-05;-0.0028815048375586223
1.07600e-05;-0.0028753225630879374
1.07603e-05;-0.002869140288617211
1.07605e-05;-0.0028631930222479413
1.07608e-05;-0.002857329787847232
1.07610e-05;-0.0028515661121944523
1.07613e-05;-0.0028461236493329146
1.07615e-05;-0.0028406811864714137
1.07618e-05;-0.002835405632642911
1.07620e-05;-0.002830189760563777
1.07623e-05;-0.0028249738884846783
1.07625e-05;-0.0028200424294893035
1.07628e-05;-0.0028152126682275624
1.07630e-05;-0.0028103829069658537
1.07633e-05;-0.00280592445484562
1.07635e-05;-0.0028015987719273894
1.07638e-05;-0.002797273089009188
1.07640e-05;-0.0027931401209664013
1.07643e-05;-0.0027891933717593856
1.07645e-05;-0.002785425087314894
1.07648e-05;-0.002781861173159586
1.07650e-05;-0.0027785338191938886
1.07652e-05;-0.0027756158891924163
1.07655e-05;-0.002773494896098026
1.07658e-05;-0.002772507645643891
1.07660e-05;-0.002772751034101355
1.07663e-05;-0.0027746157708912955
1.07665e-05;-0.0027769437280818765
1.07667e-05;-0.0027808807487207424
1.07670e-05;-0.0027853931230100914
1.07673e-05;-0.0027916094889739855
1.07675e-05;-0.0027984351521233423
1.07678e-05;-0.002807840313313246
1.07680e-05;-0.002818167826953371
1.07683e-05;-0.002828495340593497
1.07685e-05;-0.0028415125730631603
1.07688e-05;-0.0028554915696877097
1.07690e-05;-0.0028694705663122586
1.07693e-05;-0.0028857716314061813
1.07695e-05;-0.0029029029997253747
1.07698e-05;-0.0029200343680445685
1.07700e-05;-0.0029390186518739488
1.07703e-05;-0.0029586654836620714
1.07705e-05;-0.0029794084063154433
1.07708e-05;-0.0030005432587470147
1.07710e-05;-0.003022426131881083
1.07713e-05;-0.0030445764751650937
1.07715e-05;-0.0030672990461397443
1.07718e-05;-0.0030902262288663063
1.07720e-05;-0.0031134623785297657
1.07723e-05;-0.003136809005660712
1.07725e-05;-0.003160048613436489
1.07728e-05;-0.0031832499542459535
1.07730e-05;-0.003205934463601293
1.07733e-05;-0.0032284341692661064
1.07735e-05;-0.003250115622776654
1.07737e-05;-0.00327150449344045
1.07740e-05;-0.003292067994476982
1.07743e-05;-0.0033116371402458046
1.07745e-05;-0.0033301426413937848
1.07748e-05;-0.00334742988590337
1.07750e-05;-0.003363331987165157
1.07752e-05;-0.0033774273554801025
1.07755e-05;-0.0033889173130681556
1.07758e-05;-0.0033971315289253786
1.07760e-05;-0.00340186531001419
1.07763e-05;-0.003403154148854425
1.07765e-05;-0.003401070284270821
1.07768e-05;-0.0033956860652682797
1.07770e-05;-0.003387066184435101
1.07773e-05;-0.00337511581880765
1.07775e-05;-0.003359504013482971
1.07778e-05;-0.0033399801725665763
1.07780e-05;-0.0033165853947111066
1.07783e-05;-0.0032895112301446405
1.07785e-05;-0.003258972520226217
1.07788e-05;-0.003224084132150672
1.07790e-05;-0.0031879613891103485
1.07793e-05;-0.0031474942433624637
1.07795e-05;-0.0031054736672877442
1.07798e-05;-0.003060183512703624
1.07800e-05;-0.0030117387354877114
1.07803e-05;-0.0029608221209216647
1.07805e-05;-0.002907737623175877
1.07808e-05;-0.002852242216918336
1.07810e-05;-0.00279608137019323
1.07813e-05;-0.0027380162135133158
1.07815e-05;-0.002679270131736797
1.07818e-05;-0.0026194002609763374
1.07820e-05;-0.0025586675499531947
1.07822e-05;-0.0024975734514518354
1.07825e-05;-0.002436477333334698
1.07828e-05;-0.0023757385146106207
1.07830e-05;-0.002315714537909395
1.07833e-05;-0.002256723572391696
1.07835e-05;-0.002199025679321896
1.07837e-05;-0.0021429007711640047
1.07840e-05;-0.0020887005138860524
1.07843e-05;-0.0020368131048328574
1.07845e-05;-0.001987632946644675
1.07848e-05;-0.0019415539154876236
1.07850e-05;-0.0018989403698983502
1.07853e-05;-0.0018595003232050196
1.07855e-05;-0.0018218662595526685
1.07858e-05;-0.0017847413479949261
1.07860e-05;-0.0017478041945446765
1.07863e-05;-0.0017112763655178882
1.07865e-05;-0.0016754659816083052
1.07868e-05;-0.0016406811084203649
1.07870e-05;-0.00160721117256243
1.07873e-05;-0.0015749343656661708
1.07875e-05;-0.0015430552904771723
1.07878e-05;-0.0015106458907643765
1.07880e-05;-0.0014780338263767272
1.07883e-05;-0.0014450781938423988
1.07885e-05;-0.0014120203778660145
1.07888e-05;-0.0013793697306180466
1.07890e-05;-0.0013468620325664152
1.07893e-05;-0.0013148517858612787
1.07895e-05;-0.001282916166854552
1.07898e-05;-0.0012504279991211117
1.07900e-05;-0.0012177554569739947
1.07903e-05;-0.0011847976156318552
1.07905e-05;-0.0011517641715368715
1.07907e-05;-0.0011192718953706166
1.07910e-05;-0.0010869697479722242
1.07913e-05;-0.001054667600573832
1.07915e-05;-0.0010228413663049794
1.07918e-05;-0.000991185304540173
1.07920e-05;-0.000959631545732803
1.07922e-05;-0.000928358719733162
1.07925e-05;-0.0008975645564246771
1.07928e-05;-0.0008674485334615124
1.07930e-05;-0.0008382054549762891
1.07933e-05;-0.0008099291094978377
1.07935e-05;-0.0007825477189427562
1.07938e-05;-0.0007560003738927053
1.07940e-05;-0.0007303765078016406
1.07943e-05;-0.0007058489796348902
1.07945e-05;-0.0006826040507899496
1.07948e-05;-0.0006608278724841707
1.07950e-05;-0.0006407206838028024
1.07953e-05;-0.0006227812717425828
1.07955e-05;-0.0006079496453307255
1.07958e-05;-0.0005970140495824425
1.07960e-05;-0.0005902153517785017
1.07963e-05;-0.0005875127741281729
1.07965e-05;-0.0005888223383080485
1.07968e-05;-0.000594060007787126
1.07970e-05;-0.0006031505203535252
1.07973e-05;-0.0006162056533561211
1.07975e-05;-0.0006336135487636467
1.07978e-05;-0.0006556671796273032
1.07980e-05;-0.0006823166497202115
1.07983e-05;-0.0007133357112895334
1.07985e-05;-0.0007484710170497006
1.07988e-05;-0.0007887767246099538
1.07990e-05;-0.0008305498308142996
1.07992e-05;-0.0008774872854949584
1.07995e-05;-0.0009262713589371791
1.07998e-05;-0.000980115891473827
1.08000e-05;-0.0010357698949911521
1.08003e-05;-0.0010956084367661281
1.08005e-05;-0.0011569432460545107
1.08007e-05;-0.0012214054558935556
1.08010e-05;-0.0012869859319689664
1.08013e-05;-0.0013548327658498187
1.08015e-05;-0.0014234899824653283
1.08018e-05;-0.0014937574201903609
1.08020e-05;-0.001564600625511941
1.08023e-05;-0.0016359143987118836
1.08025e-05;-0.001707396433111505
1.08028e-05;-0.001778096145734068
1.08030e-05;-0.0018485161231531465
1.08033e-05;-0.0019176154234155692
1.08035e-05;-0.0019850589298559852
1.08038e-05;-0.002050639786001948
1.08040e-05;-0.0021139409773496074
1.08043e-05;-0.0021745020687574533
1.08045e-05;-0.002231856001953875
1.08048e-05;-0.002282416436037593
1.08050e-05;-0.0023308613528422247
1.08053e-05;-0.0023793062696468564
1.08055e-05;-0.0024209177547913374
1.08058e-05;-0.0024600858062353314
1.08060e-05;-0.0024946767221760316
1.08063e-05;-0.002527630989401968
1.08065e-05;-0.002554065451134571
1.08068e-05;-0.002578168622637121
1.08070e-05;-0.0026022717941395082
1.08073e-05;-0.0026207973821059482
1.08075e-05;-0.002634934547077514
1.08077e-05;-0.0026450980479084244
1.08080e-05;-0.002654146778043419
1.08083e-05;-0.0026600958914986283
1.08085e-05;-0.00266283110189656
1.08088e-05;-0.0026626786945682583
1.08090e-05;-0.0026596049194870927
1.08092e-05;-0.0026537142869549803
1.08095e-05;-0.0026453501989985116
1.08098e-05;-0.0026348736447842445
1.08100e-05;-0.0026224696273980897
1.08103e-05;-0.002608218476344209
1.08105e-05;-0.0025921836317378613
1.08108e-05;-0.00257442831333401
1.08110e-05;-0.0025550195628608924
1.08113e-05;-0.0025341108991945097
1.08115e-05;-0.0025120054547805334
1.08118e-05;-0.0024890175976409433
1.08120e-05;-0.002465351343165522
1.08123e-05;-0.0024411450757940638
1.08125e-05;-0.0024165265582248344
1.08128e-05;-0.00239162344297549
1.08130e-05;-0.0023665658938195736
1.08133e-05;-0.0023415378180657678
1.08135e-05;-0.0023168173020648845
1.08138e-05;-0.002292689459336541
1.08140e-05;-0.0022693698617121663
1.08143e-05;-0.0022470330645395723
1.08145e-05;-0.002225847110218374
1.08148e-05;-0.0022059801024734206
1.08150e-05;-0.00218758299449145
1.08153e-05;-0.002170435814995952
1.08155e-05;-0.0021537177146190656
1.08158e-05;-0.0021366656728732916
1.08160e-05;-0.002119083713716797
1.08162e-05;-0.0021010881230778427
1.08165e-05;-0.0020828448478798427
1.08168e-05;-0.0020645197248664662
1.08170e-05;-0.0020462677246173636
1.08173e-05;-0.002028011680563157
1.08175e-05;-0.0020092981559672205
1.08177e-05;-0.001989369411047538
1.08180e-05;-0.0019690630864612657
1.08183e-05;-0.0019478561871400886
1.08185e-05;-0.0019258886438423268
1.08188e-05;-0.0019033452306626026
1.08190e-05;-0.0018806519845252518
1.08193e-05;-0.001857625632069323
1.08195e-05;-0.0018340351141610482
1.08198e-05;-0.0018097161450866621
1.08200e-05;-0.0017846904957662083
1.08203e-05;-0.001759102406032836
1.08205e-05;-0.001733115555828688
1.08208e-05;-0.001706881276709276
1.08210e-05;-0.0016805920194885302
1.08213e-05;-0.0016542483521867384
1.08215e-05;-0.0016278852294441153
1.08218e-05;-0.001601358018932183
1.08220e-05;-0.001574737834395835
1.08223e-05;-0.0015481913090000649
1.08225e-05;-0.0015218815712735633
1.08228e-05;-0.001495971719081851
1.08230e-05;-0.00147062236346302
1.08233e-05;-0.001445936800969736
1.08235e-05;-0.0014219259483777113
1.08238e-05;-0.0013986094628593965
1.08240e-05;-0.0013760946494889667
1.08243e-05;-0.00135453657303549
1.08245e-05;-0.0013340980922991476
1.08247e-05;-0.0013154862466629356
1.08250e-05;-0.001297418064846447
1.08253e-05;-0.001280935150106272
1.08255e-05;-0.0012657938556776102
1.08258e-05;-0.001251807019649704
1.08260e-05;-0.0012381339236858086
1.08262e-05;-0.0012254074516505537
1.08265e-05;-0.0012137354993734296
1.08268e-05;-0.001203518659927981
1.08270e-05;-0.0011937305760841605
1.08273e-05;-0.0011851594086430184
1.08275e-05;-0.0011776425947949587
1.08278e-05;-0.001170834957114315
1.08280e-05;-0.0011646816862896081
1.08283e-05;-0.001159476867828765
1.08285e-05;-0.0011545498221630836
1.08288e-05;-0.0011507520536524953
1.08290e-05;-0.0011473580813599529
1.08293e-05;-0.0011450285571899524
1.08295e-05;-0.0011430796482872609
1.08298e-05;-0.0011418432584734217
1.08300e-05;-0.0011408616444797738
1.08303e-05;-0.0011405340662414356
1.08305e-05;-0.0011404403519073647
1.08308e-05;-0.001141025584484617
1.08310e-05;-0.0011418535884611081
1.08313e-05;-0.0011432743150206256
1.08315e-05;-0.001144906981701593
1.08318e-05;-0.0011468664947548218
1.08320e-05;-0.001148942878434927
1.08323e-05;-0.0011512638716590223
1.08325e-05;-0.0011536723300446226
1.08328e-05;-0.00115629551316228
1.08330e-05;-0.001158995475513751
1.08332e-05;-0.0011618107323549108
1.08335e-05;-0.0011646672151065783
1.08338e-05;-0.0011674268401965695
1.08340e-05;-0.0011701518318422148
1.08343e-05;-0.0011726831081645278
1.08345e-05;-0.0011751451175981847
1.08347e-05;-0.0011773487541813375
1.08350e-05;-0.00117946000425033
1.08353e-05;-0.0011811527811993864
1.08355e-05;-0.0011826959244978581
1.08358e-05;-0.0011833826128198207
1.08360e-05;-0.001183763058091552
1.08363e-05;-0.0011841435033632833
1.08365e-05;-0.00118331537168129
1.08368e-05;-0.00118205508851102
1.08370e-05;-0.0011807948053407498
1.08373e-05;-0.0011795345221704884
1.08375e-05;-0.0011767862369109787
1.08378e-05;-0.0011735058859725339
1.08380e-05;-0.001170225535034111
1.08383e-05;-0.0011669451840956662
1.08385e-05;-0.0011625671129915798
1.08388e-05;-0.0011577965295184662
1.08390e-05;-0.0011524044963116774
1.08393e-05;-0.0011467902510012516
1.08395e-05;-0.0011405669043443726
1.08398e-05;-0.00113412576100301
1.08400e-05;-0.0011272555112083402
1.08403e-05;-0.001119985543875203
1.08405e-05;-0.0011124126172217257
1.08408e-05;-0.001104579253503056
1.08410e-05;-0.0010965275155482737
1.08413e-05;-0.001088290651851588
1.08415e-05;-0.0010798889524222268
1.08418e-05;-0.001071347156066623
1.08420e-05;-0.0010627059733772756
1.08423e-05;-0.0010540145794480488
1.08425e-05;-0.001045323069765232
1.08428e-05;-0.001036681815265213
1.08430e-05;-0.001028140739928904
1.08432e-05;-0.0010197444079374717
1.08435e-05;-0.0010115291980149624
1.08438e-05;-0.0010035341935066622
1.08440e-05;-0.0009958086599540581
1.08443e-05;-0.0009884069259010683
1.08445e-05;-0.0009813840557949711
1.08448e-05;-0.0009747951569593346
1.08450e-05;-0.0009688941910955557
1.08453e-05;-0.0009631969707644978
1.08455e-05;-0.0009585088237572524
1.08458e-05;-0.0009541814916219918
1.08460e-05;-0.0009498541594867019
1.08463e-05;-0.0009471225753115963
1.08465e-05;-0.0009449615835626058
1.08468e-05;-0.0009428005918136007
1.08470e-05;-0.0009406396000645956
1.08473e-05;-0.0009391050556964125
1.08475e-05;-0.0009395916588066149
1.08478e-05;-0.0009400782619168171
1.08480e-05;-0.0009405648650270161
1.08483e-05;-0.0009410514681372184
1.08485e-05;-0.0009430259470895103
1.08488e-05;-0.0009455324465786474
1.08490e-05;-0.0009480389460678016
1.08493e-05;-0.0009516009325234077
1.08495e-05;-0.0009555403300012362
1.08498e-05;-0.0009594797274790916
1.08500e-05;-0.0009642742078903604
1.08503e-05;-0.0009693744407497784
1.08505e-05;-0.0009744746736092309
1.08508e-05;-0.0009802297997507795
1.08510e-05;-0.0009862190964229837
1.08513e-05;-0.0009922083930952285
1.08515e-05;-0.000998618478209953
1.08517e-05;-0.001005179024866358
1.08520e-05;-0.0010117395715228076
1.08523e-05;-0.0010184498423733803
1.08525e-05;-0.001025213650181694
1.08528e-05;-0.0010319774579900535
1.08530e-05;-0.0010386220695613973
1.08533e-05;-0.0010452240600724173
1.08535e-05;-0.0010518260505833926
1.08538e-05;-0.0010580081959315184
1.08540e-05;-0.0010640402170268737
1.08543e-05;-0.0010700722381221882
1.08545e-05;-0.001075663175972135
1.08548e-05;-0.0010808188997571376
1.08550e-05;-0.0010855719204960616
1.08553e-05;-0.0010900624143471264
1.08555e-05;-0.0010947149639160096
1.08558e-05;-0.0010999149902527262
1.08560e-05;-0.0011059794576171187
1.08563e-05;-0.001112292951558098
1.08565e-05;-0.001119494971980891
1.08568e-05;-0.00112701470327898
1.08570e-05;-0.001134534434577069
1.08573e-05;-0.0011429318017655162
1.08575e-05;-0.001151642985674843
1.08578e-05;-0.0011618752364805918
1.08580e-05;-0.001172651375965858
1.08583e-05;-0.0011834275154511975
1.08585e-05;-0.0011958718591542873
1.08588e-05;-0.0012089127035052522
1.08590e-05;-0.0012219535478563055
1.08593e-05;-0.0012349943922073587
1.08595e-05;-0.0012497299455028453
1.08598e-05;-0.0012650714767553338
1.08600e-05;-0.0012804130080078223
1.08602e-05;-0.0012957545392602067
1.08605e-05;-0.0013122295424031324
1.08608e-05;-0.0013291098416782525
1.08610e-05;-0.0013459901409532582
1.08613e-05;-0.0013633020335095574
1.08615e-05;-0.0013807682510994324
1.08618e-05;-0.0013982344686893074
1.08620e-05;-0.0014158753073370612
1.08623e-05;-0.0014335785853272832
1.08625e-05;-0.0014512818633175052
1.08628e-05;-0.0014686264378116528
1.08630e-05;-0.0014858427505106727
1.08633e-05;-0.0015024702423741747
1.08635e-05;-0.0015188871892657587
1.08638e-05;-0.0015345691498644114
1.08640e-05;-0.001549988301032728
1.08643e-05;-0.0015643755043476682
1.08645e-05;-0.0015783937135331195
1.08648e-05;-0.0015910437385737353
1.08650e-05;-0.0016032045412993554
1.08653e-05;-0.0016132381199580848
1.08655e-05;-0.0016225110660028875
1.08658e-05;-0.0016317840120476275
1.08660e-05;-0.0016377789115078207
1.08663e-05;-0.0016426016781489919
1.08665e-05;-0.0016474244447901305
1.08668e-05;-0.0016522472114313016
1.08670e-05;-0.0016531380029235728
1.08673e-05;-0.0016526228360206608
1.08675e-05;-0.0016521076691177453
1.08678e-05;-0.0016515925022148297
1.08680e-05;-0.0016481902352340982
1.08683e-05;-0.0016437556263797298
1.08685e-05;-0.0016375393767930054
1.08687e-05;-0.001630686065004761
1.08690e-05;-0.0016225658001204188
1.08693e-05;-0.0016131883214471647
1.08695e-05;-0.0016027603469290523
1.08698e-05;-0.001591348076905672
1.08700e-05;-0.0015790242761615939
1.08703e-05;-0.0015658630950216102
1.08705e-05;-0.0015519387207084535
1.08708e-05;-0.0015373253097819412
1.08710e-05;-0.0015220970188021673
1.08713e-05;-0.0015063301481464558
1.08715e-05;-0.001490108110456591
1.08718e-05;-0.00147352293310849
1.08720e-05;-0.0014566707990720936
1.08723e-05;-0.001439648737400311
1.08725e-05;-0.0014225537527189698
1.08728e-05;-0.0014054829047439564
1.08730e-05;-0.0013885331123480648
1.08733e-05;-0.0013718026908748756
1.08735e-05;-0.001355394507309089
1.08738e-05;-0.0013394167286498195
1.08740e-05;-0.0013239801022526577
1.08743e-05;-0.001309195890502736
1.08745e-05;-0.0012951753864475176
1.08748e-05;-0.001282029797382084
1.08750e-05;-0.0012698727010141382
1.08753e-05;-0.001258863468013631
1.08755e-05;-0.0012492184403030484
1.08758e-05;-0.0012411034138377019
1.08760e-05;-0.00123457692908937
1.08763e-05;-0.0012302340758247403
1.08765e-05;-0.0012265217076270138
1.08768e-05;-0.001225758603059933
1.08770e-05;-0.0012260500682206815
1.08772e-05;-0.0012263415333814282
1.08775e-05;-0.0012303529787527077
1.08778e-05;-0.0012356945793794269
1.08780e-05;-0.0012410361800061097
1.08783e-05;-0.0012499297713266092
1.08785e-05;-0.001260093449803817
1.08788e-05;-0.0012702571282810248
1.08790e-05;-0.0012835450344575528
1.08793e-05;-0.0012979500723548814
1.08795e-05;-0.00131235511025221
1.08798e-05;-0.0013291185328801088
1.08800e-05;-0.0013467252443608753
1.08803e-05;-0.0013658917114923888
1.08805e-05;-0.001385615901261732
1.08808e-05;-0.0014065651968151545
1.08810e-05;-0.0014279525540799116
1.08813e-05;-0.0014502590515359706
1.08815e-05;-0.0014728942064277297
1.08818e-05;-0.0014961528262410649
1.08820e-05;-0.0015196343787300078
1.08823e-05;-0.0015433445050102444
1.08825e-05;-0.001567136362539676
1.08828e-05;-0.00159074149358979
1.08830e-05;-0.0016142798567559435
1.08833e-05;-0.001637234158360887
1.08835e-05;-0.001659979616769923
1.08838e-05;-0.0016817503243692156
1.08840e-05;-0.001703172489815199
1.08843e-05;-0.0017231670016269712
1.08845e-05;-0.0017426510265875189
1.08848e-05;-0.0017602457483155984
1.08850e-05;-0.0017771649109055406
1.08853e-05;-0.0017922454929783786
1.08855e-05;-0.001806668652860805
1.08857e-05;-0.0018198662924879389
1.08860e-05;-0.001832625722201029
1.08863e-05;-0.0018453851519141193
1.08865e-05;-0.0018565797437005017
1.08868e-05;-0.0018672147955768083
1.08870e-05;-0.0018773416086406262
1.08873e-05;-0.0018858286581308395
1.08875e-05;-0.0018943157076209954
1.08878e-05;-0.0019017888287564165
1.08880e-05;-0.0019088993990033912
1.08883e-05;-0.0019160099692503178
1.08885e-05;-0.0019217396996851395
1.08888e-05;-0.001926975682511119
1.08890e-05;-0.001932211665337063
1.08893e-05;-0.0019374476481630427
1.08895e-05;-0.001941408038309864
1.08898e-05;-0.0019449123141198135
1.08900e-05;-0.001948416589929787
1.08903e-05;-0.0019519208657397605
1.08905e-05;-0.0019544126929052353
1.08908e-05;-0.0019565424982830233
1.08910e-05;-0.001958672303660811
1.08913e-05;-0.001960802109038585
1.08915e-05;-0.001962682436041259
1.08918e-05;-0.001963757854914225
1.08920e-05;-0.001964833273787183
1.08923e-05;-0.001965908692660149
1.08925e-05;-0.0019669841115331145
1.08928e-05;-0.0019675546805088843
1.08930e-05;-0.0019679447300446655
1.08933e-05;-0.0019683347795804466
1.08935e-05;-0.0019687248291162247
1.08938e-05;-0.0019689095009631325
