Time(s);Current(A)
5.50000e-06;0.000880828094125097
5.50025e-06;0.0008933990571334263
5.50050e-06;0.0009047871661178755
5.50075e-06;0.000914395727834261
5.50100e-06;0.0009240042895506139
5.50125e-06;0.0009336128512669668
5.50150e-06;0.0009432214129833522
5.50175e-06;0.0009528299746997052
5.50200e-06;0.0009601608794512914
5.50225e-06;0.0009640651583070754
5.50250e-06;0.0009679694371628462
5.50275e-06;0.0009697277270122761
5.50300e-06;0.0009682574791078115
5.50325e-06;0.0009667872312033519
5.50350e-06;0.0009631778970697731
5.50375e-06;0.0009563504100803744
5.50400e-06;0.0009495229230909756
5.50425e-06;0.0009403123355340816
5.50450e-06;0.0009275164872278132
5.50475e-06;0.0009147206389215447
5.50500e-06;0.0008998219768924201
5.50525e-06;0.0008817597322573448
5.50550e-06;0.0008636974876222695
5.50575e-06;0.000843770904336941
5.50600e-06;0.0008210395127791382
5.50625e-06;0.0007983081212213356
5.50650e-06;0.0007739654463628918
5.50675e-06;0.0007471986728943875
5.50700e-06;0.0007204318994258831
5.50725e-06;0.0006923994541005908
5.50750e-06;0.0006624628660417105
5.50775e-06;0.0006325262779827287
5.50800e-06;0.0006025896899238485
5.50825e-06;0.0005726531018649681
5.50850e-06;0.0005414410457888874
5.50875e-06;0.000510086150461659
5.50900e-06;0.0004787312551344305
5.50925e-06;0.0004473763598070959
5.50950e-06;0.0004165586415504664
5.50975e-06;0.0003865490804873655
5.51000e-06;0.0003565395194241629
5.51025e-06;0.00032739804264296697
5.51050e-06;0.0002995625571175377
5.51075e-06;0.0002724764645169458
5.51100e-06;0.00024712616015152704
5.51125e-06;0.00022338101382859106
5.51150e-06;0.0002014108959317832
5.51175e-06;0.0001811473199888469
5.51200e-06;0.00016209888798857848
5.51225e-06;0.00014371624383830323
5.51250e-06;0.0001258470594229852
5.51275e-06;0.00010860092518273413
5.51300e-06;9.211326417186013e-05
5.51325e-06;7.651947034066665e-05
5.51350e-06;6.193339546087458e-05
5.51375e-06;4.8319570851009484e-05
5.51400e-06;3.537762662520112e-05
5.51425e-06;2.2770925789719606e-05
5.51450e-06;1.0411550832833402e-05
5.51475e-06;-1.6243544992625797e-06
5.51500e-06;-1.3244471927501696e-05
5.51525e-06;-2.4356509004936563e-05
5.51550e-06;-3.488167274487507e-05
5.51575e-06;-4.483470966546132e-05
5.51600e-06;-5.439629024824316e-05
5.51625e-06;-6.376978087604962e-05
5.51650e-06;-7.300274465405686e-05
5.51675e-06;-8.198001790106432e-05
5.51700e-06;-9.072592995611325e-05
5.51725e-06;-9.918409991518243e-05
5.51750e-06;-0.00010720937566224134
5.51775e-06;-0.00011495359516834589
5.51800e-06;-0.00012227497901123386
5.51825e-06;-0.00012959636285412185
5.51850e-06;-0.00013671143229115968
5.51875e-06;-0.00014351611157875722
5.51900e-06;-0.00015032079086635476
5.51925e-06;-0.00015678072446240795
5.51950e-06;-0.0001627220046650376
5.51975e-06;-0.00016866328486766726
5.52000e-06;-0.00017432183203936854
5.52025e-06;-0.00017955502089762429
5.52050e-06;-0.00018478820975589776
5.52075e-06;-0.00018972579163245123
5.52100e-06;-0.0001942186469528254
5.52125e-06;-0.0001987115022732148
5.52150e-06;-0.00020280388805109204
5.52175e-06;-0.0002062937865688199
5.52200e-06;-0.0002097836850865596
5.52225e-06;-0.00021289408579922326
5.52250e-06;-0.00021543355022700237
5.52275e-06;-0.0002179730146547901
5.52300e-06;-0.0002201056297004723
5.52325e-06;-0.00022162615932268435
5.52350e-06;-0.00022314668894490156
5.52375e-06;-0.000224258784877549
5.52400e-06;-0.00022475641187197503
5.52425e-06;-0.00022525403886640275
5.52450e-06;-0.00022539464662840828
5.52475e-06;-0.00022499813604226438
5.52500e-06;-0.00022460162545612184
5.52525e-06;-0.00022365477526440104
5.52550e-06;-0.0002218799654754829
5.52575e-06;-0.00022010515568657077
5.52600e-06;-0.0002183303458976586
5.52625e-06;-0.00021655553610874047
5.52650e-06;-0.00021478072631982834
5.52675e-06;-0.0002130059165309162
5.52700e-06;-0.00021123110674199806
5.52725e-06;-0.00020835255359872784
5.52750e-06;-0.00020535039259383616
5.52775e-06;-0.00020234823158893432
5.52800e-06;-0.00019934607058404264
5.52825e-06;-0.00019634390957915099
5.52850e-06;-0.00019334174857424911
5.52875e-06;-0.00019033958756935746
5.52900e-06;-0.00018724633275886692
5.52925e-06;-0.000184016031677664
5.52950e-06;-0.00018078573059646108
5.52975e-06;-0.0001775554295152472
5.53000e-06;-0.0001743251284340443
5.53025e-06;-0.00017127957542180554
5.53050e-06;-0.0001685119670371944
5.53075e-06;-0.00016574435865259263
5.53100e-06;-0.00016297675026799083
5.53125e-06;-0.0001602091418833797
5.53150e-06;-0.00015757369301868022
5.53175e-06;-0.00015513707182645837
5.53200e-06;-0.00015270045063422828
5.53225e-06;-0.000149827399218906
5.53250e-06;-0.00014629775942068949
5.53275e-06;-0.000142388231550901
5.53300e-06;-0.00013790718025909624
5.53325e-06;-0.00013311822036100507
5.53350e-06;-0.00012786602670146108
5.53375e-06;-0.00012236135001842118
5.53400e-06;-0.00011622157883295152
5.53425e-06;-0.00010941690937584997
5.53450e-06;-0.00010192970033461286
5.53475e-06;-9.381720349339415e-05
5.53500e-06;-8.514388239704083e-05
5.53525e-06;-7.597419038328196e-05
5.53550e-06;-6.636669920657284e-05
5.53575e-06;-5.6340108018404476e-05
5.53600e-06;-4.5845197164511286e-05
5.53625e-06;-3.483085766953756e-05
5.53650e-06;-2.3320430126799457e-05
5.53675e-06;-1.1384164745156398e-05
5.53700e-06;9.031760022991484e-07
5.53725e-06;1.3466839103680522e-05
5.53750e-06;2.623576190225723e-05
5.53775e-06;3.919691227607009e-05
5.53800e-06;5.2297326711100045e-05
5.53825e-06;6.549703805229619e-05
5.53850e-06;7.884613683629152e-05
5.53875e-06;9.219523562028687e-05
5.53900e-06;0.00010542066400278998
5.53925e-06;0.00011846003618508595
5.53950e-06;0.0001314994083673819
5.53975e-06;0.00014425692682871726
5.54000e-06;0.0001565904098564772
5.54025e-06;0.00016861226270484562
5.54050e-06;0.0001801652828632017
5.54075e-06;0.00019127869256260746
5.54100e-06;0.0002017307293666614
5.54125e-06;0.00021161570708561728
5.54150e-06;0.0002206475715508316
5.54175e-06;0.0002292356807918813
5.54200e-06;0.0002371561815366632
5.54225e-06;0.00024507668228141826
5.54250e-06;0.00025270200601539466
5.54275e-06;0.00025988325006399504
5.54300e-06;0.0002670644941125955
5.54325e-06;0.0002742457381612202
5.54350e-06;0.00028142698220982057
5.54375e-06;0.00028860822625842095
5.54400e-06;0.0002955460331368351
5.54425e-06;0.000302117600443751
5.54450e-06;0.00030868916775066694
5.54475e-06;0.0003152607350576051
5.54500e-06;0.00032183230236452104
5.54525e-06;0.000328403869671437
5.54550e-06;0.0003348204738752211
5.54575e-06;0.00034100394350695907
5.54600e-06;0.00034718741313869697
5.54625e-06;0.00035337088277045584
5.54650e-06;0.00035897855682235925
5.54675e-06;0.0003639666074429356
5.54700e-06;0.00037073632793370947
5.54725e-06;0.0003775060484244833
5.54750e-06;0.0003837136847529958
5.54775e-06;0.00038990590590016447
5.54800e-06;0.0003960981270473332
5.54825e-06;0.00040229034819452294
5.54850e-06;0.0004084825693416916
5.54875e-06;0.00041467479048886037
5.54900e-06;0.00042086701163605004
5.54925e-06;0.0004263640099821127
5.54950e-06;0.00043143278668894303
5.54975e-06;0.0004365015633957905
5.55000e-06;0.00044157034010262083
5.55025e-06;0.00044663911680945114
5.55050e-06;0.00045170789351629863
5.55075e-06;0.00045677667022312894
5.55100e-06;0.00046146570728850135
5.55125e-06;0.000465104631940737
5.55150e-06;0.00046935988358926233
5.55175e-06;0.00047361513523780217
5.55200e-06;0.00047790111867207047
5.55225e-06;0.0004850487866016006
5.55250e-06;0.000492196454531155
5.55275e-06;0.0004993814198533078
5.55300e-06;0.0005100394462933769
5.55325e-06;0.0005207221879961253
5.55350e-06;0.0005337063671892793
5.55375e-06;0.0005467215009145802
5.55400e-06;0.0005626190608479985
5.55425e-06;0.0005785557936346603
5.55450e-06;0.0005981402268102837
5.55475e-06;0.0006177651880773512
5.55500e-06;0.0006411640468828487
5.55525e-06;0.0006645629056884254
5.55550e-06;0.0006880022530042808
5.55575e-06;0.000715211812149354
5.55600e-06;0.0007424213712945192
5.55625e-06;0.0007696847747654699
5.55650e-06;0.0008019620577913753
5.55675e-06;0.0008342393408173901
5.55700e-06;0.0008665166238432956
5.55725e-06;0.0008987939068692011
5.55750e-06;0.000931071189895216
5.55775e-06;0.0009633767391384438
5.55800e-06;0.0009983143839038457
5.55825e-06;0.0010332520286693658
5.55850e-06;0.0010681896734347678
5.55875e-06;0.0011031273182001695
5.55900e-06;0.0011380649629656899
5.55925e-06;0.001172972309378175
5.55950e-06;0.0012050583317317043
5.55975e-06;0.001237144354085125
5.56000e-06;0.0012692303764385456
5.56025e-06;0.0013013163987920752
5.56050e-06;0.0013334024211454957
5.56075e-06;0.0013653857284511093
5.56100e-06;0.0013878044090520074
5.56125e-06;0.0014102230896528294
5.56150e-06;0.0014326417702536513
5.56175e-06;0.0014550604508545492
5.56200e-06;0.0014774791314553712
5.56225e-06;0.0014997635103133615
5.56250e-06;0.0015095419704906773
5.56275e-06;0.0015193204306679596
5.56300e-06;0.0015289988279326891
5.56325e-06;0.0015293595602099248
5.56350e-06;0.001529720292487159
5.56375e-06;0.0015299764273496992
5.56400e-06;0.001520492653157068
5.56425e-06;0.0015110088789644367
5.56450e-06;0.0015014242304479501
5.56475e-06;0.0014824463599041524
5.56500e-06;0.0014634684893603546
5.56525e-06;0.0014444015165515052
5.56550e-06;0.001417037513079475
5.56575e-06;0.001389673509607445
5.56600e-06;0.0013622305963985836
5.56625e-06;0.0013274397610552823
5.56650e-06;0.001292648925711981
5.56675e-06;0.0012577973520366324
5.56700e-06;0.0012172899423150195
5.56725e-06;0.0011767825325934066
5.56750e-06;0.0011362279852972824
5.56775e-06;0.001091284078206112
5.56800e-06;0.0010463401711147896
5.56825e-06;0.0010013962640236195
5.56850e-06;0.0009564523569324493
5.56875e-06;0.0009109466722518742
5.56900e-06;0.0008649025886292623
5.56925e-06;0.0008188585050066502
5.56950e-06;0.0007728144213838822
5.56975e-06;0.000726802356961586
5.57000e-06;0.0006837718585674643
5.57025e-06;0.0006407413601731968
5.57050e-06;0.0005977554107470803
5.57075e-06;0.0005589177750902615
5.57100e-06;0.0005201165323377938
5.57125e-06;0.0004847326965718103
5.57150e-06;0.00045204915074317434
5.57175e-06;0.00042308091503244044
5.57200e-06;0.0003941387357013729
5.57225e-06;0.0003676363602011582
5.57250e-06;0.0003424049033487269
5.57275e-06;0.0003186153804886604
5.57300e-06;0.00029643892523624314
5.57325e-06;0.00027604695606074214
5.57350e-06;0.00025760869710181875
5.57375e-06;0.0002411116867817209
5.57400e-06;0.00022615487255497714
5.57425e-06;0.00021228791750307714
5.57450e-06;0.00019940952117845012
5.57475e-06;0.00018760766461526423
5.57500e-06;0.00017697034510022263
5.57525e-06;0.00016758573160537284
5.57550e-06;0.00015954069669623335
5.57575e-06;0.00015280816981119884
5.57600e-06;0.00014711779771274072
5.57625e-06;0.00014216831845598318
5.57650e-06;0.0001378771424402557
5.57675e-06;0.0001342802277573413
5.57700e-06;0.000131413562375879
5.57725e-06;0.00012931323396333692
5.57750e-06;0.00012801755827058362
5.57775e-06;0.00012776776736973108
5.57800e-06;0.0001275265684907209
5.57825e-06;0.00012808544207102394
5.57850e-06;0.00012865235985208732
5.57875e-06;0.0001299683380525771
5.57900e-06;0.0001312843162530624
5.57925e-06;0.0001326095607702466
5.57950e-06;0.00013479766677952502
5.57975e-06;0.000136985772788796
5.58000e-06;0.000139173878798067
5.58025e-06;0.0001413610193239017
5.58050e-06;0.00014345825589852915
5.58075e-06;0.00014555549247316371
5.58100e-06;0.00014765272904779117
5.58125e-06;0.00014974721458599943
5.58150e-06;0.00015158552893297422
5.58175e-06;0.00015342384327994278
5.58200e-06;0.00015526215762691134
5.58225e-06;0.00015710047197388613
5.58250e-06;0.0001589387863208547
5.58275e-06;0.0001611510772544787
5.58300e-06;0.00016372178155749271
5.58325e-06;0.00016629248586049803
5.58350e-06;0.00016886319016350335
5.58375e-06;0.00017143389446651737
5.58400e-06;0.00017401357055472208
5.58425e-06;0.00017742868192945297
5.58450e-06;0.0001808437933041954
5.58475e-06;0.00018426961031766154
5.58500e-06;0.00018869231570537215
5.58525e-06;0.00019311502109306777
5.58550e-06;0.0001975377264807634
5.58575e-06;0.000201960431868474
5.58600e-06;0.00020638313725616962
5.58625e-06;0.00021080584264386525
5.58650e-06;0.00021522854803157586
5.58675e-06;0.00022013676891155783
5.58700e-06;0.00022551030032078788
5.58725e-06;0.00023088383173003614
5.58750e-06;0.0002362573631392662
5.58775e-06;0.00024163089454849626
5.58800e-06;0.0002470044259577445
5.58825e-06;0.00025237795736697457
5.58850e-06;0.00025775062015805973
5.58875e-06;0.00026304239890755473
5.58900e-06;0.0002683341776570318
5.58925e-06;0.0002736259564065268
5.58950e-06;0.0002789177351560039
5.58975e-06;0.00028420951390548094
5.59000e-06;0.00028950129265497594
5.59025e-06;0.000294793071404453
5.59050e-06;0.00029931010315204914
5.59075e-06;0.0003030846293706343
5.59100e-06;0.0003068591555892067
5.59125e-06;0.0003106336818077791
5.59150e-06;0.00031440820802636427
5.59175e-06;0.0003181827342449367
5.59200e-06;0.0003219572604635091
5.59225e-06;0.00032570088588271875
5.59250e-06;0.0003265670886366873
5.59275e-06;0.0003274332913906558
5.59300e-06;0.00032829949414462734
5.59325e-06;0.0003291656968985959
5.59350e-06;0.00033003189965256734
5.59375e-06;0.0003308981024065359
5.59400e-06;0.0003317643051605044
5.59425e-06;0.0003326305079144759
5.59450e-06;0.0003334967106684444
5.59475e-06;0.0003343307579454788
5.59500e-06;0.0003321705494128848
5.59525e-06;0.0003300103408802981
5.59550e-06;0.0003278501323477114
5.59575e-06;0.0003256899238151174
5.59600e-06;0.0003235297152825307
5.59625e-06;0.000321369506749944
5.59650e-06;0.00031920929821735
5.59675e-06;0.00031704908968476327
5.59700e-06;0.0003148888811521766
5.59725e-06;0.00031271271748437696
5.59750e-06;0.0003090508424922257
5.59775e-06;0.0003053889675000621
5.59800e-06;0.00030172709250791084
5.59825e-06;0.0002980652175157596
5.59850e-06;0.00029440334252359596
5.59875e-06;0.0002907414675314448
5.59900e-06;0.00028707959253929354
5.59925e-06;0.0002834543036973769
5.59950e-06;0.00027986407845529776
5.59975e-06;0.00027627385321321867
5.60000e-06;0.0002726836279711274
5.60025e-06;0.0002690934027290483
5.60050e-06;0.00026550317748696913
5.60075e-06;0.0002619129522448779
5.60100e-06;0.0002583354442187972
5.60125e-06;0.000255942138742508
5.60150e-06;0.0002535488332662106
5.60175e-06;0.0002511555277899214
5.60200e-06;0.000248762222313624
5.60225e-06;0.0002463689168373348
5.60250e-06;0.00024397561136104554
5.60275e-06;0.0002415823058847482
5.60300e-06;0.00023918900040845897
5.60325e-06;0.0002367956949321697
5.60350e-06;0.00023440891171444607
5.60375e-06;0.00023262946859572484
5.60400e-06;0.0002308500254770036
5.60425e-06;0.00022907058235827632
5.60450e-06;0.00022729113923955507
5.60475e-06;0.00022551169612083382
5.60500e-06;0.00022373225300210655
5.60525e-06;0.0002219528098833853
5.60550e-06;0.00022017336676466404
5.60575e-06;0.00021839392364593677
5.60600e-06;0.0002166167905785451
5.60625e-06;0.00021505476502121836
5.60650e-06;0.00021349273946389696
5.60675e-06;0.00021193071390657552
5.60700e-06;0.00021036868834924878
5.60725e-06;0.00020880666279192735
5.60750e-06;0.0002072446372346059
5.60775e-06;0.0002056826116772792
5.60800e-06;0.00020412058611995776
5.60825e-06;0.00020255856056263633
5.60850e-06;0.0002011404463941335
5.60875e-06;0.00019986025467205284
5.60900e-06;0.00019858006294997218
5.60925e-06;0.00019729987122788718
5.60950e-06;0.00019601967950580652
5.60975e-06;0.00019473948778372583
5.61000e-06;0.00019345929606164083
5.61025e-06;0.00019217910433956016
5.61050e-06;0.00019089891261747516
5.61075e-06;0.00018962120384846763
5.61100e-06;0.0001885753809992487
5.61125e-06;0.00018759346881527583
5.61150e-06;0.00018668641031505153
5.61175e-06;0.00018613654869875776
5.61200e-06;0.00018676732370834763
5.61225e-06;0.00018937586099431787
5.61250e-06;0.00019415443558196995
5.61275e-06;0.00020098913337817834
5.61300e-06;0.0002097658811463477
5.61325e-06;0.00022037053474574362
5.61350e-06;0.00023269083629246323
5.61375e-06;0.0002467844297081623
5.61400e-06;0.0002630479384479144
5.61425e-06;0.00028186141361738335
5.61450e-06;0.00030322602690940404
5.61475e-06;0.0003269512327630862
5.61500e-06;0.00035284622770269413
5.61525e-06;0.0003807293816125822
5.61550e-06;0.00041122743106744905
5.61575e-06;0.00044176441867343537
5.61600e-06;0.00047592725156314126
5.61625e-06;0.0005101285071230781
5.61650e-06;0.000547907607362355
5.61675e-06;0.0005857207507952773
5.61700e-06;0.0006267039305347821
5.61725e-06;0.000667687110274148
5.61750e-06;0.0007087000821216774
5.61775e-06;0.0007524872374222047
5.61800e-06;0.0007962743927225834
5.61825e-06;0.0008400615480229622
5.61850e-06;0.0008838487033234894
5.61875e-06;0.0009276300214109018
5.61900e-06;0.0009708677895246614
5.61925e-06;0.0010141055576382745
5.61950e-06;0.0010573433257518878
5.61975e-06;0.0011005810938656472
5.62000e-06;0.0011437732671845163
5.62025e-06;0.0011827197414659664
5.62050e-06;0.0012216662157475485
5.62075e-06;0.0012605499672839712
5.62100e-06;0.001293593098205792
5.62125e-06;0.0013266362291277248
5.62150e-06;0.0013596051563308537
5.62175e-06;0.0013856643768758476
5.62200e-06;0.0014117235974209297
5.62225e-06;0.0014377307602479825
5.62250e-06;0.0014588904091432462
5.62275e-06;0.0014800500580385814
5.62300e-06;0.0015011492716426765
5.62325e-06;0.0015166208679135286
5.62350e-06;0.0015320924641843282
5.62375e-06;0.0015475237830423782
5.62400e-06;0.0015591301502735386
5.62425e-06;0.0015638088207865417
5.62450e-06;0.001568487491299545
5.62475e-06;0.0015731661618125642
5.62500e-06;0.0015778448323255675
5.62525e-06;0.0015825235028385709
5.62550e-06;0.00158720217335159
5.62575e-06;0.0015918808438645934
5.62600e-06;0.0015965595143775967
5.62625e-06;0.001601238184890616
5.62650e-06;0.0016011228824971682
5.62675e-06;0.0015964131107118723
5.62700e-06;0.00159170333892656
5.62725e-06;0.0015869935671412642
5.62750e-06;0.0015822837953559522
5.62775e-06;0.001577574023570656
5.62800e-06;0.00157286425178536
5.62825e-06;0.001568154480000048
5.62850e-06;0.001563444708214752
5.62875e-06;0.0015587060852755939
5.62900e-06;0.0015512808987408477
5.62925e-06;0.0015438557122061268
5.62950e-06;0.0015364305256714058
5.62975e-06;0.0015290053391366597
5.63000e-06;0.0015215801526019387
5.63025e-06;0.0015141549660672177
5.63050e-06;0.0015067297795324716
5.63075e-06;0.0014994847496691908
5.63100e-06;0.0014924123791698169
5.63125e-06;0.0014853400086704187
5.63150e-06;0.0014782676381710448
5.63175e-06;0.0014711952676716466
5.63200e-06;0.0014641228971722724
5.63225e-06;0.0014570505266728985
5.63250e-06;0.0014498754896778365
5.63275e-06;0.0014331403473739988
5.63300e-06;0.001416405205070161
5.63325e-06;0.0013996700627662668
5.63350e-06;0.001382934920462429
5.63375e-06;0.0013661997781585914
5.63400e-06;0.001349464635854697
5.63425e-06;0.0013327294935508594
5.63450e-06;0.0013159943512470217
5.63475e-06;0.0012991112976421125
5.63500e-06;0.0012684550300637095
5.63525e-06;0.0012377987624853063
5.63550e-06;0.0012071424949067992
5.63575e-06;0.0011764862273283961
5.63600e-06;0.001145829959749889
5.63625e-06;0.0011151736921714858
5.63650e-06;0.0010845174245930828
5.63675e-06;0.0010538611570145757
5.63700e-06;0.0010231269743353223
5.63725e-06;0.00098513748832644
5.63750e-06;0.0009471480023174287
5.63775e-06;0.0009091585163085461
5.63800e-06;0.0008711690302996636
5.63825e-06;0.0008331695472346303
5.63850e-06;0.0007942391576701459
5.63875e-06;0.0007553087681056615
5.63900e-06;0.0007163783785410453
5.63925e-06;0.000677447988976561
5.63950e-06;0.0006385440745886374
5.63975e-06;0.0006021054773775206
5.64000e-06;0.0005656668801665272
5.64025e-06;0.0005292593211861667
5.64050e-06;0.0004957419821521607
5.64075e-06;0.00046226099273201837
5.64100e-06;0.00043216480896809945
5.64125e-06;0.00040210251862944646
5.64150e-06;0.00037522781068932915
5.64175e-06;0.000351285602771677
5.64200e-06;0.00032736091286326204
5.64225e-06;0.00030507519764333017
5.64250e-06;0.0002835243899626731
5.64275e-06;0.00026336626208108655
5.64300e-06;0.00024322645047772406
5.64325e-06;0.00022480666571261356
5.64350e-06;0.00020775185926895427
5.64375e-06;0.00019250146666154104
5.64400e-06;0.0001772617352675102
5.64425e-06;0.0001630194159349292
5.64450e-06;0.00014921680583554578
5.64475e-06;0.00013595469215277743
