Time(s);Current(A)
1.10000e-05;0.001483377767250581
1.10003e-05;0.0014648204221108683
1.10005e-05;0.00144626307697103
1.10008e-05;0.001427653471952316
1.10010e-05;0.0014078551949178043
1.10013e-05;0.0013880569178831583
1.10015e-05;0.0013682586408485123
1.10018e-05;0.0013484603638140005
1.10020e-05;0.0013286620867793545
1.10023e-05;0.0013088638097447085
1.10025e-05;0.0012890655327101967
1.10028e-05;0.0012692672556755507
1.10030e-05;0.0012494689786409047
1.10033e-05;0.001229670701606393
1.10035e-05;0.001211851841803239
1.10038e-05;0.0011957048620428467
1.10040e-05;0.001179557882282564
1.10043e-05;0.0011634109025221717
1.10045e-05;0.0011472639227617795
1.10047e-05;0.0011311169430014965
1.10050e-05;0.0011149699632411042
1.10053e-05;0.001098822983480712
1.10055e-05;0.0010872607861236712
1.10058e-05;0.0010795710447999692
1.10060e-05;0.0010718813034762671
1.10062e-05;0.0010641915621526171
1.10065e-05;0.001056501820828915
1.10068e-05;0.001048812079505213
1.10070e-05;0.001041122338181511
1.10073e-05;0.001033432596857861
1.10075e-05;0.0010297765113988116
1.10078e-05;0.0010295273826101013
1.10080e-05;0.0010292782538213927
1.10083e-05;0.0010328979799302685
1.10085e-05;0.001039785466463481
1.10088e-05;0.0010466729529966469
1.10090e-05;0.0010535604395298594
1.10093e-05;0.001060447926063072
1.10095e-05;0.001067335412596238
1.10098e-05;0.0010742228991294505
1.10100e-05;0.001081110385662663
1.10103e-05;0.0010883093494504965
1.10105e-05;0.0011025929889937045
1.10108e-05;0.0011168766285369128
1.10110e-05;0.001131160268080024
1.10113e-05;0.0011454439076232321
1.10115e-05;0.0011597275471664403
1.10118e-05;0.0011740111867095517
1.10120e-05;0.0011882948262527597
1.10123e-05;0.001202578465795968
1.10125e-05;0.0012177244658659822
1.10128e-05;0.0012335988436282602
1.10130e-05;0.001249473221390538
1.10132e-05;0.0012653475991527083
1.10135e-05;0.0012812219769149863
1.10138e-05;0.0012970963546772643
1.10140e-05;0.0013129707324394345
1.10143e-05;0.0013287107986013015
1.10145e-05;0.0013413958932508945
1.10147e-05;0.0013540809879004016
1.10150e-05;0.0013667660825499946
1.10153e-05;0.0013794511771995875
1.10155e-05;0.0013921362718491807
1.10158e-05;0.0014048213664986878
1.10160e-05;0.0014175064611482808
1.10163e-05;0.001436232861897297
1.10165e-05;0.001460061945871524
1.10168e-05;0.0014838910298459126
1.10170e-05;0.001507720113820301
1.10173e-05;0.001531549197794528
1.10175e-05;0.0015553782817689166
1.10178e-05;0.0015792073657433052
1.10180e-05;0.0016030364497175323
1.10183e-05;0.0016268655336919206
1.10185e-05;0.0016506946176663092
1.10188e-05;0.0016745237016405363
1.10190e-05;0.0017089975036577304
1.10193e-05;0.0017524621800500797
1.10195e-05;0.0017959268564421344
1.10198e-05;0.0018393915328344837
1.10200e-05;0.0018828562092268332
1.10203e-05;0.001926320885618888
1.10205e-05;0.0019697855620112374
1.10208e-05;0.0020132502384035867
1.10210e-05;0.0020567149147956414
1.10213e-05;0.0021001795911879907
1.10215e-05;0.00214364426758034
1.10217e-05;0.0021909950504984572
1.10220e-05;0.0022416281651280153
1.10223e-05;0.0022922612797575733
1.10225e-05;0.0023428943943867887
1.10228e-05;0.0023935275090163468
1.10230e-05;0.002444160623645905
1.10232e-05;0.0024947937382751198
1.10235e-05;0.002541790563203695
1.10238e-05;0.0025857160598202287
1.10240e-05;0.002629641556436763
1.10243e-05;0.002673567053052999
1.10245e-05;0.0027174925496695327
1.10248e-05;0.0027614180462860664
1.10250e-05;0.0028053435429023026
1.10253e-05;0.0028340139667989944
1.10255e-05;0.0028497994611102937
1.10258e-05;0.002865584955421486
1.10260e-05;0.0028813704497327847
1.10263e-05;0.002897155944044084
1.10265e-05;0.002912941438355276
1.10268e-05;0.002928726932666575
1.10270e-05;0.0029445124269778743
1.10273e-05;0.0029602979212890665
1.10275e-05;0.0029760834156003653
1.10278e-05;0.002991868909911664
1.10280e-05;0.002984484694060633
1.10283e-05;0.002957530588936722
1.10285e-05;0.0029305764838128117
1.10288e-05;0.0029036223786890834
1.10290e-05;0.002876668273565173
1.10293e-05;0.002849714168441262
1.10295e-05;0.002822760063317534
1.10298e-05;0.002795805958193623
1.10300e-05;0.0027688518530697127
1.10302e-05;0.0027418977479459843
1.10305e-05;0.0027149436428220734
1.10308e-05;0.0026750442251918614
1.10310e-05;0.0026242107764245437
1.10313e-05;0.0025733773276568816
1.10315e-05;0.0025225438788892196
1.10317e-05;0.0024717104301219023
1.10320e-05;0.0024208769813542402
1.10323e-05;0.0023698616398707116
1.10325e-05;0.002314709075202973
1.10328e-05;0.0022595565105356084
1.10330e-05;0.0022044039458678703
1.10333e-05;0.002149251381200132
1.10335e-05;0.002094098816532767
1.10338e-05;0.0020389462518650286
1.10340e-05;0.0019896792023675405
1.10343e-05;0.0019453832500228665
1.10345e-05;0.0019010872976778924
1.10348e-05;0.0018567913453329183
1.10350e-05;0.0018124953929882443
1.10353e-05;0.0017681994406432702
1.10355e-05;0.001723903488298296
1.10358e-05;0.0016806632646898675
1.10360e-05;0.0016614360170046736
1.10363e-05;0.0016422087693194795
1.10365e-05;0.0016229815216344157
1.10368e-05;0.0016037542739492218
1.10370e-05;0.0015845270262640277
1.10373e-05;0.001565299778578964
1.10375e-05;0.00154607253089377
1.10378e-05;0.0015376818152751056
1.10380e-05;0.0015384439863871048
1.10383e-05;0.0015392061574991092
1.10385e-05;0.0015456493291658169
1.10387e-05;0.0015568908583026622
1.10390e-05;0.0015681323874395837
1.10393e-05;0.001584643038227345
1.10395e-05;0.0016056041601936444
1.10398e-05;0.001626565282160086
1.10400e-05;0.0016519777213753286
1.10402e-05;0.001681149887625777
1.10405e-05;0.001710322053876423
1.10408e-05;0.0017444280043495282
1.10410e-05;0.0017827011891246882
1.10413e-05;0.0018209743738995888
1.10415e-05;0.0018592475586747487
1.10418e-05;0.0018975207434499086
1.10420e-05;0.001935793928224809
1.10423e-05;0.001974249653619181
1.10425e-05;0.002016857339026948
1.10428e-05;0.002059465024434426
1.10430e-05;0.002102072709842193
1.10433e-05;0.00214468039524996
1.10435e-05;0.002187288080657438
1.10438e-05;0.002229895766065205
1.10440e-05;0.002268310342997002
1.10443e-05;0.002303183284403509
1.10445e-05;0.0023380562258102527
1.10448e-05;0.002372929167216996
1.10450e-05;0.0024078021086235035
1.10453e-05;0.002442675050030247
1.10455e-05;0.0024775479914369907
1.10458e-05;0.0025007362577485295
1.10460e-05;0.002514055268195721
1.10463e-05;0.0025273742786429123
1.10465e-05;0.0025406932890900138
1.10468e-05;0.002554012299537205
1.10470e-05;0.0025673313099843966
1.10472e-05;0.0025806503204314976
1.10475e-05;0.002583341086269092
1.10478e-05;0.002577054891721067
1.10480e-05;0.002570768697173084
1.10483e-05;0.002558020007132694
1.10485e-05;0.002539812883629564
1.10487e-05;0.0025216057601265573
1.10490e-05;0.002497591520638158
1.10493e-05;0.0024686724024920565
1.10495e-05;0.0024397532843459546
1.10498e-05;0.0024032450319703964
1.10500e-05;0.0023603267504839955
1.10503e-05;0.002317408468997594
1.10505e-05;0.002274490187511484
1.10508e-05;0.0022315719060250826
1.10510e-05;0.0021886536245386817
1.10513e-05;0.002145266889887621
1.10515e-05;0.0020912249990303095
1.10518e-05;0.002037183108172998
1.10520e-05;0.001983141217316053
1.10523e-05;0.0019290993264587414
1.10525e-05;0.0018750574356014302
1.10528e-05;0.0018210155447444848
1.10530e-05;0.0017669082152947508
1.10533e-05;0.0017127456142857394
1.10535e-05;0.0016585830132770953
1.10538e-05;0.0016044204122680839
1.10540e-05;0.0015502578112590727
1.10543e-05;0.0015008941685237854
1.10545e-05;0.0014555838817187517
1.10548e-05;0.001410273594913718
1.10550e-05;0.0013649633081089913
1.10553e-05;0.0013196530213039578
1.10555e-05;0.001280452300321471
1.10557e-05;0.001246411916948004
1.10560e-05;0.0012123715335743065
1.10563e-05;0.001181283997343113
1.10565e-05;0.0011526905316574625
1.10568e-05;0.001124097065971618
1.10570e-05;0.0010989930533364383
1.10572e-05;0.0010768363460149843
1.10575e-05;0.0010546796386933803
1.10578e-05;0.0010356068796597234
1.10580e-05;0.0010191389234545144
1.10583e-05;0.0010026709672494168
1.10585e-05;0.0009884288800357437
1.10588e-05;0.0009760668340237097
1.10590e-05;0.0009637047880117594
1.10593e-05;0.0009538803233185198
1.10595e-05;0.0009461991821767177
1.10598e-05;0.0009385180410349677
1.10600e-05;0.0009325898728319282
1.10603e-05;0.0009281423224742984
1.10605e-05;0.0009236947721166987
1.10608e-05;0.0009216482807568726
1.10610e-05;0.0009216298017647879
1.10613e-05;0.0009216113227727033
1.10615e-05;0.0009215928437806186
1.10618e-05;0.0009215743647885339
1.10620e-05;0.0009215558857964493
1.10623e-05;0.0009215374068043647
1.10625e-05;0.0009216557371466621
1.10628e-05;0.0009248858509932064
1.10630e-05;0.0009281159648397726
1.10633e-05;0.0009313460786863387
1.10635e-05;0.000934576192532883
1.10638e-05;0.0009378063063794492
1.10640e-05;0.0009410364202260154
1.10642e-05;0.0009442665340725596
1.10645e-05;0.000946089666723052
1.10648e-05;0.0009467244173848033
1.10650e-05;0.0009473591680465501
1.10653e-05;0.0009479939187083013
1.10655e-05;0.0009486286693700525
1.10657e-05;0.0009492634200317995
1.10660e-05;0.0009498981706935507
1.10663e-05;0.0009505329213553019
1.10665e-05;0.0009511676720170531
1.10668e-05;0.0009518024226788
1.10670e-05;0.0009524371733405512
1.10673e-05;0.0009530719240023024
1.10675e-05;0.0009537066746640494
1.10678e-05;0.0009543414253258006
1.10680e-05;0.0009549761759875517
1.10683e-05;0.0009516429817657339
1.10685e-05;0.0009449583324957
1.10688e-05;0.000938273683225666
1.10690e-05;0.0009315890339556775
1.10693e-05;0.0009249043846856435
1.10695e-05;0.0009182197354156097
1.10698e-05;0.000911535086145621
1.10700e-05;0.0009048504368755872
1.10703e-05;0.0008981657876055532
1.10705e-05;0.0008914811383355645
1.10708e-05;0.0008847964890655307
1.10710e-05;0.0008781118397954967
1.10713e-05;0.000871427190525508
1.10715e-05;0.0008647425412554742
1.10718e-05;0.0008580578919854403
1.10720e-05;0.0008498852930986118
1.10723e-05;0.000840455923666381
1.10725e-05;0.0008310265542341502
1.10727e-05;0.0008215971848019833
1.10730e-05;0.0008121678153697525
1.10733e-05;0.0008027384459375217
1.10735e-05;0.0007937802738389026
1.10738e-05;0.0007852200903032621
1.10740e-05;0.0007766599067676217
1.10742e-05;0.0007680997232320393
1.10745e-05;0.0007595395396963988
1.10748e-05;0.0007509793561607584
1.10750e-05;0.0007434683446733746
1.10753e-05;0.0007368434979541543
1.10755e-05;0.000730218651234934
1.10758e-05;0.0007255529062369918
1.10760e-05;0.0007225418821456092
1.10763e-05;0.0007224225565673324
1.10765e-05;0.0007247456534182271
1.10768e-05;0.0007298332499574198
1.10770e-05;0.0007372558326694694
1.10773e-05;0.0007472547832431165
1.10775e-05;0.0007594298177418298
1.10778e-05;0.0007745924941987535
1.10780e-05;0.0007922786300328364
1.10783e-05;0.0008133342567405518
1.10785e-05;0.0008372358648146357
1.10788e-05;0.0008641182200457133
1.10790e-05;0.0008935182110809754
1.10793e-05;0.0009254721027084738
1.10795e-05;0.0009595831016761362
1.10798e-05;0.0009968262704649973
1.10800e-05;0.0010367149715562074
1.10803e-05;0.0010766036726474176
1.10805e-05;0.0011197303111759585
1.10808e-05;0.001165591816768821
1.10810e-05;0.001211453322361684
1.10812e-05;0.001259846649022605
1.10815e-05;0.0013103784339417801
1.10818e-05;0.0013609102188609553
1.10820e-05;0.0014114420037797883
1.10823e-05;0.0014619737886989634
1.10825e-05;0.0015125210187377236
1.10827e-05;0.001563419554253153
1.10830e-05;0.0016143180897689275
1.10833e-05;0.0016652166252847018
1.10835e-05;0.0017161151608001313
1.10838e-05;0.0017670136963159058
1.10840e-05;0.0018123063857115689
1.10843e-05;0.0018528641955065112
1.10845e-05;0.001893422005301179
1.10848e-05;0.0019339798150961216
1.10850e-05;0.001974537624891064
1.10853e-05;0.002015095434685732
1.10855e-05;0.0020556532444806746
1.10858e-05;0.002095634497152115
1.10860e-05;0.0021225017254016417
1.10863e-05;0.0021493689536513506
1.10865e-05;0.002176236181901059
1.10868e-05;0.002203103410150586
1.10870e-05;0.002229970638400295
1.10873e-05;0.0022568378666500038
1.10875e-05;0.0022837050948995305
1.10878e-05;0.002305099571886938
1.10880e-05;0.0023218715855102055
1.10883e-05;0.0023386435991333593
1.10885e-05;0.0023554156127566267
1.10888e-05;0.002372187626379894
1.10890e-05;0.002388959640003048
1.10893e-05;0.0024057316536263153
1.10895e-05;0.0024225036672495827
1.10897e-05;0.0024392756808727365
1.10900e-05;0.002456047694496004
1.10903e-05;0.0024728197081192714
1.10905e-05;0.002489591721742425
1.10908e-05;0.0025063637353656926
1.10910e-05;0.00252313574898896
1.10912e-05;0.0025399077626121138
1.10915e-05;0.002556679776235381
1.10918e-05;0.002569385687411335
1.10920e-05;0.0025786572364722166
1.10923e-05;0.0025879287855331617
1.10925e-05;0.0025972003345941064
1.10928e-05;0.002606471883655051
1.10930e-05;0.0026157434327159328
1.10933e-05;0.0026250149817768774
1.10935e-05;0.002634286530837822
1.10938e-05;0.002643558079898704
1.10940e-05;0.0026528296289596485
1.10943e-05;0.002662101178020593
1.10945e-05;0.002671372727081475
1.10948e-05;0.0026806442761424195
1.10950e-05;0.002689915825203364
1.10953e-05;0.0026991873742642464
1.10955e-05;0.002708458923325191
1.10958e-05;0.0027070175780092957
1.10960e-05;0.002696527774355134
1.10963e-05;0.0026860379707009012
1.10965e-05;0.002675548167046668
1.10968e-05;0.0026650583633925063
1.10970e-05;0.0026545685597382735
1.10973e-05;0.0026440787560840407
1.10975e-05;0.002633588952429879
1.10978e-05;0.002623099148775646
1.10980e-05;0.0026126093451214133
1.10983e-05;0.0026021195414672516
1.10985e-05;0.002574975662037428
1.10988e-05;0.0025337652096040406
1.10990e-05;0.002492554757170932
1.10993e-05;0.0024513443047375445
1.10995e-05;0.0024101338523041566
1.10997e-05;0.0023689233998710484
1.11000e-05;0.002327712947437661
1.11003e-05;0.002286502495004273
1.11005e-05;0.0022452920425711648
1.11008e-05;0.0022040815901377773
1.11010e-05;0.0021628711377043894
1.11013e-05;0.0021136895665684603
1.11015e-05;0.0020577753298282064
1.11018e-05;0.002001861093087574
1.11020e-05;0.0019459468563469415
1.11023e-05;0.0018900326196066878
1.11025e-05;0.0018341018761006914
1.11028e-05;0.0017777956795546788
1.11030e-05;0.0017214894830090476
1.11033e-05;0.001665183286463035
1.11035e-05;0.001608877089917022
1.11038e-05;0.001552570893371391
1.11040e-05;0.0014992162951470696
1.11043e-05;0.0014483547126766326
1.11045e-05;0.0013974931302065405
1.11048e-05;0.0013507029409302038
1.11050e-05;0.0013073515825065734
1.11053e-05;0.0012640002240832367
1.11055e-05;0.0012257242176253265
1.11058e-05;0.0011917350181881255
1.11060e-05;0.0011577458187511547
1.11063e-05;0.001127133525647489
1.11065e-05;0.0010993734772506037
1.11068e-05;0.0010744957397075536
1.11070e-05;0.0010520524954738262
1.11073e-05;0.0010328117206836731
1.11075e-05;0.0010162758555408438
1.11078e-05;0.0010026515213238838
1.11080e-05;0.0009914863606381062
1.11082e-05;0.0009826962143767504
1.11085e-05;0.0009759120823934324
1.11088e-05;0.0009721437553416657
1.11090e-05;0.0009709226750310285
1.11093e-05;0.000969701594720383
1.11095e-05;0.000971936950249031
1.11098e-05;0.0009770917236867828
1.11100e-05;0.0009822464971244995
1.11103e-05;0.0009899309104992142
1.11105e-05;0.000999751939879178
1.11108e-05;0.0010095729692590754
1.11110e-05;0.0010224390709756806
1.11113e-05;0.001037877139633794
1.11115e-05;0.001053315208291803
1.11118e-05;0.0010687532769499165
1.11120e-05;0.00108419134560803
1.11123e-05;0.0010996294142660388
1.11125e-05;0.0011151845988541646
1.11128e-05;0.001133403632540179
1.11130e-05;0.00115162266622607
1.11133e-05;0.0011698416999120843
1.11135e-05;0.0011880607335980984
1.11138e-05;0.0012062797672839894
1.11140e-05;0.0012244988009700037
1.11143e-05;0.0012395669174336934
1.11145e-05;0.0012519736669292247
1.11148e-05;0.0012643804164248402
1.11150e-05;0.001276787165920456
1.11153e-05;0.0012891939154159873
1.11155e-05;0.001301600664911603
1.11158e-05;0.0013140074144072185
1.11160e-05;0.00132641416390275
1.11163e-05;0.0013388209133983655
1.11165e-05;0.001351227662893981
1.11167e-05;0.0013636344123895126
1.11170e-05;0.001376041161885128
1.11173e-05;0.0013838962540064562
1.11175e-05;0.001387906868557412
1.11178e-05;0.001391917483108395
1.11180e-05;0.0013959280976593778
1.11183e-05;0.0013999387122103607
1.11185e-05;0.0014039493267613164
1.11188e-05;0.0014079599413122995
1.11190e-05;0.0014119705558632823
1.11193e-05;0.001415981170414238
1.11195e-05;0.0014199917849652209
1.11198e-05;0.001424002399516204
1.11200e-05;0.0014280130140671597
1.11203e-05;0.0014295523273990295
1.11205e-05;0.0014290042994997347
1.11208e-05;0.0014284562716004436
1.11210e-05;0.001427908243701149
1.11213e-05;0.0014273602158018542
1.11215e-05;0.001426812187902563
1.11218e-05;0.0014262641600032685
1.11220e-05;0.0014257161321039736
1.11223e-05;0.0014251681042046827
1.11225e-05;0.001424620076305388
1.11228e-05;0.0014240174828835817
1.11230e-05;0.0014221737746267114
1.11233e-05;0.0014203300663698285
1.11235e-05;0.0014184863581129458
1.11238e-05;0.0014166426498560755
1.11240e-05;0.0014147989415991926
1.11243e-05;0.0014129552333423097
1.11245e-05;0.0014111115250854394
1.11248e-05;0.0014092678168285567
1.11250e-05;0.0014074241085716738
1.11252e-05;0.0014055804003148035
1.11255e-05;0.0014069602565257267
1.11258e-05;0.0014110628399272072
1.11260e-05;0.0014151654233286598
1.11263e-05;0.00141926800673014
1.11265e-05;0.0014233705901316206
1.11268e-05;0.001427473173533101
1.11270e-05;0.0014315757569345535
1.11273e-05;0.001435678340336034
1.11275e-05;0.0014397809237375143
1.11278e-05;0.0014438835071389669
1.11280e-05;0.0014479860905404474
1.11283e-05;0.0014520886739419277
1.11285e-05;0.0014561912573433802
1.11288e-05;0.0014666515148649111
1.11290e-05;0.0014824816703269542
1.11293e-05;0.0014983118257888902
1.11295e-05;0.0015141419812509333
1.11298e-05;0.0015299721367129763
1.11300e-05;0.001545802292174912
1.11303e-05;0.0015616324476369554
1.11305e-05;0.0015774626030989984
1.11308e-05;0.0015932927585609342
1.11310e-05;0.0016091229140229773
1.11313e-05;0.0016249530694850203
1.11315e-05;0.0016407832249469563
1.11318e-05;0.0016566133804089994
1.11320e-05;0.001674414793337433
1.11323e-05;0.0016938811943116277
1.11325e-05;0.0017133475952859543
1.11328e-05;0.001732813996260281
1.11330e-05;0.0017522803972344757
1.11333e-05;0.0017717467982088025
1.11335e-05;0.001791213199183129
1.11337e-05;0.001810679600157324
1.11340e-05;0.0018301460011316505
1.11343e-05;0.0018465994739534485
1.11345e-05;0.0018605081298534486
1.11348e-05;0.0018744167857535428
1.11350e-05;0.001888325441653637
1.11353e-05;0.0019022340975537312
1.11355e-05;0.0019161427534537313
1.11358e-05;0.0019300514093538255
1.11360e-05;0.0019439600652539197
1.11363e-05;0.0019578687211539198
1.11365e-05;0.001966984860444405
1.11368e-05;0.001972053084633947
1.11370e-05;0.0019771213088234543
1.11373e-05;0.0019821895330129962
1.11375e-05;0.001987257757202538
1.11378e-05;0.0019923259813920454
1.11380e-05;0.0019973942055815873
1.11383e-05;0.0020024624297711293
1.11385e-05;0.0020075306539606365
1.11388e-05;0.0020125988781501784
1.11390e-05;0.0020176671023397204
1.11393e-05;0.0020227353265292276
1.11395e-05;0.0020278035507187695
1.11398e-05;0.0020328717749083115
1.11400e-05;0.002034522584963907
1.11403e-05;0.0020332869361072755
1.11405e-05;0.0020320512872506434
1.11408e-05;0.00203081563839402
1.11410e-05;0.002029579989537388
1.11413e-05;0.002028344340680756
1.11415e-05;0.0020271086918241324
1.11418e-05;0.0020258730429675003
1.11420e-05;0.0020246373941108686
1.11422e-05;0.002023401745254245
1.11425e-05;0.002022166096397613
1.11428e-05;0.002020930447540981
1.11430e-05;0.0020196947986843576
1.11433e-05;0.0020184591498277255
1.11435e-05;0.00201660589766846
1.11438e-05;0.00201423099771135
1.11440e-05;0.002011856097754256
1.11443e-05;0.002009481197797146
1.11445e-05;0.0020071062978400363
1.11448e-05;0.0020047313978829424
1.11450e-05;0.0020023564979258324
1.11453e-05;0.0019999815979687228
1.11455e-05;0.001997462040522381
1.11458e-05;0.0019916521900794452
1.11460e-05;0.00198584233963651
1.11463e-05;0.001980032489193614
1.11465e-05;0.0019742226387506785
1.11468e-05;0.001968412788307743
1.11470e-05;0.001962602937864847
1.11473e-05;0.0019567930874219114
1.11475e-05;0.001950983236978976
1.11478e-05;0.0019400358503391796
1.11480e-05;0.0019247491338536856
