Time(s);Current(A)
1.13000e-05;-0.0016292472046820982
1.13003e-05;-0.001621236689670251
1.13005e-05;-0.0016132261746584042
1.13008e-05;-0.0016052156596466115
1.13010e-05;-0.0015964259585238506
1.13013e-05;-0.001585687089580181
1.13015e-05;-0.0015749482206365844
1.13018e-05;-0.0015642093516929148
1.13020e-05;-0.0015534704827492452
1.13023e-05;-0.0015427316138056483
1.13025e-05;-0.0015302842580101398
1.13028e-05;-0.001517370602689788
1.13030e-05;-0.0015044569473695237
1.13033e-05;-0.0014915432920491719
1.13035e-05;-0.00147862963672882
1.13037e-05;-0.0014654849197598104
1.13040e-05;-0.0014517621920637097
1.13043e-05;-0.0014380394643676087
1.13045e-05;-0.001424296544745149
1.13048e-05;-0.0014105031141435917
1.13050e-05;-0.0013967096835420347
1.13052e-05;-0.0013830517893074763
1.13055e-05;-0.0013697329451679004
1.13058e-05;-0.0013565964933035923
1.13060e-05;-0.0013439163036195589
1.13063e-05;-0.0013315552173001719
1.13065e-05;-0.0013199923818750334
1.13068e-05;-0.001308429546449895
1.13070e-05;-0.0012972181635843984
1.13073e-05;-0.001287102790548757
1.13075e-05;-0.0012777042884952689
1.13078e-05;-0.0012687176351769505
1.13080e-05;-0.001259425837554667
1.13083e-05;-0.00124922296572454
1.13085e-05;-0.0012378862434487604
1.13088e-05;-0.0012255984898146056
1.13090e-05;-0.0012128443824719311
1.13093e-05;-0.0011989236711186042
1.13095e-05;-0.001185002959765183
1.13098e-05;-0.0011704638069411106
1.13100e-05;-0.0011543775959788347
1.13103e-05;-0.0011375244298211494
1.13105e-05;-0.0011187526920071998
1.13108e-05;-0.0010992388510261196
1.13110e-05;-0.001077868606813671
1.13113e-05;-0.0010564983626012224
1.13115e-05;-0.0010345565716146689
1.13118e-05;-0.0010111850316046934
1.13120e-05;-0.0009872382294838372
1.13122e-05;-0.0009618523842642927
1.13125e-05;-0.0009360761627234555
1.13128e-05;-0.0009091271583061624
1.13130e-05;-0.0008815391372821601
1.13133e-05;-0.0008534804944654058
1.13135e-05;-0.0008251029761255699
1.13137e-05;-0.0007964788100444995
1.13140e-05;-0.0007675787781310904
1.13143e-05;-0.0007384011332820798
1.13145e-05;-0.0007090664051175777
1.13148e-05;-0.0006797526591585755
1.13150e-05;-0.0006506381438858227
1.13153e-05;-0.0006219011327414657
1.13155e-05;-0.0005937095510567388
1.13158e-05;-0.0005661814047186856
1.13160e-05;-0.0005393711941069413
1.13163e-05;-0.0005133505701577621
1.13165e-05;-0.0004882679311597243
1.13168e-05;-0.00046430750847717124
1.13170e-05;-0.0004416537538759691
1.13173e-05;-0.00042049108170598816
1.13175e-05;-0.00040105641139591614
1.13178e-05;-0.00038383178945477695
1.13180e-05;-0.00036957519145109025
1.13183e-05;-0.0003588754863896012
1.13185e-05;-0.00035187237422422705
1.13188e-05;-0.0003485075601621033
1.13190e-05;-0.00034872172228508284
1.13193e-05;-0.0003524554763242408
1.13195e-05;-0.0003596822816886946
1.13198e-05;-0.0003705291909488872
1.13200e-05;-0.00038529602993210186
1.13203e-05;-0.00040417671677141383
1.13205e-05;-0.0004270837497440879
1.13207e-05;-0.00045380563558530357
1.13210e-05;-0.0004841302198518057
1.13213e-05;-0.0005178453148272754
1.13215e-05;-0.0005547593915759032
1.13218e-05;-0.0005952225734580496
1.13220e-05;-0.0006390256136290916
1.13222e-05;-0.0006844815380793129
1.13225e-05;-0.000734072224182642
1.13228e-05;-0.0007849799680303226
1.13230e-05;-0.0008391823889001647
1.13233e-05;-0.0008943567152345505
1.13235e-05;-0.0009519623052073595
1.13238e-05;-0.001010288263212344
1.13240e-05;-0.0010704162530666003
1.13243e-05;-0.0011309867087605366
1.13245e-05;-0.001192664011925734
1.13248e-05;-0.0012543737640260898
1.13250e-05;-0.0013161646885453903
1.13253e-05;-0.0013775722102726126
1.13255e-05;-0.0014380206333001952
1.13258e-05;-0.0014977285490104842
1.13260e-05;-0.0015555840535754252
1.13263e-05;-0.0016123254226071333
1.13265e-05;-0.0016662797333223318
1.13268e-05;-0.0017181746670217673
1.13270e-05;-0.001764917979872045
1.13273e-05;-0.0018116612927226395
1.13275e-05;-0.0018560211381641008
1.13278e-05;-0.0018944186365926622
1.13280e-05;-0.0019315885944484897
1.13283e-05;-0.001965687806364817
1.13285e-05;-0.0019997870182809135
1.13288e-05;-0.002032492588310628
1.13290e-05;-0.002061711902766614
1.13292e-05;-0.002090931217222402
1.13295e-05;-0.0021159362341810744
1.13298e-05;-0.0021397910374750177
1.13300e-05;-0.0021626810434828107
1.13303e-05;-0.002183157567269594
1.13305e-05;-0.002203634091056377
1.13307e-05;-0.0022228120368121503
1.13310e-05;-0.0022387415333488024
1.13313e-05;-0.0022546710298854545
1.13315e-05;-0.002270600526422107
1.13318e-05;-0.002286530022958651
1.13320e-05;-0.002298990425953415
1.13323e-05;-0.0023105040047623846
1.13325e-05;-0.002322017583571277
1.13328e-05;-0.0023335311623802466
1.13330e-05;-0.002344118720085773
1.13333e-05;-0.0023523897958708773
1.13335e-05;-0.0023606608716560374
1.13338e-05;-0.0023689319474411974
1.13340e-05;-0.002376581772396373
1.13343e-05;-0.002382677511477875
1.13345e-05;-0.002388773250559377
1.13348e-05;-0.0023948689896408377
1.13350e-05;-0.002400464163994994
1.13353e-05;-0.0024048071539910696
1.13355e-05;-0.002409150143987116
1.13358e-05;-0.002413493133983192
1.13360e-05;-0.002417516488665201
1.13363e-05;-0.0024207402617572103
1.13365e-05;-0.002423964034849242
1.13368e-05;-0.0024271878079412733
1.13370e-05;-0.002430246643359785
1.13373e-05;-0.0024328928800402333
1.13375e-05;-0.002435286074867631
1.13377e-05;-0.002437046274533648
1.13380e-05;-0.002438007707300861
1.13383e-05;-0.00243697099005488
1.13385e-05;-0.0024359342728089064
1.13388e-05;-0.00243364797601603
1.13390e-05;-0.002428235801834224
1.13392e-05;-0.002422823627652455
1.13395e-05;-0.0024174114534706494
1.13398e-05;-0.0024119992792888435
1.13400e-05;-0.0024020498227586328
1.13403e-05;-0.002390861999890265
1.13405e-05;-0.0023796741770218217
1.13408e-05;-0.002368486354153378
1.13410e-05;-0.002355986565852044
1.13413e-05;-0.0023402048391638975
1.13415e-05;-0.002324423112475751
1.13418e-05;-0.002307882526203472
1.13420e-05;-0.0022894436197946257
1.13423e-05;-0.0022704150470731366
1.13425e-05;-0.0022499113985165065
1.13428e-05;-0.002228952766677807
1.13430e-05;-0.0022068559744418364
1.13433e-05;-0.0021844442014524235
1.13435e-05;-0.0021612444904574647
1.13438e-05;-0.0021378646479739095
1.13440e-05;-0.002113928008293958
1.13443e-05;-0.002089649659731276
1.13445e-05;-0.0020651461790189085
1.13448e-05;-0.0020405619211560874
1.13450e-05;-0.002016041241141544
1.13453e-05;-0.001991728626961951
1.13455e-05;-0.001967763912248791
1.13458e-05;-0.0019442636833811118
1.13460e-05;-0.0019213171147008411
1.13462e-05;-0.0018991537813221715
1.13465e-05;-0.0018778479147826932
1.13468e-05;-0.0018571476564252407
1.13470e-05;-0.0018379623531806309
1.13473e-05;-0.0018193426953919398
1.13475e-05;-0.0018024972565495864
1.13477e-05;-0.0017866943453461485
1.13480e-05;-0.0017711509152329899
1.13483e-05;-0.001755193373401253
1.13485e-05;-0.0017386723120447305
1.13488e-05;-0.001721760192581759
1.13490e-05;-0.0017047932822930624
1.13493e-05;-0.0016876893103796055
1.13495e-05;-0.0016705853384662644
1.13498e-05;-0.0016532619372754893
1.13500e-05;-0.0016353896242379746
1.13503e-05;-0.0016169184355078173
1.13505e-05;-0.001596949133278234
1.13508e-05;-0.0015769798310486507
1.13510e-05;-0.0015565951093010268
1.13513e-05;-0.001535171197625216
1.13515e-05;-0.0015137472859494052
1.13518e-05;-0.001491904231107231
1.13520e-05;-0.001469012671469148
1.13523e-05;-0.001446121111831065
1.13525e-05;-0.0014228133347503362
1.13528e-05;-0.0013984643716983018
1.13530e-05;-0.0013739773676827312
1.13533e-05;-0.0013491450482146397
1.13535e-05;-0.0013242909686763818
1.13538e-05;-0.0012993824553799863
1.13540e-05;-0.0012744039906899091
1.13543e-05;-0.0012492505395563897
1.13545e-05;-0.00122409873414245
1.13548e-05;-0.0011990109896564615
1.13550e-05;-0.0011741772273321743
1.13553e-05;-0.0011497519136270816
1.13555e-05;-0.00112587776238752
1.13558e-05;-0.0011026394365415528
1.13560e-05;-0.0010800469664315846
1.13562e-05;-0.0010582550657572448
1.13565e-05;-0.0010373132299291194
1.13568e-05;-0.0010167992811916733
1.13570e-05;-0.0009976998155584542
1.13573e-05;-0.0009798493005960137
1.13575e-05;-0.0009633072663008467
1.13578e-05;-0.0009476735085124668
1.13580e-05;-0.0009319586607168944
1.13583e-05;-0.0009153199923909051
1.13585e-05;-0.0008976118933590958
1.13588e-05;-0.0008789357553669666
1.13590e-05;-0.0008595167774674897
1.13593e-05;-0.0008399063059650319
1.13595e-05;-0.0008197000918131033
1.13598e-05;-0.000798939031852942
1.13600e-05;-0.0007768646559782413
1.13603e-05;-0.0007531500109111721
1.13605e-05;-0.0007286443149877575
1.13608e-05;-0.0007021597710644689
1.13610e-05;-0.0006751165884613374
1.13613e-05;-0.0006466759469892213
1.13615e-05;-0.0006177912355172903
1.13618e-05;-0.0005877956636955655
1.13620e-05;-0.0005573212207229323
1.13623e-05;-0.000525313217136051
1.13625e-05;-0.0004921912166312198
1.13628e-05;-0.00045817007186785426
1.13630e-05;-0.0004234653840222005
1.13633e-05;-0.00038829271271194674
1.13635e-05;-0.0003528442574147852
1.13638e-05;-0.0003171992670680512
1.13640e-05;-0.00028129214924467444
1.13643e-05;-0.0002450933972243432
1.13645e-05;-0.00020874489670100814
1.13647e-05;-0.0001724692087453074
1.13650e-05;-0.00013648932691212189
1.13653e-05;-0.0001010281959032967
1.13655e-05;-6.629414009442312e-05
1.13658e-05;-3.2424687091712424e-05
1.13660e-05;5.33342755575607e-07
1.13663e-05;3.25105334714978e-05
1.13665e-05;6.333012351310673e-05
1.13668e-05;9.276482864289892e-05
1.13670e-05;0.0001205871083528664
1.13673e-05;0.0001465694652697062
1.13675e-05;0.00017053723649872873
1.13678e-05;0.00019257719315901855
1.13680e-05;0.0002131311341661834
1.13683e-05;0.00023260512917355796
1.13685e-05;0.0002510494483679745
1.13688e-05;0.00026814408380830106
1.13690e-05;0.0002838610544736814
1.13693e-05;0.0002987408608880138
1.13695e-05;0.00031152646464587485
1.13698e-05;0.0003236193202016979
1.13700e-05;0.0003339792361063987
1.13703e-05;0.0003438633271040129
1.13705e-05;0.0003525571214746418
1.13708e-05;0.00036072710325144426
1.13710e-05;0.0003675867451228129
1.13713e-05;0.0003738626635583738
1.13715e-05;0.00037867837252064294
1.13718e-05;0.0003829405364990789
1.13720e-05;0.00038581798370995203
1.13723e-05;0.0003886954309208252
1.13725e-05;0.0003910883938029079
1.13728e-05;0.00039226939813901703
1.13730e-05;0.00039345040247512614
1.13732e-05;0.0003939827605691748
1.13735e-05;0.00039289250197643383
1.13738e-05;0.0003918022433836929
1.13740e-05;0.000390711984790952
1.13743e-05;0.0003896217261982184
1.13745e-05;0.0003885314676054775
1.13748e-05;0.000387030895658435
1.13750e-05;0.00038450390707265924
1.13753e-05;0.0003819769184868664
1.13755e-05;0.00037944992990107353
1.13758e-05;0.0003769229413152978
1.13760e-05;0.00037439595272950496
1.13763e-05;0.00037186260845227596
1.13765e-05;0.00036931336513748066
1.13768e-05;0.00036676412182266806
1.13770e-05;0.0003645110921012296
1.13773e-05;0.0003629990535215619
1.13775e-05;0.00036148701494188385
1.13778e-05;0.00035997497636220587
1.13780e-05;0.0003584629377825381
1.13783e-05;0.0003569508992028601
1.13785e-05;0.00035543886062318206
1.13788e-05;0.0003539268220435143
1.13790e-05;0.0003524147834638363
1.13793e-05;0.0003509027448841583
1.13795e-05;0.0003493907063044905
1.13798e-05;0.00034787866772481254
1.13800e-05;0.00034674626395917184
1.13803e-05;0.00034656353313433104
1.13805e-05;0.00034638080230948906
1.13808e-05;0.000346198071484647
1.13810e-05;0.00034601534065980627
1.13813e-05;0.00034583260983496423
1.13815e-05;0.00034564987901012224
1.13817e-05;0.00034546714818528145
1.13820e-05;0.00034528441736043946
1.13823e-05;0.0003451016865355974
1.13825e-05;0.0003449189557107566
1.13828e-05;0.00034473622488591463
1.13830e-05;0.00034473605266922684
1.13833e-05;0.0003451925587230109
1.13835e-05;0.00034564906477679185
1.13838e-05;0.00034610557083057593
1.13840e-05;0.00034656207688436
1.13843e-05;0.000347018582938141
1.13845e-05;0.000347475088991925
1.13848e-05;0.0003479692293040343
1.13850e-05;0.00034855751334443244
1.13853e-05;0.0003491457973848345
1.13855e-05;0.0003497340814252366
1.13858e-05;0.00035032236546563467
1.13860e-05;0.0003509106495060368
1.13863e-05;0.0003514989335464389
1.13865e-05;0.0003520726946458828
1.13868e-05;0.0003526011493268514
1.13870e-05;0.00035309684199652096
1.13873e-05;0.00035355514097716074
1.13875e-05;0.00035386765533480157
1.13878e-05;0.0003534285813950425
1.13880e-05;0.00035101935809295204
1.13883e-05;0.00034563847757801885
1.13885e-05;0.00033708852585634294
1.13888e-05;0.00032554205503653464
1.13890e-05;0.0003111736298679555
1.13893e-05;0.0002941579107745678
1.13895e-05;0.00027460443581613526
1.13898e-05;0.00025231126926962994
1.13900e-05;0.00022669268077079566
1.13902e-05;0.0001972989290845986
1.13905e-05;0.0001641839922503468
1.13908e-05;0.00012763355738653842
1.13910e-05;8.793464128421993e-05
1.13913e-05;4.537419523715978e-05
1.13915e-05;1.9844326891073524e-07
1.13918e-05;-4.754153824154665e-05
1.13920e-05;-9.803507138740421e-05
1.13923e-05;-0.000151386256218081
1.13925e-05;-0.0002073836768608026
1.13928e-05;-0.0002656707595528866
1.13930e-05;-0.0003260786376876867
1.13933e-05;-0.00038815606031400326
1.13935e-05;-0.000450863498472439
1.13938e-05;-0.0005151469477916303
1.13940e-05;-0.0005799354543194341
1.13943e-05;-0.000645987383343966
1.13945e-05;-0.0007121914001307632
1.13948e-05;-0.00077877587104544
1.13950e-05;-0.0008450541300658524
1.13953e-05;-0.0009105663867626727
1.13955e-05;-0.0009753644344094785
1.13958e-05;-0.0010383758571623856
1.13960e-05;-0.0011003921847676445
1.13963e-05;-0.0011599192387310375
1.13965e-05;-0.0012180275826772333
1.13968e-05;-0.0012725869620276273
1.13970e-05;-0.0013252380547219252
1.13973e-05;-0.0013731154856374333
1.13975e-05;-0.0014183603415074794
1.13978e-05;-0.0014570196968001971
1.13980e-05;-0.0014956790520926526
1.13983e-05;-0.0015317288059200167
1.13985e-05;-0.001561250528577002
1.13987e-05;-0.0015907722512337869
1.13990e-05;-0.0016173915340812024
1.13993e-05;-0.0016367502379478034
1.13995e-05;-0.0016561089418142732
1.13998e-05;-0.001672706704508212
1.14000e-05;-0.001682397853194146
1.14003e-05;-0.0016920890018800802
1.14005e-05;-0.0016994537458555389
1.14008e-05;-0.001700998887617044
1.14010e-05;-0.0017025440293785491
1.14013e-05;-0.001702127999811898
1.14015e-05;-0.0016968060151669009
1.14018e-05;-0.001690117451581935
1.14020e-05;-0.0016800103315486156
1.14023e-05;-0.0016690830945922722
1.14025e-05;-0.0016555956558941846
1.14028e-05;-0.0016403472270442537
1.14030e-05;-0.0016234080064813296
1.14033e-05;-0.001604848225891434
1.14035e-05;-0.0015847546240780111
1.14038e-05;-0.0015632966501330668
1.14040e-05;-0.001540760912832209
1.14043e-05;-0.001517433874830794
1.14045e-05;-0.0014934991655739134
1.14048e-05;-0.0014690879685573045
1.14050e-05;-0.0014443310681091495
1.14053e-05;-0.0014193592152076414
1.14055e-05;-0.0013943137002913927
1.14058e-05;-0.0013693873788082505
1.14060e-05;-0.0013448465055792233
1.14063e-05;-0.0013209574313194877
1.14065e-05;-0.001298085085118421
1.14068e-05;-0.0012763170497512898
1.14070e-05;-0.0012550867823471492
1.14072e-05;-0.0012356244986375514
1.14075e-05;-0.0012175819264593694
1.14078e-05;-0.001200491953781617
1.14080e-05;-0.0011832131441777806
1.14083e-05;-0.001164774861521746
1.14085e-05;-0.0011450083869649693
1.14088e-05;-0.001124013702135504
1.14090e-05;-0.0011020553859249953
1.14093e-05;-0.0010798321421092198
1.14095e-05;-0.0010567815984488338
1.14098e-05;-0.0010329870352892465
1.14100e-05;-0.001007563619440433
1.14103e-05;-0.0009801452209092791
1.14105e-05;-0.0009517618821327462
1.14108e-05;-0.0009209647035085483
1.14110e-05;-0.0008896127428407417
1.14113e-05;-0.0008565932982576947
1.14115e-05;-0.0008226195696260497
1.14118e-05;-0.0007876789451018431
1.14120e-05;-0.0007514942376753543
1.14123e-05;-0.0007138553640933864
1.14125e-05;-0.0006748668975080104
1.14128e-05;-0.0006347813592220413
1.14130e-05;-0.0005938521355202584
1.14133e-05;-0.0005523325378058562
1.14135e-05;-0.0005104492135771729
1.14138e-05;-0.0004682991103888876
1.14140e-05;-0.000425813567867525
1.14143e-05;-0.000382965944410717
1.14145e-05;-0.00033992670148495356
1.14148e-05;-0.0002969589625760316
1.14150e-05;-0.0002543263418687995
1.14153e-05;-0.00021229241197583834
1.14155e-05;-0.00017110397035965534
1.14157e-05;-0.0001309266663343874
1.14160e-05;-9.182231677549992e-05
1.14163e-05;-5.387910108678751e-05
1.14165e-05;-1.7308623270934705e-05
1.14168e-05;1.7619469737888034e-05
1.14170e-05;5.063523782760099e-05
1.14173e-05;8.146879233595729e-05
1.14175e-05;0.00010991221651134635
1.14178e-05;0.00013606438238558904
1.14180e-05;0.00016044120236505442
1.14183e-05;0.0001835176601260369
1.14185e-05;0.00020535204507757205
1.14188e-05;0.00022579786537848517
1.14190e-05;0.00024470745442029093
1.14193e-05;0.00026193318926345034
1.14195e-05;0.00027736625019685507
1.14198e-05;0.0002909362692400024
1.14200e-05;0.0003030644902275086
1.14203e-05;0.0003146143280567217
1.14205e-05;0.00032471731534608196
1.14208e-05;0.0003341868502092673
1.14210e-05;0.0003420717763719274
1.14213e-05;0.0003492542171590846
1.14215e-05;0.00035467936033111775
1.14218e-05;0.0003595323749104489
1.14220e-05;0.0003629541850168
1.14223e-05;0.0003659881123176589
1.14225e-05;0.0003680517339681158
1.14228e-05;0.0003696123707979551
1.14230e-05;0.0003699147692976781
1.14233e-05;0.0003702171677974011
1.14235e-05;0.00036996666824244955
1.14238e-05;0.0003683330702389057
1.14240e-05;0.0003666994722353619
1.14242e-05;0.0003647867142001024
1.14245e-05;0.00036217562524556925
1.14248e-05;0.00035956453629103614
1.14250e-05;0.00035673312039438476
1.14253e-05;0.0003533505471021045
1.14255e-05;0.00034996797380982425
1.14258e-05;0.00034651534661266114
1.14260e-05;0.0003428874765360393
1.14263e-05;0.0003392596064593929
1.14265e-05;0.0003357011364327117
1.14268e-05;0.00033236527951096656
1.14270e-05;0.0003292083247710864
1.14273e-05;0.00032625586279178063
1.14275e-05;0.00032342091445201844
1.14278e-05;0.00032007591577674547
1.14280e-05;0.0003149229415308746
1.14283e-05;0.0003068895616377263
1.14285e-05;0.0002957683452029665
1.14288e-05;0.000281751335538592
1.14290e-05;0.0002650328173364572
1.14293e-05;0.00024580709609299886
1.14295e-05;0.00022419793366950907
1.14298e-05;0.00019999054256585142
1.14300e-05;0.00017255021397365023
1.14303e-05;0.0001413835766739523
1.14305e-05;0.00010653911522046338
1.14308e-05;6.831552197453379e-05
1.14310e-05;2.701290004839009e-05
1.14313e-05;-1.70686708999206e-05
1.14315e-05;-6.367329967263092e-05
1.14318e-05;-0.0001127571975710854
1.14320e-05;-0.00016453956547868152
1.14323e-05;-0.00021915106552021317
1.14325e-05;-0.0002763829478924149
1.14327e-05;-0.00033610203720957804
1.14330e-05;-0.00039782618298989553
1.14333e-05;-0.00046028419086972713
1.14335e-05;-0.0005245779866002101
1.14338e-05;-0.0005894141466721369
1.14340e-05;-0.0006556070546518488
1.14343e-05;-0.0007221503679138959
1.14345e-05;-0.0007895702351775459
1.14348e-05;-0.0008568947421350885
1.14350e-05;-0.0009239807011523653
1.14353e-05;-0.0009905143217701666
1.14355e-05;-0.001055666243942102
1.14358e-05;-0.0011199423690128319
1.14360e-05;-0.001182027649672951
1.14363e-05;-0.0012429134334903929
1.14365e-05;-0.0013007986239623997
1.14368e-05;-0.0013570016895459202
1.14370e-05;-0.0014089968468100932
1.14373e-05;-0.001458841597161292
1.14375e-05;-0.0015033070114093977
1.14378e-05;-0.0015451384874935014
1.14380e-05;-0.0015803810530905986
1.14383e-05;-0.0016156236186874568
1.14385e-05;-0.001647857742405581
1.14388e-05;-0.0016725661183612025
1.14390e-05;-0.0016972744943166563
1.14393e-05;-0.0017186606666921077
1.14395e-05;-0.0017317362028090948
1.14398e-05;-0.0017448117389259935
1.14400e-05;-0.0017549149170895935
1.14403e-05;-0.0017575826129943711
1.14405e-05;-0.0017602503088991305
1.14408e-05;-0.0017606397360081865
1.14410e-05;-0.001755329974971981
1.14412e-05;-0.0017482243349159169
1.14415e-05;-0.0017366262256482256
1.14418e-05;-0.0017237888396693934
1.14420e-05;-0.0017071504057287559
1.14423e-05;-0.0016881177643747575
1.14425e-05;-0.0016668756615422563
1.14428e-05;-0.0016435438553505518
1.14430e-05;-0.0016182419210100827
1.14433e-05;-0.0015910892839659525
1.14435e-05;-0.0015622187516789157
