Time(s);Current(A)
7.80000e-06;-3.337743993623535e-05
7.80025e-06;-2.763777014730386e-05
7.80050e-06;-2.2326645128429934e-05
7.80075e-06;-1.7487682572857418e-05
7.80100e-06;-1.316119869819568e-05
7.80125e-06;-9.319570572135552e-06
7.80150e-06;-5.834111273671754e-06
7.80175e-06;-2.5949450543049074e-06
7.80200e-06;4.179874278721499e-07
7.80225e-06;3.1858367898296205e-06
7.80250e-06;5.68544437673191e-06
7.80275e-06;7.893666383162361e-06
7.80300e-06;9.789425558732607e-06
7.80325e-06;1.1394202815556016e-05
7.80350e-06;1.279278236560346e-05
7.80375e-06;1.4058156676420517e-05
7.80400e-06;1.5207053714454026e-05
7.80425e-06;1.623182831423702e-05
7.80450e-06;1.7122138465203255e-05
7.80475e-06;1.786764950589962e-05
7.80500e-06;1.8459327564599913e-05
7.80525e-06;1.8885565656463635e-05
7.80550e-06;1.928597979386347e-05
7.80575e-06;1.9638773307476777e-05
7.80600e-06;1.9971802968261556e-05
7.80625e-06;2.0289769066572394e-05
7.80650e-06;2.0590349168153817e-05
7.80675e-06;2.0871223780759457e-05
7.80700e-06;2.1105771146372624e-05
7.80725e-06;2.078140223864967e-05
7.80750e-06;1.871721801361201e-05
7.80775e-06;1.3994452444098048e-05
7.80800e-06;6.434340934342008e-06
7.80825e-06;-3.8375194299040935e-06
7.80850e-06;-1.6662397788619085e-05
7.80875e-06;-3.188156517428521e-05
7.80900e-06;-4.9351524412013084e-05
7.80925e-06;-6.92331821381294e-05
7.80950e-06;-9.210602362945259e-05
7.80975e-06;-0.00011838529432363469
7.81000e-06;-0.0001480226674910598
7.81025e-06;-0.0001807791690168627
7.81050e-06;-0.00021639509980657243
7.81075e-06;-0.0002546107663807619
7.81100e-06;-0.0002951760246125558
7.81125e-06;-0.00033803144218243284
7.81150e-06;-0.00038337976023454176
7.81175e-06;-0.00043132080545903417
7.81200e-06;-0.00048252759000639857
7.81225e-06;-0.0005342570729542474
7.81250e-06;-0.0005888947150012465
7.81275e-06;-0.0006440631502116086
7.81300e-06;-0.0007014993349646484
7.81325e-06;-0.0007593494262167324
7.81350e-06;-0.0008171995174692083
7.81375e-06;-0.0008767722166178088
7.81400e-06;-0.000936659323768653
7.81425e-06;-0.0009965464309199031
7.81450e-06;-0.001055798391322904
7.81475e-06;-0.001114934425622433
7.81500e-06;-0.001174070459922363
7.81525e-06;-0.0012301823687464759
7.81550e-06;-0.0012857423183850422
7.81575e-06;-0.0013413022680239851
7.81600e-06;-0.0013917385802364461
7.81625e-06;-0.001441239733255678
7.81650e-06;-0.0014907408862752454
7.81675e-06;-0.001532322902969454
7.81700e-06;-0.0015724595298907762
7.81725e-06;-0.0016125961568123704
7.81750e-06;-0.0016439439672680564
7.81775e-06;-0.0016736876551384566
7.81800e-06;-0.0017034313430090583
7.81825e-06;-0.0017243679689169476
7.81850e-06;-0.001743697142096781
7.81875e-06;-0.001763026315276745
7.81900e-06;-0.0017728680926070216
7.81925e-06;-0.001780978243612273
7.81950e-06;-0.0017890883946175794
7.81975e-06;-0.0017885848334220648
7.82000e-06;-0.001786509109428788
7.82025e-06;-0.001784433385435497
7.82050e-06;-0.00177434595219127
7.82075e-06;-0.0017627962328923645
7.82100e-06;-0.0017512465135935374
7.82125e-06;-0.0017324207132873345
7.82150e-06;-0.0017122668927726555
7.82175e-06;-0.0016921130722581132
7.82200e-06;-0.00166708307707239
7.82225e-06;-0.001641163089252301
7.82250e-06;-0.0016119530544028982
7.82275e-06;-0.001582142524735014
7.82300e-06;-0.001549555004190311
7.82325e-06;-0.001516460631124557
7.82350e-06;-0.001481394316915723
7.82375e-06;-0.0014459680867458904
7.82400e-06;-0.0014094234010547779
7.82425e-06;-0.0013726745764136693
7.82450e-06;-0.001335516901690625
7.82475e-06;-0.0012982846042182215
7.82500e-06;-0.0012611858007766518
7.82525e-06;-0.0012244667558817361
7.82550e-06;-0.001188420486662971
7.82575e-06;-0.0011533420543310279
7.82600e-06;-0.00112085136264105
7.82625e-06;-0.0010888044364334266
7.82650e-06;-0.0010567575102255861
7.82675e-06;-0.001028780921379236
7.82700e-06;-0.0010015472448601755
7.82725e-06;-0.0009766528149630365
7.82750e-06;-0.000952268282648181
7.82775e-06;-0.0009266723630733044
7.82800e-06;-0.0009008525797414781
7.82825e-06;-0.0008736699710071643
7.82850e-06;-0.0008462386212716432
7.82875e-06;-0.0008188072715359362
7.82900e-06;-0.0007910275427423479
7.82925e-06;-0.0007631842282865258
7.82950e-06;-0.0007328974365263904
7.82975e-06;-0.0007021646646789933
7.83000e-06;-0.0006714318928315962
7.83025e-06;-0.0006373653471124053
7.83050e-06;-0.0006026903256117683
7.83075e-06;-0.0005680153041111311
7.83100e-06;-0.0005314458766258307
7.83125e-06;-0.0004945306847885547
7.83150e-06;-0.0004576154929512787
7.83175e-06;-0.000418304812584071
7.83200e-06;-0.0003785569109739722
7.83225e-06;-0.00033727626456790227
7.83250e-06;-0.0002957158637087311
7.83275e-06;-0.0002535124075314433
7.83300e-06;-0.00021119158178981693
7.83325e-06;-0.00016866655866604454
7.83350e-06;-0.00012610426571907634
7.83375e-06;-8.319097871778316e-05
7.83400e-06;-4.012994272933753e-05
7.83425e-06;2.8049115930635834e-06
7.83450e-06;4.534738842065483e-05
7.83475e-06;8.723132215153427e-05
7.83500e-06;0.00012819565218918138
7.83525e-06;0.00016808178740546388
7.83550e-06;0.00020687786309496174
7.83575e-06;0.0002445302951626934
7.83600e-06;0.00028083980055819814
7.83625e-06;0.00031554581662067703
7.83650e-06;0.0003483809553247698
7.83675e-06;0.0003790779583463836
7.83700e-06;0.0004073539412529105
7.83725e-06;0.0004326258775338418
7.83750e-06;0.00045393807864444526
7.83775e-06;0.0004705902459890595
7.83800e-06;0.00048241056676259043
7.83825e-06;0.0004894342341444084
7.83850e-06;0.0004917185244728262
7.83875e-06;0.0004893208125330934
7.83900e-06;0.0004822886956097589
7.83925e-06;0.0004704817953840221
7.83950e-06;0.0004535262727247067
7.83975e-06;0.0004312083308776013
7.84000e-06;0.00040364519751793306
7.84025e-06;0.00037108385203304576
7.84050e-06;0.00033378502450414726
7.84075e-06;0.00029200950087985547
7.84100e-06;0.0002460119522640926
7.84125e-06;0.00019592922239693338
7.84150e-06;0.00014175202278396076
7.84175e-06;8.357125352030782e-05
7.84200e-06;2.168520432845818e-05
7.84225e-06;-4.3526643715257804e-05
7.84250e-06;-0.00011167613646155268
7.84275e-06;-0.00018237517850798644
7.84300e-06;-0.0002552394937612258
7.84325e-06;-0.0003306370151994165
7.84350e-06;-0.0004064375632741835
7.84375e-06;-0.00048463213548090344
7.84400e-06;-0.0005632636616500482
7.84425e-06;-0.0006418951878197257
7.84450e-06;-0.000720730605776155
7.84475e-06;-0.0007996032377780786
7.84500e-06;-0.0008768211000204904
7.84525e-06;-0.0009537369359821899
7.84550e-06;-0.0010276600100180284
7.84575e-06;-0.0011010368493000195
7.84600e-06;-0.0011699049424499486
7.84625e-06;-0.0012379501055114184
7.84650e-06;-0.0012997457100674414
7.84675e-06;-0.0013604006538763546
7.84700e-06;-0.0014134620417525267
7.84725e-06;-0.0014651374643349518
7.84750e-06;-0.001510741747057548
7.84775e-06;-0.0015552379337560247
7.84800e-06;-0.0015997341204541996
7.84825e-06;-0.0016382293435426485
7.84850e-06;-0.001675629279078735
7.84875e-06;-0.0017130292146145681
7.84900e-06;-0.001743021314343162
7.84925e-06;-0.0017716613461577371
7.84950e-06;-0.0018003013779721183
7.84975e-06;-0.001824365563871134
7.85000e-06;-0.001847594572722086
7.85025e-06;-0.0018708235815728805
7.85050e-06;-0.0018882582340950511
7.85075e-06;-0.0019046353087390207
7.85100e-06;-0.0019210123833828792
7.85125e-06;-0.0019373894580268487
7.85150e-06;-0.0019515736000525043
7.85175e-06;-0.001961606350097696
7.85200e-06;-0.001971639100142956
7.85225e-06;-0.001981671850188216
7.85250e-06;-0.0019917046002334076
7.85275e-06;-0.0019966554806027793
7.85300e-06;-0.0020006788251692074
7.85325e-06;-0.0020047021697356085
7.85350e-06;-0.002008725514302037
7.85375e-06;-0.0020127488588684655
7.85400e-06;-0.002016772203434866
7.85425e-06;-0.0020207955480012947
7.85450e-06;-0.002023507875864803
7.85475e-06;-0.002023738347157935
7.85500e-06;-0.0020239688184510653
7.85525e-06;-0.0020241992897441973
7.85550e-06;-0.0020244297610373294
7.85575e-06;-0.0020246602323304597
7.85600e-06;-0.0020248907036235914
7.85625e-06;-0.0020251211749167234
7.85650e-06;-0.0020249285475763407
7.85675e-06;-0.002024658696860346
7.85700e-06;-0.0020243467108602142
7.85725e-06;-0.002023354641884959
7.85750e-06;-0.002018738583855884
7.85775e-06;-0.0020134834798132945
7.85800e-06;-0.00200235414617002
7.85825e-06;-0.001990152656289339
7.85850e-06;-0.0019714427088978943
7.85875e-06;-0.0019515448468709405
7.85900e-06;-0.0019316469848438516
7.85925e-06;-0.0019034092899656771
7.85950e-06;-0.001873649420365543
7.85975e-06;-0.0018438895507652073
7.86000e-06;-0.0018039502690630304
7.86025e-06;-0.001762153055186073
7.86050e-06;-0.001720355841308832
7.86075e-06;-0.0016715945247339017
7.86100e-06;-0.0016215621297960697
7.86125e-06;-0.0015679114165563024
7.86150e-06;-0.001510937106649776
7.86175e-06;-0.0014507347719171601
7.86200e-06;-0.0013875414710884792
7.86225e-06;-0.001321744017151391
7.86250e-06;-0.0012537451625781427
7.86275e-06;-0.0011839480802006475
7.86300e-06;-0.0011127479600462676
7.86325e-06;-0.0010403906514512506
7.86350e-06;-0.0009669160387104868
7.86375e-06;-0.000892444602760779
7.86400e-06;-0.0008173245310647566
7.86425e-06;-0.0007419976672526949
7.86450e-06;-0.0006669159043478361
7.86475e-06;-0.0005925311576458239
7.86500e-06;-0.0005192904783036709
7.86525e-06;-0.00044754729103741505
7.86550e-06;-0.00037752603712229964
7.86575e-06;-0.00030950156248111513
7.86600e-06;-0.00024389138653048477
7.86625e-06;-0.0001811715713061982
7.86650e-06;-0.00012182452344350621
7.86675e-06;-6.633258467803459e-05
7.86700e-06;-1.5170994261301592e-05
7.86725e-06;3.134823663747759e-05
7.86750e-06;7.321040000365415e-05
7.86775e-06;0.00011048265485026973
7.86800e-06;0.00014311341211552587
7.86825e-06;0.0001709834812443519
7.86850e-06;0.00019396552624010321
7.86875e-06;0.00021193227937374358
7.86900e-06;0.00022476090195272145
7.86925e-06;0.00023243087270171858
7.86950e-06;0.00023510786542848747
7.86975e-06;0.00023300884252587623
7.87000e-06;0.00022627636283119003
7.87025e-06;0.00021501062173783585
7.87050e-06;0.00019930676074297288
7.87075e-06;0.0001792599225145977
7.87100e-06;0.00015496804090612504
7.87125e-06;0.00012659311942005003
7.87150e-06;9.441379296887401e-05
7.87175e-06;5.87408122684542e-05
7.87200e-06;1.983829507477109e-05
7.87225e-06;-2.2056180891142614e-05
7.87250e-06;-6.670824360539829e-05
7.87275e-06;-0.00011388350761513987
7.87300e-06;-0.00016334586855414925
7.87325e-06;-0.00021481908694998263
7.87350e-06;-0.0002684760919782355
7.87375e-06;-0.0003224762630542762
7.87400e-06;-0.0003781591525619301
7.87425e-06;-0.0004341491695031527
7.87450e-06;-0.0004901391864447547
7.87475e-06;-0.000546220209365106
7.87500e-06;-0.0006023178425700801
7.87525e-06;-0.0006571455350477372
7.87550e-06;-0.0007117414397053544
7.87575e-06;-0.0007637316265257752
7.87600e-06;-0.0008152462213414466
7.87625e-06;-0.0008628603981908323
7.87650e-06;-0.0009097626761630636
7.87675e-06;-0.0009514916420339155
7.87700e-06;-0.0009922763821559506
7.87725e-06;-0.0010264978380344284
7.87750e-06;-0.001059521372377075
7.87775e-06;-0.001084866194198401
7.87800e-06;-0.0011088095080613672
7.87825e-06;-0.001124797375095602
7.87850e-06;-0.001139333225009606
7.87875e-06;-0.0011457757039518759
7.87900e-06;-0.0011507409920507943
7.87925e-06;-0.0011474017897462022
7.87950e-06;-0.001142546863372409
7.87975e-06;-0.0011293484616125607
7.88000e-06;-0.0011146272202985467
7.88025e-06;-0.0010920487821871967
7.88050e-06;-0.0010680362594154048
7.88075e-06;-0.0010367397962935238
7.88100e-06;-0.001004113878482577
7.88125e-06;-0.0009647313758903372
7.88150e-06;-0.0009241156708155948
7.88175e-06;-0.0008787952610047795
7.88200e-06;-0.0008297826556010368
7.88225e-06;-0.0007776742634943638
7.88250e-06;-0.0007227711886125067
7.88275e-06;-0.0006653746778719523
7.88300e-06;-0.0006057851281024906
7.88325e-06;-0.0005442898778722435
7.88350e-06;-0.00048117255824424665
7.88375e-06;-0.00041675607965540814
7.88400e-06;-0.00035140787823979386
7.88425e-06;-0.00028550992823734824
7.88450e-06;-0.00021944576207617275
7.88475e-06;-0.00015359875455031504
7.88500e-06;-8.835177298724831e-05
7.88525e-06;-2.4079537898179412e-05
7.88550e-06;3.8845663952803766e-05
7.88575e-06;0.00010002687068967625
7.88600e-06;0.00015903935122435663
7.88625e-06;0.0002154492219084161
7.88650e-06;0.00026882169558839513
7.88675e-06;0.00031872211207747346
7.88700e-06;0.00036473510575690295
7.88725e-06;0.00040685115629451234
7.88750e-06;0.00044568474013358643
7.88775e-06;0.0004817850127384978
7.88800e-06;0.000515200363833408
7.88825e-06;0.0005457562941765525
7.88850e-06;0.0005732532477864457
7.88875e-06;0.0005974918319796047
7.88900e-06;0.0006182846960426603
7.88925e-06;0.0006344977022674553
7.88950e-06;0.0006499726745825879
7.88975e-06;0.000661168774338317
7.89000e-06;0.0006715839002093941
7.89025e-06;0.0006778626800576175
7.89050e-06;0.0006833864997667956
7.89075e-06;0.0006846014452161438
7.89100e-06;0.0006850299409119598
7.89125e-06;0.0006814235893651061
7.89150e-06;0.0006770808030958289
7.89175e-06;0.0006697222675451706
7.89200e-06;0.00066181330161858
7.89225e-06;0.0006505821457431563
7.89250e-06;0.0006387446283661672
7.89275e-06;0.0006269071109892583
7.89300e-06;0.0006115470641700495
7.89325e-06;0.0005955440901627708
7.89350e-06;0.0005795411161556007
7.89375e-06;0.0005615853981570812
7.89400e-06;0.0005432732680337043
7.89425e-06;0.0005249611379104516
7.89450e-06;0.0005057216377486416
7.89475e-06;0.0004863128752936551
7.89500e-06;0.0004669041128388
7.89525e-06;0.0004476400017330484
7.89550e-06;0.0004284022921909329
7.89575e-06;0.0004091645826489477
7.89600e-06;0.00039161435185720665
7.89625e-06;0.00037437211734652663
7.89650e-06;0.00035712988283596343
7.89675e-06;0.0003415756849415556
7.89700e-06;0.000327325252742126
7.89725e-06;0.00031358979125381466
7.89750e-06;0.00029867494303092887
7.89775e-06;0.00028124016619615947
7.89800e-06;0.0002610429708573802
7.89825e-06;0.00023829797080810635
7.89850e-06;0.00021326966956781052
7.89875e-06;0.00018622260972523655
7.89900e-06;0.00015739814854260766
7.89925e-06;0.0001265707212341126
7.89950e-06;9.285974618226798e-05
7.89975e-06;5.560630035392332e-05
7.90000e-06;1.4839379284563647e-05
7.90025e-06;-2.9125752817195968e-05
7.90050e-06;-7.59425687894971e-05
7.90075e-06;-0.0001252645630303935
7.90100e-06;-0.00017675975647365175
7.90125e-06;-0.00023038867596280278
7.90150e-06;-0.0002865221029500786
7.90175e-06;-0.00034539197374847016
7.90200e-06;-0.0004067992768703926
7.90225e-06;-0.0004710844368447321
7.90250e-06;-0.0005358245543676199
7.90275e-06;-0.0006031096684830652
7.90300e-06;-0.0006708592918475237
7.90325e-06;-0.0007386089152119821
7.90350e-06;-0.0008082990751482551
7.90375e-06;-0.0008783434191289052
7.90400e-06;-0.0009483877631095553
7.90425e-06;-0.001018399488341744
7.90450e-06;-0.001088405260045762
7.90475e-06;-0.0011584110317497801
7.90500e-06;-0.0012253525444498173
7.90525e-06;-0.0012917347728466503
7.90550e-06;-0.0013581170012434832
7.90575e-06;-0.0014204990357155434
7.90600e-06;-0.0014821509603405825
7.90625e-06;-0.0015391260160987925
7.90650e-06;-0.0015952474562374603
7.90675e-06;-0.001645169890370167
7.90700e-06;-0.0016939608905240365
7.90725e-06;-0.0017350303537458337
7.90750e-06;-0.0017746904927549215
7.90775e-06;-0.0018056089385666673
7.90800e-06;-0.0018349318626590793
7.90825e-06;-0.0018551988509675791
7.90850e-06;-0.0018738129624358381
7.90875e-06;-0.0018831507154540089
7.90900e-06;-0.0018907953603923924
7.90925e-06;-0.0018889428796502817
7.90950e-06;-0.0018853569966996954
7.90975e-06;-0.0018723681525528385
7.91000e-06;-0.0018576630929685585
7.91025e-06;-0.001834091312591241
7.91050e-06;-0.0018089011906315168
7.91075e-06;-0.0017754393610963973
7.91100e-06;-0.0017404677909659597
7.91125e-06;-0.0016996588596111368
7.91150e-06;-0.0016541055395743424
7.91175e-06;-0.0016044275177610687
7.91200e-06;-0.001550934755811079
7.91225e-06;-0.0014939526479655154
7.91250e-06;-0.0014338081689269382
7.91275e-06;-0.0013708281324409377
7.91300e-06;-0.0013053390209742629
7.91325e-06;-0.0012376644081288878
7.91350e-06;-0.0011681405383113731
7.91375e-06;-0.0010971441626521485
7.91400e-06;-0.0010250858620630796
7.91425e-06;-0.0009523859959510731
7.91450e-06;-0.0008794658623806366
7.91475e-06;-0.0008067465715081004
7.91500e-06;-0.0007346490006586614
7.91525e-06;-0.0006635922684000078
7.91550e-06;-0.0005940033499462582
7.91575e-06;-0.0005263344375989312
7.91600e-06;-0.0004610591345845861
7.91625e-06;-0.0003986569673825816
7.91650e-06;-0.0003396079745729276
7.91675e-06;-0.0002843921947355474
7.91700e-06;-0.00023347064158087098
7.91725e-06;-0.00018690445988236344
7.91750e-06;-0.00014413201559922655
7.91775e-06;-0.00010463795858822055
7.91800e-06;-6.83865294816311e-05
7.91825e-06;-3.555794860527118e-05
7.91850e-06;-6.356747619312132e-06
7.91875e-06;1.901260367684528e-05
7.91900e-06;4.035750690741487e-05
7.91925e-06;5.773592859267428e-05
7.91950e-06;7.159587626163607e-05
7.91975e-06;8.235634983641275e-05
7.92000e-06;9.013591517304125e-05
7.92025e-06;9.491782719301256e-05
7.92050e-06;9.667013658127245e-05
7.92075e-06;9.53609388015034e-05
7.92100e-06;9.096577495130111e-05
7.92125e-06;8.361713307814808e-05
7.92150e-06;7.36917994172241e-05
7.92175e-06;6.154837149225392e-05
7.92200e-06;4.735722882362558e-05
7.92225e-06;3.1203988674181294e-05
7.92250e-06;1.3164742154614475e-05
7.92275e-06;-6.6843997498984484e-06
7.92300e-06;-2.826266330988212e-05
7.92325e-06;-5.1390967239386994e-05
7.92350e-06;-7.573722567662199e-05
7.92375e-06;-0.00010098076151032833
7.92400e-06;-0.00012691882967529774
7.92425e-06;-0.00015368182451881517
7.92450e-06;-0.0001805766111854012
7.92475e-06;-0.00020747139785216948
7.92500e-06;-0.00023447951743996355
7.92525e-06;-0.00026150832239516355
7.92550e-06;-0.00028853712735054667
7.92575e-06;-0.00031424349065375403
7.92600e-06;-0.00033970848374022494
7.92625e-06;-0.0003632467474362225
7.92650e-06;-0.00038643334715556064
7.92675e-06;-0.00040706827640105695
7.92700e-06;-0.0004272374782901323
7.92725e-06;-0.0004446825060803211
7.92750e-06;-0.00046163032139134755
7.92775e-06;-0.00047645116626541476
7.92800e-06;-0.0004908837994446547
7.92825e-06;-0.000503114457935378
7.92850e-06;-0.0005149432150593997
7.92875e-06;-0.00052429755793456
7.92900e-06;-0.0005332002741520622
7.92925e-06;-0.0005391388272781795
7.92950e-06;-0.0005445363654670245
7.92975e-06;-0.0005499339036558327
7.93000e-06;-0.000552440433022816
7.93025e-06;-0.0005544192994683465
7.93050e-06;-0.0005563981659138635
7.93075e-06;-0.0005554748005879848
7.93100e-06;-0.0005540217239434914
7.93125e-06;-0.0005525686472990078
7.93150e-06;-0.0005487038835050284
7.93175e-06;-0.0005443989419166267
7.93200e-06;-0.0005400940003282252
7.93225e-06;-0.0005339337936132752
7.93250e-06;-0.0005274349664799475
7.93275e-06;-0.0005209361393466198
7.93300e-06;-0.0005124828409266493
7.93325e-06;-0.0005036728151174859
7.93350e-06;-0.0004948627893083225
7.93375e-06;-0.00048605276349921876
7.93400e-06;-0.00047724273769005537
7.93425e-06;-0.00046808342043188245
7.93450e-06;-0.0004582628672964835
7.93475e-06;-0.000448442314161018
7.93500e-06;-0.0004386217610255525
7.93525e-06;-0.0004288012078901536
7.93550e-06;-0.0004189806547546881
7.93575e-06;-0.00040977699392027273
7.93600e-06;-0.0004006859274133326
7.93625e-06;-0.00039159486090633086
7.93650e-06;-0.00038346664635017906
7.93675e-06;-0.00037551417019708274
7.93700e-06;-0.00036868329986603746
7.93725e-06;-0.0003620571434744615
7.93750e-06;-0.00035757497653208343
7.93775e-06;-0.00035348412757115583
7.93800e-06;-0.0003521053314312266
7.93825e-06;-0.00035122153541174996
7.93850e-06;-0.00035295182521653736
7.93875e-06;-0.00035515923434136626
7.93900e-06;-0.0003599088876465738
7.93925e-06;-0.00036512254783461074
7.93950e-06;-0.0003732505692755267
7.93975e-06;-0.0003819105158912757
7.94000e-06;-0.00039357228154738606
7.94025e-06;-0.0004057819350525102
7.94050e-06;-0.00042066368423274034
7.94075e-06;-0.00043603314061044793
7.94100e-06;-0.0004537613484053785
7.94125e-06;-0.0004719200722384179
7.94150e-06;-0.0004924023157949751
7.94175e-06;-0.0005133086449499434
7.94200e-06;-0.0005367539695367147
7.94225e-06;-0.0005606627080490986
7.94250e-06;-0.0005845714465616444
7.94275e-06;-0.0006111553057547606
7.94300e-06;-0.0006382274242651539
