Time(s);Current(A)
7.50000e-06;-0.0016937540845368016
7.50025e-06;-0.0016902497260106672
7.50050e-06;-0.0016867453674845444
7.50075e-06;-0.001683241008958422
7.50100e-06;-0.0016797366504322875
7.50125e-06;-0.0016762199036429869
7.50150e-06;-0.0016726379880040376
7.50175e-06;-0.0016690560723650759
7.50200e-06;-0.0016654741567261266
7.50225e-06;-0.001661892241087165
7.50250e-06;-0.0016583103254482158
7.50275e-06;-0.0016547284098092662
7.50300e-06;-0.0016511464941703048
7.50325e-06;-0.0016475645785313554
7.50350e-06;-0.0016439826628924061
7.50375e-06;-0.0016333479420259681
7.50400e-06;-0.0016190755981929687
7.50425e-06;-0.0016048032543599692
7.50450e-06;-0.0015905309105269214
7.50475e-06;-0.001576258566693922
7.50500e-06;-0.0015619862228609224
7.50525e-06;-0.0015477138790278746
7.50550e-06;-0.0015334415351948752
7.50575e-06;-0.0015191691913618757
7.50600e-06;-0.0015048968475288279
7.50625e-06;-0.001478463843573604
7.50650e-06;-0.0014457587400606396
7.50675e-06;-0.0014130536365477863
7.50700e-06;-0.0013803485330349328
7.50725e-06;-0.0013476434295219687
7.50750e-06;-0.0013149383260091154
7.50775e-06;-0.001282233222496262
7.50800e-06;-0.0012495281189832978
7.50825e-06;-0.0012168230154704445
7.50850e-06;-0.001184117911957591
7.50875e-06;-0.0011451468614279239
7.50900e-06;-0.0011029440255253522
7.50925e-06;-0.0010607411896227806
7.50950e-06;-0.0010185383537200659
7.50975e-06;-0.0009763355178174942
7.51000e-06;-0.0009333901449705555
7.51025e-06;-0.000890061794094882
7.51050e-06;-0.0008467334432193553
7.51075e-06;-0.0008034050923438286
7.51100e-06;-0.0007600767414681553
7.51125e-06;-0.0007185920054530949
7.51150e-06;-0.0006780581500507363
7.51175e-06;-0.000637524294648515
7.51200e-06;-0.0005991973414902096
7.51225e-06;-0.0005620086415554519
7.51250e-06;-0.0005274012734113038
7.51275e-06;-0.0004941252778913603
7.51300e-06;-0.0004632418713332378
7.51325e-06;-0.00043575771351064363
7.51350e-06;-0.0004093903125049434
7.51375e-06;-0.00038434445691160496
7.51400e-06;-0.00036069920356103275
7.51425e-06;-0.00033871810342458395
7.51450e-06;-0.0003174040587086751
7.51475e-06;-0.0002975980941539746
7.51500e-06;-0.00027971634826941765
7.51525e-06;-0.0002639306038500864
7.51550e-06;-0.00024892095085225367
7.51575e-06;-0.0002348718366059051
7.51600e-06;-0.00022184646542088818
7.51625e-06;-0.0002100049450924371
7.51650e-06;-0.00019863347462847076
7.51675e-06;-0.00018829214543424744
7.51700e-06;-0.0001792467035157155
7.51725e-06;-0.00017159212051751297
7.51750e-06;-0.00016445151026686858
7.51775e-06;-0.00015795079196701724
7.51800e-06;-0.0001521260686385656
7.51825e-06;-0.00014705746651105816
7.51850e-06;-0.00014228681755429367
7.51875e-06;-0.00013815254202101499
7.51900e-06;-0.00013502486833629404
7.51925e-06;-0.00013224708234218154
7.51950e-06;-0.00013008581625327973
7.51975e-06;-0.00012824253242726011
7.52000e-06;-0.00012675420704336187
7.52025e-06;-0.00012544895845503827
7.52050e-06;-0.00012452375881659788
7.52075e-06;-0.00012379457689641718
7.52100e-06;-0.00012352459238965596
7.52125e-06;-0.00012349144797740413
7.52150e-06;-0.00012345830356515222
7.52175e-06;-0.0001235748765695647
7.52200e-06;-0.00012376866927529926
7.52225e-06;-0.00012396246198103449
7.52250e-06;-0.0001241377996190784
7.52275e-06;-0.00012429532399300955
7.52300e-06;-0.0001244353793350438
7.52325e-06;-0.00012430378644090085
7.52350e-06;-0.00012314708249752727
7.52375e-06;-0.00012015464350971364
7.52400e-06;-0.00011500174094857194
7.52425e-06;-0.00010773128207302244
7.52450e-06;-9.846499628117606e-05
7.52475e-06;-8.732460786811413e-05
7.52500e-06;-7.442953472114254e-05
7.52525e-06;-5.974343348337482e-05
7.52550e-06;-4.291722804877483e-05
7.52575e-06;-2.356608586127004e-05
7.52600e-06;-1.6095586522142216e-06
7.52625e-06;2.2802515373813155e-05
7.52650e-06;4.9470930350476114e-05
7.52675e-06;7.819649918215825e-05
7.52700e-06;0.00010878148232865667
7.52725e-06;0.0001411257351038634
7.52750e-06;0.00017532497883089094
7.52775e-06;0.00021149733652557452
7.52800e-06;0.0002495702532344154
7.52825e-06;0.00028977282237764606
7.52850e-06;0.000330749618677004
7.52875e-06;0.00037318368049907595
7.52900e-06;0.00041636935566655457
7.52925e-06;0.00046091986421290866
7.52950e-06;0.000506174312408828
7.52975e-06;0.0005514287606047474
7.53000e-06;0.0005966832088008201
7.53025e-06;0.0006421857491725444
7.53050e-06;0.0006878162479617953
7.53075e-06;0.0007334467467512007
7.53100e-06;0.0007790772455404516
7.53125e-06;0.0008228435360839163
7.53150e-06;0.0008656483245717142
7.53175e-06;0.0009084531130593672
7.53200e-06;0.0009482606091070033
7.53225e-06;0.0009865221926477217
7.53250e-06;0.0010247837761883103
7.53275e-06;0.0010592861325226875
7.53300e-06;0.001091849593513474
7.53325e-06;0.0011205801350317826
7.53350e-06;0.0011473337729715647
7.53375e-06;0.0011699424033476174
7.53400e-06;0.0011904131645759702
7.53425e-06;0.0012065900744556613
7.53450e-06;0.0012205523460789747
7.53475e-06;0.0012300647031072913
7.53500e-06;0.0012372819291916373
7.53525e-06;0.0012399484754353181
7.53550e-06;0.0012402679190784112
7.53575e-06;0.0012361758111144108
7.53600e-06;0.0012298083586717648
7.53625e-06;0.0012192707457553999
7.53650e-06;0.0012065822905834736
7.53675e-06;0.0011890299922408538
7.53700e-06;0.0011689690711529247
7.53725e-06;0.0011489081500650636
7.53750e-06;0.0011236656527110588
7.53775e-06;0.001095750655520727
7.53800e-06;0.00106783565833049
7.53825e-06;0.0010357882108308
7.53850e-06;0.0010016093708342271
7.53875e-06;0.0009674305308377699
7.53900e-06;0.0009302207203826923
7.53925e-06;0.0008914476273204184
7.53950e-06;0.000852674534258276
7.53975e-06;0.0008120469677024298
7.54000e-06;0.0007704629199805899
7.54025e-06;0.0007288788722588911
7.54050e-06;0.0006872948245371922
7.54075e-06;0.0006459313927971044
7.54100e-06;0.0006046817480873534
7.54125e-06;0.0005634321033774626
7.54150e-06;0.0005221824586677116
7.54175e-06;0.00048277542782261865
7.54200e-06;0.00044431876130634823
7.54225e-06;0.000408061035146555
7.54250e-06;0.00037293745570964184
7.54275e-06;0.0003399209029035838
7.54300e-06;0.0003096365900426986
7.54325e-06;0.0002817911006485279
7.54350e-06;0.00025591704220069935
7.54375e-06;0.0002314096040379939
7.54400e-06;0.00020804317619924707
7.54425e-06;0.00018590738327878357
7.54450e-06;0.0001651618356345479
7.54475e-06;0.00014596610987164496
7.54500e-06;0.00012847766526443024
7.54525e-06;0.00011270560736594939
7.54550e-06;9.834283598547406e-05
7.54575e-06;8.499622571671031e-05
7.54600e-06;7.251021640388587e-05
7.54625e-06;6.092670907375059e-05
7.54650e-06;5.0331429286085896e-05
7.54675e-06;4.081008185917702e-05
7.54700e-06;3.2447025011215575e-05
7.54725e-06;2.5233692041929486e-05
7.54750e-06;1.896346225592358e-05
7.54775e-06;1.3375845628071667e-05
7.54800e-06;8.359170758623586e-06
7.54825e-06;3.925462432052896e-06
7.54850e-06;1.1420036366774386e-07
7.54875e-06;-3.0351594270289817e-06
7.54900e-06;-5.484005097123927e-06
7.54925e-06;-7.251936054221125e-06
7.54950e-06;-8.48260539991654e-06
7.54975e-06;-9.35339571146556e-06
7.55000e-06;-9.948459147944326e-06
7.55025e-06;-1.0274459854674678e-05
7.55050e-06;-1.0320866369485956e-05
7.55075e-06;-1.0077162110519514e-05
7.55100e-06;-9.533363157116497e-06
7.55125e-06;-8.715947634172572e-06
7.55150e-06;-7.729095356606383e-06
7.55175e-06;-6.698104249552011e-06
7.55200e-06;-5.689864784590654e-06
7.55225e-06;-4.722726685257984e-06
7.55250e-06;-3.8042667404016433e-06
7.55275e-06;-2.9420721791347097e-06
7.55300e-06;-2.1413087362431028e-06
7.55325e-06;-1.2408437716501108e-06
7.55350e-06;2.5528578620287055e-07
7.55375e-06;2.8838855752438526e-06
7.55400e-06;6.859450371868048e-06
7.55425e-06;1.2151709838581768e-05
7.55450e-06;1.8677825047370163e-05
7.55475e-06;2.6354952292186996e-05
7.55500e-06;3.5101770955779646e-05
7.55525e-06;4.494112844160363e-05
7.55550e-06;5.6105592370428594e-05
7.55575e-06;6.885329036174363e-05
7.55600e-06;8.32404329584769e-05
7.55625e-06;9.916991209699212e-05
7.55650e-06;0.00011651168830042017
7.55675e-06;0.0001351357567797627
7.55700e-06;0.00015491303978513383
7.55725e-06;0.0001757797298341291
7.55750e-06;0.00019780338527133662
7.55775e-06;0.00022106755748797988
7.55800e-06;0.00024586062409162433
7.55825e-06;0.0002712206105580659
7.55850e-06;0.00029788636906662717
7.55875e-06;0.0003252256051789387
7.55900e-06;0.0003525648412913428
7.55925e-06;0.00038099358242142125
7.55950e-06;0.0004099842571853282
7.55975e-06;0.0004389749319493335
7.56000e-06;0.0004679656067132405
7.56025e-06;0.000496933671880061
7.56050e-06;0.0005257827985477817
7.56075e-06;0.0005546319252154047
7.56100e-06;0.0005834810518830278
7.56125e-06;0.0006123301785507485
7.56150e-06;0.00063962960861772
7.56175e-06;0.0006661297521941334
7.56200e-06;0.0006926298957706365
7.56225e-06;0.0007173503845599483
7.56250e-06;0.0007411529814028991
7.56275e-06;0.0007629511793275167
7.56300e-06;0.0007837155691013475
7.56325e-06;0.0008014364183613044
7.56350e-06;0.0008175875017617774
7.56375e-06;0.0008289239917723995
7.56400e-06;0.000837777260582046
7.56425e-06;0.0008415561314021706
7.56450e-06;0.0008427177816910207
7.56475e-06;0.000840184411895651
7.56500e-06;0.0008320962092225692
7.56525e-06;0.0008221259354000232
7.56550e-06;0.0008081741287272916
7.56575e-06;0.0007892733802520205
7.56600e-06;0.0007660543187072559
7.56625e-06;0.0007387037254384125
7.56650e-06;0.0007074496196597417
7.56675e-06;0.0006725200391802247
7.56700e-06;0.0006341418127710951
7.56725e-06;0.0005924645246308064
7.56750e-06;0.0005474901455349804
7.56775e-06;0.0004992247593712252
7.56800e-06;0.00044784772035577207
7.56825e-06;0.0003936619765742681
7.56850e-06;0.00033699626630079993
7.56875e-06;0.0002781792881963685
7.56900e-06;0.0002175390208958945
7.56925e-06;0.0001553549739271674
7.56950e-06;9.181422461558797e-05
7.56975e-06;2.7106431997617028e-05
7.57000e-06;-3.847026064582282e-05
7.57025e-06;-0.00010443336374191102
7.57050e-06;-0.00017046382384151398
7.57075e-06;-0.0002364942839408932
7.57100e-06;-0.00030141214146266047
7.57125e-06;-0.000365756141301117
7.57150e-06;-0.00042818797275806254
7.57175e-06;-0.0004896335657772868
7.57200e-06;-0.0005482219322229382
7.57225e-06;-0.0006053366278874334
7.57250e-06;-0.0006596049741722756
7.57275e-06;-0.0007101287486388887
7.57300e-06;-0.0007569180702839496
7.57325e-06;-0.0007995846420078365
7.57350e-06;-0.0008378699322602928
7.57375e-06;-0.0008716531139219901
7.57400e-06;-0.0009008601380147321
7.57425e-06;-0.0009254085019096633
7.57450e-06;-0.000945210252620099
7.57475e-06;-0.0009601774581767156
7.57500e-06;-0.0009702225892190486
7.57525e-06;-0.0009752844087991685
7.57550e-06;-0.0009737958158592386
7.57575e-06;-0.0009698061463649077
7.57600e-06;-0.0009596451431938809
7.57625e-06;-0.0009463011533447903
7.57650e-06;-0.0009271241460591799
7.57675e-06;-0.0009049386453479022
7.57700e-06;-0.0008772637428320443
7.57725e-06;-0.0008467575734085834
7.57750e-06;-0.0008112562280612592
7.57775e-06;-0.0007731785225214962
7.57800e-06;-0.0007307907794460465
7.57825e-06;-0.000686180049772018
7.57850e-06;-0.0006379512755985071
7.57875e-06;-0.000587856423840176
7.57900e-06;-0.0005348388903400175
7.57925e-06;-0.00048031392626913855
7.57950e-06;-0.0004236558034210857
7.57975e-06;-0.00036589746199412455
7.58000e-06;-0.0003067595362542527
7.58025e-06;-0.0002469100627808996
7.58050e-06;-0.00018706058930774932
7.58075e-06;-0.00012721111583459903
7.58100e-06;-6.754295444536557e-05
7.58125e-06;-8.503267511409979e-06
7.58150e-06;4.9474502556945434e-05
7.58175e-06;0.00010599722256939385
7.58200e-06;0.00016066460780566827
7.58225e-06;0.0002130777251870087
7.58250e-06;0.00026283854794968177
7.58275e-06;0.00030954906665993495
7.58300e-06;0.000352818865759276
7.58325e-06;0.0003922892777863005
7.58350e-06;0.0004304270099763805
7.58375e-06;0.00046798984456696425
7.58400e-06;0.0005051778447838427
7.58425e-06;0.0005423254501098694
7.58450e-06;0.0005782858636837686
7.58475e-06;0.0006136339597701018
7.58500e-06;0.000648982055856435
7.58525e-06;0.000683352718819636
7.58550e-06;0.000717219251432228
7.58575e-06;0.0007510857840448199
7.58600e-06;0.0007849523166575267
7.58625e-06;0.0008188188492701187
7.58650e-06;0.0008532377935488102
7.58675e-06;0.0008879416550052921
7.58700e-06;0.0009226455164616566
7.58725e-06;0.000957349377918021
7.58750e-06;0.000992053239374503
7.58775e-06;0.0010274344782982068
7.58800e-06;0.0010631650879686174
7.58825e-06;0.0010988956976389068
7.58850e-06;0.0011346263073091964
7.58875e-06;0.0011703569169796068
7.58900e-06;0.0012060875266498964
7.58925e-06;0.0012418181363201858
7.58950e-06;0.0012772413439000058
7.58975e-06;0.0013110474530800514
7.59000e-06;0.0013448535622600968
7.59025e-06;0.0013786596714402567
7.59050e-06;0.0014124657806203022
7.59075e-06;0.0014462718898003476
7.59100e-06;0.0014800779989805075
7.59125e-06;0.001513884108160553
7.59150e-06;0.0015435800065541792
7.59175e-06;0.001571155982924796
7.59200e-06;0.0015987319592953195
7.59225e-06;0.0016263079356659362
7.59250e-06;0.0016538839120364597
7.59275e-06;0.001681459888406983
7.59300e-06;0.0017009441288204409
7.59325e-06;0.0017162548973241366
7.59350e-06;0.0017315656658278323
7.59375e-06;0.0017468764343315799
7.59400e-06;0.0017621872028352756
7.59425e-06;0.0017774979713389713
7.59450e-06;0.0017838062125332445
7.59475e-06;0.0017854712232711204
7.59500e-06;0.0017871362340089966
7.59525e-06;0.0017824581544552225
7.59550e-06;0.0017745085013736266
7.59575e-06;0.0017665588482920307
7.59600e-06;0.0017521475726302459
7.59625e-06;0.0017344035880824918
7.59650e-06;0.0017166596035346775
7.59675e-06;0.0016931970632907375
7.59700e-06;0.0016667850655155006
7.59725e-06;0.0016403730677401745
7.59750e-06;0.001608851176289994
7.59775e-06;0.001574693756712753
7.59800e-06;0.0015405363371353963
7.59825e-06;0.0015010057532671877
7.59850e-06;0.0014587038542756548
7.59875e-06;0.0014164019552839787
7.59900e-06;0.001374100056292446
7.59925e-06;0.001331798157300913
7.59950e-06;0.0012887005935042792
7.59975e-06;0.0012414174098903323
7.60000e-06;0.0011941342262763856
7.60025e-06;0.0011468510426622786
7.60050e-06;0.0010995678590483317
7.60075e-06;0.0010522846754342247
7.60100e-06;0.0010062845256826258
7.60125e-06;0.0009609461258708574
7.60150e-06;0.0009156077260589354
7.60175e-06;0.000870269326247167
7.60200e-06;0.0008261760327958221
7.60225e-06;0.000788632660648096
7.60250e-06;0.000751089288500497
7.60275e-06;0.000713545916352898
7.60300e-06;0.0006760025442051718
7.60325e-06;0.000644325050417458
7.60350e-06;0.0006156729987209042
7.60375e-06;0.0005898406266398351
7.60400e-06;0.0005673368931704432
7.60425e-06;0.0005477340851885834
7.60450e-06;0.0005311228716347884
7.60475e-06;0.0005175938818372165
7.60500e-06;0.0005072370154974178
7.60525e-06;0.0005000885716723026
7.60550e-06;0.0004960566326806151
7.60575e-06;0.0004949788765176856
7.60600e-06;0.0004967393481900218
7.60625e-06;0.0005012770237739891
7.60650e-06;0.0005085442324064808
7.60675e-06;0.0005184932822068906
7.60700e-06;0.0005319067391388528
7.60725e-06;0.0005466392145314231
7.60750e-06;0.0005644320694480902
7.60775e-06;0.000583803375273279
7.60800e-06;0.0006057594018134173
7.60825e-06;0.0006290485488793697
7.60850e-06;0.0006550416593743931
7.60875e-06;0.0006824293921696151
7.60900e-06;0.0007098171249647442
7.60925e-06;0.0007400486316873935
7.60950e-06;0.0007717468707232978
7.60975e-06;0.0008034451097592022
7.61000e-06;0.0008351433487952141
7.61025e-06;0.0008668415878311184
7.61050e-06;0.0008992117897385689
7.61075e-06;0.0009319285697083124
7.61100e-06;0.000964645349677945
7.61125e-06;0.0009973621296475777
7.61150e-06;0.0010300789096173212
7.61175e-06;0.001058047177080336
7.61200e-06;0.001083566305859609
7.61225e-06;0.0011090854346389684
7.61250e-06;0.0011346045634182413
7.61275e-06;0.0011601236921975145
7.61300e-06;0.001185642820976874
7.61325e-06;0.0012111619497561469
7.61350e-06;0.0012366810785355063
7.61375e-06;0.001260402689469404
7.61400e-06;0.0012746684010530422
7.61425e-06;0.0012889341126367288
7.61450e-06;0.001303199824220367
7.61475e-06;0.0013174655358040052
7.61500e-06;0.0013317312473876918
7.61525e-06;0.00134599695897133
7.61550e-06;0.0013602626705549682
7.61575e-06;0.0013745283821386548
7.61600e-06;0.0013833898401664922
7.61625e-06;0.0013894639481724824
7.61650e-06;0.001395538056178493
7.61675e-06;0.0014016121641844833
7.61700e-06;0.0014076862721904733
7.61725e-06;0.0014137603801964841
7.61750e-06;0.0014198344882024741
7.61775e-06;0.001425908596208485
7.61800e-06;0.0014319827042144752
7.61825e-06;0.0014380568122204652
7.61850e-06;0.001443293098598522
7.61875e-06;0.0014441219978642767
7.61900e-06;0.0014449508971300313
7.61925e-06;0.0014457797963957888
7.61950e-06;0.0014466086956615434
7.61975e-06;0.0014474375949272982
7.62000e-06;0.0014482664941930555
7.62025e-06;0.0014490953934588103
7.62050e-06;0.0014499242927245649
7.62075e-06;0.0014507531919903225
7.62100e-06;0.001451582091256077
7.62125e-06;0.0014514500614177814
7.62150e-06;0.0014508224135017546
7.62175e-06;0.00145019476558573
7.62200e-06;0.0014495671176697033
7.62225e-06;0.0014489394697536787
7.62250e-06;0.0014481157447726752
7.62275e-06;0.0014462605502040355
7.62300e-06;0.001444405355635402
7.62325e-06;0.0014425501610667686
7.62350e-06;0.0014406949664981289
7.62375e-06;0.0014388397719294953
7.62400e-06;0.0014323922064089151
7.62425e-06;0.0014235760352818243
7.62450e-06;0.0014147598641547632
7.62475e-06;0.0014022148157169301
7.62500e-06;0.0013877465254946931
7.62525e-06;0.0013732782352725054
7.62550e-06;0.0013543010075169452
7.62575e-06;0.0013329982065808696
7.62600e-06;0.001311695405644866
7.62625e-06;0.0012855993432885299
7.62650e-06;0.0012570310621173074
7.62675e-06;0.001228462780946085
7.62700e-06;0.001196103309809444
7.62725e-06;0.0011617884579119856
7.62750e-06;0.0011274736060145273
7.62775e-06;0.001089367896963653
7.62800e-06;0.0010493069788063535
7.62825e-06;0.0010092460606490542
7.62850e-06;0.0009660359554873107
7.62875e-06;0.0009212015952140132
7.62900e-06;0.0008763672349407159
7.62925e-06;0.0008315328746672667
7.62950e-06;0.0007862875003065811
7.62975e-06;0.0007388799733697137
7.63000e-06;0.0006914724464331676
7.63025e-06;0.0006440649194963002
7.63050e-06;0.0005966573925594329
7.63075e-06;0.0005499835028326056
7.63100e-06;0.0005036880009199721
7.63125e-06;0.0004573924990073384
7.63150e-06;0.00041281994903142737
7.63175e-06;0.0003691360453903599
7.63200e-06;0.00032687707330332245
7.63225e-06;0.00028656325746605156
7.63250e-06;0.00024828517534591774
7.63275e-06;0.0002123479614048465
7.63300e-06;0.0001790560297756431
7.63325e-06;0.00014866029985310573
7.63350e-06;0.00012127220499952292
7.63375e-06;9.690013218606241e-05
7.63400e-06;7.556564671685781e-05
7.63425e-06;5.733126870873279e-05
7.63450e-06;4.2270907566381775e-05
7.63475e-06;3.0458430352256857e-05
7.63500e-06;2.1967251220137468e-05
7.63525e-06;1.6837261423124852e-05
7.63550e-06;1.5020966179586481e-05
7.63575e-06;1.64063315913112e-05
7.63600e-06;2.0889582186450103e-05
7.63625e-06;2.8392598829274347e-05
7.63650e-06;3.884439742881947e-05
7.63675e-06;5.217396726586789e-05
7.63700e-06;6.831001410811117e-05
7.63725e-06;8.716025784977011e-05
7.63750e-06;0.00010857767130117838
7.63775e-06;0.00013237481803384437
7.63800e-06;0.00015836944721945616
7.63825e-06;0.000186395369682343
7.63850e-06;0.00021629089878940735
7.63875e-06;0.0002478943435621697
7.63900e-06;0.0002814756923369136
7.63925e-06;0.0003157871002808686
7.63950e-06;0.0003517545233395883
7.63975e-06;0.0003885760687517314
7.64000e-06;0.00042539761416362495
7.64025e-06;0.0004629807999318647
7.64050e-06;0.0005009568166880119
7.64075e-06;0.0005389328334439017
7.64100e-06;0.0005769088502000488
7.64125e-06;0.0006135382934372707
7.64150e-06;0.0006494732149077415
7.64175e-06;0.0006854081363779687
7.64200e-06;0.0007213430578484394
7.64225e-06;0.0007546061738532234
7.64250e-06;0.0007864912536596778
7.64275e-06;0.0008156960892953776
7.64300e-06;0.0008435185363047622
7.64325e-06;0.0008678813637452978
7.64350e-06;0.0008904598243753272
7.64375e-06;0.0009088231373017701
7.64400e-06;0.0009250124049276927
7.64425e-06;0.000936807939188995
7.64450e-06;0.0009463373190839843
7.64475e-06;0.0009514252134864763
7.64500e-06;0.0009542223244240215
