Time(s);Current(A)
1.30000e-05;-0.012265051482496845
1.30003e-05;-0.012243212899444687
1.30005e-05;-0.012220886020253915
1.30008e-05;-0.012198388526480216
1.30010e-05;-0.012175891032706517
1.30013e-05;-0.012153393538932971
1.30015e-05;-0.012130896045159273
1.30018e-05;-0.012108398551385574
1.30020e-05;-0.012087680894162069
1.30023e-05;-0.012067585126087875
1.30025e-05;-0.01204748935801368
1.30028e-05;-0.012029849449200465
1.30030e-05;-0.012013067637287612
1.30033e-05;-0.011996285825374757
1.30035e-05;-0.011981892696057343
1.30038e-05;-0.011968334191575234
1.30040e-05;-0.011954775687093123
1.30043e-05;-0.011940502855397541
1.30045e-05;-0.011925980432050703
1.30048e-05;-0.011911458008703867
1.30050e-05;-0.01189585697920016
1.30053e-05;-0.011879879076063974
1.30055e-05;-0.01186390117292779
1.30058e-05;-0.011847923269791604
1.30060e-05;-0.011831945366655527
1.30063e-05;-0.011815967463519341
1.30065e-05;-0.011799989560383157
1.30068e-05;-0.011781010398395422
1.30070e-05;-0.01176098257252048
1.30073e-05;-0.011740954746645538
1.30075e-05;-0.011720926920770734
1.30078e-05;-0.011700899094895792
1.30080e-05;-0.01168087126902085
1.30083e-05;-0.011660843443146043
1.30085e-05;-0.011638414406424984
1.30088e-05;-0.011615146367397133
1.30090e-05;-0.011591878328369441
1.30093e-05;-0.01156861028934159
1.30095e-05;-0.011545342250313742
1.30098e-05;-0.01152207421128605
1.30100e-05;-0.0114988061722582
1.30103e-05;-0.011475748244593431
1.30105e-05;-0.01145335179931923
1.30108e-05;-0.011430955354044876
1.30110e-05;-0.011408558908770523
1.30113e-05;-0.011386162463496323
1.30115e-05;-0.01136376601822197
1.30118e-05;-0.011341369572947617
1.30120e-05;-0.011318973127673415
1.30123e-05;-0.011299485852690498
1.30125e-05;-0.011281015065114232
1.30128e-05;-0.01126254427753809
1.30130e-05;-0.011245066914344522
1.30133e-05;-0.011230717096114846
1.30135e-05;-0.011216367277885268
1.30138e-05;-0.011202017459655593
1.30140e-05;-0.011187103541481485
1.30143e-05;-0.01117199252226749
1.30145e-05;-0.011156881503053597
1.30148e-05;-0.01113861229319874
1.30150e-05;-0.011119239586232
1.30153e-05;-0.01109986687926539
1.30155e-05;-0.011080494172298649
1.30158e-05;-0.011061121465331909
1.30160e-05;-0.0110417487583653
1.30163e-05;-0.01102237605139856
1.30165e-05;-0.010997207878095383
1.30168e-05;-0.0109700147224237
1.30170e-05;-0.01094282156675183
1.30173e-05;-0.01091562841107996
1.30175e-05;-0.010888435255408276
1.30178e-05;-0.010861242099736407
1.30180e-05;-0.010834048944064537
1.30183e-05;-0.010801820686976975
1.30185e-05;-0.010767833125115301
1.30188e-05;-0.010733845563253627
1.30190e-05;-0.010699858001392183
1.30193e-05;-0.010665870439530508
1.30195e-05;-0.010631882877668836
1.30198e-05;-0.010597895315807392
1.30200e-05;-0.010563758888892544
1.30203e-05;-0.010529153798075728
1.30205e-05;-0.010494548707259148
1.30208e-05;-0.010459943616442332
1.30210e-05;-0.010425338525625516
1.30213e-05;-0.010390733434808935
1.30215e-05;-0.010356128343992119
1.30218e-05;-0.010321523253175304
1.30220e-05;-0.010290089913220519
1.30223e-05;-0.010259764808427605
1.30225e-05;-0.010229439703634694
1.30228e-05;-0.010208707837235754
1.30230e-05;-0.010191327925189567
1.30233e-05;-0.010173948013143265
1.30235e-05;-0.01015656810109696
1.30238e-05;-0.010139188189050774
1.30240e-05;-0.010121808277004471
1.30243e-05;-0.010104428364958166
1.30245e-05;-0.01008704845291198
1.30248e-05;-0.010069668540865676
1.30250e-05;-0.010052288628819373
1.30253e-05;-0.010034908716773186
1.30255e-05;-0.010017528804726882
1.30258e-05;-0.010000148892680579
1.30260e-05;-0.009994135091927049
1.30263e-05;-0.009992092701520915
1.30265e-05;-0.00999005031111478
1.30268e-05;-0.00998800792070866
1.30270e-05;-0.009985965530302527
1.30273e-05;-0.009983923139896394
1.30275e-05;-0.009981880749490272
1.30278e-05;-0.009979838359084139
1.30280e-05;-0.009977795968678005
1.30283e-05;-0.009975753578271886
1.30285e-05;-0.009973711187865752
1.30288e-05;-0.009971668797459617
1.30290e-05;-0.009969626407053497
1.30293e-05;-0.009972947797317238
1.30295e-05;-0.009978143335520159
1.30298e-05;-0.009983338873723045
1.30300e-05;-0.009988534411925968
1.30303e-05;-0.009993729950128889
1.30305e-05;-0.009998925488331775
1.30308e-05;-0.010004121026534696
1.30310e-05;-0.010009316564737619
1.30313e-05;-0.01001451210294054
1.30315e-05;-0.010019707641143426
1.30318e-05;-0.010024903179346347
1.30320e-05;-0.01003009871754927
1.30323e-05;-0.010035294255752156
1.30325e-05;-0.010040469770995097
1.30328e-05;-0.010045582249021735
1.30330e-05;-0.010050694727048337
1.30333e-05;-0.010055807205074974
1.30335e-05;-0.010060919683101611
1.30338e-05;-0.010066032161128216
1.30340e-05;-0.010071144639154853
1.30343e-05;-0.01007625711718149
1.30345e-05;-0.010081369595208093
1.30348e-05;-0.01008648207323473
1.30350e-05;-0.010091594551261367
1.30353e-05;-0.01009670702928797
1.30355e-05;-0.010101819507314607
1.30358e-05;-0.010106931985341244
1.30360e-05;-0.010110493665136543
1.30363e-05;-0.010113513483605122
1.30365e-05;-0.0101165333020737
1.30368e-05;-0.010119553120542257
1.30370e-05;-0.010122572939010834
1.30373e-05;-0.010125592757479412
1.30375e-05;-0.01012861257594797
1.30378e-05;-0.010131632394416548
1.30380e-05;-0.010134652212885125
1.30383e-05;-0.010137672031353682
1.30385e-05;-0.010140691849822261
1.30388e-05;-0.010143711668290839
1.30390e-05;-0.010146731486759396
1.30393e-05;-0.010149751305227973
1.30395e-05;-0.010152771123696551
1.30398e-05;-0.01015579094216513
1.30400e-05;-0.010158810760633687
1.30403e-05;-0.010161830579102265
1.30405e-05;-0.010164850397570842
1.30408e-05;-0.0101678702160394
1.30410e-05;-0.010170890034507978
1.30413e-05;-0.010173909852976556
1.30415e-05;-0.010176929671445113
1.30418e-05;-0.01017994948991369
1.30420e-05;-0.01018296930838227
1.30423e-05;-0.010185989126850826
1.30425e-05;-0.010189008945319404
1.30428e-05;-0.010191953273902666
1.30430e-05;-0.01019474508696907
1.30433e-05;-0.010197634945164234
1.30435e-05;-0.01020072011780613
1.30438e-05;-0.010205169838498758
1.30440e-05;-0.010212300015271139
1.30443e-05;-0.010221579534348867
1.30445e-05;-0.010235022611310166
1.30448e-05;-0.010249332240949736
1.30450e-05;-0.010264026302752461
1.30453e-05;-0.010283752618747864
1.30455e-05;-0.010311933198092359
1.30458e-05;-0.010340113777436854
1.30460e-05;-0.010372056016491856
1.30463e-05;-0.010411012929347162
1.30465e-05;-0.010449969842202471
1.30468e-05;-0.010492692830624848
1.30470e-05;-0.010542438727456003
1.30473e-05;-0.010592184624287158
1.30475e-05;-0.010641930521117976
1.30478e-05;-0.010696037225429698
1.30480e-05;-0.010758275883276745
1.30482e-05;-0.01082051454112337
1.30485e-05;-0.010882753198970417
1.30488e-05;-0.010946967045131878
1.30490e-05;-0.011014864186111644
1.30493e-05;-0.011083571135606953
1.30495e-05;-0.011154418882983214
1.30498e-05;-0.011227549008301523
1.30500e-05;-0.011302840633734712
1.30503e-05;-0.011377829931357034
1.30505e-05;-0.011451988338625976
1.30508e-05;-0.011526208068109643
1.30510e-05;-0.01160005361251338
1.30513e-05;-0.011673120593813893
1.30515e-05;-0.01174517696743686
1.30518e-05;-0.011816475462096618
1.30520e-05;-0.011886750948909768
1.30523e-05;-0.0119542694798969
1.30525e-05;-0.012018510203021124
1.30528e-05;-0.012079841865042223
1.30530e-05;-0.012137801537298435
1.30533e-05;-0.012191947000019078
1.30535e-05;-0.012242054715219858
1.30538e-05;-0.012288605334089792
1.30540e-05;-0.012332120362861163
1.30543e-05;-0.012372061488894746
1.30545e-05;-0.012408314153147935
1.30548e-05;-0.01244120222807121
1.30550e-05;-0.012470529336477038
1.30553e-05;-0.012496111384206093
1.30555e-05;-0.012517902168996356
1.30558e-05;-0.012536296296493707
1.30560e-05;-0.012551712991907533
1.30563e-05;-0.012563908820186025
1.30565e-05;-0.012572905533853141
1.30567e-05;-0.012578999437738754
1.30570e-05;-0.012581643105650799
1.30573e-05;-0.012581401427442686
1.30575e-05;-0.012578906470313799
1.30578e-05;-0.012572209640120627
1.30580e-05;-0.01256551280992741
1.30583e-05;-0.012556612277609354
1.30585e-05;-0.01254360232212375
1.30588e-05;-0.01253059236663806
1.30590e-05;-0.01251603117217141
1.30593e-05;-0.012498577255800659
1.30595e-05;-0.01248016317505741
1.30598e-05;-0.012459958597462415
1.30600e-05;-0.01243911114698916
1.30603e-05;-0.012417064879002862
1.30605e-05;-0.01239461955844603
1.30608e-05;-0.012371430091999548
1.30610e-05;-0.012348089294415167
1.30613e-05;-0.012324432812654433
1.30615e-05;-0.01230076200319837
1.30618e-05;-0.012277361992824405
1.30620e-05;-0.01225452429168617
1.30623e-05;-0.0122327751877824
1.30625e-05;-0.012212274915269964
1.30628e-05;-0.012191774642757528
1.30630e-05;-0.012172197636477597
1.30633e-05;-0.012154907983191266
1.30635e-05;-0.012139100991437397
1.30638e-05;-0.012124063188575543
1.30640e-05;-0.012108511379741532
1.30643e-05;-0.01209135559234035
1.30645e-05;-0.012072810631573444
1.30648e-05;-0.012053571108022831
1.30650e-05;-0.012033036376575134
1.30652e-05;-0.012012058542354816
1.30655e-05;-0.011990254418237919
1.30658e-05;-0.011967130088427562
1.30660e-05;-0.01194154386333515
1.30663e-05;-0.011915957638242913
1.30665e-05;-0.011888026807516487
1.30668e-05;-0.01185572379935026
1.30670e-05;-0.011823420791184253
1.30673e-05;-0.011791117783018027
1.30675e-05;-0.0117588147748518
1.30678e-05;-0.011726511766685793
1.30680e-05;-0.011688446742268689
1.30683e-05;-0.011649357440498305
1.30685e-05;-0.011610268138728187
1.30688e-05;-0.011571178836957803
1.30690e-05;-0.01153208953518742
1.30693e-05;-0.01149197829630819
1.30695e-05;-0.011449961367913554
1.30698e-05;-0.011407944439518918
1.30700e-05;-0.011365614879307677
1.30703e-05;-0.01132270232903712
1.30705e-05;-0.011279789778766562
1.30708e-05;-0.011237225187166664
1.30710e-05;-0.011195309462491804
1.30713e-05;-0.011153393737816944
1.30715e-05;-0.011112548763569605
1.30718e-05;-0.01107370050501467
1.30720e-05;-0.011034852246459734
1.30723e-05;-0.01099755966983332
1.30725e-05;-0.010963168100238778
1.30728e-05;-0.010928776530644236
1.30730e-05;-0.01089912004431097
1.30733e-05;-0.010878293454107853
1.30735e-05;-0.010857466863904736
1.30737e-05;-0.010836640273701759
1.30740e-05;-0.010815813683498642
1.30743e-05;-0.010794987093295526
1.30745e-05;-0.01077416050309241
1.30748e-05;-0.010753333912889433
1.30750e-05;-0.010732507322686316
1.30753e-05;-0.010711680732483199
1.30755e-05;-0.010690854142280224
1.30758e-05;-0.01068320070248361
1.30760e-05;-0.010677888970702328
1.30763e-05;-0.010672577238921082
1.30765e-05;-0.010667265507139801
1.30768e-05;-0.010661953775358519
1.30770e-05;-0.010656642043577273
1.30773e-05;-0.01065133031179599
1.30775e-05;-0.01064601858001471
1.30778e-05;-0.010640706848233464
1.30780e-05;-0.010635395116452182
1.30783e-05;-0.010633165557173023
1.30785e-05;-0.010636683576458469
1.30788e-05;-0.010640201595743937
1.30790e-05;-0.010643719615029407
1.30793e-05;-0.010647237634314853
1.30795e-05;-0.010650755653600323
1.30798e-05;-0.010654273672885793
1.30800e-05;-0.010657791692171239
1.30803e-05;-0.010661309711456707
1.30805e-05;-0.010665957720473651
1.30808e-05;-0.010672712913548155
1.30810e-05;-0.010679468106622705
1.30813e-05;-0.010686223299697253
1.30815e-05;-0.010692978492771758
1.30818e-05;-0.010699733685846306
1.30820e-05;-0.010706488878920856
1.30822e-05;-0.01071324407199536
1.30825e-05;-0.01071999926506991
1.30828e-05;-0.010726683804437502
1.30830e-05;-0.01073316051813648
1.30833e-05;-0.01073941247538434
1.30835e-05;-0.010745632404621704
1.30838e-05;-0.010752742772990417
1.30840e-05;-0.010762182989175003
1.30843e-05;-0.010775374076502255
1.30845e-05;-0.010791749986993006
1.30848e-05;-0.01081016098431883
1.30850e-05;-0.010832366974126675
1.30853e-05;-0.010856386987024028
1.30855e-05;-0.01088378975679804
1.30858e-05;-0.010913572862963121
1.30860e-05;-0.010947794776628654
1.30863e-05;-0.01098474650245919
1.30865e-05;-0.01102678873178377
1.30868e-05;-0.011071155706469025
1.30870e-05;-0.01111985782352435
1.30873e-05;-0.011170727958246834
1.30875e-05;-0.011225640972420342
1.30878e-05;-0.011280553986593478
1.30880e-05;-0.011341601678296878
1.30883e-05;-0.011403739893004253
1.30885e-05;-0.011467859424041
1.30888e-05;-0.011535673677311627
1.30890e-05;-0.011604651441090625
1.30893e-05;-0.011675798897855319
1.30895e-05;-0.011747709024542983
1.30898e-05;-0.011821041364068205
1.30900e-05;-0.011894883125489145
1.30903e-05;-0.011969887458797101
1.30905e-05;-0.01204534743282188
1.30907e-05;-0.012120824763682725
1.30910e-05;-0.012195882942228255
1.30913e-05;-0.012270084571941633
1.30915e-05;-0.012343026347190953
1.30918e-05;-0.01241441811853743
1.30920e-05;-0.012484048053554181
1.30923e-05;-0.012551618092247422
1.30925e-05;-0.012616703471796182
1.30928e-05;-0.012678190175401128
1.30930e-05;-0.012736350804524578
1.30933e-05;-0.01279164556975119
1.30935e-05;-0.012841596124718116
1.30938e-05;-0.012888769566380595
1.30940e-05;-0.012930764298253584
1.30943e-05;-0.012970215171583472
1.30945e-05;-0.01300492230431038
1.30948e-05;-0.013036876055575991
1.30950e-05;-0.013063695351757193
1.30953e-05;-0.013086851274906827
1.30955e-05;-0.013103175807435434
1.30958e-05;-0.013119500339964153
1.30960e-05;-0.01313197272836096
1.30963e-05;-0.01313726170926219
1.30965e-05;-0.013142550690163455
1.30968e-05;-0.013141657729073934
1.30970e-05;-0.013129236796311672
1.30973e-05;-0.013116815863549326
1.30975e-05;-0.01310439493078698
1.30978e-05;-0.013091973998024718
1.30980e-05;-0.013079553065262373
1.30983e-05;-0.013067132132500027
1.30985e-05;-0.013054711199737765
1.30988e-05;-0.013037945998643634
1.30990e-05;-0.0130130796859014
1.30992e-05;-0.012987212734616706
1.30995e-05;-0.01295889789318886
1.30998e-05;-0.012929032367912643
1.31000e-05;-0.012897950222457252
1.31003e-05;-0.012865954223575414
1.31005e-05;-0.012833271560823893
1.31008e-05;-0.012800102187421353
1.31010e-05;-0.012766647269044145
1.31013e-05;-0.012733106996086695
1.31015e-05;-0.012699696970226031
1.31018e-05;-0.012666692881329168
1.31020e-05;-0.012634423205129405
1.31023e-05;-0.012603197148912542
1.31025e-05;-0.012573276950016914
1.31028e-05;-0.012544908477601813
1.31030e-05;-0.012518336950639655
1.31033e-05;-0.012493806050551408
1.31035e-05;-0.012471463925155605
1.31038e-05;-0.012451121432237058
1.31040e-05;-0.012432307463641448
1.31043e-05;-0.012414722875610506
1.31045e-05;-0.012398388932115206
1.31048e-05;-0.01238343504303486
1.31050e-05;-0.01236998977484322
1.31053e-05;-0.012358474471601271
1.31055e-05;-0.01234862387272963
1.31058e-05;-0.012339718809010875
1.31060e-05;-0.012332576961847436
1.31063e-05;-0.012326755352885722
1.31065e-05;-0.012323395699830045
1.31068e-05;-0.012320036046774369
1.31070e-05;-0.012316676393718714
1.31073e-05;-0.012313316740663037
1.31075e-05;-0.01231170986303479
1.31077e-05;-0.012313371528772411
1.31080e-05;-0.012315033194510045
1.31083e-05;-0.012316694860247678
1.31085e-05;-0.012318356525985312
1.31088e-05;-0.012321323107172861
1.31090e-05;-0.01232672307068091
1.31093e-05;-0.01233212303418896
1.31095e-05;-0.012337522997696974
1.31098e-05;-0.012342922961205023
1.31100e-05;-0.012348322924713072
1.31103e-05;-0.012354480790101723
1.31105e-05;-0.01236205197697206
1.31108e-05;-0.012369623163842396
1.31110e-05;-0.01237719435071268
1.31113e-05;-0.012384765537583017
1.31115e-05;-0.012392336724453354
1.31118e-05;-0.012400018389014129
1.31120e-05;-0.012407906070339404
1.31123e-05;-0.012415793751664682
1.31125e-05;-0.012423507724566315
1.31128e-05;-0.012430897769195889
1.31130e-05;-0.012438088206266976
1.31133e-05;-0.01244490641883569
1.31135e-05;-0.01245137759383331
1.31138e-05;-0.012457201619553668
1.31140e-05;-0.012462380984380725
1.31143e-05;-0.01246635819743562
1.31145e-05;-0.012469649950332453
1.31148e-05;-0.012471663469738764
1.31150e-05;-0.012473030540236237
1.31153e-05;-0.012473192124702933
1.31155e-05;-0.012472488688900597
1.31158e-05;-0.012470172179216664
1.31160e-05;-0.012467855669532731
1.31162e-05;-0.012464391037111533
1.31165e-05;-0.012458785406534922
1.31168e-05;-0.012453179775958311
1.31170e-05;-0.01244644761428721
1.31173e-05;-0.012437614718158973
1.31175e-05;-0.012428781822030676
1.31178e-05;-0.01241994892590238
1.31180e-05;-0.012409990880328105
1.31183e-05;-0.012397934676769064
1.31185e-05;-0.012385878473210023
1.31188e-05;-0.012373822269651063
1.31190e-05;-0.01236114960708104
1.31193e-05;-0.012347327383089884
1.31195e-05;-0.012333303438431028
1.31198e-05;-0.01231878727031592
1.31200e-05;-0.012303955524916334
1.31203e-05;-0.012288871260224704
1.31205e-05;-0.012273631316405433
1.31208e-05;-0.012258344008012366
1.31210e-05;-0.012243117087329171
1.31213e-05;-0.012228059194003129
1.31215e-05;-0.012213272834859361
1.31218e-05;-0.012198842408583009
1.31220e-05;-0.012184841015304407
1.31223e-05;-0.01217135789534854
1.31225e-05;-0.012158504007977843
1.31228e-05;-0.012146397068888938
1.31230e-05;-0.012135155918319067
1.31233e-05;-0.012124897621777608
1.31235e-05;-0.012115724527637975
1.31238e-05;-0.012107680020624154
1.31240e-05;-0.012100745447709192
1.31243e-05;-0.012094903166915085
1.31245e-05;-0.012090171550133776
1.31247e-05;-0.012086583149696751
1.31250e-05;-0.012084170649811397
1.31253e-05;-0.012083183958647556
1.31255e-05;-0.012083400025484867
1.31258e-05;-0.012084442805711613
1.31260e-05;-0.012087027225856181
1.31263e-05;-0.012090926520155277
1.31265e-05;-0.01209727776758509
1.31268e-05;-0.012103629015014945
1.31270e-05;-0.012109980262444801
1.31273e-05;-0.012116331509874616
1.31275e-05;-0.012124314922952517
1.31278e-05;-0.01213534196850048
1.31280e-05;-0.012146369014048367
1.31283e-05;-0.01215739605959633
1.31285e-05;-0.012168423105144292
1.31288e-05;-0.012180664364987225
1.31290e-05;-0.01219516986930729
1.31293e-05;-0.012209675373627354
1.31295e-05;-0.012224180877947322
1.31298e-05;-0.012238686382267387
1.31300e-05;-0.012253191886587453
1.31303e-05;-0.012268185356616206
1.31305e-05;-0.012284088776120769
1.31308e-05;-0.012299992195625331
1.31310e-05;-0.012315895615129786
1.31313e-05;-0.01233179903463435
1.31315e-05;-0.012347702454138913
1.31318e-05;-0.012363344444091425
1.31320e-05;-0.012378498925025568
1.31323e-05;-0.012393653405959711
1.31325e-05;-0.012408376812590079
1.31328e-05;-0.012422296359790282
1.31330e-05;-0.012435865781028904
1.31332e-05;-0.012448507264509296
1.31335e-05;-0.012460261045312447
1.31338e-05;-0.012470739127972452
1.31340e-05;-0.012479028639708593
1.31343e-05;-0.012485242423926407
1.31345e-05;-0.012489970042096593
1.31348e-05;-0.01249192628516458
1.31350e-05;-0.012492468695542778
1.31353e-05;-0.012490374616733748
1.31355e-05;-0.012486819891735872
1.31358e-05;-0.012480541380599125
1.31360e-05;-0.012472575145293775
1.31363e-05;-0.012461461673010888
1.31365e-05;-0.012448756216666959
1.31368e-05;-0.01243308205773618
1.31370e-05;-0.01241504960377249
1.31373e-05;-0.012392619444621087
1.31375e-05;-0.012370189285469532
1.31378e-05;-0.012347759126317978
1.31380e-05;-0.012325328967166576
1.31383e-05;-0.012301011703853774
1.31385e-05;-0.012272644525338244
1.31388e-05;-0.01224282444165093
1.31390e-05;-0.012211745774115774
1.31393e-05;-0.012179601912734752
1.31395e-05;-0.012146569386593873
1.31398e-05;-0.012112768730931176
1.31400e-05;-0.012078284292282465
1.31403e-05;-0.012043253450420842
1.31405e-05;-0.012007882836273772
1.31408e-05;-0.011972400342737185
1.31410e-05;-0.01193703475007093
1.31413e-05;-0.011902013907211566
1.31415e-05;-0.011867554978961496
1.31418e-05;-0.011833840082342171
1.31420e-05;-0.011801028500088897
1.31423e-05;-0.011769312963825378
1.31425e-05;-0.011738929730967324
1.31428e-05;-0.011710128070871172
1.31430e-05;-0.011683157296851446
1.31433e-05;-0.011658268259774658
1.31435e-05;-0.011635751427985291
1.31438e-05;-0.011616019431536121
1.31440e-05;-0.011599525032263823
1.31443e-05;-0.01158653101858137
1.31445e-05;-0.011577095588456428
1.31448e-05;-0.011571219717170362
1.31450e-05;-0.011568904898315897
1.31453e-05;-0.011570151500945411
1.31455e-05;-0.011574986375963651
1.31458e-05;-0.011583512769301913
1.31460e-05;-0.01159585859624522
1.31463e-05;-0.01161203220192738
1.31465e-05;-0.011632518602642179
1.31468e-05;-0.011656476875874162
1.31470e-05;-0.01168380962216139
1.31473e-05;-0.011717435023717655
1.31475e-05;-0.011751060425274146
