Time(s);Current(A)
7.25000e-06;0.00016582658785244095
7.25025e-06;0.00018935042998594913
7.25050e-06;0.0002139949445525146
7.25075e-06;0.0002399353789456119
7.25100e-06;0.0002677333272769365
7.25125e-06;0.0002956012781252402
7.25150e-06;0.0003253245857685037
7.25175e-06;0.0003551196904062457
7.25200e-06;0.00038608661481997195
7.25225e-06;0.00041709888530326535
7.25250e-06;0.0004487078742173884
7.25275e-06;0.00048074954426570335
7.25300e-06;0.0005131377790633439
7.25325e-06;0.0005456895847962171
7.25350e-06;0.0005782077734889349
7.25375e-06;0.0006104947872561895
7.25400e-06;0.0006423531813748365
7.25425e-06;0.0006735984044539898
7.25450e-06;0.0007041138749558833
7.25475e-06;0.0007338306216839011
7.25500e-06;0.0007626152886425422
7.25525e-06;0.00079026869279053
7.25550e-06;0.0008165827022540418
7.25575e-06;0.0008413491017244146
7.25600e-06;0.000864359570320172
7.25625e-06;0.000885462494400212
7.25650e-06;0.0009048177907747721
7.25675e-06;0.000922845824070927
7.25700e-06;0.0009397449646468677
7.25725e-06;0.0009554502026812863
7.25750e-06;0.0009698597843503345
7.25775e-06;0.0009821466654940892
7.25800e-06;0.0009943532776489719
7.25825e-06;0.0010036325188840806
7.25850e-06;0.0010127984792481243
7.25875e-06;0.0010192171783853243
7.25900e-06;0.0010255295663807462
7.25925e-06;0.0010318419543761895
7.25950e-06;0.0010340736417794882
7.25975e-06;0.0010361474177563845
7.26000e-06;0.0010382211937332876
7.26025e-06;0.001040294969710184
7.26050e-06;0.0010423687456870803
7.26075e-06;0.0010402600092205539
7.26100e-06;0.001037989421500577
7.26125e-06;0.0010357188337806
7.26150e-06;0.0010334482460606154
7.26175e-06;0.0010311776583406386
7.26200e-06;0.00102641346481186
7.26225e-06;0.0010215527758796034
7.26250e-06;0.0010166920869473634
7.26275e-06;0.0010106616376762934
7.26300e-06;0.001004585922030125
7.26325e-06;0.0009985102063839774
7.26350e-06;0.000991832294484041
7.26375e-06;0.0009851310793137173
7.26400e-06;0.0009784298641433934
7.26425e-06;0.0009715002522488441
7.26450e-06;0.0009645618020551907
7.26475e-06;0.0009576233518615372
7.26500e-06;0.0009511368271857629
7.26525e-06;0.0009446677907332951
7.26550e-06;0.0009385749539141792
7.26575e-06;0.0009329188922201302
7.26600e-06;0.0009272628305261004
7.26625e-06;0.0009223351315334335
7.26650e-06;0.0009174356180913476
7.26675e-06;0.000911885826840901
7.26700e-06;0.0009063108717015918
7.26725e-06;0.0009007359165622638
7.26750e-06;0.0008940948734337601
7.26775e-06;0.0008874125757532105
7.26800e-06;0.0008807302780726835
7.26825e-06;0.0008723743911136271
7.26850e-06;0.0008639537410424445
7.26875e-06;0.0008555330909712905
7.26900e-06;0.0008471124409001365
7.26925e-06;0.0008386917908289539
7.26950e-06;0.0008302711407577999
7.26975e-06;0.0008191538701334895
7.27000e-06;0.0008079322480165878
7.27025e-06;0.000796710625899724
7.27050e-06;0.0007854890037828603
7.27075e-06;0.0007742673816659585
7.27100e-06;0.0007630457595490948
7.27125e-06;0.0007497270099130198
7.27150e-06;0.0007363271074478864
7.27175e-06;0.0007229272049827984
7.27200e-06;0.0007095273025176649
7.27225e-06;0.000696127400052577
7.27250e-06;0.0006827274975874888
7.27275e-06;0.0006693275951223554
7.27300e-06;0.0006557204920584966
7.27325e-06;0.0006421053709248711
7.27350e-06;0.0006284902497911994
7.27375e-06;0.0006148751286575739
7.27400e-06;0.0006012600075239484
7.27425e-06;0.0005876448863902768
7.27450e-06;0.0005740297652566513
7.27475e-06;0.0005617910019731554
7.27500e-06;0.0005496054997966306
7.27525e-06;0.0005374199976201471
7.27550e-06;0.0005268652148046866
7.27575e-06;0.0005163735361581957
7.27600e-06;0.0005058818575117406
7.27625e-06;0.0004977455212512127
7.27650e-06;0.0004897003299955043
7.27675e-06;0.0004816551387397957
7.27700e-06;0.0004763756362378434
7.27725e-06;0.0004712031579699204
7.27750e-06;0.0004660306797019974
7.27775e-06;0.000463773225070631
7.27800e-06;0.0004616285735055511
7.27825e-06;0.00045948392194047124
7.27850e-06;0.0004603308527732517
7.27875e-06;0.00046129354927709954
7.27900e-06;0.0004622562457809474
7.27925e-06;0.0004660473668199387
7.27950e-06;0.0004699479397879647
7.27975e-06;0.00047384851275599074
7.28000e-06;0.0004803225696775035
7.28025e-06;0.0004868962130576587
7.28050e-06;0.0004934698564378361
7.28075e-06;0.0005022828225708856
7.28100e-06;0.000511182444081143
7.28125e-06;0.0005200820655914305
7.28150e-06;0.0005312862614522367
7.28175e-06;0.0005425796377401935
7.28200e-06;0.0005538730140281886
7.28225e-06;0.0005651663903161456
7.28250e-06;0.0005764597666041024
7.28275e-06;0.0005884254082392659
7.28300e-06;0.000601171563077927
7.28325e-06;0.000613917717916588
7.28350e-06;0.0006266638727552923
7.28375e-06;0.0006394100275939534
7.28400e-06;0.0006521561824326144
7.28425e-06;0.0006647179533228354
7.28450e-06;0.0006772725890822784
7.28475e-06;0.0006892519553792935
7.28500e-06;0.0007012090603956293
7.28525e-06;0.0007125304297520365
7.28550e-06;0.0007232930331823733
7.28575e-06;0.0007334181435046451
7.28600e-06;0.0007428198483799355
7.28625e-06;0.0007513348993318189
7.28650e-06;0.000758405790229085
7.28675e-06;0.000763223949459306
7.28700e-06;0.0007654039614805628
7.28725e-06;0.0007649698610369932
7.28750e-06;0.000761999491037434
7.28775e-06;0.0007565723566410153
7.28800e-06;0.0007476391737614948
7.28825e-06;0.0007385738544431705
7.28850e-06;0.0007244852175093039
7.28875e-06;0.0007102021925705269
7.28900e-06;0.0006901753832250359
7.28925e-06;0.0006699263058732721
7.28950e-06;0.0006444671325592394
7.28975e-06;0.0006188063434531113
7.29000e-06;0.00058862560801853
7.29025e-06;0.0005582699636061913
7.29050e-06;0.0005236400763339262
7.29075e-06;0.000488844788104565
7.29100e-06;0.0004498375304740709
7.29125e-06;0.00041066728169074465
7.29150e-06;0.0003681328511507715
7.29175e-06;0.00032546823641187503
7.29200e-06;0.0002803851418917503
7.29225e-06;0.00023520845913081132
7.29250e-06;0.00018828048419806728
7.29275e-06;0.00014128473927384707
7.29300e-06;9.308989053288748e-05
7.29325e-06;4.484863990830949e-05
7.29350e-06;-3.6476970974410583e-06
7.29375e-06;-5.195351314436229e-05
7.29400e-06;-9.977337522576967e-05
7.29425e-06;-0.0001468306555989517
7.29450e-06;-0.0001929094615798954
7.29475e-06;-0.00023783254273833712
7.29500e-06;-0.00028135753530923074
7.29525e-06;-0.00032317904926792426
7.29550e-06;-0.000362983429127554
7.29575e-06;-0.00040045681809592097
7.29600e-06;-0.000435285444524183
7.29625e-06;-0.0004671550356643223
7.29650e-06;-0.0004957755081456381
7.29675e-06;-0.0005209439876193257
7.29700e-06;-0.0005425612202074955
7.29725e-06;-0.0005605724329912817
7.29750e-06;-0.0005749266096939518
7.29775e-06;-0.0005855727625729898
7.29800e-06;-0.0005924600137957117
7.29825e-06;-0.0005955370975927337
7.29850e-06;-0.0005947680877303323
7.29875e-06;-0.0005901713936628657
7.29900e-06;-0.0005818306605615897
7.29925e-06;-0.0005698571951556114
7.29950e-06;-0.0005543647370396231
7.29975e-06;-0.0005354669701124303
7.30000e-06;-0.0005132776860141307
7.30025e-06;-0.00048791048458487937
7.30050e-06;-0.00045948842868409335
7.30075e-06;-0.00042816879527811635
7.30100e-06;-0.0003941495386123457
7.30125e-06;-0.0003576460234277077
7.30150e-06;-0.0003188751258759889
7.30175e-06;-0.0002780536727466675
7.30200e-06;-0.00023539845955736297
7.30225e-06;-0.00019112628074101595
7.30250e-06;-0.0001454597587977691
7.30275e-06;-9.864295956497789e-05
7.30300e-06;-5.094538862851801e-05
7.30325e-06;-2.647496720115279e-06
7.30350e-06;4.596941178595857e-05
7.30375e-06;9.462404005196226e-05
7.30400e-06;0.00014303510274437514
7.30425e-06;0.0001909214003105467
7.30450e-06;0.0002379980541098451
7.30475e-06;0.00028396681082044396
7.30500e-06;0.0003285134662962369
7.30525e-06;0.00037131695658493627
7.30550e-06;0.0004120558072811136
7.30575e-06;0.0004504084814341522
7.30600e-06;0.0004860534679449853
7.30625e-06;0.0005186856762569318
7.30650e-06;0.0005481117207116455
7.30675e-06;0.0005742873748167553
7.30700e-06;0.000597188728054891
7.30725e-06;0.0006167513624880075
7.30750e-06;0.0006329028821703783
7.30775e-06;0.0006455707560192787
7.30800e-06;0.0006546824572892765
7.30825e-06;0.0006601757143916443
7.30850e-06;0.0006620583091939492
7.30875e-06;0.0006604314463909375
7.30900e-06;0.0006554090319782771
7.30925e-06;0.0006470795496047135
7.30950e-06;0.0006355265626470375
7.30975e-06;0.0006193635768820648
7.31000e-06;0.0006030268401471083
7.31025e-06;0.0005810059446156714
7.31050e-06;0.00055876508841894
7.31075e-06;0.000531456251437122
7.31100e-06;0.0005039512981140968
7.31125e-06;0.0004721137652195406
7.31150e-06;0.0004401085739045751
7.31175e-06;0.0004044693445080981
7.31200e-06;0.00036868948824630087
7.31225e-06;0.00032999458966773447
7.31250e-06;0.000291186887300409
7.31275e-06;0.0002503460440678512
7.31300e-06;0.0002094265241069709
7.31325e-06;0.00016735554057556798
7.31350e-06;0.00012523999870206823
7.31375e-06;8.31244568285685e-05
7.31400e-06;4.102080602421109e-05
7.31425e-06;-6.854776929930492e-07
7.31450e-06;-4.1726806669575674e-05
7.31475e-06;-8.181847640058681e-05
7.31500e-06;-0.00012067265265605688
7.31525e-06;-0.00015800782830954475
7.31550e-06;-0.00019354372462764672
7.31575e-06;-0.00022700011483680338
7.31600e-06;-0.0002580968007251211
7.31625e-06;-0.000286571965992063
7.31650e-06;-0.00031228273413077623
7.31675e-06;-0.00033523081745019635
7.31700e-06;-0.00035541466032689025
7.31725e-06;-0.0003727759116107152
7.31750e-06;-0.0003872466101525677
7.31775e-06;-0.0003987585354894733
7.31800e-06;-0.000407243496262454
7.31825e-06;-0.0004126447341747873
7.31850e-06;-0.00041498012909340655
7.31875e-06;-0.00041435804919471864
7.31900e-06;-0.00041088484541375645
7.31925e-06;-0.00040463129874309246
7.31950e-06;-0.0003956621145332683
7.31975e-06;-0.0003840419000351208
7.32000e-06;-0.00036983520971313455
7.32025e-06;-0.000353113852927684
7.32050e-06;-0.00033399626420918354
7.32075e-06;-0.0003126577018851999
7.32100e-06;-0.0002892720513580411
7.32125e-06;-0.0002639908710089416
7.32150e-06;-0.00023696200247742878
7.32175e-06;-0.00020833316279702683
7.32200e-06;-0.00017825204043985448
7.32225e-06;-0.00014687086196121584
7.32250e-06;-0.00011437106483198968
7.32275e-06;-8.096961111227868e-05
7.32300e-06;-4.688261906432451e-05
7.32325e-06;-1.231224960219838e-05
7.32350e-06;2.254172859872225e-05
7.32375e-06;5.7479634525148566e-05
7.32400e-06;9.230179289147353e-05
7.32425e-06;0.00012680572336120773
7.32450e-06;0.0001607706511635844
7.32475e-06;0.00019395357726667982
7.32500e-06;0.00022611201471763493
7.32525e-06;0.00025701227070968875
7.32550e-06;0.0002864221815610688
7.32575e-06;0.00031410958764274525
7.32600e-06;0.0003398424397774676
7.32625e-06;0.00036343447707601237
7.32650e-06;0.00038495747719783074
7.32675e-06;0.0004047123035462463
7.32700e-06;0.000422840099352554
7.32725e-06;0.0004384167240506489
7.32750e-06;0.00045389696415909416
7.32775e-06;0.00046575560686781846
7.32800e-06;0.00047747410413019446
7.32825e-06;0.0004853480524018438
7.32850e-06;0.000493073227639127
7.32875e-06;0.0004974917592731103
7.32900e-06;0.0005017823332705333
7.32925e-06;0.0005030875638900256
7.32950e-06;0.00050427727027144
7.32975e-06;0.0005024614591960494
7.33000e-06;0.0005005293432035182
7.33025e-06;0.0004956512793259135
7.33050e-06;0.0004906592157029918
7.33075e-06;0.0004832572042527113
7.33100e-06;0.00047576193472409576
7.33125e-06;0.0004657936920514037
7.33150e-06;0.000455729752401137
7.33175e-06;0.0004456658127509044
7.33200e-06;0.00043303975574559845
7.33225e-06;0.00042031455213708223
7.33250e-06;0.00040758934852860905
7.33275e-06;0.0003930619832477375
7.33300e-06;0.0003784648794718932
7.33325e-06;0.00036386777569609837
7.33350e-06;0.00034927067192030357
7.33375e-06;0.00033448028657882454
7.33400e-06;0.0003194654975633616
7.33425e-06;0.00030445070854789863
7.33450e-06;0.00028943591953238475
7.33475e-06;0.00027442113051692177
7.33500e-06;0.00026042434015317785
7.33525e-06;0.00024646694342141866
7.33550e-06;0.00023378230690936433
7.33575e-06;0.00022114692257227625
7.33600e-06;0.0002101580022511173
7.33625e-06;0.00019923279537149778
7.33650e-06;0.00018967006732332917
7.33675e-06;0.0001801600633034988
7.33700e-06;0.0001712235985388289
7.33725e-06;0.00016230932810054483
7.33750e-06;0.00015409100734387312
7.33775e-06;0.00014589961784650362
7.33800e-06;0.0001386506660469926
7.33825e-06;0.00013143818388703532
7.33850e-06;0.00012500257888542555
7.33875e-06;0.00011859703680464759
7.33900e-06;0.0001124866141785586
7.33925e-06;0.00010638761183006668
7.33950e-06;0.00010067287314718857
7.33975e-06;9.49730043675591e-05
7.34000e-06;8.982422067301544e-05
7.34025e-06;8.46967623928302e-05
7.34050e-06;8.002912250557014e-05
7.34075e-06;7.537927627305818e-05
7.34100e-06;7.08999290264909e-05
7.34125e-06;6.64271796023239e-05
7.34150e-06;6.21932723586572e-05
7.34175e-06;5.7968607623282233e-05
7.34200e-06;5.4099745691597085e-05
7.34225e-06;5.0244652309285074e-05
7.34250e-06;4.670064952742364e-05
7.34275e-06;4.3168685060749384e-05
7.34300e-06;3.9779082694137785e-05
7.34325e-06;3.6394989333045985e-05
7.34350e-06;3.3208556413018265e-05
7.34375e-06;3.002977238589391e-05
7.34400e-06;2.705484462371759e-05
7.34425e-06;2.4246925059656132e-05
7.34450e-06;2.158560922928815e-05
7.34475e-06;1.9025490346395075e-05
7.34500e-06;1.6548955676388694e-05
7.34525e-06;1.4169364446988443e-05
7.34550e-06;1.1904318688734776e-05
7.34575e-06;9.77153552782922e-06
7.34600e-06;7.788727543021932e-06
7.34625e-06;5.921270994853754e-06
7.34650e-06;3.861108539882508e-06
7.34675e-06;1.108786306477452e-06
7.34700e-06;-2.57320089557821e-06
7.34725e-06;-7.1553428189437455e-06
7.34750e-06;-1.2572363008056341e-05
7.34775e-06;-1.8757995289295557e-05
7.34800e-06;-2.5645976067741296e-05
7.34825e-06;-3.3202831278347574e-05
7.34850e-06;-4.156635209895959e-05
7.34875e-06;-5.099420514700068e-05
7.34900e-06;-6.157995623143537e-05
7.34925e-06;-7.324989958762404e-05
7.34950e-06;-8.590793453356703e-05
7.34975e-06;-9.945735550344285e-05
7.35000e-06;-0.00011380146474953862
7.35025e-06;-0.00012886408911835334
7.35050e-06;-0.0001446763520137083
7.35075e-06;-0.0001613444576947844
7.35100e-06;-0.00017923472996382307
7.35125e-06;-0.00019717105687642734
7.35150e-06;-0.00021633616731888924
7.35175e-06;-0.00023554882816425834
7.35200e-06;-0.000255903777732938
7.35225e-06;-0.0002763029306033929
7.35250e-06;-0.00029670208347377865
7.35275e-06;-0.00031710123634423354
7.35300e-06;-0.000337738003254249
7.35325e-06;-0.00035865064470667527
7.35350e-06;-0.00037956328615917245
7.35375e-06;-0.0004004759276115987
7.35400e-06;-0.00042138856906402504
7.35425e-06;-0.00044118349494201705
7.35450e-06;-0.0004609351684287217
7.35475e-06;-0.00048068684191542634
7.35500e-06;-0.0004986160955920776
7.35525e-06;-0.0005164748268420457
7.35550e-06;-0.0005343335580920139
7.35575e-06;-0.0005498730454805232
7.35600e-06;-0.0005653227847746498
7.35625e-06;-0.0005781610736186969
7.35650e-06;-0.0005908983068104686
7.35675e-06;-0.0005997554482067509
7.35700e-06;-0.0006084624411645214
7.35725e-06;-0.0006128225925966737
7.35750e-06;-0.0006170145337126789
7.35775e-06;-0.0006169234058079433
7.35800e-06;-0.0006166665354003321
7.35825e-06;-0.0006121056093260381
7.35850e-06;-0.0006073781286257827
7.35875e-06;-0.0005979503397265165
7.35900e-06;-0.0005883406623633295
7.35925e-06;-0.0005741368148715283
7.35950e-06;-0.0005597551861551638
7.35975e-06;-0.0005412177812517276
7.36000e-06;-0.0005225195597134483
7.36025e-06;-0.0005000508868944266
7.36050e-06;-0.0004774363084108004
7.36075e-06;-0.0004512014774653684
7.36100e-06;-0.0004248265531194951
7.36125e-06;-0.00039529626274169017
7.36150e-06;-0.00036564386873649227
7.36175e-06;-0.00033350904031752596
7.36200e-06;-0.00030127814879725933
7.36225e-06;-0.00026720444623651096
7.36250e-06;-0.0002330594321670022
7.36275e-06;-0.00019756388260059495
7.36300e-06;-0.00016201607117902924
7.36325e-06;-0.00012580705082027987
7.36350e-06;-8.95724435694946e-05
7.36375e-06;-5.3353881015927966e-05
7.36400e-06;-1.7420498931479416e-05
7.36425e-06;1.8017140233318752e-05
7.36450e-06;5.277627508701328e-05
7.36475e-06;8.66868015306641e-05
7.36500e-06;0.0001195453012212993
7.36525e-06;0.0001511187136752843
7.36550e-06;0.00018117025018672038
7.36575e-06;0.00020946300611792362
7.36600e-06;0.0002357601463376631
7.36625e-06;0.000259887251982264
7.36650e-06;0.00028201441014806213
7.36675e-06;0.0003026010505480835
7.36700e-06;0.0003218637664313762
7.36725e-06;0.0003397295652667393
7.36750e-06;0.0003553008841359219
7.36775e-06;0.00037078543161132724
7.36800e-06;0.00038293240189512325
7.36825e-06;0.00039495021750179184
7.36850e-06;0.00040384154122682106
7.36875e-06;0.00041261187867155117
7.36900e-06;0.0004190285175430741
7.36925e-06;0.0004253540750217991
7.36950e-06;0.0004293047091151493
7.36975e-06;0.0004331634404762553
7.37000e-06;0.00043451374928708656
7.37025e-06;0.000435766989330384
7.37050e-06;0.0004343584931638744
7.37075e-06;0.0004328469954303808
7.37100e-06;0.00043133549769688715
7.37125e-06;0.00042747124471513196
7.37150e-06;0.0004235159468445705
7.37175e-06;0.000419560648974009
7.37200e-06;0.0004134408031992388
7.37225e-06;0.00040723719562078733
7.37250e-06;0.00040103358804233593
7.37275e-06;0.00039321355294254766
7.37300e-06;0.00038533096672785627
7.37325e-06;0.0003774483805131649
7.37350e-06;0.00036956579429844676
7.37375e-06;0.00036168320808375537
7.37400e-06;0.0003532452631013972
7.37425e-06;0.00034478582732549247
7.37450e-06;0.0003363263915496164
7.37475e-06;0.00032786695577371176
7.37500e-06;0.0003194075199978357
7.37525e-06;0.00031188994284923617
7.37550e-06;0.00030440881293158423
7.37575e-06;0.0002969276830139577
7.37600e-06;0.0002908421417010338
7.37625e-06;0.00028481060566949896
7.37650e-06;0.00027877906963798456
7.37675e-06;0.00027405521553049606
7.37700e-06;0.00026938196496765837
7.37725e-06;0.00026470871440483656
7.37750e-06;0.00026130156474794104
7.37775e-06;0.0002579434095694026
7.37800e-06;0.0002545852543908756
7.37825e-06;0.00025260966806431724
7.37850e-06;0.0002506875831920103
7.37875e-06;0.0002487654983197099
7.37900e-06;0.000247979625040948
7.37925e-06;0.00024723771989622177
7.37950e-06;0.0002464958147514955
7.37975e-06;0.0002468498010621401
7.38000e-06;0.00024724619523296083
7.38025e-06;0.00024764258940378154
7.38050e-06;0.000249511359099888
7.38075e-06;0.00025143710551123926
7.38100e-06;0.0002533628519225905
7.38125e-06;0.0002552885983339482
7.38150e-06;0.00025721434474529944
7.38175e-06;0.0002591400911566507
7.38200e-06;0.00026106583756800843
7.38225e-06;0.0002642085772813073
7.38250e-06;0.00026739841114933617
7.38275e-06;0.00027058824501737585
7.38300e-06;0.0002737780788854047
7.38325e-06;0.00027696791275344437
7.38350e-06;0.00028015774662147326
7.38375e-06;0.0002833475804895021
7.38400e-06;0.0002867316312288175
7.38425e-06;0.0002901231976047076
7.38450e-06;0.0002935147639805977
7.38475e-06;0.00029690633035649926
7.38500e-06;0.0003000671302387925
7.38525e-06;0.0003029600057135678
7.38550e-06;0.0003058528811883529
7.38575e-06;0.0003087457566631281
7.38600e-06;0.00031163863213790337
7.38625e-06;0.00031453496958424497
7.38650e-06;0.0003174314409989591
7.38675e-06;0.0003203279124136733
7.38700e-06;0.00032322438382839723
7.38725e-06;0.0003261208552431114
7.38750e-06;0.0003298510640970405
7.38775e-06;0.0003345492584064337
7.38800e-06;0.0003392474527158269
7.38825e-06;0.00034394564702523603
7.38850e-06;0.00034864384133462923
7.38875e-06;0.00035334203564402243
7.38900e-06;0.0003598626854251089
7.38925e-06;0.0003664538590124758
7.38950e-06;0.00037304503259984276
7.38975e-06;0.0003815128238206515
7.39000e-06;0.0003900532347682383
7.39025e-06;0.00039859364571582514
7.39050e-06;0.00040713405666344083
7.39075e-06;0.0004156744676110277
7.39100e-06;0.0004242148785586145
7.39125e-06;0.00043275528950623024
7.39150e-06;0.0004431083454427187
7.39175e-06;0.0004535315455479379
7.39200e-06;0.0004639547456531218
7.39225e-06;0.0004743779457583057
7.39250e-06;0.0004848011458635249
7.39275e-06;0.0004952243459687088
7.39300e-06;0.0005056475460738927
7.39325e-06;0.0005164420306203828
7.39350e-06;0.0005272508828111555
7.39375e-06;0.0005380597350019283
7.39400e-06;0.0005484269616625928
7.39425e-06;0.0005587770986802602
7.39450e-06;0.0005691272356979275
7.39475e-06;0.0005788323625829868
