Time(s);Current(A)
1.40000e-05;-0.000708607645465017
1.40003e-05;-0.0006848678721507318
1.40005e-05;-0.0006611280988362855
1.40008e-05;-0.0006373883255218393
1.40010e-05;-0.0006136485522075539
1.40013e-05;-0.0005879704404267616
1.40015e-05;-0.0005606742294771421
1.40018e-05;-0.0005333780185277074
1.40020e-05;-0.0005048535677502609
1.40023e-05;-0.00047530379870199224
1.40025e-05;-0.0004457540296539239
1.40028e-05;-0.0004149093359128729
1.40030e-05;-0.0003829836562627152
1.40033e-05;-0.0003510579766127739
1.40035e-05;-0.0003187024460692247
1.40038e-05;-0.00028598808171752
1.40040e-05;-0.000253273717366037
1.40043e-05;-0.00022029754142427474
1.40045e-05;-0.00018710280864960482
1.40048e-05;-0.00015390807587515982
1.40050e-05;-0.000120942827441542
1.40053e-05;-8.816914948336646e-05
1.40055e-05;-5.58681821961987e-05
1.40058e-05;-2.4400961760130625e-05
1.40060e-05;6.239376597779646e-06
1.40063e-05;3.602995618787812e-05
1.40065e-05;6.489568321308162e-05
1.40068e-05;9.266527680150063e-05
1.40070e-05;0.0001191322839155236
1.40073e-05;0.00014408978525159513
1.40075e-05;0.0001673309114037523
1.40078e-05;0.0001885957212836627
1.40080e-05;0.00020745798542802128
1.40083e-05;0.00022340335422475454
1.40085e-05;0.00023611121160884224
1.40088e-05;0.00024551419205657795
1.40090e-05;0.0002516306087710995
1.40093e-05;0.00025447992159397925
1.40095e-05;0.00025408161422939046
1.40098e-05;0.00025042194160535767
1.40100e-05;0.00024338299061973776
1.40103e-05;0.00023279168980819043
1.40105e-05;0.00021859634361659318
1.40108e-05;0.0002009038716527654
1.40110e-05;0.00017987487085148745
1.40113e-05;0.00015567065181343502
1.40115e-05;0.00012845253179507308
1.40118e-05;9.83610002395849e-05
1.40120e-05;6.547130732762781e-05
1.40123e-05;2.9824134288489814e-05
1.40125e-05;-8.463801181055408e-06
1.40128e-05;-4.917642753509761e-05
1.40130e-05;-9.206406284495085e-05
1.40133e-05;-0.0001368766050717248
1.40135e-05;-0.0001833639638370866
1.40138e-05;-0.00023160623373236436
1.40140e-05;-0.00028072058471856565
1.40143e-05;-0.00033103051121043846
1.40145e-05;-0.00038233848823242077
1.40148e-05;-0.000433646465254403
1.40150e-05;-0.00048514448250886496
1.40153e-05;-0.0005368011428222725
1.40155e-05;-0.00058845780313568
1.40158e-05;-0.0006388573490534472
1.40160e-05;-0.0006882074725954977
1.40163e-05;-0.0007375575961375482
1.40165e-05;-0.0007848345035129222
1.40168e-05;-0.0008303807176091704
1.40170e-05;-0.0008734275658355316
1.40173e-05;-0.000914387976677926
1.40175e-05;-0.0009521234668438788
1.40178e-05;-0.000987166836124053
1.40180e-05;-0.0010186032426310933
1.40183e-05;-0.0010470286045922196
1.40185e-05;-0.001071828302197246
1.40188e-05;-0.0010936013434230684
1.40190e-05;-0.0011115810246715941
1.40193e-05;-0.0011263940594668188
1.40195e-05;-0.001137235664756969
1.40198e-05;-0.0011447619735207668
1.40200e-05;-0.0011483539704255647
1.40203e-05;-0.0011486616561211525
1.40205e-05;-0.0011452998024995735
1.40208e-05;-0.0011388746662649406
1.40210e-05;-0.0011289514298236615
1.40213e-05;-0.0011161080258583833
1.40215e-05;-0.0010999313303797728
1.40218e-05;-0.0010809720474824886
1.40220e-05;-0.0010583150433514737
1.40223e-05;-0.0010325712307184163
1.40225e-05;-0.0010068274180853587
1.40228e-05;-0.0009774850126559789
1.40230e-05;-0.0009451385498250777
1.40233e-05;-0.0009127920869941766
1.40235e-05;-0.0008780812459723469
1.40238e-05;-0.0008413966534850564
1.40240e-05;-0.0008033479399187001
1.40243e-05;-0.000764160476220057
1.40245e-05;-0.0007241620236794481
1.40248e-05;-0.000683486568440778
1.40250e-05;-0.0006425165513702756
1.40253e-05;-0.0006013006380000239
1.40255e-05;-0.0005603039566750908
1.40258e-05;-0.0005194902873458582
1.40260e-05;-0.00047946243348013194
1.40263e-05;-0.0004400905679114494
1.40265e-05;-0.0004021268649366696
1.40268e-05;-0.00036533867736486834
1.40270e-05;-0.00032998157332624994
1.40273e-05;-0.00029697182790549924
1.40275e-05;-0.0002662260677442236
1.40278e-05;-0.00023807771694931746
1.40280e-05;-0.00021119052153184217
1.40283e-05;-0.000184341871362003
1.40285e-05;-0.00015705099032159355
1.40288e-05;-0.00012893316817014862
1.40290e-05;-0.00010045562667899216
1.40293e-05;-7.183560061718551e-05
1.40295e-05;-4.319390156405965e-05
1.40298e-05;-1.4735217024581524e-05
1.40300e-05;1.3900368691396236e-05
1.40303e-05;4.347316298816044e-05
1.40305e-05;7.445751458826604e-05
1.40308e-05;0.00010679311449883346
1.40310e-05;0.00014022344958278444
1.40313e-05;0.00017448933267764642
1.40315e-05;0.00020942968958797322
1.40318e-05;0.00024466052391607703
1.40320e-05;0.00028066657376449745
1.40323e-05;0.00031731976321872513
1.40325e-05;0.00035532429935968896
1.40328e-05;0.00039445692174047513
1.40330e-05;0.00043358954412152655
1.40333e-05;0.00047333844632485236
1.40335e-05;0.000513601810726536
1.40338e-05;0.0005538651751284924
1.40340e-05;0.0005942331880276716
1.40343e-05;0.0006346885601001538
1.40345e-05;0.0006752693073328796
1.40348e-05;0.0007159547160815659
1.40350e-05;0.0007564244300646368
1.40353e-05;0.0007963859903153381
1.40355e-05;0.0008356073433609662
1.40358e-05;0.0008738693312120695
1.40360e-05;0.0009110719079401747
1.40363e-05;0.0009472133885062376
1.40365e-05;0.0009822218356129583
1.40368e-05;0.0010158939589936045
1.40370e-05;0.0010479781330010429
1.40373e-05;0.0010782221965300477
1.40375e-05;0.0011063740364776948
1.40378e-05;0.0011320361461545536
1.40380e-05;0.0011543345915658398
1.40383e-05;0.0011720797714780623
1.40385e-05;0.0011845145461210523
1.40388e-05;0.0011915176785610422
1.40390e-05;0.0011931898757676787
1.40393e-05;0.0011896348003436778
1.40395e-05;0.001180956125374438
1.40398e-05;0.0011656374709733167
1.40400e-05;0.0011467039158619635
1.40403e-05;0.0011229141036689701
1.40405e-05;0.0010917551440991582
1.40408e-05;0.0010546893645018674
1.40410e-05;0.0010120416888632564
1.40413e-05;0.0009641387046451308
1.40415e-05;0.0009113071259295994
1.40418e-05;0.0008538166424550671
1.40420e-05;0.0007917499030659903
1.40423e-05;0.0007250658349630078
1.40425e-05;0.0006538930275808473
1.40428e-05;0.0005786096117255197
1.40430e-05;0.000499680776674143
1.40433e-05;0.00041757280813654857
1.40435e-05;0.0003327519785810664
1.40438e-05;0.0002456487593943301
1.40440e-05;0.00015657653699004118
1.40443e-05;6.57711586833605e-05
1.40445e-05;-2.6425272297538154e-05
1.40448e-05;-0.0001194617632933319
1.40450e-05;-0.0002127461949824291
1.40453e-05;-0.0003060306266721584
1.40455e-05;-0.00039818916237461545
1.40458e-05;-0.0004894078284310997
1.40460e-05;-0.0005785096386514681
1.40463e-05;-0.0006658443257745433
1.40465e-05;-0.0007500161928985353
1.40468e-05;-0.0008315477799553509
1.40470e-05;-0.0009086123058982102
1.40473e-05;-0.0009819477886366253
1.40475e-05;-0.0010511047761662163
1.40478e-05;-0.0011122854852997546
1.40480e-05;-0.001169719566399682
1.40483e-05;-0.0012221926361727267
1.40485e-05;-0.001270524319674328
1.40488e-05;-0.0013139923860146783
1.40490e-05;-0.0013534003694366907
1.40493e-05;-0.0013874058636160881
1.40495e-05;-0.0014169014316307695
1.40498e-05;-0.0014407789742595558
1.40500e-05;-0.001459966664018393
1.40503e-05;-0.0014744367644150128
1.40505e-05;-0.0014849686839576773
1.40508e-05;-0.0014911335062350916
1.40510e-05;-0.0014936527337994349
1.40513e-05;-0.001491756833229979
1.40515e-05;-0.0014861752424173067
1.40518e-05;-0.0014754497697787893
1.40520e-05;-0.0014604302530078187
1.40523e-05;-0.0014454107362367465
1.40525e-05;-0.001425682798479213
1.40528e-05;-0.0014020243335062018
1.40530e-05;-0.0013783658685330303
1.40533e-05;-0.001351354834136553
1.40535e-05;-0.0013215451193761237
1.40538e-05;-0.0012894825221235404
1.40540e-05;-0.0012555392485308
1.40543e-05;-0.0012201669138414467
1.40545e-05;-0.0011836016179551984
1.40548e-05;-0.0011462151972549913
1.40550e-05;-0.0011081433124815777
1.40553e-05;-0.0010697016788493283
1.40555e-05;-0.0010309513837877102
1.40558e-05;-0.0009923621697927986
1.40560e-05;-0.0009539074241294687
1.40563e-05;-0.0009164186731353044
1.40565e-05;-0.0008797363216429591
1.40568e-05;-0.000844689525912639
1.40570e-05;-0.0008110080703786875
1.40573e-05;-0.0007795336078707741
1.40575e-05;-0.000749901513787621
1.40578e-05;-0.0007230531162588414
1.40580e-05;-0.0006985285115900006
1.40583e-05;-0.0006772361559521567
1.40585e-05;-0.0006586420388154845
1.40588e-05;-0.0006434307668341889
1.40590e-05;-0.0006310434489961255
1.40593e-05;-0.0006212447697238815
1.40595e-05;-0.0006153601781957549
1.40598e-05;-0.0006127155177129795
1.40600e-05;-0.0006133496370703023
1.40603e-05;-0.0006172695808376463
1.40605e-05;-0.0006252682416216413
1.40608e-05;-0.0006354266717081246
1.40610e-05;-0.0006488482346104287
1.40613e-05;-0.000664993817386836
1.40615e-05;-0.0006841793036489712
1.40618e-05;-0.0007059024609095382
1.40620e-05;-0.0007304336474035287
1.40623e-05;-0.0007573089393545294
1.40625e-05;-0.000786656107908878
1.40628e-05;-0.0008180667661750605
1.40630e-05;-0.0008519660304225572
1.40633e-05;-0.0008879427498442022
1.40635e-05;-0.0009239194692656034
1.40638e-05;-0.0009620488006605233
1.40640e-05;-0.0010019751039006834
1.40643e-05;-0.001041901407140573
1.40645e-05;-0.0010829280000771006
1.40648e-05;-0.0011248731002181688
1.40650e-05;-0.001166818200359237
1.40653e-05;-0.0012086697555721614
1.40655e-05;-0.0012504432207237496
1.40658e-05;-0.0012922166858753378
1.40660e-05;-0.0013330167909899326
1.40663e-05;-0.0013730043480919274
1.40665e-05;-0.001411055178332895
1.40668e-05;-0.0014474892547486438
1.40670e-05;-0.0014839233311646394
1.40673e-05;-0.0015175319721805033
1.40675e-05;-0.0015487819773025656
1.40678e-05;-0.0015766470117293862
1.40680e-05;-0.0016016863176398543
1.40683e-05;-0.001621318502533808
1.40685e-05;-0.001636436894718236
1.40688e-05;-0.0016456457135120056
1.40690e-05;-0.001649921299036729
1.40693e-05;-0.0016484657296676345
1.40695e-05;-0.0016422258684176897
1.40698e-05;-0.0016301765562479569
1.40700e-05;-0.00161327759171618
1.40703e-05;-0.0015898650830714022
1.40705e-05;-0.0015610151544317686
1.40708e-05;-0.0015258997036932253
1.40710e-05;-0.0014855538784383081
1.40713e-05;-0.001439616866712369
1.40715e-05;-0.0013890124068827406
1.40718e-05;-0.0013333303482498178
1.40720e-05;-0.0012734095776684123
1.40723e-05;-0.001209715021117963
1.40725e-05;-0.0011405056055577628
1.40728e-05;-0.0010672029070102373
1.40730e-05;-0.0009902579598083149
1.40733e-05;-0.000910122836371616
1.40735e-05;-0.000827249572153488
1.40738e-05;-0.0007420585520556582
1.40740e-05;-0.0006548673911767419
1.40743e-05;-0.0005659284420758142
1.40745e-05;-0.0004755924274817538
1.40748e-05;-0.0003843509182715441
1.40750e-05;-0.0002927443111957723
1.40753e-05;-0.000201313551220635
1.40755e-05;-0.00011059954893075
1.40758e-05;-2.1123340144091733e-05
1.40760e-05;6.665842178553752e-05
1.40763e-05;0.00015233002535493953
1.40765e-05;0.000235414151960737
1.40768e-05;0.0003153452827134536
1.40770e-05;0.0003915273860641448
1.40773e-05;0.00046336408218077896
1.40775e-05;0.0005302590996464811
1.40778e-05;0.0005919117917861738
1.40780e-05;0.0006490634192497904
1.40783e-05;0.000703358132473542
1.40785e-05;0.00075590793389916
1.40788e-05;0.0008061142781186806
1.40790e-05;0.0008549404648032414
1.40793e-05;0.0009008568183867361
1.40795e-05;0.0009443440819973226
1.40798e-05;0.0009846945714115265
1.40800e-05;0.0010224265234454635
1.40803e-05;0.0010584656358751906
1.40805e-05;0.001093091588317443
1.40808e-05;0.0011277175407599302
1.40810e-05;0.0011602000813299203
1.40813e-05;0.0011908933301753492
1.40815e-05;0.001221586579020986
1.40818e-05;0.001249706105096158
1.40820e-05;0.0012756771216323145
1.40823e-05;0.0013016481381682948
1.40825e-05;0.0013260855649589937
1.40828e-05;0.0013492427714264501
1.40830e-05;0.0013723999778937493
1.40833e-05;0.0013955571843612057
1.40835e-05;0.001418529411140329
1.40838e-05;0.0014375780104595255
1.40840e-05;0.001456626609778851
1.40843e-05;0.0014756752090981766
1.40845e-05;0.001494723808417373
1.40848e-05;0.0015127534666669262
1.40850e-05;0.0015299325264629615
1.40853e-05;0.0015462844337933302
1.40855e-05;0.0015619458452463687
1.40858e-05;0.0015766588849813407
1.40860e-05;0.0015905802366189374
1.40863e-05;0.0016040300672542386
1.40865e-05;0.0016168408578212678
1.40868e-05;0.0016291516099328246
1.40870e-05;0.001640869658099479
1.40873e-05;0.0016519012984696879
1.40875e-05;0.0016621530600225702
1.40878e-05;0.00167150359667547
1.40880e-05;0.0016797429786446381
1.40883e-05;0.0016866111412639573
1.40885e-05;0.0016919453357046148
1.40888e-05;0.001695713199494252
1.40890e-05;0.0016979269236872118
1.40893e-05;0.0016985993564526698
1.40895e-05;0.0016977431236117157
1.40898e-05;0.0016949077157294434
1.40900e-05;0.0016909985474301426
1.40903e-05;0.001685237843084169
1.40905e-05;0.0016779315010709886
1.40908e-05;0.0016678584809274662
1.40910e-05;0.001655475874676094
1.40913e-05;0.0016430932684247217
1.40915e-05;0.0016307106621734333
1.40918e-05;0.0016180573692230543
1.40920e-05;0.0015996625066109656
1.40923e-05;0.0015812676439990018
1.40925e-05;0.0015628727813869134
1.40928e-05;0.0015444779187748247
1.40930e-05;0.0015239731453455775
1.40933e-05;0.0015017070464265632
1.40935e-05;0.0014794409475075493
1.40938e-05;0.0014561248950736658
1.40940e-05;0.0014319323554090595
1.40943e-05;0.0014077398157444534
1.40945e-05;0.0013830089327400105
1.40948e-05;0.00135782864787481
1.40950e-05;0.0013326483630096094
1.40953e-05;0.0013075329864383816
1.40955e-05;0.00128247179444741
1.40958e-05;0.0012578231793679232
1.40960e-05;0.001233518978007296
1.40963e-05;0.0012099043717502974
1.40965e-05;0.0011868654303147815
1.40968e-05;0.001165402787836745
1.40970e-05;0.0011452560187644165
1.40973e-05;0.0011251092496920882
1.40975e-05;0.001105126978279807
1.40978e-05;0.001088633887452257
1.40980e-05;0.0010721407966247068
1.40983e-05;0.0010556477057972683
1.40985e-05;0.001038938163349006
1.40988e-05;0.0010220479299664234
1.40990e-05;0.0010051576965838408
1.40993e-05;0.0009880704605020431
1.40995e-05;0.00097081876918672
1.40998e-05;0.0009535670778713969
1.41000e-05;0.0009363153865561907
1.41003e-05;0.0009190636952408676
1.41005e-05;0.0009005344018599783
1.41008e-05;0.0008809385832660129
1.41010e-05;0.0008613427646719148
1.41013e-05;0.0008417469460778168
1.41015e-05;0.0008221511274838514
1.41018e-05;0.0008012643781484142
1.41020e-05;0.0007792999769984352
1.41023e-05;0.0007573355758486051
1.41025e-05;0.000735371174698626
1.41028e-05;0.000713406773548647
1.41030e-05;0.0006914423723988169
1.41033e-05;0.0006694124105664799
1.41035e-05;0.000645991832840941
1.41038e-05;0.0006225712551155609
1.41040e-05;0.000599150677390022
1.41043e-05;0.0005757300996644833
1.41045e-05;0.0005523095219391031
1.41048e-05;0.0005288889442135643
1.41050e-05;0.0005060650361861424
1.41053e-05;0.0004837392200876931
1.41055e-05;0.00046141340398909243
1.41058e-05;0.00043908758789049183
1.41060e-05;0.00041676177179204247
1.41063e-05;0.00039630246252352904
1.41065e-05;0.0003774012883340062
1.41068e-05;0.0003585001141446114
1.41070e-05;0.0003395989399550886
1.41073e-05;0.0003206977657655657
1.41075e-05;0.00030390723575717053
1.41078e-05;0.0002888786434417699
1.41080e-05;0.0002754163126832555
1.41083e-05;0.0002687239280025157
1.41085e-05;0.0002562253902459297
1.41088e-05;0.00024633294312161036
1.41090e-05;0.00023656237153636662
1.41093e-05;0.0002308592937131414
1.41095e-05;0.0002229787697085349
1.41098e-05;0.00021822365923588854
1.41100e-05;0.00021466389722131382
1.41103e-05;0.00021285145264457562
1.41105e-05;0.0002121877209691666
1.41108e-05;0.00021256395898361287
1.41110e-05;0.0002142512900778127
1.41113e-05;0.00021717910578576197
1.41115e-05;0.0002213108035848131
1.41118e-05;0.00022653887744488376
1.41120e-05;0.00023241128208279757
1.41123e-05;0.0002398394745580922
1.41125e-05;0.00024771905144673156
1.41128e-05;0.00025668853185136187
1.41130e-05;0.0002661133238263329
1.41133e-05;0.00027663750175013145
1.41135e-05;0.0002875725275012389
1.41138e-05;0.00029949957796190896
1.41140e-05;0.00031142662842265984
1.41143e-05;0.0003237137181477418
1.41145e-05;0.0003368701512717478
1.41148e-05;0.00035002658439584305
1.41150e-05;0.00036318301751993824
1.41153e-05;0.0003763394506439443
1.41155e-05;0.0003893977504403041
1.41158e-05;0.00040221909952281874
1.41160e-05;0.0004150404486052465
1.41163e-05;0.00042786179768776114
1.41165e-05;0.0004406831467702758
1.41168e-05;0.00045305880549774066
1.41170e-05;0.00046435830946483007
1.41173e-05;0.0004752292014160027
1.41175e-05;0.0004850651756129061
1.41178e-05;0.0004942034369701065
1.41180e-05;0.0005016570152615674
1.41183e-05;0.0005078778625564487
1.41185e-05;0.0005111221829527717
1.41188e-05;0.0005130604114381374
1.41190e-05;0.0005118449772705992
1.41193e-05;0.0005096876731734737
1.41195e-05;0.0005043296556113305
1.41198e-05;0.0004967345453923328
1.41200e-05;0.0004881258578692295
1.41203e-05;0.00047630771309298465
1.41205e-05;0.0004618966697522901
1.41208e-05;0.0004449696427171269
1.41210e-05;0.0004257016686974346
1.41213e-05;0.00040423473227553595
1.41215e-05;0.0003806985497274097
1.41218e-05;0.0003552162927200512
1.41220e-05;0.000327830561250846
1.41223e-05;0.00029850876512533685
1.41225e-05;0.00026727379066010217
1.41228e-05;0.00023428636358710508
1.41230e-05;0.00019976860807974513
1.41233e-05;0.0001639219578069028
1.41235e-05;0.00012694013207665788
1.41238e-05;8.901272556787738e-05
1.41240e-05;5.0278891158905386e-05
1.41243e-05;1.0830651617931222e-05
1.41245e-05;-2.9238357203456833e-05
1.41248e-05;-6.970521316264751e-05
1.41250e-05;-0.00011017206912183819
1.41253e-05;-0.00015049079831162598
1.41255e-05;-0.00019045186365167671
1.41258e-05;-0.00022999141696929847
1.41260e-05;-0.0002685131960301279
1.41263e-05;-0.0003063976228478281
1.41265e-05;-0.00034274311205455195
1.41268e-05;-0.0003784343407212191
1.41270e-05;-0.0004120058649288806
1.41273e-05;-0.00044365833872453045
1.41275e-05;-0.0004731327569085459
1.41278e-05;-0.0005001483083908576
1.41280e-05;-0.0005243662702929783
1.41283e-05;-0.0005454522951213601
1.41285e-05;-0.0005632173218571655
1.41288e-05;-0.0005776036685695266
1.41290e-05;-0.0005885850561881868
1.41293e-05;-0.0005961403021334203
1.41295e-05;-0.0006002500793652558
1.41298e-05;-0.0006008812197322189
1.41300e-05;-0.000597964389447296
1.41303e-05;-0.0005914329843785974
1.41305e-05;-0.0005813114805099808
1.41308e-05;-0.0005677065289525053
1.41310e-05;-0.0005507445488626533
1.41313e-05;-0.0005305551350346689
1.41315e-05;-0.0005072689079451399
1.41318e-05;-0.00048100803122475184
1.41320e-05;-0.0004518718660900357
1.41323e-05;-0.0004199614933052949
1.41325e-05;-0.00038543506921535323
1.41328e-05;-0.00034850223377746895
1.41330e-05;-0.0003093849161831472
1.41333e-05;-0.00026830710970407944
1.41335e-05;-0.00022549341545393008
1.41338e-05;-0.00018116306492919416
1.41340e-05;-0.00013552105869796635
1.41343e-05;-8.877346671758598e-05
1.41345e-05;-4.116204176115184e-05
1.41348e-05;7.0550520176947656e-06
1.41350e-05;5.558681707772841e-05
1.41353e-05;0.00010408306421535089
1.41355e-05;0.00015235939314736966
1.41358e-05;0.00020009758364399182
1.41360e-05;0.0002470266256016218
1.41363e-05;0.0002928748867394301
1.41365e-05;0.0003373483413315888
1.41368e-05;0.0003801327974912567
1.41370e-05;0.00042090930758285574
1.41373e-05;0.00045935808786260845
1.41375e-05;0.0004951610538685325
1.41378e-05;0.0005279519866784409
1.41380e-05;0.0005583658387516931
1.41383e-05;0.0005883649932616436
1.41385e-05;0.0006173628275676574
1.41388e-05;0.0006458538433901156
1.41390e-05;0.0006731211057297076
1.41393e-05;0.0007003883680691148
1.41395e-05;0.0007266923667424757
1.41398e-05;0.0007506704887868304
1.41400e-05;0.0007746486108310225
1.41403e-05;0.0007983589787492488
1.41405e-05;0.0008214228330636357
1.41408e-05;0.0008444866873778662
1.41410e-05;0.000867550541692253
1.41413e-05;0.0008906143960066399
1.41415e-05;0.0009132527314474201
1.41418e-05;0.0009348636177716171
1.41420e-05;0.0009564745040958143
1.41423e-05;0.0009780853904200113
1.41425e-05;0.000999696276744062
1.41428e-05;0.001021077790282782
1.41430e-05;0.0010419054650130397
1.41433e-05;0.001062733139743156
1.41435e-05;0.0010835608144734135
1.41438e-05;0.001104388489203671
1.41440e-05;0.0011252161639337876
1.41443e-05;0.001144772564938945
1.41445e-05;0.0011639968408584693
