Time(s);Current(A)
5.50000e-06;0.0005514306297885604
5.50025e-06;0.0005589454311260412
5.50050e-06;0.0005660288279656097
5.50075e-06;0.0005727223123233094
5.50100e-06;0.0005789704394888736
5.50125e-06;0.0005846909736891329
5.50150e-06;0.0005896641010521078
5.50175e-06;0.0005934892092934743
5.50200e-06;0.0005958301210863822
5.50225e-06;0.0005966061607311634
5.50250e-06;0.0005958592528463835
5.50275e-06;0.0005936326767411377
5.50300e-06;0.0005897800194115745
5.50325e-06;0.0005843745649808453
5.50350e-06;0.0005781181582730237
5.50375e-06;0.0005695188494879726
5.50400e-06;0.0005599875099038034
5.50425e-06;0.0005478900371131337
5.50450e-06;0.0005349581053522667
5.50475e-06;0.0005197286820546976
5.50500e-06;0.0005037716301998181
5.50525e-06;0.00048581121986751086
5.50550e-06;0.00046714740915718486
5.50575e-06;0.0004465469467083319
5.50600e-06;0.0004252754695402172
5.50625e-06;0.00040215650712286055
5.50650e-06;0.00037851082897391944
5.50675e-06;0.00035341495976895867
5.50700e-06;0.0003278703090029052
5.50725e-06;0.000301090041058255
5.50750e-06;0.00027430977311369555
5.50775e-06;0.00024718599153794216
5.50800e-06;0.00021911642390414938
5.50825e-06;0.00019104685627035662
5.50850e-06;0.00016297514846125012
5.50875e-06;0.0001348975481702513
5.50900e-06;0.0001068199478792525
5.50925e-06;7.894577279354434e-05
5.50950e-06;5.179198907502713e-05
5.50975e-06;2.5269990510724705e-05
5.51000e-06;-4.954008067362827e-07
5.51025e-06;-2.5340026672366045e-05
5.51050e-06;-4.90808726778189e-05
5.51075e-06;-7.153475069762613e-05
5.51100e-06;-9.251849928672073e-05
5.51125e-06;-0.00011191089039781706
5.51150e-06;-0.0001299198174147164
5.51175e-06;-0.00014722802299989618
5.51200e-06;-0.00016446986610068364
5.51225e-06;-0.00018169396444181574
5.51250e-06;-0.00019868824886891965
5.51275e-06;-0.00021568253329608112
5.51300e-06;-0.00023235656945092134
5.51325e-06;-0.00024814887538143895
5.51350e-06;-0.00026394118131201007
5.51375e-06;-0.0002798836538774381
5.51400e-06;-0.0002962395758574317
5.51425e-06;-0.0003125954978374807
5.51450e-06;-0.00032895141981747426
5.51475e-06;-0.0003453073417974678
5.51500e-06;-0.0003617782950938286
5.51525e-06;-0.00037856596075711566
5.51550e-06;-0.0003953536264204027
5.51575e-06;-0.0004121412920837466
5.51600e-06;-0.00042892895774703367
5.51625e-06;-0.0004458639439343556
5.51650e-06;-0.00046320454342196746
5.51675e-06;-0.00048054514290957927
5.51700e-06;-0.0004978857423972498
5.51725e-06;-0.0005152263418848616
5.51750e-06;-0.0005325669413724734
5.51775e-06;-0.0005499075408601441
5.51800e-06;-0.0005665639173572
5.51825e-06;-0.0005830117814718608
5.51850e-06;-0.0005994596455865774
5.51875e-06;-0.0006159075097012381
5.51900e-06;-0.0006323553738158988
5.51925e-06;-0.0006488032379306154
5.51950e-06;-0.0006644993165881133
5.51975e-06;-0.0006781255262811428
5.52000e-06;-0.0006917517359742185
5.52025e-06;-0.000705377945667248
5.52050e-06;-0.0007190041553603238
5.52075e-06;-0.0007326303650533533
5.52100e-06;-0.0007447796625735046
5.52125e-06;-0.0007528626208998966
5.52150e-06;-0.0007609455792262611
5.52175e-06;-0.0007690285375526257
5.52200e-06;-0.0007771114958790177
5.52225e-06;-0.0007851944542053822
5.52250e-06;-0.0007916909352774726
5.52275e-06;-0.0007938194148141025
5.52300e-06;-0.0007959478943507253
5.52325e-06;-0.0007969585252177324
5.52350e-06;-0.0007948914159582591
5.52375e-06;-0.0007928243066987928
5.52400e-06;-0.0007896364590162001
5.52425e-06;-0.0007833629149331399
5.52450e-06;-0.0007770893708501009
5.52475e-06;-0.0007698075044074562
5.52500e-06;-0.0007597494534322527
5.52525e-06;-0.0007496914024570492
5.52550e-06;-0.0007387368610316802
5.52575e-06;-0.0007253140386071593
5.52600e-06;-0.0007118912161826382
5.52625e-06;-0.0006977358076448944
5.52650e-06;-0.0006815633911366966
5.52675e-06;-0.0006653909746284989
5.52700e-06;-0.000648698149185086
5.52725e-06;-0.0006305724970047224
5.52750e-06;-0.0006124468448243586
5.52775e-06;-0.0005940397027380268
5.52800e-06;-0.0005748575427069764
5.52825e-06;-0.0005555788266547968
5.52850e-06;-0.0005360342657268329
5.52875e-06;-0.0005165139872579916
5.52900e-06;-0.0004970605649751033
5.52925e-06;-0.00047775025527869297
5.52950e-06;-0.00045883397329078007
5.52975e-06;-0.00044017843986083563
5.53000e-06;-0.00042224081782777604
5.53025e-06;-0.0004046957822479707
5.53050e-06;-0.0003882316434951341
5.53075e-06;-0.0003722965312429835
5.53100e-06;-0.00035781797221928286
5.53125e-06;-0.0003439264686862252
5.53150e-06;-0.0003316512879068277
5.53175e-06;-0.0003197743386805488
5.53200e-06;-0.00030899382876996604
5.53225e-06;-0.00029858399565659195
5.53250e-06;-0.00028919473615336895
5.53275e-06;-0.00028024687228063314
5.53300e-06;-0.0002725142901184988
5.53325e-06;-0.0002652448697891867
5.53350e-06;-0.00025925065942023303
5.53375e-06;-0.00025358677656673944
5.53400e-06;-0.0002488323748233113
5.53425e-06;-0.0002443764965060039
5.53450e-06;-0.0002407425340275152
5.53475e-06;-0.00023743684030897244
5.53500e-06;-0.00023503495938903912
5.53525e-06;-0.0002330208585747852
5.53550e-06;-0.00023207442141088264
5.53575e-06;-0.0002311279842469833
5.53600e-06;-0.00023049692697380374
5.53625e-06;-0.00023073419595160308
5.53650e-06;-0.0002309714649294016
5.53675e-06;-0.0002315056677104174
5.53700e-06;-0.0002328574096679002
5.53725e-06;-0.00023420915162537844
5.53750e-06;-0.000235839874986333
5.53775e-06;-0.00023823870970535331
5.53800e-06;-0.0002406375444243655
5.53825e-06;-0.00024303637914338582
5.53850e-06;-0.00024543521386239796
5.53875e-06;-0.00024783404858141016
5.53900e-06;-0.0002503396671879377
5.53925e-06;-0.00025313929075616956
5.53950e-06;-0.0002559389143244014
5.53975e-06;-0.00025873853789264276
5.54000e-06;-0.00026153816146087463
5.54025e-06;-0.00026433778502910646
5.54050e-06;-0.0002670364998526818
5.54075e-06;-0.0002694573855739034
5.54100e-06;-0.00027176438838437666
5.54125e-06;-0.0002737578406996022
5.54150e-06;-0.00027530405842792816
5.54175e-06;-0.00027561891821772434
5.54200e-06;-0.000275347536713812
5.54225e-06;-0.00027307473346373007
5.54250e-06;-0.0002693661953416399
5.54275e-06;-0.00026428972067721893
5.54300e-06;-0.0002579131349907343
5.54325e-06;-0.0002502813848133534
5.54350e-06;-0.00024132071152765616
5.54375e-06;-0.00023079674218223848
5.54400e-06;-0.0002185189500110678
5.54425e-06;-0.00020450691863303306
5.54450e-06;-0.000188882773206668
5.54475e-06;-0.0001717697073257063
5.54500e-06;-0.00015329093885416235
5.54525e-06;-0.0001335553577002124
5.54550e-06;-0.00011259748435287838
5.54575e-06;-9.035122776703024e-05
5.54600e-06;-6.67780007442066e-05
5.54625e-06;-4.197080080015332e-05
5.54650e-06;-1.6086850488713335e-05
5.54675e-06;1.0715945107962508e-05
5.54700e-06;3.8279700557522214e-05
5.54725e-06;6.645550708311184e-05
5.54750e-06;9.514104639983e-05
5.54775e-06;0.00012429702403906067
5.54800e-06;0.0001538669273178859
5.54825e-06;0.0001837118107407229
5.54850e-06;0.0002136525321251629
5.54875e-06;0.0002435095101626026
5.54900e-06;0.00027310318585061036
5.54925e-06;0.0003022596579250243
5.54950e-06;0.0003308342160107331
5.54975e-06;0.0003587216036266142
5.55000e-06;0.00038580585550111415
5.55025e-06;0.00041191931046705583
5.55050e-06;0.0004368691576623976
5.55075e-06;0.0004604623436252942
5.55100e-06;0.000482505809053168
5.55125e-06;0.000502826163369393
5.55150e-06;0.0005213586805132657
5.55175e-06;0.000538213111378674
5.55200e-06;0.0005535276041358193
5.55225e-06;0.0005673089267572882
5.55250e-06;0.0005794888679231385
5.55275e-06;0.0005899982924406411
5.55300e-06;0.0005987681078163345
5.55325e-06;0.000605514009878959
5.55350e-06;0.00061030339442658
5.55375e-06;0.0006142572964411686
5.55400e-06;0.0006159108887762345
5.55425e-06;0.0006165915879561914
5.55450e-06;0.0006145936488004439
5.55475e-06;0.0006125957096446896
5.55500e-06;0.0006094660106797542
5.55525e-06;0.0006032202704560571
5.55550e-06;0.0005969745302323811
5.55575e-06;0.0005898061521999672
5.55600e-06;0.0005800975024106407
5.55625e-06;0.000570388852621347
5.55650e-06;0.0005599474151077758
5.55675e-06;0.0005474884145351713
5.55700e-06;0.0005350294139626091
5.55725e-06;0.0005220106231627495
5.55750e-06;0.0005074505782643591
5.55775e-06;0.000492890533366018
5.55800e-06;0.000478045976985735
5.55825e-06;0.0004624180834440529
5.55850e-06;0.00044679018990242383
5.55875e-06;0.00043109088610607786
5.55900e-06;0.0004151949705390804
5.55925e-06;0.00039936099598540464
5.55950e-06;0.00038369756181609637
5.55975e-06;0.00036823533125748055
5.56000e-06;0.00035332706872900145
5.56025e-06;0.000338744981310908
5.56050e-06;0.00032506094230676095
5.56075e-06;0.0003118166007508398
5.56100e-06;0.0002997828653488706
5.56125e-06;0.0002880968114920726
5.56150e-06;0.00027736801908824797
5.56175e-06;0.00026630998088775633
5.56200e-06;0.0002543454398427388
5.56225e-06;0.00024191765554492772
5.56250e-06;0.00022821443711646325
5.56275e-06;0.00021425666578203884
5.56300e-06;0.00019947807523307208
5.56325e-06;0.0001842470364994165
5.56350e-06;0.00016845584258226733
5.56375e-06;0.00015170297298437835
5.56400e-06;0.00013363398922697608
5.56425e-06;0.00011423646219146206
5.56450e-06;9.366963338106442e-05
5.56475e-06;7.20946051108535e-05
5.56500e-06;4.9672466604038144e-05
5.56525e-06;2.6539548681793428e-05
5.56550e-06;2.701740728470721e-06
5.56575e-06;-2.2019104136445354e-05
5.56600e-06;-4.7771612084121696e-05
5.56625e-06;-7.449017887694533e-05
5.56650e-06;-0.000102001661827265
5.56675e-06;-0.0001301739407800451
5.56700e-06;-0.00015882234722183422
5.56725e-06;-0.00018766791342871697
5.56750e-06;-0.0002170563138637986
5.56775e-06;-0.0002464447142987806
5.56800e-06;-0.00027583311473386224
5.56825e-06;-0.0003051999932256353
5.56850e-06;-0.00033450761597918465
5.56875e-06;-0.0003638152387328333
5.56900e-06;-0.00039312286148638265
5.56925e-06;-0.00042189421073860546
5.56950e-06;-0.00044918905380828607
5.56975e-06;-0.00047648389687787425
5.57000e-06;-0.000503035176389075
5.57025e-06;-0.0005275392240524196
5.57050e-06;-0.000552043271715681
5.57075e-06;-0.0005756188503679067
5.57100e-06;-0.0005966381023851183
5.57125e-06;-0.0006168501749108331
5.57150e-06;-0.0006348398636965797
5.57175e-06;-0.0006524425038614606
5.57200e-06;-0.0006689794943525131
5.57225e-06;-0.0006855164848436216
5.57250e-06;-0.0007014206796292865
5.57275e-06;-0.0007155826164645635
5.57300e-06;-0.0007297445532998885
5.57325e-06;-0.0007439064901351655
5.57350e-06;-0.0007580684269704426
5.57375e-06;-0.0007706767338801789
5.57400e-06;-0.0007828115824566365
5.57425e-06;-0.0007949464310330941
5.57450e-06;-0.0008070812796095928
5.57475e-06;-0.0008187660476138681
5.57500e-06;-0.0008292116219123667
5.57525e-06;-0.0008396571962109008
5.57550e-06;-0.0008501027705093995
5.57575e-06;-0.0008605483448078981
5.57600e-06;-0.0008709939191064322
5.57625e-06;-0.0008814394934049308
5.57650e-06;-0.0008918850677034648
5.57675e-06;-0.0009011566532316515
5.57700e-06;-0.0009100704735306629
5.57725e-06;-0.0009189842938297047
5.57750e-06;-0.0009278981141287162
5.57775e-06;-0.0009368119344277276
5.57800e-06;-0.0009457257547267693
5.57825e-06;-0.0009546395750257809
5.57850e-06;-0.0009632126621978746
5.57875e-06;-0.0009708476187945238
5.57900e-06;-0.000978482575391147
5.57925e-06;-0.0009861175319877704
5.57950e-06;-0.0009937524885844195
5.57975e-06;-0.0010004079761555386
5.58000e-06;-0.001006764977089294
5.58025e-06;-0.001013121978023071
5.58050e-06;-0.0010194789789568267
5.58075e-06;-0.0010255451573040744
5.58100e-06;-0.0010308106223103066
5.58125e-06;-0.0010356942831587419
5.58150e-06;-0.0010395267337609583
5.58175e-06;-0.0010424592561910618
5.58200e-06;-0.0010429140326457787
5.58225e-06;-0.001042115085150651
5.58250e-06;-0.0010378642960894623
5.58275e-06;-0.0010336135070282736
5.58300e-06;-0.0010279549479268089
5.58325e-06;-0.001018420416653861
5.58350e-06;-0.0010088858853809133
5.58375e-06;-0.0009976606880560048
5.58400e-06;-0.0009817806292260218
5.58425e-06;-0.0009659005703960388
5.58450e-06;-0.000948446448877089
5.58475e-06;-0.0009266585064899253
5.58500e-06;-0.0009048705641026878
5.58525e-06;-0.0008819787410481569
5.58550e-06;-0.0008560476355648336
5.58575e-06;-0.0008292213475151797
5.58600e-06;-0.0007999303794286092
5.58625e-06;-0.0007698743995056695
5.58650e-06;-0.00073771213481762
5.58675e-06;-0.0007051042406738391
5.58700e-06;-0.0006710406883579556
5.58725e-06;-0.0006361600661797521
5.58750e-06;-0.0006005936494873461
5.58775e-06;-0.0005644041378161549
5.58800e-06;-0.0005276752716711527
5.58825e-06;-0.0004905834487611507
5.58850e-06;-0.00045335000552839874
5.58875e-06;-0.0004161966763027636
5.58900e-06;-0.0003793451663106586
5.58925e-06;-0.00034301095602198546
5.58950e-06;-0.0003073773874800808
5.58975e-06;-0.00027258482977797786
5.59000e-06;-0.00023878686613439205
5.59025e-06;-0.00020619508223818761
5.59050e-06;-0.00017504915190873818
5.59075e-06;-0.00014558905274390685
5.59100e-06;-0.00011805468955691049
5.59125e-06;-9.261433090793628e-05
5.59150e-06;-6.905454515221321e-05
5.59175e-06;-4.660752191046627e-05
5.59200e-06;-2.4552353497195523e-05
5.59225e-06;-2.7599524529673486e-06
5.59250e-06;1.8594875215230017e-05
5.59275e-06;3.9333997077273296e-05
5.59300e-06;5.927931842350735e-05
5.59325e-06;7.829763626024244e-05
5.59350e-06;9.649794985278767e-05
5.59375e-06;0.000114332627999543
5.59400e-06;0.0001322101959168572
5.59425e-06;0.0001502058509879085
5.59450e-06;0.0001680833079034354
5.59475e-06;0.00018563533328677374
5.59500e-06;0.00020318735867017154
5.59525e-06;0.00022049667189939784
5.59550e-06;0.00023713773283752518
5.59575e-06;0.00025377879377570887
5.59600e-06;0.0002704580974221658
5.59625e-06;0.00028724269360146733
5.59650e-06;0.00030402728978082575
5.59675e-06;0.00032066165237989893
5.59700e-06;0.0003368823812466549
5.59725e-06;0.00035310311011346583
5.59750e-06;0.0003691588826487056
5.59775e-06;0.00038476048573020833
5.59800e-06;0.00040031010038855545
5.59825e-06;0.00041571657683870815
5.59850e-06;0.0004309785022874541
5.59875e-06;0.0004458424396821476
5.59900e-06;0.0004604607260589122
5.59925e-06;0.0004744026686566989
5.59950e-06;0.00048814559434442605
5.59975e-06;0.0005012320750029262
5.60000e-06;0.0005139043250164394
5.60025e-06;0.0005261190992225633
5.60050e-06;0.0005377863388906979
5.60075e-06;0.0005488154729004973
5.60100e-06;0.0005591159766570546
5.60125e-06;0.0005685885983003144
5.60150e-06;0.0005770910325051349
5.60175e-06;0.0005844345113925765
5.60200e-06;0.0005904748276006228
5.60225e-06;0.0005951692114859445
5.60250e-06;0.00059851985922826
5.60275e-06;0.0006003515425389464
5.60300e-06;0.0006007109166374262
5.60325e-06;0.0006003428482795636
5.60350e-06;0.0005979719338352282
5.60375e-06;0.0005946424018240049
5.60400e-06;0.0005886735360407406
5.60425e-06;0.0005827046702574562
5.60450e-06;0.0005756792299500673
5.60475e-06;0.0005657447538389831
5.60500e-06;0.0005558102777278651
5.60525e-06;0.0005449452337859871
5.60550e-06;0.0005315180845920049
5.60575e-06;0.0005180909353979771
5.60600e-06;0.000503853737636587
5.60625e-06;0.00048738625679388615
5.60650e-06;0.00047091877595124116
5.60675e-06;0.0004538621446750624
5.60700e-06;0.00043518342270318925
5.60725e-06;0.0004165047007313794
5.60750e-06;0.0003974477777468344
5.60775e-06;0.0003773495649508133
5.60800e-06;0.00035725135215486034
5.60825e-06;0.00033701578818602613
5.60850e-06;0.0003164020592411232
5.60875e-06;0.0002957883302962901
5.60900e-06;0.00027532231221309814
5.60925e-06;0.0002552629821345674
5.60950e-06;0.00023520365205610466
5.60975e-06;0.0002154667756906872
5.61000e-06;0.0001966177017231926
5.61025e-06;0.0001780608838032016
5.61050e-06;0.00016055147685513759
5.61075e-06;0.00014398910147192634
5.61100e-06;0.0001285086005337437
5.61125e-06;0.00011424095827152384
5.61150e-06;0.00010129234703429417
5.61175e-06;8.971692372321117e-05
5.61200e-06;7.953200275122614e-05
5.61225e-06;7.075787545991532e-05
5.61250e-06;6.342359421897041e-05
5.61275e-06;5.7558348231758825e-05
5.61300e-06;5.319131457933276e-05
5.61325e-06;5.034921197836989e-05
5.61350e-06;4.9043240953460775e-05
5.61375e-06;4.9252007297214484e-05
5.61400e-06;5.0931043793560064e-05
5.61425e-06;5.403773851965923e-05
5.61450e-06;5.853498066746492e-05
5.61475e-06;6.4385744348975e-05
5.61500e-06;7.155298766393379e-05
5.61525e-06;7.999813724618058e-05
5.61550e-06;8.96728957272397e-05
5.61575e-06;0.00010050856226485298
5.61600e-06;0.00011242197802627787
5.61625e-06;0.0001253311491546077
5.61650e-06;0.0001391575399198666
5.61675e-06;0.00015391627251027146
5.61700e-06;0.00016950577567426174
5.61725e-06;0.00018542425129756008
5.61750e-06;0.00020224847719266687
5.61775e-06;0.0002192955624028594
5.61800e-06;0.00023695623966125034
5.61825e-06;0.0002547269013773109
5.61850e-06;0.0002728003800910038
5.61875e-06;0.00029088680841558525
5.61900e-06;0.0003089804246448251
5.61925e-06;0.0003269387968651453
5.61950e-06;0.00034465316206190523
5.61975e-06;0.00036200674389817424
5.62000e-06;0.00037887706761421675
5.62025e-06;0.0003951421877546742
5.62050e-06;0.0004106814708555557
5.62075e-06;0.00042537435334248907
5.62100e-06;0.00043910025220488913
5.62125e-06;0.00045174943465382784
5.62150e-06;0.0004631376866985065
5.62175e-06;0.00047334748504571143
5.62200e-06;0.0004830190487100133
5.62225e-06;0.0004912087065294707
5.62250e-06;0.0004988247547407466
5.62275e-06;0.0005048615003579331
5.62300e-06;0.0005101339423604599
5.62325e-06;0.0005133020495261153
5.62350e-06;0.0005164701566917598
5.62375e-06;0.0005188031974685024
5.62400e-06;0.0005188370743271541
5.62425e-06;0.0005188709511858057
5.62450e-06;0.0005181380508214791
5.62475e-06;0.0005152940051066839
5.62500e-06;0.0005124499593918982
5.62525e-06;0.0005088949257560755
5.62550e-06;0.0005033823498266932
5.62575e-06;0.0004978697738973298
5.62600e-06;0.0004917974310027525
5.62625e-06;0.0004841838980590756
5.62650e-06;0.0004765703651154245
5.62675e-06;0.0004683763773160179
5.62700e-06;0.0004585842401022591
5.62725e-06;0.00044879210288853346
5.62750e-06;0.00043899996567477466
5.62775e-06;0.00042920782846104903
5.62800e-06;0.0004194156912473234
5.62825e-06;0.0004087527291399065
5.62850e-06;0.00039782438896835467
5.62875e-06;0.0003868960487968029
5.62900e-06;0.000375967708625214
5.62925e-06;0.00036503936845366217
5.62950e-06;0.00035424417077274103
5.62975e-06;0.0003438155504255734
5.63000e-06;0.00033338693007844115
5.63025e-06;0.0003232944180467205
5.63050e-06;0.00031412730323070425
5.63075e-06;0.0003049601884147191
5.63100e-06;0.00029626316515433824
5.63125e-06;0.00028886043125466023
5.63150e-06;0.0002814576973550073
5.63175e-06;0.00027429549537071176
5.63200e-06;0.00026779554288927307
5.63225e-06;0.0002612955904078343
5.63250e-06;0.00025499680276598624
5.63275e-06;0.00024925187640617135
5.63300e-06;0.00024350695004635644
5.63325e-06;0.00023807858093264345
5.63350e-06;0.00023352177964611743
5.63375e-06;0.0002289649783595914
5.63400e-06;0.00022440817707304993
5.63425e-06;0.00021985137578652393
5.63450e-06;0.0002152945744999979
5.63475e-06;0.00021073777321345644
5.63500e-06;0.0002061809719269304
5.63525e-06;0.00020187373028919393
5.63550e-06;0.00019825359394914934
5.63575e-06;0.000194633457609117
5.63600e-06;0.0001910133212690724
5.63625e-06;0.00018739318492904007
5.63650e-06;0.00018377304858900774
5.63675e-06;0.00018015291224896316
5.63700e-06;0.00017653277590893082
5.63725e-06;0.000173111408542345
5.63750e-06;0.0001702373059893107
5.63775e-06;0.0001673632034362861
5.63800e-06;0.00016448910088326152
5.63825e-06;0.0001616149983302272
5.63850e-06;0.0001587408957772026
5.63875e-06;0.00015586679322417802
5.63900e-06;0.0001529926906711437
5.63925e-06;0.00015011858811811912
5.63950e-06;0.00014786622553307103
5.63975e-06;0.00014580333404636098
5.64000e-06;0.00014374044255965792
5.64025e-06;0.00014167755107294787
5.64050e-06;0.0001396146595862448
5.64075e-06;0.00013755176809954173
5.64100e-06;0.00013548887661283168
5.64125e-06;0.00013342598512612863
5.64150e-06;0.00013161360847789688
5.64175e-06;0.00013049096702313185
5.64200e-06;0.00012936832556837064
5.64225e-06;0.0001284559214351821
5.64250e-06;0.0001281223575836779
5.64275e-06;0.0001277887937321749
5.64300e-06;0.0001276648946795273
5.64325e-06;0.00012811825959846863
5.64350e-06;0.0001285716245174084
