Time(s);Current(A)
5.75000e-06;0.006949494225913298
5.75025e-06;0.006977328787877274
5.75050e-06;0.007005163349841157
5.75075e-06;0.0070329979118050395
5.75100e-06;0.007060832473769016
5.75125e-06;0.007088667035732898
5.75150e-06;0.007116501597696875
5.75175e-06;0.007144336159660758
5.75200e-06;0.007153953872291698
5.75225e-06;0.0071488726384127494
5.75250e-06;0.007143791404533818
5.75275e-06;0.007138710170654886
5.75300e-06;0.007133628936775938
5.75325e-06;0.007128547702897006
5.75350e-06;0.0071234664690180746
5.75375e-06;0.007115819114193728
5.75400e-06;0.007062717274075173
5.75425e-06;0.0070096154339566175
5.75450e-06;0.006956513593837883
5.75475e-06;0.006903411753719327
5.75500e-06;0.006850309913600772
5.75525e-06;0.006797208073482037
5.75550e-06;0.006744106233363482
5.75575e-06;0.0066682372660208005
5.75600e-06;0.006573997790194399
5.75625e-06;0.006479758314367998
5.75650e-06;0.006385518838541278
5.75675e-06;0.006291279362714877
5.75700e-06;0.0061970398868884755
5.75725e-06;0.006102800411061755
5.75750e-06;0.006007514508017471
5.75775e-06;0.0058936929195608145
5.75800e-06;0.005779871331103773
5.75825e-06;0.005666049742647116
5.75850e-06;0.005552228154190459
5.75875e-06;0.005438406565733417
5.75900e-06;0.0053245849772767615
5.75925e-06;0.005210763388820105
5.75950e-06;0.00510207947989688
5.75975e-06;0.00499754109994345
5.76000e-06;0.004893002719989665
5.76025e-06;0.0047884643400362345
5.76050e-06;0.004683925960082803
5.76075e-06;0.004579387580129019
5.76100e-06;0.004476742403015354
5.76125e-06;0.004407632106921835
5.76150e-06;0.004338521810828082
5.76175e-06;0.004269411514734564
5.76200e-06;0.004200301218641045
5.76225e-06;0.004131190922547293
5.76250e-06;0.004062080626453774
5.76275e-06;0.004012202858086339
5.76300e-06;0.003977843574340934
5.76325e-06;0.003943484290595645
5.76350e-06;0.003922147497939364
5.76375e-06;0.003911318389482557
5.76400e-06;0.003900489281025786
5.76425e-06;0.003901889418086365
5.76450e-06;0.003913157179475779
5.76475e-06;0.003924424940865194
5.76500e-06;0.003947008521286858
5.76525e-06;0.00397872269369981
5.76550e-06;0.004010436866112761
5.76575e-06;0.004052332569651461
5.76600e-06;0.004102443622542079
5.76625e-06;0.004152554675432699
5.76650e-06;0.004214881965389318
5.76675e-06;0.004287066383318287
5.76700e-06;0.004359250801247255
5.76725e-06;0.004431435219176468
5.76750e-06;0.004503619637105436
5.76775e-06;0.004575804055034403
5.76800e-06;0.004647988472963617
5.76825e-06;0.004727392103017271
5.76850e-06;0.004812620824495717
5.76875e-06;0.004897849545973872
5.76900e-06;0.004983078267452028
5.76925e-06;0.005068306988930472
5.76950e-06;0.005153535710408628
5.76975e-06;0.005238764431886783
5.77000e-06;0.005316636027107296
5.77025e-06;0.005388571249724514
5.77050e-06;0.005460506472341731
5.77075e-06;0.0055324416949591925
5.77100e-06;0.005604376917576409
5.77125e-06;0.005676312140193627
5.77150e-06;0.005748247362811088
5.77175e-06;0.005805803693253568
5.77200e-06;0.005851757876529779
5.77225e-06;0.0058977120598061455
5.77250e-06;0.005943666243082356
5.77275e-06;0.005989620426358722
5.77300e-06;0.006035574609634932
5.77325e-06;0.006081528792911143
5.77350e-06;0.006112749406856628
5.77375e-06;0.0061320816891017845
5.77400e-06;0.006151413971346941
5.77425e-06;0.006170746253592163
5.77450e-06;0.00619007853583732
5.77475e-06;0.006209410818082476
5.77500e-06;0.006228743100327698
5.77525e-06;0.006248075382572855
5.77550e-06;0.006267407664818011
5.77575e-06;0.006286739947063233
5.77600e-06;0.006306072229308389
5.77625e-06;0.006325404511553546
5.77650e-06;0.006343715523938035
5.77675e-06;0.006343936470905637
5.77700e-06;0.00634415741787324
5.77725e-06;0.006344378364840842
5.77750e-06;0.006344599311808443
5.77775e-06;0.006344820258776046
5.77800e-06;0.006345041205743648
5.77825e-06;0.00634526215271125
5.77850e-06;0.006345483099678852
5.77875e-06;0.006345704046646454
5.77900e-06;0.006345924993614056
5.77925e-06;0.006346145940581659
5.77950e-06;0.00634636688754926
5.77975e-06;0.006344758765504093
5.78000e-06;0.006341674790687901
5.78025e-06;0.006338590815871719
5.78050e-06;0.006335506841055537
5.78075e-06;0.006332422866239345
5.78100e-06;0.006329338891423163
5.78125e-06;0.006326254916606971
5.78150e-06;0.00632317094179079
5.78175e-06;0.006320086966974608
5.78200e-06;0.006317002992158416
5.78225e-06;0.006313919017342234
5.78250e-06;0.006310835042526052
5.78275e-06;0.00630775106770986
5.78300e-06;0.006304667092893678
5.78325e-06;0.006301583118077496
5.78350e-06;0.006304123756710005
5.78375e-06;0.006309266355725167
5.78400e-06;0.00631440895474033
5.78425e-06;0.00631955155375551
5.78450e-06;0.006324694152770673
5.78475e-06;0.006329836751785836
5.78500e-06;0.006334979350801016
5.78525e-06;0.006340121949816179
5.78550e-06;0.0063452645488313595
5.78575e-06;0.006350407147846522
5.78600e-06;0.006355549746861685
5.78625e-06;0.006360692345876865
5.78650e-06;0.006365834944892028
5.78675e-06;0.006370977543907191
5.78700e-06;0.006376120142922371
5.78725e-06;0.0063854320063274645
5.78750e-06;0.0063956966298237316
5.78775e-06;0.006405961253320034
5.78800e-06;0.006416225876816301
5.78825e-06;0.006426490500312569
5.78850e-06;0.006436755123808872
5.78875e-06;0.006447019747305139
5.78900e-06;0.006457284370801407
5.78925e-06;0.0064675489942977085
5.78950e-06;0.006476700243590379
5.78975e-06;0.006485597064665424
5.79000e-06;0.00649449388574044
5.79025e-06;0.0065033907068154555
5.79050e-06;0.0065122875278905016
5.79075e-06;0.006521184348965517
5.79100e-06;0.006530081170040533
5.79125e-06;0.006538977991115578
5.79150e-06;0.006547874812190594
5.79175e-06;0.006542921409368528
5.79200e-06;0.006534802954070256
5.79225e-06;0.006526684498772011
5.79250e-06;0.006518566043473766
5.79275e-06;0.0065104475881754935
5.79300e-06;0.0065023291328772485
5.79325e-06;0.006494210677579004
5.79350e-06;0.006486092222280731
5.79375e-06;0.0064495641517069765
5.79400e-06;0.0064065439172635835
5.79425e-06;0.006363523682820336
5.79450e-06;0.006320503448377089
5.79475e-06;0.006277483213933696
5.79500e-06;0.0062344629794904485
5.79525e-06;0.006191442745047201
5.79550e-06;0.006148422510603808
5.79575e-06;0.006080191400638843
5.79600e-06;0.006006199102654183
5.79625e-06;0.005932206804669273
5.79650e-06;0.005858214506684613
5.79675e-06;0.0057842222086999535
5.79700e-06;0.005710229910715043
5.79725e-06;0.0056362376127303835
5.79750e-06;0.005562245314745724
5.79775e-06;0.005477180948099582
5.79800e-06;0.005389586392874359
5.79825e-06;0.005301991837648839
5.79850e-06;0.005214397282423616
5.79875e-06;0.005126802727198392
5.79900e-06;0.0050392081719728725
5.79925e-06;0.004951613616747649
5.79950e-06;0.004864019061522426
5.79975e-06;0.004786061286266984
5.80000e-06;0.004710305707490766
5.80025e-06;0.004634550128714549
5.80050e-06;0.004558794549938075
5.80075e-06;0.004483038971161857
5.80100e-06;0.004407283392385639
5.80125e-06;0.004331527813609164
5.80150e-06;0.004267021814932233
5.80175e-06;0.004227094339777842
5.80200e-06;0.004187166864623316
5.80225e-06;0.004147239389468925
5.80250e-06;0.004107311914314398
5.80275e-06;0.004067384439160008
5.80300e-06;0.004027456964005617
5.80325e-06;0.003987529488851091
5.80350e-06;0.003973614033471807
5.80375e-06;0.003965642843555673
5.80400e-06;0.003957671653639513
5.80425e-06;0.003964290441727427
5.80450e-06;0.003974243330861914
5.80475e-06;0.003984196219996434
5.80500e-06;0.0040075999380405495
5.80525e-06;0.0040340774388368675
5.80550e-06;0.004060554939633276
5.80575e-06;0.004106381853094351
5.80600e-06;0.0041566304933733375
5.80625e-06;0.004206879133652495
5.80650e-06;0.004257127773931481
5.80675e-06;0.004307376414210638
5.80700e-06;0.004357625054489624
5.80725e-06;0.00440787369476861
5.80750e-06;0.004464039158935282
5.80775e-06;0.004533131931836324
5.80800e-06;0.004602224704737367
5.80825e-06;0.004671317477638643
5.80850e-06;0.004740410250539687
5.80875e-06;0.004809503023440729
5.80900e-06;0.004878595796342006
5.80925e-06;0.004947688569243048
5.80950e-06;0.005013753214839016
5.80975e-06;0.0050791258729344264
5.81000e-06;0.005144498531029616
5.81025e-06;0.005209871189124806
5.81050e-06;0.0052752438472202165
5.81075e-06;0.005340616505315406
5.81100e-06;0.005405989163410817
5.81125e-06;0.005454521937401381
5.81150e-06;0.005499206461916226
5.81175e-06;0.005543890986431223
5.81200e-06;0.005588575510946069
5.81225e-06;0.005633260035460914
5.81250e-06;0.00567794455997591
5.81275e-06;0.005722629084490756
5.81300e-06;0.005748232500679324
5.81325e-06;0.005769475502945088
5.81350e-06;0.00579071850521078
5.81375e-06;0.0058119615074764715
5.81400e-06;0.005833204509742235
5.81425e-06;0.005854447512007927
5.81450e-06;0.005875690514273619
5.81475e-06;0.0058969335165393825
5.81500e-06;0.005918176518805074
5.81525e-06;0.005939419521070838
5.81550e-06;0.00596066252333653
5.81575e-06;0.0059819055256022215
5.81600e-06;0.006003148527867985
5.81625e-06;0.006024391530133677
5.81650e-06;0.006031799534878618
5.81675e-06;0.006036045966680633
5.81700e-06;0.006040292398482633
5.81725e-06;0.006044538830284634
5.81750e-06;0.0060487852620866485
5.81775e-06;0.006053031693888648
5.81800e-06;0.006057278125690649
5.81825e-06;0.006061524557492664
5.81850e-06;0.006065770989294664
5.81875e-06;0.006070017421096664
5.81900e-06;0.0060742638528986795
5.81925e-06;0.006078510284700679
5.81950e-06;0.006082756716502694
5.81975e-06;0.006087003148304695
5.82000e-06;0.0060862717817622885
5.82025e-06;0.0060844028889907795
5.82050e-06;0.006082533996219277
5.82075e-06;0.0060806651034477745
5.82100e-06;0.006078796210676266
5.82125e-06;0.0060769273179047635
5.82150e-06;0.006075058425133261
5.82175e-06;0.0060731895323617524
5.82200e-06;0.00607132063959025
5.82225e-06;0.006069451746818748
5.82250e-06;0.006067582854047239
5.82275e-06;0.006065713961275737
5.82300e-06;0.006050976417304013
5.82325e-06;0.006033298129802816
5.82350e-06;0.00601561984230168
5.82375e-06;0.005997941554800484
5.82400e-06;0.005980263267299347
5.82425e-06;0.00596258497979821
5.82450e-06;0.005944906692297014
5.82475e-06;0.005927228404795878
5.82500e-06;0.005909550117294741
5.82525e-06;0.0058918718297935446
5.82550e-06;0.005874193542292409
5.82575e-06;0.005856515254791272
5.82600e-06;0.005825345842549859
5.82625e-06;0.005791093439157175
5.82650e-06;0.005756841035764492
5.82675e-06;0.005722588632371691
5.82700e-06;0.005688336228979008
5.82725e-06;0.005654083825586324
5.82750e-06;0.0056198314221935245
5.82775e-06;0.0055855790188008405
5.82800e-06;0.005551326615408041
5.82825e-06;0.005517074212015357
5.82850e-06;0.00548251512574858
5.82875e-06;0.005447285986718487
5.82900e-06;0.005412056847688513
5.82925e-06;0.00537682770865854
5.82950e-06;0.0053415985696284455
5.82975e-06;0.005306369430598472
5.83000e-06;0.005271140291568498
5.83025e-06;0.005235911152538405
5.83050e-06;0.00520068201350843
5.83075e-06;0.005165452874478457
5.83100e-06;0.005130223735448363
5.83125e-06;0.005109710643964076
5.83150e-06;0.005092560462928875
5.83175e-06;0.005075410281893616
5.83200e-06;0.0050582601008584156
5.83225e-06;0.005041109919823156
5.83250e-06;0.005023959738787956
5.83275e-06;0.005006809557752755
5.83300e-06;0.004989659376717496
5.83325e-06;0.004972509195682295
5.83350e-06;0.004955359014647095
5.83375e-06;0.004938208833611836
5.83400e-06;0.004921058652576635
5.83425e-06;0.004903908471541435
5.83450e-06;0.004886758290506175
5.83475e-06;0.004869608109470975
5.83500e-06;0.004865921189942134
5.83525e-06;0.004865310894258986
5.83550e-06;0.00486470059857584
5.83575e-06;0.004864090302892695
5.83600e-06;0.004863480007209547
5.83625e-06;0.004862869711526402
5.83650e-06;0.004862259415843254
5.83675e-06;0.004861649120160108
5.83700e-06;0.004861038824476963
5.83725e-06;0.004860428528793815
5.83750e-06;0.00485981823311067
5.83775e-06;0.004859207937427524
5.83800e-06;0.0048585976417443765
5.83825e-06;0.004857987346061231
5.83850e-06;0.004857377050378086
5.83875e-06;0.004860480416120984
5.83900e-06;0.00486443242758701
5.83925e-06;0.004868384439053036
5.83950e-06;0.004872336450519075
5.83975e-06;0.004876288461985101
5.84000e-06;0.0048802404734511265
5.84025e-06;0.004884192484917166
5.84050e-06;0.004888144496383192
5.84075e-06;0.004892096507849218
5.84100e-06;0.004896048519315257
5.84125e-06;0.0049000005307812825
5.84150e-06;0.004903952542247321
5.84175e-06;0.0049096877068664614
5.84200e-06;0.004919318774380882
5.84225e-06;0.004928949841895336
5.84250e-06;0.004938580909409756
5.84275e-06;0.004948211976924178
5.84300e-06;0.004957843044438631
5.84325e-06;0.004967474111953052
5.84350e-06;0.004977105179467473
5.84375e-06;0.0049867362469819265
5.84400e-06;0.004996367314496347
5.84425e-06;0.005005998382010768
5.84450e-06;0.0050156294495252215
5.84475e-06;0.005025260517039642
5.84500e-06;0.005046139711515842
5.84525e-06;0.005069589327401735
5.84550e-06;0.00509303894328755
5.84575e-06;0.005116488559173443
5.84600e-06;0.005139938175059257
5.84625e-06;0.005163387790945071
5.84650e-06;0.0051868374068309644
5.84675e-06;0.005210287022716779
5.84700e-06;0.005233736638602593
5.84725e-06;0.005257186254488486
5.84750e-06;0.0052806358703743
5.84775e-06;0.005304085486260114
5.84800e-06;0.00533039573598082
5.84825e-06;0.005357359697601945
5.84850e-06;0.005384323659223071
5.84875e-06;0.005411287620844287
5.84900e-06;0.005438251582465413
5.84925e-06;0.005465215544086539
5.84950e-06;0.005492179505707756
5.84975e-06;0.005519143467328881
5.85000e-06;0.005546107428950098
5.85025e-06;0.0055730713905712236
5.85050e-06;0.005600035352192349
5.85075e-06;0.005626999313813566
5.85100e-06;0.005645309624341359
5.85125e-06;0.005661642402955374
5.85150e-06;0.0056779751815694435
5.85175e-06;0.005694307960183458
5.85200e-06;0.005710640738797472
5.85225e-06;0.005726973517411542
5.85250e-06;0.005743306296025557
5.85275e-06;0.005759639074639571
5.85300e-06;0.00577597185325364
5.85325e-06;0.005792304631867654
5.85350e-06;0.005808637410481669
5.85375e-06;0.005824970189095739
5.85400e-06;0.005841302967709753
5.85425e-06;0.005857635746323823
5.85450e-06;0.005873968524937837
5.85475e-06;0.005890301303551852
5.85500e-06;0.0059042031877785
5.85525e-06;0.005917549564141688
5.85550e-06;0.005930895940504876
5.85575e-06;0.005944242316868109
5.85600e-06;0.005957588693231297
5.85625e-06;0.005970935069594485
5.85650e-06;0.005984281445957718
5.85675e-06;0.005997627822320906
5.85700e-06;0.006010974198684094
5.85725e-06;0.006024320575047328
5.85750e-06;0.006037666951410516
5.85775e-06;0.006051013327773704
5.85800e-06;0.006064359704136937
5.85825e-06;0.006077706080500125
5.85850e-06;0.006091052456863358
5.85875e-06;0.006104398833226546
5.85900e-06;0.006114051999401967
5.85925e-06;0.00612286119337077
5.85950e-06;0.006131670387339543
5.85975e-06;0.006140479581308316
5.86000e-06;0.006149288775277119
5.86025e-06;0.006158097969245891
5.86050e-06;0.006166907163214664
5.86075e-06;0.006175716357183467
5.86100e-06;0.00618452555115224
5.86125e-06;0.006193334745121013
5.86150e-06;0.006202143939089816
5.86175e-06;0.006210953133058588
5.86200e-06;0.006219762327027361
5.86225e-06;0.006228571520996164
5.86250e-06;0.006237380714964937
5.86275e-06;0.006232525274773475
5.86300e-06;0.006224547193070289
5.86325e-06;0.006216569111367103
5.86350e-06;0.00620859102966389
5.86375e-06;0.006200612947960704
5.86400e-06;0.006192634866257518
5.86425e-06;0.0061846567845543045
5.86450e-06;0.006176678702851119
5.86475e-06;0.006168700621147933
5.86500e-06;0.006160722539444719
5.86525e-06;0.006152744457741534
5.86550e-06;0.0061447663760383475
5.86575e-06;0.006136788294335134
5.86600e-06;0.006128810212631949
5.86625e-06;0.006120832130928762
5.86650e-06;0.00610165489999748
5.86675e-06;0.006079918440047638
5.86700e-06;0.006058181980097723
5.86725e-06;0.00603644552014788
5.86750e-06;0.006014709060198038
5.86775e-06;0.005992972600248123
5.86800e-06;0.005971236140298281
5.86825e-06;0.0059494996803484395
5.86850e-06;0.005927763220398524
5.86875e-06;0.005906026760448682
5.86900e-06;0.005884290300498841
5.86925e-06;0.005862553840548925
5.86950e-06;0.0058408173805990825
5.86975e-06;0.005822298904101516
5.87000e-06;0.0058045158010205595
5.87025e-06;0.005786732697939663
5.87050e-06;0.005768949594858767
5.87075e-06;0.00575116649177781
5.87100e-06;0.005733383388696914
5.87125e-06;0.0057156002856159575
5.87150e-06;0.005697817182535061
5.87175e-06;0.005680034079454165
5.87200e-06;0.005662250976373209
5.87225e-06;0.005644467873292312
5.87250e-06;0.005626684770211416
5.87275e-06;0.00560890166713046
5.87300e-06;0.005596838589626867
5.87325e-06;0.005586082652080376
5.87350e-06;0.005575326714533847
5.87375e-06;0.005564570776987356
5.87400e-06;0.005553814839440864
5.87425e-06;0.005546729513902347
5.87450e-06;0.005540482996435199
5.87475e-06;0.005534236478968051
5.87500e-06;0.005527989961500882
5.87525e-06;0.005521743444033733
5.87550e-06;0.005515496926566564
5.87575e-06;0.005509250409099416
5.87600e-06;0.005503003891632267
5.87625e-06;0.005496757374165099
5.87650e-06;0.00549051085669795
5.87675e-06;0.005484264339230802
5.87700e-06;0.005478017821763633
5.87725e-06;0.005471771304296485
5.87750e-06;0.005465524786829336
5.87775e-06;0.005459278269362167
5.87800e-06;0.005453031751895019
5.87825e-06;0.005446785234427871
5.87850e-06;0.005442930765065169
5.87875e-06;0.005439622926414858
5.87900e-06;0.005436315087764547
5.87925e-06;0.005433007249114225
5.87950e-06;0.005429699410463915
5.87975e-06;0.005426391571813593
5.88000e-06;0.005423083733163282
5.88025e-06;0.0054197758945129714
5.88050e-06;0.005416468055862649
5.88075e-06;0.005413160217212339
5.88100e-06;0.005409852378562028
5.88125e-06;0.005406544539911706
5.88150e-06;0.005403236701261395
5.88175e-06;0.005399928862611084
5.88200e-06;0.005396621023960762
5.88225e-06;0.005393313185310451
5.88250e-06;0.005390005346660141
5.88275e-06;0.005377904978313327
5.88300e-06;0.005363795341523341
5.88325e-06;0.005349685704733355
5.88350e-06;0.005335576067943321
5.88375e-06;0.005321466431153335
5.88400e-06;0.005307356794363301
5.88425e-06;0.005293247157573315
5.88450e-06;0.005279137520783329
5.88475e-06;0.0052650278839932955
5.88500e-06;0.005250918247203309
5.88525e-06;0.005236808610413323
5.88550e-06;0.005222698973623289
5.88575e-06;0.005208589336833303
5.88600e-06;0.005194479700043317
5.88625e-06;0.0051707505328712645
5.88650e-06;0.00514482311110134
5.88675e-06;0.005118895689331414
5.88700e-06;0.005092968267561401
5.88725e-06;0.005067040845791475
5.88750e-06;0.0050411134240215495
5.88775e-06;0.005015186002251536
5.88800e-06;0.004989258580481611
5.88825e-06;0.004963331158711597
5.88850e-06;0.004937403736941672
5.88875e-06;0.004911476315171746
5.88900e-06;0.004885548893401733
5.88925e-06;0.004859621471631807
5.88950e-06;0.0048336940498618815
5.88975e-06;0.004810646526913451
5.89000e-06;0.004788257118298551
5.89025e-06;0.00476586770968365
5.89050e-06;0.004743478301068675
5.89075e-06;0.004721088892453774
5.89100e-06;0.004698699483838874
5.89125e-06;0.004676310075223898
5.89150e-06;0.004653920666608997
5.89175e-06;0.004631531257994097
5.89200e-06;0.004625735909381552
5.89225e-06;0.004623732634523554
5.89250e-06;0.004621729359665549
5.89275e-06;0.004619726084807551
5.89300e-06;0.004617722809949553
5.89325e-06;0.004615719535091548
5.89350e-06;0.00461371626023355
5.89375e-06;0.0046117129853755524
5.89400e-06;0.0046097097105175485
5.89425e-06;0.004632590235412533
5.89450e-06;0.0046611572049711295
5.89475e-06;0.004689724174529823
5.89500e-06;0.0047182911440884195
5.89525e-06;0.004746858113647017
5.89550e-06;0.0047754250832057095
5.89575e-06;0.004803992052764307
5.89600e-06;0.004832559022322903
5.89625e-06;0.004861125991881597
5.89650e-06;0.004889692961440193
5.89675e-06;0.0049350342678319385
5.89700e-06;0.004984208844829695
5.89725e-06;0.005033383421827452
5.89750e-06;0.005082557998825376
5.89775e-06;0.005131732575823133
5.89800e-06;0.00518090715282089
5.89825e-06;0.005230081729818813
5.89850e-06;0.00527925630681657
5.89875e-06;0.005328430883814328
5.89900e-06;0.005377605460812251
5.89925e-06;0.005425959420248277
5.89950e-06;0.005474125852200545
5.89975e-06;0.005522292284152977
5.90000e-06;0.005570458716105245
5.90025e-06;0.005618625148057513
5.90050e-06;0.005666791580009944
5.90075e-06;0.005714958011962212
