Time(s);Current(A)
1.15500e-05;-0.0030444378968000666
1.15503e-05;-0.003067573547881456
1.15505e-05;-0.0030891420091408196
1.15508e-05;-0.00310892435359686
1.15510e-05;-0.003126559391625175
1.15513e-05;-0.0031412142544085912
1.15515e-05;-0.003152214570998662
1.15517e-05;-0.0031616334448647376
1.15520e-05;-0.003164849534545543
1.15523e-05;-0.0031680656242263484
1.15525e-05;-0.003169386581086604
1.15528e-05;-0.0031632743886396033
1.15530e-05;-0.0031571621961926028
1.15532e-05;-0.003148382769147705
1.15535e-05;-0.0031291418310206644
1.15538e-05;-0.0031099008928936233
1.15540e-05;-0.0030906599547665826
1.15543e-05;-0.003071419016639672
1.15545e-05;-0.0030492991082239846
1.15548e-05;-0.0030158872123677233
1.15550e-05;-0.0029824753165116884
1.15553e-05;-0.002949063420655427
1.15555e-05;-0.002915651524799166
1.15558e-05;-0.0028804022201460873
1.15560e-05;-0.002837946173157521
1.15563e-05;-0.002795490126168954
1.15565e-05;-0.0027522556720668634
1.15568e-05;-0.0027059681252012214
1.15570e-05;-0.002659242303051966
1.15573e-05;-0.0026107974638578772
1.15575e-05;-0.0025620912346448785
1.15578e-05;-0.00251235977331363
1.15580e-05;-0.002462577225985604
1.15583e-05;-0.0024126390551085343
1.15585e-05;-0.002362980174728139
1.15588e-05;-0.0023138873260382426
1.15590e-05;-0.0022656255055367417
1.15593e-05;-0.002218436108140968
1.15595e-05;-0.0021725812228266276
1.15598e-05;-0.002128366535196568
1.15600e-05;-0.0020861158180727262
1.15602e-05;-0.0020461524259175455
1.15605e-05;-0.0020087996695694306
1.15608e-05;-0.001974370820839764
1.15610e-05;-0.0019431082186415444
1.15613e-05;-0.0019151174898153465
1.15615e-05;-0.0018904239590224609
1.15617e-05;-0.0018690750593194077
1.15620e-05;-0.0018515034774096136
1.15623e-05;-0.0018381140855850105
1.15625e-05;-0.0018261920917254431
1.15628e-05;-0.0018200255721282914
1.15630e-05;-0.0018156662827478855
1.15633e-05;-0.0018183953683323793
1.15635e-05;-0.0018211244539168548
1.15638e-05;-0.0018255465751706463
1.15640e-05;-0.001836609173957932
1.15643e-05;-0.0018489445945536452
1.15645e-05;-0.0018662723167156535
1.15648e-05;-0.0018845074302503747
1.15650e-05;-0.0019068663740304205
1.15653e-05;-0.001931964254012157
1.15655e-05;-0.0019595993700045494
1.15658e-05;-0.0019895785566610208
1.15660e-05;-0.0020217181579059947
1.15663e-05;-0.00205583475049392
1.15665e-05;-0.0020917450967079896
1.15668e-05;-0.0021292632626267395
1.15670e-05;-0.002168185691211158
1.15673e-05;-0.0022082756946173172
1.15675e-05;-0.002249276293510032
1.15678e-05;-0.0022909367040555803
1.15680e-05;-0.0023330116173589633
1.15683e-05;-0.0023752561428854787
1.15685e-05;-0.0024174254337228146
1.15687e-05;-0.002459272667316804
1.15690e-05;-0.0025005407250653757
1.15693e-05;-0.002540950813564115
1.15695e-05;-0.0025802124148285367
1.15698e-05;-0.002618038092332363
1.15700e-05;-0.0026539180808809798
1.15702e-05;-0.002687360128305368
1.15705e-05;-0.0027200654730802115
1.15708e-05;-0.002749386711510403
1.15710e-05;-0.0027764406374654873
1.15713e-05;-0.0028020590144894595
1.15715e-05;-0.0028269667655215
1.15718e-05;-0.0028511607342626664
1.15720e-05;-0.0028743568363824917
1.15723e-05;-0.002897082758121837
1.15725e-05;-0.0029179645236439
1.15728e-05;-0.0029383582050352937
1.15730e-05;-0.002956837507560814
1.15733e-05;-0.0029751539025178373
1.15735e-05;-0.002992831336306494
1.15738e-05;-0.0030103131454144462
1.15740e-05;-0.003027027669271285
1.15743e-05;-0.00304374219312801
1.15745e-05;-0.0030600571582650453
1.15748e-05;-0.0030748049616749398
1.15750e-05;-0.003089552765084734
1.15753e-05;-0.0031041090275401276
1.15755e-05;-0.003117914022063653
1.15758e-05;-0.0031317190165870844
1.15760e-05;-0.0031455240111106096
1.15763e-05;-0.003159035438532843
1.15765e-05;-0.0031713954278741077
1.15768e-05;-0.003183755417215456
1.15770e-05;-0.0031961154065568045
1.15772e-05;-0.0032080953669292862
1.15775e-05;-0.003218584765775689
1.15778e-05;-0.0032290741646220917
1.15780e-05;-0.0032395635634684234
1.15783e-05;-0.003250052962314826
1.15785e-05;-0.003260542361161229
1.15787e-05;-0.0032710317600075606
1.15790e-05;-0.0032815211588539633
1.15793e-05;-0.0032913328463694803
1.15795e-05;-0.0032984863932727627
1.15798e-05;-0.0033056399401759965
1.15800e-05;-0.003312793487079279
1.15803e-05;-0.0033199470339825613
1.15805e-05;-0.003327100580885795
1.15808e-05;-0.0033342541277890775
1.15810e-05;-0.00334140767469236
1.15813e-05;-0.0033476414686736387
1.15815e-05;-0.0033502677789315023
1.15818e-05;-0.0033528940891893655
1.15820e-05;-0.0033555203994472113
1.15823e-05;-0.003358146709705075
1.15825e-05;-0.0033607730199629385
1.15828e-05;-0.003363399330220784
1.15830e-05;-0.0033660256404786475
1.15833e-05;-0.003368651950736511
1.15835e-05;-0.0033712782609943565
1.15838e-05;-0.00337390457125222
1.15840e-05;-0.0033765308815100837
1.15843e-05;-0.0033783388343015066
1.15845e-05;-0.0033769369998011725
1.15848e-05;-0.003375535165300838
1.15850e-05;-0.0033741333308005134
1.15853e-05;-0.0033727314963001792
1.15855e-05;-0.0033713296617998447
1.15857e-05;-0.00336992782729952
1.15860e-05;-0.003368525992799186
1.15863e-05;-0.0033671241582988514
1.15865e-05;-0.003365722323798527
1.15868e-05;-0.0033643204892981927
1.15870e-05;-0.003362918654797858
1.15872e-05;-0.003361215988420697
1.15875e-05;-0.003358333389831833
1.15878e-05;-0.003355450791242969
1.15880e-05;-0.003352568192654105
1.15883e-05;-0.0033496855940652603
1.15885e-05;-0.0033468029954763965
1.15888e-05;-0.003343919269526795
1.15890e-05;-0.00334103112180761
1.15893e-05;-0.0033381429740884055
1.15895e-05;-0.003335254826369201
1.15898e-05;-0.003332366678650016
1.15900e-05;-0.0033294785309308118
1.15903e-05;-0.0033266742020882606
1.15905e-05;-0.0033241986302696277
1.15908e-05;-0.0033216667692505183
1.15910e-05;-0.0033189141289659205
1.15913e-05;-0.0033157284402526117
1.15915e-05;-0.0033108442354253627
1.15918e-05;-0.0033051511926290187
1.15920e-05;-0.0032962857002106706
1.15923e-05;-0.0032874202077922622
1.15925e-05;-0.003278554715373854
1.15928e-05;-0.0032696892229555053
1.15930e-05;-0.003259542531572551
1.15933e-05;-0.0032443706814723914
1.15935e-05;-0.0032291988313723347
1.15938e-05;-0.003214026981272175
1.15940e-05;-0.003198855131172015
1.15942e-05;-0.003182426423639054
1.15945e-05;-0.0031610680305063673
1.15948e-05;-0.003139709637373681
1.15950e-05;-0.0031183512442411387
1.15953e-05;-0.003096992851108452
1.15955e-05;-0.0030746372687738104
1.15957e-05;-0.0030483704797101773
1.15960e-05;-0.003022103690646366
1.15963e-05;-0.0029958369015825547
1.15965e-05;-0.0029695701125187434
1.15968e-05;-0.0029428667746896468
1.15970e-05;-0.002914451191615554
1.15973e-05;-0.002886035608541461
1.15975e-05;-0.002857485719750651
1.15978e-05;-0.00282840905286901
1.15980e-05;-0.0027993323859873695
1.15983e-05;-0.0027704130923579136
1.15985e-05;-0.0027421110530277096
1.15988e-05;-0.002713809013697505
1.15990e-05;-0.0026859079679096656
1.15993e-05;-0.0026595797115559297
1.15995e-05;-0.0026332514552021937
1.15998e-05;-0.0026075794016340087
1.16000e-05;-0.0025844811271894686
1.16003e-05;-0.002561382852744928
1.16005e-05;-0.002539194807782872
1.16008e-05;-0.002520576893414163
1.16010e-05;-0.002501958979045454
1.16013e-05;-0.0024840114185987238
1.16015e-05;-0.00246869314130677
1.16018e-05;-0.0024533748640148166
1.16020e-05;-0.0024380565867229667
1.16023e-05;-0.00242352240853265
1.16025e-05;-0.002412063648405225
1.16027e-05;-0.0024006048882778772
1.16030e-05;-0.002389146128150452
1.16033e-05;-0.002378349735815978
1.16035e-05;-0.0023701513031916936
1.16038e-05;-0.0023619528705673535
1.16040e-05;-0.0023537544379430135
1.16042e-05;-0.002345556005318729
1.16045e-05;-0.002337986441317765
1.16048e-05;-0.0023328834455346747
1.16050e-05;-0.002327780449751584
1.16053e-05;-0.002322677453968528
1.16055e-05;-0.0023175744581854373
1.16058e-05;-0.002313035430786439
1.16060e-05;-0.0023107084178534917
1.16063e-05;-0.002308381404920529
1.16065e-05;-0.002306054391987566
1.16068e-05;-0.002303727379054619
1.16070e-05;-0.002301400366121656
1.16073e-05;-0.002299073353188693
1.16075e-05;-0.002296746340255746
1.16078e-05;-0.0022944193273227833
1.16080e-05;-0.002292462934888969
1.16083e-05;-0.002291960201789181
1.16085e-05;-0.0022914574686893887
1.16088e-05;-0.002290954735589597
1.16090e-05;-0.002290452002489809
1.16093e-05;-0.002289949269390017
1.16095e-05;-0.0022894465362902254
1.16098e-05;-0.0022889438031904372
1.16100e-05;-0.002288441070090645
1.16103e-05;-0.0022879709621273204
1.16105e-05;-0.002287628817496473
1.16108e-05;-0.0022871649179060805
1.16110e-05;-0.002286223467198466
1.16113e-05;-0.0022847863167633937
1.16115e-05;-0.0022814049173256086
1.16118e-05;-0.0022773407787654433
1.16120e-05;-0.0022705987794274184
1.16123e-05;-0.002263856780089348
1.16125e-05;-0.002256375988937759
1.16127e-05;-0.0022459974853867434
1.16130e-05;-0.002235618981835658
1.16133e-05;-0.002223910275752202
1.16135e-05;-0.002206984207616919
1.16138e-05;-0.0021900581394817503
1.16140e-05;-0.002173132071346467
1.16143e-05;-0.002156206003211184
1.16145e-05;-0.0021392799350760153
1.16148e-05;-0.0021173361737866054
1.16150e-05;-0.0020932741850860853
1.16153e-05;-0.0020692121963857284
1.16155e-05;-0.002045150207685209
1.16158e-05;-0.0020210882189846888
1.16160e-05;-0.001996166288401734
1.16163e-05;-0.001967871466821483
1.16165e-05;-0.0019395766452412317
1.16168e-05;-0.0019110114857100852
1.16170e-05;-0.001881385998196245
1.16173e-05;-0.001851600547654306
1.16175e-05;-0.0018211876851114955
1.16178e-05;-0.0017907318606640607
1.16180e-05;-0.0017601075296889454
1.16183e-05;-0.0017295434612697512
1.16185e-05;-0.0016993052043312398
1.16188e-05;-0.001669538165549169
1.16190e-05;-0.0016403826960987166
1.16193e-05;-0.00161193333993522
1.16195e-05;-0.0015843015015045404
1.16198e-05;-0.0015576565007051847
1.16200e-05;-0.0015321926128973005
1.16203e-05;-0.0015081043898954667
1.16205e-05;-0.0014855860834094073
1.16208e-05;-0.0014648282264353497
1.16210e-05;-0.0014459925485237177
1.16212e-05;-0.0014291760504666462
1.16215e-05;-0.001414421183391764
1.16218e-05;-0.001401981389615012
1.16220e-05;-0.0013920981362455316
1.16223e-05;-0.001383110212275138
1.16225e-05;-0.0013776339773287193
1.16228e-05;-0.0013733007955067187
1.16230e-05;-0.0013734509324667679
1.16233e-05;-0.001373601069426818
1.16235e-05;-0.0013750542698412443
1.16238e-05;-0.0013816183865675334
1.16240e-05;-0.0013881825032938673
1.16243e-05;-0.001395752426829591
1.16245e-05;-0.0014072673573497197
1.16248e-05;-0.0014195255181733194
1.16250e-05;-0.0014346988001819375
1.16253e-05;-0.0014505323923524175
1.16255e-05;-0.0014689558737311218
1.16258e-05;-0.0014878133377494971
1.16260e-05;-0.0015086298074653926
1.16263e-05;-0.0015306861416616543
1.16265e-05;-0.0015538626871989282
1.16268e-05;-0.0015780385211451103
1.16270e-05;-0.00160308590804299
1.16273e-05;-0.0016288610253088261
1.16275e-05;-0.0016552068412884133
1.16278e-05;-0.0016819639889244327
1.16280e-05;-0.001708974492624987
1.16283e-05;-0.0017360803531472494
1.16285e-05;-0.0017631235494373204
1.16288e-05;-0.0017899456528571297
1.16290e-05;-0.0018163835579234323
1.16293e-05;-0.0018422643329646343
1.16295e-05;-0.001867406690155644
1.16297e-05;-0.0018915012895184362
1.16300e-05;-0.0019142493672723675
1.16303e-05;-0.0019362530676532395
1.16305e-05;-0.001955337147775651
1.16308e-05;-0.001974421227897933
1.16310e-05;-0.001992848758355533
1.16313e-05;-0.0020087011491440286
1.16315e-05;-0.0020241505675967337
1.16318e-05;-0.0020380194353268343
1.16320e-05;-0.0020518883030569354
1.16323e-05;-0.0020651336220455264
1.16325e-05;-0.0020759332386207675
1.16328e-05;-0.0020867328551960086
1.16330e-05;-0.0020970051822925885
1.16333e-05;-0.002105209358072805
1.16335e-05;-0.0021134135338530223
1.16338e-05;-0.002120777795476878
1.16340e-05;-0.002124847719476644
1.16343e-05;-0.0021289176434764107
1.16345e-05;-0.0021329875674761492
1.16348e-05;-0.0021370574914759155
1.16350e-05;-0.0021411274154756817
1.16353e-05;-0.0021451973394754206
1.16355e-05;-0.002149267263475187
1.16358e-05;-0.002153337187474953
1.16360e-05;-0.002157407111474692
1.16363e-05;-0.002161477035474458
1.16365e-05;-0.0021626639780558078
1.16368e-05;-0.002162633865292562
1.16370e-05;-0.002162603752529316
1.16373e-05;-0.00216257363976607
1.16375e-05;-0.0021625435270028245
1.16378e-05;-0.0021625134142395784
1.16380e-05;-0.0021624833014763324
1.16382e-05;-0.0021624531887130868
1.16385e-05;-0.0021624230759498407
1.16388e-05;-0.002162392963186595
1.16390e-05;-0.0021621472035460504
1.16393e-05;-0.0021610556269655674
1.16395e-05;-0.002159964050385077
1.16398e-05;-0.0021588724738045868
1.16400e-05;-0.002157849050343517
1.16403e-05;-0.0021568543978338277
1.16405e-05;-0.0021558597453241383
1.16408e-05;-0.0021548120201398398
1.16410e-05;-0.0021535561316479708
1.16413e-05;-0.002151905840338856
1.16415e-05;-0.002148708609940223
1.16418e-05;-0.002145511379541568
1.16420e-05;-0.0021417130372454085
1.16423e-05;-0.0021355569950272423
1.16425e-05;-0.002129400952809034
1.16428e-05;-0.0021232449105908257
1.16430e-05;-0.002117088868372659
1.16433e-05;-0.002108061045069665
1.16435e-05;-0.0020978208946610525
1.16438e-05;-0.00208758074425251
1.16440e-05;-0.0020773405938438972
1.16443e-05;-0.0020661961950104663
1.16445e-05;-0.002051505124667509
1.16448e-05;-0.0020368140543244513
1.16450e-05;-0.002022122983981394
1.16453e-05;-0.0020074319136384362
1.16455e-05;-0.001992740843295379
1.16458e-05;-0.0019773049422702983
1.16460e-05;-0.001958947643002177
1.16463e-05;-0.0019405903437339311
1.16465e-05;-0.0019222330444656854
1.16467e-05;-0.0019038757451975642
1.16470e-05;-0.0018855184459293185
1.16473e-05;-0.001866901830041096
1.16475e-05;-0.0018472681143792326
1.16478e-05;-0.001827634398717502
1.16480e-05;-0.0018080337785826694
1.16483e-05;-0.001788562966761149
1.16485e-05;-0.0017690921549397608
1.16488e-05;-0.0017497947043948923
1.16490e-05;-0.0017311772168823634
1.16493e-05;-0.001712767869331096
1.16495e-05;-0.001695174894858305
1.16498e-05;-0.0016777913611474978
1.16500e-05;-0.0016614025692301996
1.16503e-05;-0.0016458918478460185
1.16505e-05;-0.0016313832720772096
1.16508e-05;-0.001618032256320272
1.16510e-05;-0.0016061754672714481
1.16513e-05;-0.0015963633142325663
1.16515e-05;-0.0015892743660108927
1.16518e-05;-0.0015852384796337829
1.16520e-05;-0.0015822107020883145
1.16523e-05;-0.0015831369605964272
1.16525e-05;-0.0015850453710465416
1.16528e-05;-0.0015908060086241842
1.16530e-05;-0.00159793865604153
1.16533e-05;-0.0016104526434511301
1.16535e-05;-0.0016229666308607302
1.16538e-05;-0.0016368577800697018
1.16540e-05;-0.001656150476448827
1.16543e-05;-0.0016761828554919004
1.16545e-05;-0.0016995690724542027
1.16548e-05;-0.0017251652711431596
1.16550e-05;-0.0017529056334997042
1.16552e-05;-0.001782807935601179
1.16555e-05;-0.0018148398453148677
1.16558e-05;-0.001848839890410035
1.16560e-05;-0.0018845926788903765
1.16563e-05;-0.001921882844249553
1.16565e-05;-0.0019604953182475126
1.16568e-05;-0.002000222282701444
1.16570e-05;-0.0020409010459900654
1.16573e-05;-0.002082421007520325
1.16575e-05;-0.0021246399955739594
1.16578e-05;-0.0021673353352489426
1.16580e-05;-0.0022102502616477542
1.16583e-05;-0.0022531283373063466
1.16585e-05;-0.0022957133975359634
1.16588e-05;-0.002337753273075637
1.16590e-05;-0.00237902462991727
1.16593e-05;-0.002419336561127235
1.16595e-05;-0.0024584785021564445
1.16598e-05;-0.002496189365245256
1.16600e-05;-0.0025321868214263823
1.16603e-05;-0.0025661888181871422
1.16605e-05;-0.0025979130265602352
1.16608e-05;-0.002627083779781931
1.16610e-05;-0.0026534704735156744
1.16613e-05;-0.0026769416708855146
1.16615e-05;-0.0026971324968868755
1.16618e-05;-0.002713708758146491
1.16620e-05;-0.0027286905134946047
1.16623e-05;-0.0027374182477821448
1.16625e-05;-0.0027461459820697443
1.16628e-05;-0.002752425971809971
1.16630e-05;-0.0027491053411701966
1.16633e-05;-0.0027457847105304004
1.16635e-05;-0.0027424640798906037
1.16637e-05;-0.00273914344925083
1.16640e-05;-0.0027264910126372733
1.16643e-05;-0.0027098991387894474
1.16645e-05;-0.0026933072649416214
1.16648e-05;-0.0026767153910939078
1.16650e-05;-0.0026581828905660673
1.16653e-05;-0.0026320388032514616
1.16655e-05;-0.0026058947159370333
1.16658e-05;-0.0025787100588972856
1.16660e-05;-0.0025474440466682602
1.16663e-05;-0.0025155082166067595
1.16665e-05;-0.0024809452060482735
1.16668e-05;-0.002445857121315023
1.16670e-05;-0.002408709574196909
1.16673e-05;-0.0023712095810016964
1.16675e-05;-0.0023323272127574656
1.16678e-05;-0.00229327734866622
1.16680e-05;-0.0022535705271128107
1.16683e-05;-0.0022138800956500774
1.16685e-05;-0.002174253949914963
1.16688e-05;-0.002134756039492191
1.16690e-05;-0.0020959122743411255
1.16693e-05;-0.0020578656613001473
1.16695e-05;-0.0020208776292369203
1.16698e-05;-0.001985392490162507
1.16700e-05;-0.0019518383347832005
1.16703e-05;-0.0019191171294879355
1.16705e-05;-0.0018896629471201636
1.16708e-05;-0.0018608825441149973
1.16710e-05;-0.0018349834265184485
1.16713e-05;-0.001810047080055431
1.16715e-05;-0.0017852168560631323
1.16718e-05;-0.0017605047842057847
1.16720e-05;-0.0017362561323560578
1.16722e-05;-0.0017120074805064953
1.16725e-05;-0.0016880998355697208
1.16728e-05;-0.001665529698635202
1.16730e-05;-0.0016430285396219612
1.16733e-05;-0.0016207979279737011
1.16735e-05;-0.0015983714906123326
1.16738e-05;-0.0015751769795017488
1.16740e-05;-0.001551982468391322
1.16743e-05;-0.0015288019901626016
1.16745e-05;-0.0015056765521429683
1.16748e-05;-0.0014825511141234918
1.16750e-05;-0.0014594256761038585
1.16753e-05;-0.0014359593087701092
1.16755e-05;-0.001412349017565987
1.16758e-05;-0.0013887387263617048
1.16760e-05;-0.0013650512351611908
1.16763e-05;-0.0013410609477158678
1.16765e-05;-0.0013170706602703823
1.16768e-05;-0.0012931895691432533
1.16770e-05;-0.0012697367712388016
1.16773e-05;-0.0012462953494288688
1.16775e-05;-0.00122290462558165
1.16778e-05;-0.0011995735260334523
1.16780e-05;-0.0011764483157300234
1.16783e-05;-0.001153675374193606
1.16785e-05;-0.0011314008263041651
1.16788e-05;-0.0011097580709045446
1.16790e-05;-0.0010888039996594268
1.16793e-05;-0.0010684917297816942
1.16795e-05;-0.001048796254529619
1.16798e-05;-0.0010298051804821721
1.16800e-05;-0.0010116570182215213
1.16803e-05;-0.0009944902092159998
1.16805e-05;-0.0009784432285713952
1.16807e-05;-0.000963666759868747
1.16810e-05;-0.0009503805850804782
1.16813e-05;-0.0009388724645086599
1.16815e-05;-0.0009293497060502838
1.16818e-05;-0.0009218683265261131
1.16820e-05;-0.0009164250899581267
1.16823e-05;-0.0009130168176562875
1.16825e-05;-0.0009116402154348238
1.16828e-05;-0.0009125194145585038
1.16830e-05;-0.0009159045974942598
1.16833e-05;-0.0009201822539780664
1.16835e-05;-0.0009279603981868071
1.16838e-05;-0.0009367823503257685
1.16840e-05;-0.0009496983586466286
1.16843e-05;-0.000962614366967576
1.16845e-05;-0.0009764675865311627
1.16848e-05;-0.0009939967654074738
1.16850e-05;-0.0010120508647273082
1.16853e-05;-0.0010325013931091506
1.16855e-05;-0.001054589417087224
1.16858e-05;-0.001078190444019622
1.16860e-05;-0.0011031569756934426
1.16863e-05;-0.0011293414902448229
1.16865e-05;-0.0011565963730460467
1.16868e-05;-0.001184777084089044
1.16870e-05;-0.0012137561094315164
1.16873e-05;-0.0012434225775442673
1.16875e-05;-0.0012736458998842404
1.16878e-05;-0.0013042581721897598
1.16880e-05;-0.0013350771571807344
1.16883e-05;-0.001365920479349503
1.16885e-05;-0.0013966059250662762
1.16888e-05;-0.0014269530800114464
1.16890e-05;-0.001456792120240451
1.16892e-05;-0.0014859638784186504
1.16895e-05;-0.0015142967901695613
1.16898e-05;-0.0015415957557687416
1.16900e-05;-0.0015676569537991269
1.16903e-05;-0.0015922762627393553
1.16905e-05;-0.0016152498157098048
1.16908e-05;-0.0016361911743588402
1.16910e-05;-0.001654813376691777
1.16913e-05;-0.001672483972253118
1.16915e-05;-0.0016864221459048133
1.16918e-05;-0.001700360319556414
1.16920e-05;-0.001713097136615794
1.16923e-05;-0.001721121955190201
1.16925e-05;-0.0017291467737645535
1.16928e-05;-0.0017354422897767944
1.16930e-05;-0.001734955081071737
1.16933e-05;-0.001734467872366683
1.16935e-05;-0.0017339806636616256
1.16938e-05;-0.001733493454956568
1.16940e-05;-0.001733006246251514
