Time(s);Current(A)
8.05000e-06;0.011744131850864212
8.05025e-06;0.011740955682683804
8.05050e-06;0.011737779514503376
8.05075e-06;0.011734603346322947
8.05100e-06;0.01173142717814254
8.05125e-06;0.011728251009962111
8.05150e-06;0.011725074841781681
8.05175e-06;0.011723414437531051
8.05200e-06;0.011722348946298037
8.05225e-06;0.011721283455065014
8.05250e-06;0.011720217963831993
8.05275e-06;0.011719152472598977
8.05300e-06;0.011718086981365956
8.05325e-06;0.011717021490132934
8.05350e-06;0.01171595599889992
8.05375e-06;0.011714890507666897
8.05400e-06;0.011713825016433876
8.05425e-06;0.01171275952520086
8.05450e-06;0.011711694033967839
8.05475e-06;0.011710628542734816
8.05500e-06;0.011709563051501802
8.05525e-06;0.011708497560268781
8.05550e-06;0.011707432069035758
8.05575e-06;0.011709815186325637
8.05600e-06;0.011713551827117981
8.05625e-06;0.011717288467910324
8.05650e-06;0.011721025108702642
8.05675e-06;0.011724761749494985
8.05700e-06;0.011728498390287329
8.05725e-06;0.011732235031079646
8.05750e-06;0.01173597167187199
8.05775e-06;0.011739708312664333
8.05800e-06;0.011743444953456651
8.05825e-06;0.011747181594248994
8.05850e-06;0.011750918235041338
8.05875e-06;0.011754654875833655
8.05900e-06;0.011758391516625999
8.05925e-06;0.01176212815741834
8.05950e-06;0.01176586479821066
8.05975e-06;0.011773006332996314
8.06000e-06;0.011781484234033237
8.06025e-06;0.01178996213507016
8.06050e-06;0.011798440036107024
8.06075e-06;0.011806917937143948
8.06100e-06;0.01181539583818087
8.06125e-06;0.011823873739217736
8.06150e-06;0.011832351640254658
8.06175e-06;0.011840829541291582
8.06200e-06;0.011849307442328446
8.06225e-06;0.01185778534336537
8.06250e-06;0.011866263244402292
8.06275e-06;0.011874741145439157
8.06300e-06;0.01188280324557605
8.06325e-06;0.011890702150532353
8.06350e-06;0.011898601055488605
8.06375e-06;0.011906499960444909
8.06400e-06;0.011914398865401212
8.06425e-06;0.011922297770357464
8.06450e-06;0.011930196675313767
8.06475e-06;0.01193809558027007
8.06500e-06;0.011945994485226322
8.06525e-06;0.011953893390182626
8.06550e-06;0.01196179229513893
8.06575e-06;0.011969691200095181
8.06600e-06;0.011977590105051485
8.06625e-06;0.011983603040491246
8.06650e-06;0.011988875763161221
8.06675e-06;0.011994148485831232
8.06700e-06;0.011999421208501242
8.06725e-06;0.012004693931171217
8.06750e-06;0.012009966653841226
8.06775e-06;0.012015239376511236
8.06800e-06;0.01202051209918121
8.06825e-06;0.012025784821851222
8.06850e-06;0.012031057544521231
8.06875e-06;0.012036330267191241
8.06900e-06;0.012041602989861216
8.06925e-06;0.012046875712531225
8.06950e-06;0.012052148435201237
8.06975e-06;0.012057421157871211
8.07000e-06;0.01206269388054122
8.07025e-06;0.01206796660321123
8.07050e-06;0.012072978213349232
8.07075e-06;0.012077053947027913
8.07100e-06;0.012081129680706596
8.07125e-06;0.01208520541438525
8.07150e-06;0.012089281148063931
8.07175e-06;0.012093356881742613
8.07200e-06;0.012097432615421266
8.07225e-06;0.012101508349099947
8.07250e-06;0.01210558408277863
8.07275e-06;0.012109659816457284
8.07300e-06;0.012113735550135965
8.07325e-06;0.012117811283814646
8.07350e-06;0.0121218870174933
8.07375e-06;0.012125962751171981
8.07400e-06;0.012130038484850664
8.07425e-06;0.012134114218529318
8.07450e-06;0.012138189952207999
8.07475e-06;0.01214226568588668
8.07500e-06;0.012144439615894469
8.07525e-06;0.012145867118480763
8.07550e-06;0.012147294621067058
8.07575e-06;0.012148722123653343
8.07600e-06;0.012150149626239637
8.07625e-06;0.012151577128825931
8.07650e-06;0.012151124434721888
8.07675e-06;0.012143932761800699
8.07700e-06;0.012136741088879511
8.07725e-06;0.012129549415958323
8.07750e-06;0.012122357743037182
8.07775e-06;0.012115166070115995
8.07800e-06;0.012107974397194807
8.07825e-06;0.012092406016060502
8.07850e-06;0.01207354991137803
8.07875e-06;0.012054693806695556
8.07900e-06;0.01203583770201321
8.07925e-06;0.012016981597330736
8.07950e-06;0.011998125492648263
8.07975e-06;0.011979269387965917
8.08000e-06;0.011960413283283443
8.08025e-06;0.011939644130701942
8.08050e-06;0.011912018254387629
8.08075e-06;0.011884392378073129
8.08100e-06;0.01185676650175863
8.08125e-06;0.011829140625444318
8.08150e-06;0.011801514749129818
8.08175e-06;0.011773888872815318
8.08200e-06;0.011746262996501005
8.08225e-06;0.011718637120186505
8.08250e-06;0.011691316652823877
8.08275e-06;0.011664116053574002
8.08300e-06;0.011636915454323942
8.08325e-06;0.011609714855073882
8.08350e-06;0.011582514255824006
8.08375e-06;0.011555313656573946
8.08400e-06;0.011528113057323887
8.08425e-06;0.011500912458074011
8.08450e-06;0.01147371185882395
8.08475e-06;0.011450141831399852
8.08500e-06;0.011439584456728031
8.08525e-06;0.011429027082056138
8.08550e-06;0.011418469707384244
8.08575e-06;0.011407912332712352
8.08600e-06;0.011397354958040529
8.08625e-06;0.011386797583368635
8.08650e-06;0.011376240208696743
8.08675e-06;0.01136568283402492
8.08700e-06;0.011355125459353027
8.08725e-06;0.01136306769997529
8.08750e-06;0.011378270742729306
8.08775e-06;0.011393473785483426
8.08800e-06;0.011408676828237546
8.08825e-06;0.011423879870991563
8.08850e-06;0.011439082913745683
8.08875e-06;0.011454285956499803
8.08900e-06;0.011484140957468504
8.08925e-06;0.011519746616910827
8.08950e-06;0.01155535227635315
8.08975e-06;0.011590957935795232
8.09000e-06;0.011626563595237555
8.09025e-06;0.011662169254679878
8.09050e-06;0.01169777491412196
8.09075e-06;0.011743173506645136
8.09100e-06;0.011792415668251625
8.09125e-06;0.011841657829857778
8.09150e-06;0.011890899991464265
8.09175e-06;0.011940142153070753
8.09200e-06;0.011989384314676907
8.09225e-06;0.012038626476283395
8.09250e-06;0.012087868637889881
8.09275e-06;0.012137110799496035
8.09300e-06;0.012185389556138638
8.09325e-06;0.012230215288062344
8.09350e-06;0.012275041019985744
8.09375e-06;0.01231986675190945
8.09400e-06;0.012364692483833156
8.09425e-06;0.012409518215756862
8.09450e-06;0.012454343947680264
8.09475e-06;0.01249916967960397
8.09500e-06;0.012543995411527675
8.09525e-06;0.012588821143451077
8.09550e-06;0.012616929633626222
8.09575e-06;0.012638476874681682
8.09600e-06;0.012660024115736995
8.09625e-06;0.012681571356792456
8.09650e-06;0.012703118597847915
8.09675e-06;0.01272466583890323
8.09700e-06;0.012746213079958688
8.09725e-06;0.012767760321014149
8.09750e-06;0.012789307562069462
8.09775e-06;0.012810854803124922
8.09800e-06;0.012832402044180383
8.09825e-06;0.012849334537802928
8.09850e-06;0.012849726908052842
8.09875e-06;0.012850119278302758
8.09900e-06;0.012850511648552668
8.09925e-06;0.012850904018802584
8.09950e-06;0.012851296389052498
8.09975e-06;0.01285168875930241
8.10000e-06;0.012852081129552325
8.10025e-06;0.01285247349980224
8.10050e-06;0.012852865870052152
8.10075e-06;0.012853258240302066
8.10100e-06;0.01285365061055198
8.10125e-06;0.012846992021186679
8.10150e-06;0.012837566043320824
8.10175e-06;0.01282814006545497
8.10200e-06;0.012818714087589179
8.10225e-06;0.012809288109723323
8.10250e-06;0.012799862131857468
8.10275e-06;0.012790436153991613
8.10300e-06;0.012780867395447024
8.10325e-06;0.012770786884075729
8.10350e-06;0.012760706372704435
8.10375e-06;0.012750625861333208
8.10400e-06;0.012740545349961914
8.10425e-06;0.01273046483859062
8.10450e-06;0.012720384327219393
8.10475e-06;0.012710303815848098
8.10500e-06;0.012702186428012614
8.10525e-06;0.01269483953466238
8.10550e-06;0.012687492641312097
8.10575e-06;0.012677336699566364
8.10600e-06;0.012666078251402771
8.10625e-06;0.012654819803239103
8.10650e-06;0.01263722833317392
8.10675e-06;0.012617151253639524
8.10700e-06;0.012597074174104994
8.10725e-06;0.012576997094570462
8.10750e-06;0.012556920015036069
8.10775e-06;0.012527708177648212
8.10800e-06;0.012494911094389584
8.10825e-06;0.012462114011131177
8.10850e-06;0.012429316927872549
8.10875e-06;0.01239651984461392
8.10900e-06;0.01235372824948141
8.10925e-06;0.012307013968821076
8.10950e-06;0.012260299688160739
8.10975e-06;0.01221358540750072
8.11000e-06;0.012166871126840385
8.11025e-06;0.01212015684618005
8.11050e-06;0.012071156424377609
8.11075e-06;0.012013962042425323
8.11100e-06;0.011956767660473037
8.11125e-06;0.011899573278520752
8.11150e-06;0.011842378896568855
8.11175e-06;0.011785184514616569
8.11200e-06;0.011727990132664283
8.11225e-06;0.011669031177851424
8.11250e-06;0.011609379656506444
8.11275e-06;0.011549728135161464
8.11300e-06;0.011491700957198422
8.11325e-06;0.011434311307946326
8.11350e-06;0.01137692165869423
8.11375e-06;0.011322868088822295
8.11400e-06;0.011270123876572379
8.11425e-06;0.011217379664322465
8.11450e-06;0.011170700862748767
8.11475e-06;0.011126402637533263
8.11500e-06;0.01108210441231776
8.11525e-06;0.011039925143390448
8.11550e-06;0.011005340612628185
8.11575e-06;0.01097075608186592
8.11600e-06;0.010936171551103891
8.11625e-06;0.01090807593219172
8.11650e-06;0.010882527107053225
8.11675e-06;0.010856978281914904
8.11700e-06;0.01083142945677641
8.11725e-06;0.010805880631637918
8.11750e-06;0.010780331806499597
8.11775e-06;0.010754782981361103
8.11800e-06;0.01072923415622261
8.11825e-06;0.01070368533108429
8.11850e-06;0.010680044411321555
8.11875e-06;0.010663241783532207
8.11900e-06;0.010646439155742975
8.11925e-06;0.010629636527953627
8.11950e-06;0.01061283390016428
8.11975e-06;0.010596031272374934
8.12000e-06;0.0105792286445857
8.12025e-06;0.010562426016796354
8.12050e-06;0.010545623389007008
8.12075e-06;0.010528820761217774
8.12100e-06;0.010515485247896026
8.12125e-06;0.010503510521366343
8.12150e-06;0.010491535794836741
8.12175e-06;0.01047956106830706
8.12200e-06;0.010467586341777376
8.12225e-06;0.010455611615247776
8.12250e-06;0.010443636888718093
8.12275e-06;0.010431662162188412
8.12300e-06;0.010420572303964782
8.12325e-06;0.010412653980300678
8.12350e-06;0.010404735656636573
8.12375e-06;0.010396817332972522
8.12400e-06;0.010388899009308419
8.12425e-06;0.010380980685644314
8.12450e-06;0.010373062361980264
8.12475e-06;0.010365144038316159
8.12500e-06;0.010357225714652056
8.12525e-06;0.010354700029514207
8.12550e-06;0.010354290868463092
8.12575e-06;0.010353881707411977
8.12600e-06;0.010353472546360864
8.12625e-06;0.010353063385309749
8.12650e-06;0.010352654224258634
8.12675e-06;0.010352245063207522
8.12700e-06;0.01035465559708441
8.12725e-06;0.01036717244831092
8.12750e-06;0.010379689299537347
8.12775e-06;0.010392206150763859
8.12800e-06;0.01040472300199037
8.12825e-06;0.01041723985321688
8.12850e-06;0.010429756704443308
8.12875e-06;0.01044227355566982
8.12900e-06;0.010464960284894013
8.12925e-06;0.010491638528037825
8.12950e-06;0.010518316771181816
8.12975e-06;0.010544995014325808
8.13000e-06;0.010571673257469619
8.13025e-06;0.010598351500613612
8.13050e-06;0.010625029743757603
8.13075e-06;0.010651707986901415
8.13100e-06;0.010678386230045406
8.13125e-06;0.0107050644731894
8.13150e-06;0.01073174271633321
8.13175e-06;0.01076219116451737
8.13200e-06;0.010794119357680158
8.13225e-06;0.01082604755084273
8.13250e-06;0.010857975744005518
8.13275e-06;0.010889903937168306
8.13300e-06;0.010921832130330877
8.13325e-06;0.010953760323493664
8.13350e-06;0.010985688516656452
8.13375e-06;0.011017616709819024
8.13400e-06;0.011049544902981812
8.13425e-06;0.0110814730961446
8.13450e-06;0.011109498292888495
8.13475e-06;0.011135991626168582
8.13500e-06;0.011162484959448668
8.13525e-06;0.011186303008543317
8.13550e-06;0.011209071051524942
8.13575e-06;0.011231839094506566
8.13600e-06;0.011258770070771989
8.13625e-06;0.011287334931550184
8.13650e-06;0.011315899792328379
8.13675e-06;0.011344464653106574
8.13700e-06;0.011373029513884577
8.13725e-06;0.011401594374662772
8.13750e-06;0.011430159235440968
8.13775e-06;0.011466701411475731
8.13800e-06;0.01150637455573961
8.13825e-06;0.011546047700003491
8.13850e-06;0.011585720844267103
8.13875e-06;0.011625393988530984
8.13900e-06;0.011665067132794865
8.13925e-06;0.011704740277058477
8.13950e-06;0.011753174569701564
8.13975e-06;0.01180504747249645
8.14000e-06;0.011856920375290987
8.14025e-06;0.011908793278085876
8.14050e-06;0.011960666180880763
8.14075e-06;0.0120125390836753
8.14100e-06;0.012064411986470189
8.14125e-06;0.012116284889265078
8.14150e-06;0.012168157792059615
8.14175e-06;0.012220489707598318
8.14200e-06;0.012274466811208105
8.14225e-06;0.012328443914817527
8.14250e-06;0.012382421018427315
8.14275e-06;0.012436398122037102
8.14300e-06;0.012490375225646524
8.14325e-06;0.012544352329256311
8.14350e-06;0.0125983294328661
8.14375e-06;0.012652306536475522
8.14400e-06;0.01270628364008531
8.14425e-06;0.012750172025769455
8.14450e-06;0.012790100751556795
8.14475e-06;0.012830029477344405
8.14500e-06;0.012869958203132015
8.14525e-06;0.012909886928919626
8.14550e-06;0.012949815654706966
8.14575e-06;0.012989744380494576
8.14600e-06;0.01301361729270028
8.14625e-06;0.013031188555715431
8.14650e-06;0.013048759818730701
8.14675e-06;0.013066331081745972
8.14700e-06;0.013083902344761124
8.14725e-06;0.013101473607776394
8.14750e-06;0.013119044870791664
8.14775e-06;0.013118196526797007
8.14800e-06;0.013110118782621596
8.14825e-06;0.013102041038446184
8.14850e-06;0.013093963294270825
8.14875e-06;0.013085885550095412
8.14900e-06;0.013077807805920001
8.14925e-06;0.013069730061744642
8.14950e-06;0.01306165231756923
8.14975e-06;0.013049085937779396
8.15000e-06;0.013020431443073245
8.15025e-06;0.0129917769483669
8.15050e-06;0.012963122453660556
8.15075e-06;0.012934467958954405
8.15100e-06;0.01290581346424806
8.15125e-06;0.012877158969541714
8.15150e-06;0.012848504474835563
8.15175e-06;0.012819849980129219
8.15200e-06;0.012786068434424093
8.15225e-06;0.012750274603473282
8.15250e-06;0.012714480772522227
8.15275e-06;0.012678340715209591
8.15300e-06;0.01264206476960599
8.15325e-06;0.012605788824002142
8.15350e-06;0.012570691786962377
8.15375e-06;0.012536057452616718
8.15400e-06;0.012501423118271295
8.15425e-06;0.012473343007237873
8.15450e-06;0.012447835323682587
8.15475e-06;0.012422327640127476
8.15500e-06;0.01239681995657219
8.15525e-06;0.012371312273016905
8.15550e-06;0.012345804589461792
8.15575e-06;0.012320296905906507
8.15600e-06;0.012294789222351223
8.15625e-06;0.01226928153879611
8.15650e-06;0.01224981301203388
8.15675e-06;0.012232714757406228
8.15700e-06;0.012215616502778694
8.15725e-06;0.012198518248151042
8.15750e-06;0.01218141999352339
8.15775e-06;0.012164321738895855
8.15800e-06;0.012147223484268202
8.15825e-06;0.012130125229640552
8.15850e-06;0.012113026975013015
8.15875e-06;0.012098309646598979
8.15900e-06;0.0120845267935186
8.15925e-06;0.012070743940438312
8.15950e-06;0.012056961087357931
8.15975e-06;0.012043178234277552
8.16000e-06;0.012029395381197265
8.16025e-06;0.012015612528116884
8.16050e-06;0.012001829675036504
8.16075e-06;0.011988046821956217
8.16100e-06;0.011974263968875836
8.16125e-06;0.011960481115795457
8.16150e-06;0.01194669826271517
8.16175e-06;0.011932915409634788
8.16200e-06;0.01191913255655441
8.16225e-06;0.011905349703474028
8.16250e-06;0.011892737666637275
8.16275e-06;0.011884322055597068
8.16300e-06;0.01187590644455686
8.16325e-06;0.01186749083351671
8.16350e-06;0.011859075222476503
8.16375e-06;0.011850659611436295
8.16400e-06;0.011842244000396143
8.16425e-06;0.011833828389355936
8.16450e-06;0.011825412778315728
8.16475e-06;0.011816997167275578
8.16500e-06;0.01180858155623537
8.16525e-06;0.011800165945195163
8.16550e-06;0.011791750334155011
8.16575e-06;0.011783334723114804
8.16600e-06;0.011774919112074596
8.16625e-06;0.011766503501034446
8.16650e-06;0.011761747774766577
8.16675e-06;0.011758428494544518
8.16700e-06;0.01175510921432248
8.16725e-06;0.01175178993410042
8.16750e-06;0.011748470653878362
8.16775e-06;0.011745151373656323
8.16800e-06;0.011741832093434264
8.16825e-06;0.011738512813212205
8.16850e-06;0.011735193532990169
8.16875e-06;0.011731874252768108
8.16900e-06;0.01172855497254605
8.16925e-06;0.011725235692324013
8.16950e-06;0.011721916412101954
8.16975e-06;0.011718597131879893
8.17000e-06;0.011715277851657857
8.17025e-06;0.011711958571435798
8.17050e-06;0.011708639291213739
8.17075e-06;0.011705320010991678
8.17100e-06;0.011702000730769642
8.17125e-06;0.011698681450547583
8.17150e-06;0.011696996100141023
8.17175e-06;0.011695952040968757
8.17200e-06;0.011694907981796484
8.17225e-06;0.01169386392262421
8.17250e-06;0.011692819863451945
8.17275e-06;0.011691775804279672
8.17300e-06;0.011690731745107399
8.17325e-06;0.011689687685935132
8.17350e-06;0.01168864362676286
8.17375e-06;0.011687599567590587
8.17400e-06;0.01168655550841832
8.17425e-06;0.011685511449246047
8.17450e-06;0.011684467390073774
8.17475e-06;0.01168342333090151
8.17500e-06;0.011682379271729236
8.17525e-06;0.011681335212556963
8.17550e-06;0.011680291153384696
8.17575e-06;0.011679247094212425
8.17600e-06;0.011678203035040151
8.17625e-06;0.011677158975867885
8.17650e-06;0.011677851929840931
8.17675e-06;0.011679226633601263
8.17700e-06;0.011680601337361585
8.17725e-06;0.011681976041121917
8.17750e-06;0.011683350744882248
8.17775e-06;0.011684725448642571
8.17800e-06;0.011686100152402904
8.17825e-06;0.011687474856163236
8.17850e-06;0.011688849559923558
8.17875e-06;0.01169022426368389
8.17900e-06;0.011691598967444221
8.17925e-06;0.011692973671204554
8.17950e-06;0.011694348374964877
8.17975e-06;0.011696639284811636
8.18000e-06;0.011699289790845824
8.18025e-06;0.011701940296879995
8.18050e-06;0.011704590802914186
8.18075e-06;0.011707241308948374
8.18100e-06;0.011709891814982547
8.18125e-06;0.011712542321016735
8.18150e-06;0.011715192827050925
8.18175e-06;0.011717843333085096
8.18200e-06;0.011720493839119285
8.18225e-06;0.011723144345153475
8.18250e-06;0.011725794851187646
8.18275e-06;0.011728445357221836
8.18300e-06;0.011731095863256024
8.18325e-06;0.011733746369290197
8.18350e-06;0.011736396875324386
8.18375e-06;0.011739047381358576
8.18400e-06;0.011741697887392747
8.18425e-06;0.011744348393426935
8.18450e-06;0.011746998899461125
8.18475e-06;0.011749649405495296
8.18500e-06;0.011752299911529486
8.18525e-06;0.011754950417563675
8.18550e-06;0.011757600923597846
8.18575e-06;0.01176082468013304
8.18600e-06;0.011766103074367464
8.18625e-06;0.011771381468601853
8.18650e-06;0.011776659862836276
8.18675e-06;0.0117819382570707
8.18700e-06;0.011787216651305088
8.18725e-06;0.011792495045539511
8.18750e-06;0.011797773439773935
8.18775e-06;0.011803051834008359
8.18800e-06;0.011808330228242746
8.18825e-06;0.01181360862247717
8.18850e-06;0.011818887016711594
8.18875e-06;0.011824165410945981
8.18900e-06;0.011829443805180405
8.18925e-06;0.011834722199414829
8.18950e-06;0.011840000593649218
8.18975e-06;0.011845278987883642
8.19000e-06;0.011850557382118066
8.19025e-06;0.011855835776352453
8.19050e-06;0.011861114170586877
8.19075e-06;0.0118663925648213
8.19100e-06;0.011871670959055688
8.19125e-06;0.011876949353290112
8.19150e-06;0.011882227747524536
8.19175e-06;0.011887506141758923
8.19200e-06;0.011894026865967576
8.19225e-06;0.011901035184756879
8.19250e-06;0.011908043503546134
8.19275e-06;0.011915051822335437
8.19300e-06;0.01192206014112474
8.19325e-06;0.011929068459913997
8.19350e-06;0.0119360767787033
8.19375e-06;0.011943085097492603
8.19400e-06;0.011949428440956993
8.19425e-06;0.011955510792276485
8.19450e-06;0.011961593143595977
8.19475e-06;0.011967675494915429
8.19500e-06;0.01197375784623492
8.19525e-06;0.011979840197554412
8.19550e-06;0.011985922548873863
8.19575e-06;0.011992004900193354
8.19600e-06;0.012000815820973046
8.19625e-06;0.012010697661483782
8.19650e-06;0.012020579501994583
8.19675e-06;0.012030461342505384
8.19700e-06;0.012040343183016188
8.19725e-06;0.012050225023526921
8.19750e-06;0.012060106864037724
8.19775e-06;0.012069988704548526
8.19800e-06;0.01207987054505926
8.19825e-06;0.012089752385570062
8.19850e-06;0.012099634226080864
8.19875e-06;0.012114570772848415
8.19900e-06;0.012131491210715406
8.19925e-06;0.012148411648582397
8.19950e-06;0.012165332086449274
8.19975e-06;0.012182252524316265
8.20000e-06;0.012199172962183256
8.20025e-06;0.012216093400050133
8.20050e-06;0.012233013837917124
8.20075e-06;0.012249934275784115
8.20100e-06;0.012266854713650991
8.20125e-06;0.012283775151517982
8.20150e-06;0.012302687634868761
8.20175e-06;0.012322381964108056
