Time(s);Current(A)
1.45000e-05;0.0012185020182087763
1.45003e-05;0.0012412664075403005
1.45005e-05;0.001267110520310989
1.45008e-05;0.0012932041729261693
1.45010e-05;0.0013192978255411728
1.45013e-05;0.0013453914781563533
1.45015e-05;0.0013714851307715338
1.45018e-05;0.0013975787833865373
1.45020e-05;0.0014198701252786394
1.45023e-05;0.0014370181437606642
1.45025e-05;0.0014541661622425727
1.45028e-05;0.0014713141807245974
1.45030e-05;0.0014884621992066222
1.45033e-05;0.0015056102176885307
1.45035e-05;0.0015227582361705555
1.45038e-05;0.0015399062546525802
1.45040e-05;0.001557054273134489
1.45043e-05;0.0015742022916165137
1.45045e-05;0.0015913503100985385
1.45048e-05;0.001608498328580447
1.45050e-05;0.0016256463470624718
1.45053e-05;0.0016427943655444965
1.45055e-05;0.0016513065328232403
1.45058e-05;0.001648137125686499
1.45060e-05;0.0016449677185497577
1.45063e-05;0.0016417983114130376
1.45065e-05;0.0016386289042762963
1.45068e-05;0.001635459497139555
1.45070e-05;0.001632290090002835
1.45073e-05;0.0016291206828660937
1.45075e-05;0.0016259512757293524
1.45078e-05;0.0016227818685926325
1.45080e-05;0.001619612461455891
1.45083e-05;0.0016164430543191496
1.45085e-05;0.0016132736471824297
1.45088e-05;0.0016101042400456884
1.45090e-05;0.001602275744433408
1.45093e-05;0.0015881449761836653
1.45095e-05;0.0015740142079340184
1.45098e-05;0.0015598834396842757
1.45100e-05;0.001545752671434533
1.45103e-05;0.001531621903184886
1.45105e-05;0.0015174911349351433
1.45108e-05;0.0015033603666854006
1.45110e-05;0.0014888001014836593
1.45113e-05;0.001473658862792374
1.45115e-05;0.0014585176241010888
1.45118e-05;0.0014433763854099064
1.45120e-05;0.0014282351467186211
1.45123e-05;0.0014130939080273359
1.45125e-05;0.0013979526693361532
1.45128e-05;0.001382811430644868
1.45130e-05;0.0013709608857741175
1.45133e-05;0.0013635616085140628
1.45135e-05;0.001356162331253958
1.45138e-05;0.001348763053993853
1.45140e-05;0.0013413637767337983
1.45143e-05;0.0013339644994736935
1.45145e-05;0.0013265652222135885
1.45148e-05;0.0013191659449535338
1.45150e-05;0.001311766667693429
1.45153e-05;0.001304367390433324
1.45155e-05;0.0012969681131732693
1.45158e-05;0.0012895688359131643
1.45160e-05;0.0012821695586530595
1.45163e-05;0.0012796351352329619
1.45165e-05;0.0012836813198885315
1.45168e-05;0.0012877275045441012
1.45170e-05;0.0012917736891996435
1.45173e-05;0.0012958198738552132
1.45175e-05;0.0012998660585107828
1.45178e-05;0.0013039122431663525
1.45180e-05;0.0013079584278218948
1.45183e-05;0.0013120046124774644
1.45185e-05;0.0013160507971330343
1.45188e-05;0.0013200969817885764
1.45190e-05;0.0013241431664441463
1.45193e-05;0.001328189351099716
1.45195e-05;0.001334537412220048
1.45198e-05;0.001343999183916854
1.45200e-05;0.00135346095561366
1.45203e-05;0.0013629227273104017
1.45205e-05;0.0013723844990072077
1.45208e-05;0.0013818462707040136
1.45210e-05;0.0013913080424007556
1.45213e-05;0.0014007698140975616
1.45215e-05;0.0014102315857943675
1.45218e-05;0.0014191935350357978
1.45220e-05;0.0014274793826317942
1.45223e-05;0.0014357652302277905
1.45225e-05;0.0014440510778237308
1.45228e-05;0.001452336925419727
1.45230e-05;0.0014606227730157234
1.45233e-05;0.0014689086206116635
1.45235e-05;0.00147719446820766
1.45238e-05;0.0014854803158036562
1.45240e-05;0.0014898039594287273
1.45243e-05;0.0014887679946643953
1.45245e-05;0.0014877320299000634
1.45248e-05;0.0014866960651357384
1.45250e-05;0.0014856601003714065
1.45253e-05;0.0014846241356070745
1.45255e-05;0.0014835881708427498
1.45258e-05;0.0014825522060784178
1.45260e-05;0.001481516241314086
1.45263e-05;0.001480480276549754
1.45265e-05;0.001479444311785429
1.45268e-05;0.001478408347021097
1.45270e-05;0.0014657717975109586
1.45273e-05;0.0014521952908335056
1.45275e-05;0.0014386187841559604
1.45278e-05;0.0014250422774784153
1.45280e-05;0.0014114657708009623
1.45283e-05;0.0013978892641234172
1.45285e-05;0.001384312757445872
1.45288e-05;0.001370736250768419
1.45290e-05;0.001357159744090874
1.45293e-05;0.0013435832374133288
1.45295e-05;0.0013300067307358758
1.45298e-05;0.0013141418271756524
1.45300e-05;0.0012951814466480624
1.45303e-05;0.0012762210661206009
1.45305e-05;0.0012572606855930108
1.45308e-05;0.001238300305065421
1.45310e-05;0.0012193399245379593
1.45313e-05;0.0012003795440103694
1.45315e-05;0.0011820289787665352
1.45318e-05;0.001164503300665259
1.45320e-05;0.0011469776225638644
1.45323e-05;0.0011294519444624695
1.45325e-05;0.0011119262663611934
1.45328e-05;0.0010944005882597984
1.45330e-05;0.0010768749101584037
1.45333e-05;0.0010614901012597944
1.45335e-05;0.001049001211053353
1.45338e-05;0.0010365123208469118
1.45340e-05;0.001024023430640555
1.45343e-05;0.0010115345404341138
1.45345e-05;0.0009990456502276725
1.45348e-05;0.0009865567600212313
1.45350e-05;0.0009740678698148747
1.45353e-05;0.0009620471868913613
1.45355e-05;0.0009506598402879193
1.45358e-05;0.0009392724936845545
1.45360e-05;0.0009278851470811125
1.45363e-05;0.0009164978004776705
1.45365e-05;0.0009051104538743057
1.45368e-05;0.0008937231072708638
1.45370e-05;0.0008823357606674218
1.45373e-05;0.0008706588710492461
1.45375e-05;0.0008585903213389692
1.45378e-05;0.0008465217716286924
1.45380e-05;0.0008344532219184972
1.45383e-05;0.0008223846722082204
1.45385e-05;0.0008103161224979435
1.45388e-05;0.0007982475727877484
1.45390e-05;0.0007861790230774715
1.45393e-05;0.0007741104733671947
1.45395e-05;0.0007620419236569995
1.45398e-05;0.0007501216795146085
1.45400e-05;0.0007382134520838539
1.45403e-05;0.00072630522465318
1.45405e-05;0.0007143969972224254
1.45408e-05;0.0007024887697916709
1.45410e-05;0.0006905805423609969
1.45413e-05;0.0006786723149302423
1.45415e-05;0.0006667640874994877
1.45418e-05;0.0006548558600688139
1.45420e-05;0.000643725208441754
1.45423e-05;0.0006336463708640865
1.45425e-05;0.0006235675332864873
1.45428e-05;0.0006134886957088198
1.45430e-05;0.0006034098581311524
1.45433e-05;0.0005958544628340307
1.45435e-05;0.0005885035337526295
1.45438e-05;0.0005811526046711785
1.45440e-05;0.0005738016755897275
1.45443e-05;0.0005684364315475384
1.45445e-05;0.0005657571911233433
1.45448e-05;0.0005646685596528592
1.45450e-05;0.0005657315188526269
1.45453e-05;0.0005683016233636563
1.45455e-05;0.0005729104186433089
1.45458e-05;0.0005790764473160324
1.45460e-05;0.0005873489200850544
1.45463e-05;0.000597434732337265
1.45465e-05;0.0006099734191975328
1.45468e-05;0.0006242227581694701
1.45470e-05;0.0006407860682245323
1.45473e-05;0.0006588466024640722
1.45475e-05;0.0006789324073269737
1.45478e-05;0.000700733952693053
1.45480e-05;0.0007248563521260951
1.45483e-05;0.0007489787515593005
1.45485e-05;0.0007749881525727755
1.45488e-05;0.0008035500697062112
1.45490e-05;0.0008321119868398405
1.45493e-05;0.0008623519392472776
1.45495e-05;0.0008948617424757584
1.45498e-05;0.0009273715457044597
1.45500e-05;0.0009598813489331608
1.45503e-05;0.0009923911521616416
1.45505e-05;0.0010249009553903428
1.45508e-05;0.0010577240823121136
1.45510e-05;0.0010909710370596744
1.45513e-05;0.0011242179918074604
1.45515e-05;0.0011574649465552467
1.45518e-05;0.0011907119013030328
1.45520e-05;0.0012239588560505935
1.45523e-05;0.0012546995593804122
1.45525e-05;0.0012820500974802178
1.45528e-05;0.001309400635579838
1.45530e-05;0.0013367511736796435
1.45533e-05;0.001364101711779449
1.45535e-05;0.001391452249879069
1.45538e-05;0.0014159823098227474
1.45540e-05;0.001436697155175864
1.45543e-05;0.0014574120005288402
1.45545e-05;0.0014781268458819567
1.45548e-05;0.0014988416912350734
1.45550e-05;0.0015195565365880496
1.45553e-05;0.0015394654438569961
1.45555e-05;0.0015582841718840632
1.45558e-05;0.0015771028999110026
1.45560e-05;0.0015959216279380697
1.45563e-05;0.0016147403559651366
1.45565e-05;0.0016335590839920762
1.45568e-05;0.0016523778120191431
1.45570e-05;0.0016711965400462102
1.45573e-05;0.0016900152680731496
1.45575e-05;0.0017088339961002167
1.45578e-05;0.0017276527241272838
1.45580e-05;0.0017464714521542232
1.45583e-05;0.0017652901801812903
1.45585e-05;0.0017841089082083572
1.45588e-05;0.0018027109407339058
1.45590e-05;0.001821019852805172
1.45593e-05;0.0018393287648764383
1.45595e-05;0.0018576376769475808
1.45598e-05;0.001875946589018847
1.45600e-05;0.0018942555010901135
1.45603e-05;0.0019125644131613797
1.45605e-05;0.001930873325232522
1.45608e-05;0.0019491822373037884
1.45610e-05;0.001967491149375055
1.45613e-05;0.001985800061446197
1.45615e-05;0.0020041089735174634
1.45618e-05;0.00202241788558873
1.45620e-05;0.002040726797659872
1.45623e-05;0.0020570658088839176
1.45625e-05;0.002070740167506332
1.45628e-05;0.002084414526128654
1.45630e-05;0.002098088884751068
1.45633e-05;0.0021117632433734824
1.45635e-05;0.0021254376019958043
1.45638e-05;0.0021391119606182186
1.45640e-05;0.0021426852014560086
1.45643e-05;0.0021454399819915075
1.45645e-05;0.002148194762527025
1.45648e-05;0.0021509495430625425
1.45650e-05;0.002153704323598041
1.45653e-05;0.0021564591041335584
1.45655e-05;0.0021542484695984054
1.45658e-05;0.002145321199449255
1.45660e-05;0.002136393929300043
1.45663e-05;0.0021239437437892148
1.45665e-05;0.0021067281683873496
1.45668e-05;0.002089512592985368
1.45670e-05;0.002067224700522561
1.45673e-05;0.0020380755678750737
1.45675e-05;0.002008926435227389
1.45678e-05;0.0019797773025797046
1.45680e-05;0.0019506281699322174
1.45683e-05;0.0019214790372845327
1.45685e-05;0.0018923299046368482
1.45688e-05;0.0018581825600069903
1.45690e-05;0.0018172742159170054
1.45693e-05;0.0017763658718270205
1.45695e-05;0.0017354575277370356
1.45698e-05;0.0016945491836473279
1.45700e-05;0.001653640839557343
1.45703e-05;0.001612732495467358
1.45705e-05;0.0015704486527370932
1.45708e-05;0.0015263041955309632
1.45710e-05;0.0014821597383248332
1.45713e-05;0.0014380152811190024
1.45715e-05;0.0013938708239128724
1.45718e-05;0.0013497263667067423
1.45720e-05;0.0013100007070417211
1.45723e-05;0.0012706330879864824
1.45725e-05;0.0012312654689312437
1.45728e-05;0.001191897849876272
1.45730e-05;0.0011525302308210334
1.45733e-05;0.0011168232653221818
1.45735e-05;0.001086068005915327
1.45738e-05;0.0010553127465082635
1.45740e-05;0.0010267198556111034
1.45743e-05;0.0010010519651706047
1.45745e-05;0.000975384074729932
1.45748e-05;0.0009511069728455245
1.45750e-05;0.0009287111678555933
1.45753e-05;0.0009063153628655103
1.45755e-05;0.0008859484901188509
1.45758e-05;0.0008683261207774181
1.45760e-05;0.0008507037514358659
1.45763e-05;0.0008330813820943136
1.45765e-05;0.0008174766849468702
1.45768e-05;0.000804601259920173
1.45770e-05;0.0007917258348934757
1.45773e-05;0.0007788504098668657
1.45775e-05;0.0007659749848401684
1.45778e-05;0.0007530995598134711
1.45780e-05;0.0007402241347867738
1.45783e-05;0.0007273487097601638
1.45785e-05;0.0007144732847334666
1.45788e-05;0.0007061052898103285
1.45790e-05;0.0006981025171022331
1.45793e-05;0.0006900997443940836
1.45795e-05;0.0006820969716859341
1.45798e-05;0.0006740941989778388
1.45800e-05;0.0006660914262696893
1.45803e-05;0.0006580886535615398
1.45805e-05;0.0006500858808534446
1.45808e-05;0.0006431311814267074
1.45810e-05;0.0006375941935571304
1.45813e-05;0.000632057205687591
1.45815e-05;0.000626520217818014
1.45818e-05;0.000620983229948437
1.45820e-05;0.0006154462420788976
1.45823e-05;0.0006112480120213843
1.45825e-05;0.0006071582570999156
1.45828e-05;0.0006030685021784745
1.45830e-05;0.0005989787472570056
1.45833e-05;0.0005948889923355368
1.45835e-05;0.0005912662962098093
1.45838e-05;0.0005882753828652521
1.45840e-05;0.000586772428213231
1.45843e-05;0.0005872822109075094
1.45845e-05;0.0005901247696250342
1.45848e-05;0.0005961228362515436
1.45850e-05;0.0006042860959809109
1.45853e-05;0.0006153781769484492
1.45855e-05;0.0006284660743786534
1.45858e-05;0.0006442536800404452
1.45860e-05;0.0006625077990070315
1.45863e-05;0.0006840983301122072
1.45865e-05;0.0007084259293350059
1.45868e-05;0.0007364559157591877
1.45870e-05;0.0007668593399812577
1.45873e-05;0.0008004732746285496
1.45875e-05;0.0008360959034100146
1.45878e-05;0.00087443565983921
1.45880e-05;0.0009148204053971424
1.45883e-05;0.000957971374246509
1.45885e-05;0.0010034666649025384
1.45888e-05;0.0010521330812594991
1.45890e-05;0.0011007994976161303
1.45893e-05;0.0011517958170454371
1.45895e-05;0.0012059437581904671
1.45898e-05;0.00126009169933513
1.45900e-05;0.00131423964048016
1.45903e-05;0.0013683875816251898
1.45905e-05;0.001422535522769853
1.45908e-05;0.001477887648900338
1.45910e-05;0.0015333373461740368
1.45913e-05;0.0015887870434473598
1.45915e-05;0.0016442367407210584
1.45918e-05;0.0016996864379947572
1.45920e-05;0.0017511866721920065
1.45923e-05;0.0017973445323891334
1.45925e-05;0.0018435023925862603
1.45928e-05;0.0018896602527830742
1.45930e-05;0.001935818112980201
1.45933e-05;0.001981975973177328
1.45935e-05;0.002028133833374142
1.45938e-05;0.002065133118825742
1.45940e-05;0.0020897437502597226
1.45943e-05;0.0021143543816935367
1.45945e-05;0.0021389650131275174
1.45948e-05;0.0021635756445614984
1.45950e-05;0.002188186275995479
1.45953e-05;0.002212796907429293
1.45955e-05;0.0022296539987565617
1.45958e-05;0.002236023003403527
1.45960e-05;0.0022423920080504502
1.45963e-05;0.0022443148305334127
1.45965e-05;0.0022402233752426884
1.45968e-05;0.002236131919951992
1.45970e-05;0.002227933068765647
1.45973e-05;0.0022141782104406907
1.45975e-05;0.0022004233521158278
1.45978e-05;0.002181199010126616
1.45980e-05;0.002154576187188559
1.45983e-05;0.0021279533642506823
1.45985e-05;0.002101330541312625
1.45988e-05;0.002074707718374568
1.45990e-05;0.0020480848954366913
1.45993e-05;0.002021462072498634
1.45995e-05;0.001984648318661325
1.45998e-05;0.001947008827258248
1.46000e-05;0.0019093693358549159
1.46003e-05;0.0018717298444515837
1.46005e-05;0.0018340903530485067
1.46008e-05;0.0017964508616451745
1.46010e-05;0.0017579833777185015
1.46013e-05;0.0017183958818702333
1.46015e-05;0.0016788083860216968
1.46018e-05;0.0016392208901731603
1.46020e-05;0.001599633394324892
1.46023e-05;0.0015600458984763555
1.46025e-05;0.0015264228786299942
1.46028e-05;0.0014932831406299666
1.46030e-05;0.0014601434026297146
1.46033e-05;0.0014270036646294626
1.46035e-05;0.0013938639266292106
1.46038e-05;0.001364591870072887
1.46040e-05;0.0013405515628441232
1.46043e-05;0.0013165112556153594
1.46045e-05;0.0012948303126986624
1.46048e-05;0.001276340843235036
1.46050e-05;0.0012578513737714094
1.46053e-05;0.0012420222342009847
1.46055e-05;0.0012297916792949543
1.46058e-05;0.0012175611243889239
1.46060e-05;0.0012077898872897353
1.46063e-05;0.001201345329098918
1.46065e-05;0.0011949007709081006
1.46068e-05;0.0011905513435326457
1.46070e-05;0.001189035965288421
1.46073e-05;0.0011875205870441963
1.46075e-05;0.0011892706828819676
1.46078e-05;0.001195437932015163
1.46080e-05;0.001201605181148358
1.46083e-05;0.0012077724302815111
1.46085e-05;0.0012139396794147064
1.46088e-05;0.0012201069285479014
1.46090e-05;0.0012262741776810546
1.46093e-05;0.0012324414268142499
1.46095e-05;0.0012447491506764883
1.46098e-05;0.0012575544169822173
1.46100e-05;0.0012703596832880331
1.46103e-05;0.001283164949593849
1.46105e-05;0.001295970215899578
1.46108e-05;0.0013087754822053938
1.46110e-05;0.0013215807485112098
1.46113e-05;0.0013347703838374764
1.46115e-05;0.0013484799488411895
1.46118e-05;0.0013621895138449024
1.46120e-05;0.0013758990788486154
1.46123e-05;0.0013896086438522355
1.46125e-05;0.0014033182088559483
1.46128e-05;0.0014170277738596614
1.46130e-05;0.0014307373388632815
1.46133e-05;0.0014391568179267036
1.46135e-05;0.001447147658749169
1.46138e-05;0.0014551384995715804
1.46140e-05;0.001463129340394046
1.46143e-05;0.0014711201812165112
1.46145e-05;0.0014791110220389227
1.46148e-05;0.0014871018628613882
1.46150e-05;0.0014900161516188113
1.46153e-05;0.0014860634715612344
1.46155e-05;0.0014821107915036307
1.46158e-05;0.001478158111446027
1.46160e-05;0.0014742054313884498
1.46163e-05;0.001470252751330846
1.46165e-05;0.0014663000712732423
1.46168e-05;0.0014623473912156655
1.46170e-05;0.0014583947111580617
1.46173e-05;0.001454442031100458
1.46175e-05;0.0014393110583375774
1.46178e-05;0.0014232743453318738
1.46180e-05;0.00140723763232617
1.46183e-05;0.001391200919320575
1.46185e-05;0.0013751642063148713
1.46188e-05;0.0013591274933091677
1.46190e-05;0.0013430907803035727
1.46193e-05;0.001327054067297869
1.46195e-05;0.0013110173542921653
1.46198e-05;0.0012927207335138946
1.46200e-05;0.0012713671725125663
1.46203e-05;0.001250013611511238
1.46205e-05;0.0012286600505099097
1.46208e-05;0.001207306489508726
1.46210e-05;0.0011859529285073978
1.46213e-05;0.0011645993675060695
1.46215e-05;0.0011441667181678991
1.46218e-05;0.0011238086872686862
1.46220e-05;0.0011034506563694733
1.46223e-05;0.0010830926254703983
1.46225e-05;0.0010627345945711853
1.46228e-05;0.0010423765636719724
1.46230e-05;0.0010236940644494216
1.46233e-05;0.0010072780294777472
1.46235e-05;0.000990861994506073
1.46238e-05;0.0009764007266130678
1.46240e-05;0.0009645836401250593
1.46243e-05;0.0009527665536370508
1.46245e-05;0.0009435584512940043
1.46248e-05;0.00093787947906463
1.46250e-05;0.0009322005068352555
1.46253e-05;0.0009291813614320121
1.46255e-05;0.0009297601202044774
1.46258e-05;0.0009303388789769426
1.46260e-05;0.0009337210693780884
1.46263e-05;0.0009408954158188868
1.46265e-05;0.0009480697622596851
1.46268e-05;0.0009579507289366333
1.46270e-05;0.0009714928964685806
1.46273e-05;0.000985035064000528
1.46275e-05;0.0010009499889521694
1.46278e-05;0.001020074503996362
1.46280e-05;0.0010391990190405545
1.46283e-05;0.0010604351258874688
1.46285e-05;0.001084527548375304
1.46288e-05;0.001108619970863139
1.46290e-05;0.0011349322046682747
1.46293e-05;0.0011642471408784057
1.46295e-05;0.0011935620770887354
1.46298e-05;0.0012228770132990652
1.46300e-05;0.0012521919495091962
1.46303e-05;0.001281506885719526
1.46305e-05;0.0013108218219298555
1.46308e-05;0.0013418365637493472
1.46310e-05;0.0013729890352194923
1.46313e-05;0.0014041415066896373
1.46315e-05;0.0014352939781595714
1.46318e-05;0.0014664464496297164
1.46320e-05;0.0014975989210998615
1.46323e-05;0.0015235086511190944
1.46325e-05;0.001542326610660876
1.46328e-05;0.0015611445702026572
1.46330e-05;0.0015799625297443112
1.46333e-05;0.0015987804892860927
1.46335e-05;0.001617598448827874
1.46338e-05;0.001636416408369528
1.46340e-05;0.0016552343679113093
1.46343e-05;0.0016740523274530908
1.46345e-05;0.0016928702869947446
1.46348e-05;0.001711688246536526
1.46350e-05;0.0017305062060783073
1.46353e-05;0.0017493241656199613
1.46355e-05;0.0017681421251617428
1.46358e-05;0.0017624895354910115
1.46360e-05;0.0017555842756448914
1.46363e-05;0.0017486790157987245
1.46365e-05;0.0017417737559525576
1.46368e-05;0.0017348684961064375
1.46370e-05;0.0017279632362602708
1.46373e-05;0.0017210579764141039
1.46375e-05;0.001714152716567937
1.46378e-05;0.001707247456721817
1.46380e-05;0.00170034219687565
1.46383e-05;0.001693436937029483
1.46385e-05;0.001686531677183363
1.46388e-05;0.001679626417337196
1.46390e-05;0.0016667474759161458
1.46393e-05;0.001647333392063668
1.46395e-05;0.0016279193082110585
1.46398e-05;0.0016076465177546416
1.46400e-05;0.0015857544191506157
1.46403e-05;0.0015638623205464412
1.46405e-05;0.0015446134892174968
1.46408e-05;0.001522103344763138
1.46410e-05;0.0014964107564420914
1.46413e-05;0.0014720262087152113
1.46415e-05;0.0014515560600533335
1.46418e-05;0.001431085911391317
1.46420e-05;0.0014106157627293006
1.46423e-05;0.0013901456140674227
1.46425e-05;0.0013696754654054062
1.46428e-05;0.0013492053167433898
1.46430e-05;0.001328735168081512
1.46433e-05;0.0013082650194194954
1.46435e-05;0.0012877948707574788
1.46438e-05;0.001267324722095601
1.46440e-05;0.0012547586541758003
1.46443e-05;0.0012448207438127221
1.46445e-05;0.0012348828334497112
1.46448e-05;0.0012249449230866331
1.46450e-05;0.001215007012723555
1.46453e-05;0.0012050691023605443
1.46455e-05;0.0011951311919974662
1.46458e-05;0.001185193281634388
1.46460e-05;0.00117525537127131
1.46463e-05;0.0011653174609082993
1.46465e-05;0.0011576329751433606
1.46468e-05;0.001156692013380096
1.46470e-05;0.0011557510516168378
1.46473e-05;0.001154810089853573
1.46475e-05;0.0011538691280903084
1.46478e-05;0.0011529281663270501
