Time(s);Current(A)
3.50000e-06;-0.0013612691642948776
3.50025e-06;-0.0012980596718867219
3.50050e-06;-0.001235690342179164
3.50075e-06;-0.0011744839734467317
3.50100e-06;-0.0011146768400444238
3.50125e-06;-0.0010565112592249783
3.50150e-06;-0.0010003263752047691
3.50175e-06;-0.0009465222306000715
3.50200e-06;-0.0008955081687313906
3.50225e-06;-0.0008476935058700961
3.50250e-06;-0.000803480578720461
3.50275e-06;-0.0007631829384695657
3.50300e-06;-0.0007269194001346791
3.50325e-06;-0.0006946898255076805
3.50350e-06;-0.0006665303089807168
3.50375e-06;-0.0006425300276541466
3.50400e-06;-0.0006227889240816767
3.50425e-06;-0.000607406878499562
3.50450e-06;-0.0005964793548167054
3.50475e-06;-0.0005900462442018989
3.50500e-06;-0.0005880254269186639
3.50525e-06;-0.0005902602574532539
3.50550e-06;-0.0005966168772078295
3.50575e-06;-0.0006069945644684488
3.50600e-06;-0.0006212993844001093
3.50625e-06;-0.0006394373775083334
3.50650e-06;-0.000661311804667735
3.50675e-06;-0.0006876693040137891
3.50700e-06;-0.0007164298256864065
3.50725e-06;-0.0007484350360530046
3.50750e-06;-0.0007832569542872337
3.50775e-06;-0.0008208435913242803
3.50800e-06;-0.0008608302753112937
3.50825e-06;-0.000903119827042301
3.50850e-06;-0.0009474084937283442
3.50875e-06;-0.0009934772616788674
3.50900e-06;-0.001041091332032897
3.50925e-06;-0.001089830499297677
3.50950e-06;-0.0011395463609757163
3.50975e-06;-0.0011897518517676351
3.51000e-06;-0.0012403823886293528
3.51025e-06;-0.0012892856695222445
3.51050e-06;-0.0013366895229088046
3.51075e-06;-0.0013639585627333048
3.51100e-06;-0.001424154640065085
3.51125e-06;-0.0014628255859547034
3.51150e-06;-0.0015172850877112891
3.51175e-06;-0.0015601128110620539
3.51200e-06;-0.0016095365094135042
3.51225e-06;-0.0016396855880832725
3.51250e-06;-0.0016759081907159914
3.51275e-06;-0.0017096314658342014
3.51300e-06;-0.0017363728801650558
3.51325e-06;-0.0017643915018772372
3.51350e-06;-0.0017944113051393785
3.51375e-06;-0.001824391890678328
3.51400e-06;-0.00185169460994516
3.51425e-06;-0.001875947588564348
3.51450e-06;-0.0018984343817058042
3.51475e-06;-0.0019184624736728762
3.51500e-06;-0.0019377226546786544
3.51525e-06;-0.0019556746327318627
3.51550e-06;-0.001973408771306604
3.51575e-06;-0.001991061914038823
3.51600e-06;-0.0020069788735002253
3.51625e-06;-0.0020209465002283427
3.51650e-06;-0.0020337791235062854
3.51675e-06;-0.002045031712098755
3.51700e-06;-0.0020557881442649193
3.51725e-06;-0.002065697464060455
3.51750e-06;-0.0020753806202732927
3.51775e-06;-0.002085052055964709
3.51800e-06;-0.002093772691450062
3.51825e-06;-0.0021011697209989454
3.51850e-06;-0.002107769590934017
3.51875e-06;-0.002113259737511375
3.51900e-06;-0.002118749884088724
3.51925e-06;-0.002123958932135596
3.51950e-06;-0.0021286600585372394
3.51975e-06;-0.00213319885910462
3.52000e-06;-0.0021377376596720087
3.52025e-06;-0.0021416324058847512
3.52050e-06;-0.002144630566083082
3.52075e-06;-0.0021473674350746615
3.52100e-06;-0.0021497405614101035
3.52125e-06;-0.002152141638620893
3.52150e-06;-0.002154581626156167
3.52175e-06;-0.002157021613691445
3.52200e-06;-0.0021591778652909842
3.52225e-06;-0.002160939128998679
3.52250e-06;-0.0021622847065740775
3.52275e-06;-0.00216351286705293
3.52300e-06;-0.002164632993507185
3.52325e-06;-0.0021622295039391707
3.52350e-06;-0.002159826014371152
3.52375e-06;-0.002156090348505491
3.52400e-06;-0.002148924799182538
3.52425e-06;-0.0021417592498595727
3.52450e-06;-0.0021345937005366076
3.52475e-06;-0.0021274281512136425
3.52500e-06;-0.0021189598459779597
3.52525e-06;-0.002107137404385147
3.52550e-06;-0.0020953149627923346
3.52575e-06;-0.0020824408477390106
3.52600e-06;-0.0020668590449635484
3.52625e-06;-0.0020512772421880858
3.52650e-06;-0.0020350261670062384
3.52675e-06;-0.002017051951757018
3.52700e-06;-0.0019990777365077976
3.52725e-06;-0.0019803646532932625
3.52750e-06;-0.001959749246027575
3.52775e-06;-0.001938693370846943
3.52800e-06;-0.001916503446353511
3.52825e-06;-0.0018940682276394087
3.52850e-06;-0.0018710014629419762
3.52875e-06;-0.0018477565570619529
3.52900e-06;-0.0018240530005541673
3.52925e-06;-0.0018001070157166895
3.52950e-06;-0.001775536863553184
3.52975e-06;-0.0017508933217818235
3.53000e-06;-0.001726060827690623
3.53025e-06;-0.0017013298121962628
3.53050e-06;-0.001676860068247833
3.53075e-06;-0.0016525865075688972
3.53100e-06;-0.0016288180495191529
3.53125e-06;-0.0016052581013270895
3.53150e-06;-0.0015822349923753421
3.53175e-06;-0.0015595788803133164
3.53200e-06;-0.0015378676556232367
3.53225e-06;-0.0015166722424725342
3.53250e-06;-0.001496804861857244
3.53275e-06;-0.0014772290368062883
3.53300e-06;-0.0014582895869538267
3.53325e-06;-0.0014390559131429003
3.53350e-06;-0.0014196056528722018
3.53375e-06;-0.001399597758963433
3.53400e-06;-0.001379540271027081
3.53425e-06;-0.0013593550959857578
3.53450e-06;-0.0013391699209444
3.53475e-06;-0.001318882317436969
3.53500e-06;-0.001298330996805947
3.53525e-06;-0.0012773372053929612
3.53550e-06;-0.0012552042079919026
3.53575e-06;-0.0012330712105908439
3.53600e-06;-0.0012105928081838897
3.53625e-06;-0.0011872251098795346
3.53650e-06;-0.0011638574115751794
3.53675e-06;-0.001140489713270864
3.53700e-06;-0.001116705695440456
3.53725e-06;-0.0010918498018695263
3.53750e-06;-0.0010669939082986386
3.53775e-06;-0.0010421380147277088
3.53800e-06;-0.0010170443499001051
3.53825e-06;-0.000991338508064517
3.53850e-06;-0.0009656200546799862
3.53875e-06;-0.0009398691310110205
3.53900e-06;-0.0009140690149734472
3.53925e-06;-0.0008881422459609058
3.53950e-06;-0.0008622127087580977
3.53975e-06;-0.0008362760444431571
3.54000e-06;-0.0008104664563429175
3.54025e-06;-0.0007849840446137888
3.54050e-06;-0.0007597342097137508
3.54075e-06;-0.000735083178005406
3.54100e-06;-0.0007106866813880912
3.54125e-06;-0.0006869455227313153
3.54150e-06;-0.0006636414558828986
3.54175e-06;-0.0006414627460655068
3.54200e-06;-0.0006192840362480773
3.54225e-06;-0.0005978500021675257
3.54250e-06;-0.000578333245098991
3.54275e-06;-0.0005588164880304895
3.54300e-06;-0.0005399255970600308
3.54325e-06;-0.0005226460902438125
3.54350e-06;-0.0005053665834276235
3.54375e-06;-0.0004886759982256515
3.54400e-06;-0.0004735016781804137
3.54425e-06;-0.00045832735813517594
3.54450e-06;-0.00044380798646884324
3.54475e-06;-0.00043097487555831334
3.54500e-06;-0.0004181417646477835
3.54525e-06;-0.0004058029575241365
3.54550e-06;-0.00039473680806957265
3.54575e-06;-0.0003836706586150088
3.54600e-06;-0.0003730990761967843
3.54625e-06;-0.0003638008292220379
3.54650e-06;-0.0003545025822472915
3.54675e-06;-0.0003456452835498164
3.54700e-06;-0.00033792327092878934
3.54725e-06;-0.0003302012583077492
3.54750e-06;-0.00032296010809379944
3.54775e-06;-0.00031695700874340686
3.54800e-06;-0.0003109539093930041
3.54825e-06;-0.0003049508100426013
3.54850e-06;-0.00029894771069219854
3.54875e-06;-0.0002929446113418059
3.54900e-06;-0.00028694151199140313
3.54925e-06;-0.0002819775479457535
3.54950e-06;-0.0002773071040369491
3.54975e-06;-0.0002726366601281368
3.55000e-06;-0.0002679662162193245
3.55025e-06;-0.00026329577231052015
3.55050e-06;-0.0002586253284017078
3.55075e-06;-0.0002539743346527289
3.55100e-06;-0.0002493734181957645
3.55125e-06;-0.0002447725017388078
3.55150e-06;-0.00024017158528184335
3.55175e-06;-0.0002351162317020061
3.55200e-06;-0.00022993251519784678
3.55225e-06;-0.00022474879869367867
3.55250e-06;-0.00021929454160877173
3.55275e-06;-0.00021314373808004562
3.55300e-06;-0.00020655440029878881
3.55325e-06;-0.0001984369530106333
3.55350e-06;-0.00018890398104961503
3.55375e-06;-0.00017799959768254395
3.55400e-06;-0.00016578109389134342
3.55425e-06;-0.0001523054457105275
3.55450e-06;-0.00013761789094727769
3.55475e-06;-0.00012168537548490357
3.55500e-06;-0.00010432550893030236
3.55525e-06;-8.534507905904736e-05
3.55550e-06;-6.473032657833681e-05
3.55575e-06;-4.258344486951747e-05
3.55600e-06;-1.9014854864441054e-05
3.55625e-06;5.865214739613368e-06
3.55650e-06;3.1953901661303865e-05
3.55675e-06;5.919738926296713e-05
3.55700e-06;8.763540375525595e-05
3.55725e-06;0.0001173144336180416
3.55750e-06;0.0001481685583575803
3.55775e-06;0.00018005923886093658
3.55800e-06;0.00021284278773967872
3.55825e-06;0.0002463756351905209
3.55850e-06;0.00028051885636207614
3.55875e-06;0.0003151642627929117
3.55900e-06;0.00035026220624104746
3.55925e-06;0.00038576734761098304
3.55950e-06;0.0004215639122040158
3.55975e-06;0.00045749063801152026
3.56000e-06;0.0004933830208266319
3.56025e-06;0.0005290767229235498
3.56050e-06;0.0005644102958606416
3.56075e-06;0.000599241453009828
3.56100e-06;0.0006334647609422464
3.56125e-06;0.0006669773084636653
3.56150e-06;0.0006996322520451366
3.56175e-06;0.0007310669666637387
3.56200e-06;0.0007611836686280276
3.56225e-06;0.0007906892193250471
3.56250e-06;0.0008181763254903606
3.56275e-06;0.0008441770564074635
3.56300e-06;0.0008691429273662931
3.56325e-06;0.0008936192082986841
3.56350e-06;0.0009176940968084775
3.56375e-06;0.0009412941309913688
3.56400e-06;0.0009644197109396662
3.56425e-06;0.000986323738805245
3.56450e-06;0.0010082277666708236
3.56475e-06;0.0010297057972002653
3.56500e-06;0.0010500870350461332
3.56525e-06;0.0010703767434964728
3.56550e-06;0.001090430796080346
3.56575e-06;0.0011104848486641853
3.56600e-06;0.0011302320799288566
3.56625e-06;0.0011491893546619679
3.56650e-06;0.001168146629395047
3.56675e-06;0.0011871039041281583
3.56700e-06;0.0012058434769837564
3.56725e-06;0.0012240225443942542
3.56750e-06;0.001242201611804783
3.56775e-06;0.0012603806792153116
3.56800e-06;0.0012783266063886235
3.56825e-06;0.0012956722797932282
3.56850e-06;0.0013130179531978623
3.56875e-06;0.0013303636266024962
3.56900e-06;0.0013477093000071009
3.56925e-06;0.0013647951803877224
3.56950e-06;0.0013812121854870785
3.56975e-06;0.0013976291905864347
3.57000e-06;0.0014140461956857631
3.57025e-06;0.0014304632007851193
3.57050e-06;0.0014465464679862393
3.57075e-06;0.001461770477971318
3.57100e-06;0.0014769944879564221
3.57125e-06;0.0014922184979415264
3.57150e-06;0.0015072664754536796
3.57175e-06;0.0015217731379375246
3.57200e-06;0.0015359515445288736
3.57225e-06;0.0015497539975127214
3.57250e-06;0.0015630750441302465
3.57275e-06;0.0015754180839753927
3.57300e-06;0.0015855369811684438
3.57325e-06;0.001592120433051711
3.57350e-06;0.001594740008646659
3.57375e-06;0.001593539681052379
3.57400e-06;0.0015887034051918457
3.57425e-06;0.0015804149495768165
3.57450e-06;0.0015688220034072945
3.57475e-06;0.0015538272358144342
3.57500e-06;0.001534863905613565
3.57525e-06;0.0015113244906437232
3.57550e-06;0.0014831545634342645
3.57575e-06;0.001450658192001965
3.57600e-06;0.001414164468609062
3.57625e-06;0.0013735570251367187
3.57650e-06;0.0013293317756972408
3.57675e-06;0.0012832493474377754
3.57700e-06;0.0012323853396481337
3.57725e-06;0.0011796342565840302
3.57750e-06;0.0011220246211788854
3.57775e-06;0.0010629433181507083
3.57800e-06;0.0010000729907674285
3.57825e-06;0.0009361937068985849
3.57850e-06;0.0008697167164298974
3.57875e-06;0.000802516365289106
3.57900e-06;0.000733453615899547
3.57925e-06;0.0006638879189136873
3.57950e-06;0.000593027309501494
3.57975e-06;0.0005220973243572924
3.58000e-06;0.00045112025909186396
3.58025e-06;0.00038074673252078454
3.58050e-06;0.00031144447101643817
3.58075e-06;0.00024362096705645204
3.58100e-06;0.00017756826945493782
3.58125e-06;0.00011356837059215777
3.58150e-06;5.203925329825456e-05
3.58175e-06;-6.513116741185522e-06
3.58200e-06;-6.157665840781858e-05
3.58225e-06;-0.00011263936698055816
3.58250e-06;-0.00015926491002523233
3.58275e-06;-0.0002015436647937483
3.58300e-06;-0.0002406339813243699
3.58325e-06;-0.0002779551330278044
3.58350e-06;-0.0003139223350918201
3.58375e-06;-0.0003482521409253242
3.58400e-06;-0.0003806104466963479
3.58425e-06;-0.00041066321024371016
3.58450e-06;-0.0004378256514031871
3.58475e-06;-0.000462267935887581
3.58500e-06;-0.00048601809139910753
3.58525e-06;-0.0005079862592563373
3.58550e-06;-0.0005294766659773603
3.58575e-06;-0.0005497370065115109
3.58600e-06;-0.0005692765917291782
3.58625e-06;-0.000586960486568316
3.58650e-06;-0.0006037990249640712
3.58675e-06;-0.0006184610690868863
3.58700e-06;-0.0006326484554317902
3.58725e-06;-0.0006456137656415315
3.58750e-06;-0.0006585790758512727
3.58775e-06;-0.0006709845440138074
3.58800e-06;-0.0006819486166336826
3.58825e-06;-0.0006929126892535579
3.58850e-06;-0.0007031227882743154
3.58875e-06;-0.0007113916715709145
3.58900e-06;-0.0007196605548675135
3.58925e-06;-0.0007274652357321436
3.58950e-06;-0.0007340747592846023
3.58975e-06;-0.0007406842828370723
3.59000e-06;-0.0007472938063895422
3.59025e-06;-0.0007531796558132369
3.59050e-06;-0.0007572022999474753
3.59075e-06;-0.0007612249440817136
3.59100e-06;-0.000765247588215952
3.59125e-06;-0.0007685062145628519
3.59150e-06;-0.000769797764948308
3.59175e-06;-0.000771089315333764
3.59200e-06;-0.0007723808657192178
3.59225e-06;-0.0007736724161046738
3.59250e-06;-0.0007749639664901298
3.59275e-06;-0.0007748177053047693
3.59300e-06;-0.000770969587140501
3.59325e-06;-0.0007671214689762327
3.59350e-06;-0.0007632733508119643
3.59375e-06;-0.0007594252326477025
3.59400e-06;-0.0007555771144834342
3.59425e-06;-0.0007503830126741762
3.59450e-06;-0.000741723478362648
3.59475e-06;-0.0007330639440511051
3.59500e-06;-0.0007234756384975238
3.59525e-06;-0.0007114960750253522
3.59550e-06;-0.0006995165115532009
3.59575e-06;-0.0006866725562590391
3.59600e-06;-0.000671603097314937
3.59625e-06;-0.0006565336383708603
3.59650e-06;-0.000640694785379799
3.59675e-06;-0.0006228750144575355
3.59700e-06;-0.0006050552435353022
3.59725e-06;-0.0005866696925264609
3.59750e-06;-0.0005668274576206518
3.59775e-06;-0.0005466165567694441
3.59800e-06;-0.0005254564713167595
3.59825e-06;-0.0005040048384415285
3.59850e-06;-0.0004818025739239828
3.59875e-06;-0.0004593820538909566
3.59900e-06;-0.00043639960299035727
3.59925e-06;-0.0004132799597681912
3.59950e-06;-0.00038980709477248065
3.59975e-06;-0.00036629344782145403
3.60000e-06;-0.0003426748017389857
3.60025e-06;-0.000319113086745123
3.60050e-06;-0.0002956979491971631
3.60075e-06;-0.0002724350682176633
3.60100e-06;-0.00024956419412707745
3.60125e-06;-0.00022694574031150943
3.60150e-06;-0.0002049771795525313
3.60175e-06;-0.0001832664227914268
3.60200e-06;-0.0001624281865942146
3.60225e-06;-0.00014236386967183352
3.60250e-06;-0.0001231177287739743
3.60275e-06;-0.00010436079293755224
3.60300e-06;-8.503397547592291e-05
3.60325e-06;-6.397257967362578e-05
3.60350e-06;-4.080835505604594e-05
3.60375e-06;-1.5701066882708614e-05
3.60400e-06;1.115210636234129e-05
3.60425e-06;3.95540107512874e-05
3.60450e-06;6.934171555964573e-05
3.60475e-06;0.00010058610189990334
3.60500e-06;0.00013381533730512222
3.60525e-06;0.00016962369339614032
3.60550e-06;0.00020810652212752248
3.60575e-06;0.00024902842186558596
3.60600e-06;0.0002921305745853263
3.60625e-06;0.0003371541633856051
3.60650e-06;0.00038386187612085527
3.60675e-06;0.0004321628370598351
3.60700e-06;0.0004825362299088991
3.60725e-06;0.0005350983588941107
3.60750e-06;0.0005884338306682439
3.60775e-06;0.000644166920148734
3.60800e-06;0.0007012700135501233
3.60825e-06;0.0007594457022922826
3.60850e-06;0.0008184100792240085
3.60875e-06;0.0008779710028461763
3.60900e-06;0.0009381157968332943
3.60925e-06;0.0009988575347742135
3.60950e-06;0.0010600136306890945
3.60975e-06;0.00112127191326759
3.61000e-06;0.0011823107082612099
3.61025e-06;0.0012428086255332298
3.61050e-06;0.0013024527284999597
3.61075e-06;0.0013609874858158749
3.61100e-06;0.0014182698095712295
3.61125e-06;0.0014741728019171127
3.61150e-06;0.001528447059117169
3.61175e-06;0.0015807617912997737
3.61200e-06;0.0016307806420331325
3.61225e-06;0.0016781671710370887
3.61250e-06;0.0017226491926118051
3.61275e-06;0.0017643991828830794
3.61300e-06;0.0018044811713391336
3.61325e-06;0.0018441508179686031
3.61350e-06;0.0018837854992525313
3.61375e-06;0.001923160739566173
3.61400e-06;0.00196200906778134
3.61425e-06;0.002000062877640226
3.61450e-06;0.0020370948343418353
3.61475e-06;0.002073156086739631
3.61500e-06;0.0021088564419900965
3.61525e-06;0.0021449255105536907
3.61550e-06;0.002181542681701666
3.61575e-06;0.0022185103381744515
3.61600e-06;0.002255518684127686
3.61625e-06;0.0022922816338278433
3.61650e-06;0.0023290445835279375
3.61675e-06;0.002365671294846607
3.61700e-06;0.0024021193893152856
3.61725e-06;0.0024390107063103103
3.61750e-06;0.0024760658350324945
3.61775e-06;0.0025135804336172077
3.61800e-06;0.002551138197764795
3.61825e-06;0.002588557108998276
3.61850e-06;0.002625785731579305
3.61875e-06;0.0026625244280874144
3.61900e-06;0.002699208933201072
3.61925e-06;0.0027357539146135993
3.61950e-06;0.002772249231436922
3.61975e-06;0.002808517480572968
3.62000e-06;0.0028443806498758078
3.62025e-06;0.0028796581653289556
3.62050e-06;0.002914179148140917
3.62075e-06;0.0029478414680525426
3.62100e-06;0.002980680016459355
3.62125e-06;0.0030127591175394485
3.62150e-06;0.0030440080410389482
3.62175e-06;0.0030742632581985565
3.62200e-06;0.0031033548400774885
3.62225e-06;0.0031311125500462006
3.62250e-06;0.003157313309911514
3.62275e-06;0.003181377326903835
3.62300e-06;0.0032020546189488425
3.62325e-06;0.0032180735939458167
3.62350e-06;0.0032290085663505145
3.62375e-06;0.003234970788299866
3.62400e-06;0.0032354698700124375
3.62425e-06;0.0032309266456628234
3.62450e-06;0.0032237751999196888
3.62475e-06;0.0032099085052755836
3.62500e-06;0.003192145002117775
3.62525e-06;0.0031643485933353726
3.62550e-06;0.0031365521845529696
3.62575e-06;0.003105060220113754
3.62600e-06;0.0030640535050768945
3.62625e-06;0.0030205323614445594
3.62650e-06;0.002970537452240017
3.62675e-06;0.0029181520316612516
3.62700e-06;0.0028596118885886464
3.62725e-06;0.002798734318260096
3.62750e-06;0.0027318386982940063
3.62775e-06;0.0026630842874448353
3.62800e-06;0.0025895441465701515
3.62825e-06;0.0025149411183513154
3.62850e-06;0.0024370563599794208
3.62875e-06;0.0023572882686770102
3.62900e-06;0.0022758449159538375
3.62925e-06;0.002192928986132824
3.62950e-06;0.002108951026438578
3.62975e-06;0.002024453491907338
3.63000e-06;0.0019399879209049402
3.63025e-06;0.0018561061594859652
3.63050e-06;0.001773351343744469
3.63075e-06;0.0016922118057637978
3.63100e-06;0.0016130728949324963
3.63125e-06;0.0015363164003094588
3.63150e-06;0.001462454213743238
3.63175e-06;0.001392081071207166
3.63200e-06;0.001325797293949067
3.63225e-06;0.0012642031193680593
3.63250e-06;0.001207897645020564
3.63275e-06;0.0011574567119968166
3.63300e-06;0.0011133508535813778
3.63325e-06;0.0010758653964661978
3.63350e-06;0.0010451441372373595
3.63375e-06;0.0010212894798206024
3.63400e-06;0.0010044028219612997
3.63425e-06;0.000994585561404786
3.63450e-06;0.0009919383794235932
3.63475e-06;0.0009965472486831574
3.63500e-06;0.0010084320639925008
3.63525e-06;0.001027497057273168
3.63550e-06;0.0010535573697980978
3.63575e-06;0.0010864025975233008
3.63600e-06;0.0011258214604921437
3.63625e-06;0.001171602883873616
3.63650e-06;0.0012235350666401144
3.63675e-06;0.0012813972226820393
3.63700e-06;0.001344927245326998
3.63725e-06;0.0014137903832747956
3.63750e-06;0.0014875963295254144
3.63775e-06;0.0015659385153555
3.63800e-06;0.001648410050501046
3.63825e-06;0.001734604165975005
3.63850e-06;0.001824113627129173
3.63875e-06;0.0019165257183445575
3.63900e-06;0.002011401612016117
3.63925e-06;0.002108257245525924
3.63950e-06;0.002206573586893926
3.63975e-06;0.0023058217474609456
3.64000e-06;0.0024054724380399035
3.64025e-06;0.0025049963971487932
3.64050e-06;0.0026038644755923862
3.64075e-06;0.0027015435869704764
3.64100e-06;0.0027974848916585003
3.64125e-06;0.0028911109949774564
3.64150e-06;0.00298182271432923
3.64175e-06;0.0030690142520837806
3.64200e-06;0.0031520802859964533
3.64225e-06;0.0032304152512682904
3.64250e-06;0.00330340721942708
3.64275e-06;0.003370414556919111
3.64300e-06;0.0034308014084044832
3.64325e-06;0.003484107280580799
3.64350e-06;0.003530131684627047
3.64375e-06;0.0035687914513830147
3.64400e-06;0.0036000096718784604
3.64425e-06;0.003622638013864904
3.64450e-06;0.003637051394860309
3.64475e-06;0.003646041446131064
3.64500e-06;0.003641068338803041
