Time(s);Current(A)
1.37500e-05;-0.001697583491618319
1.37503e-05;-0.001739666090194498
1.37505e-05;-0.0017810077537140762
1.37508e-05;-0.0018217767804131913
1.37510e-05;-0.0018625458071125825
1.37513e-05;-0.0019033148338119738
1.37515e-05;-0.001944083860511089
1.37518e-05;-0.0019843849792289194
1.37520e-05;-0.0020178499393055114
1.37523e-05;-0.002051314899381877
1.37525e-05;-0.002084779859458469
1.37528e-05;-0.0021182448195350614
1.37530e-05;-0.0021517097796114265
1.37533e-05;-0.0021776166229087513
1.37535e-05;-0.0021976821229992708
1.37538e-05;-0.0022177476230896545
1.37540e-05;-0.002237813123180174
1.37543e-05;-0.0022578786232706934
1.37545e-05;-0.002277944123361077
1.37548e-05;-0.002298009623451597
1.37550e-05;-0.0023180751235421164
1.37553e-05;-0.0023381406236325
1.37555e-05;-0.0023582061237230195
1.37558e-05;-0.0023775557512135865
1.37560e-05;-0.002386446444777317
1.37563e-05;-0.0023953371383411072
1.37565e-05;-0.002404227831904898
1.37568e-05;-0.0024131185254686284
1.37570e-05;-0.0024220092190324186
1.37573e-05;-0.0024308999125962094
1.37575e-05;-0.00243979060616
1.37578e-05;-0.00244868129972373
1.37580e-05;-0.002457571993287521
1.37583e-05;-0.002466462686851311
1.37585e-05;-0.00247205493088605
1.37588e-05;-0.002475097945223085
1.37590e-05;-0.00247814095956012
1.37593e-05;-0.002481183973897134
1.37595e-05;-0.0024842269882341685
1.37598e-05;-0.0024872700025712034
1.37600e-05;-0.0024903130169082175
1.37603e-05;-0.0024933560312452524
1.37605e-05;-0.0024962417772566615
1.37608e-05;-0.002496829825287006
1.37610e-05;-0.0024974178733173542
1.37613e-05;-0.0024980059213477027
1.37615e-05;-0.0024985939693780474
1.37618e-05;-0.0024991820174083954
1.37620e-05;-0.002499770065438744
1.37623e-05;-0.0025003581134690886
1.37625e-05;-0.0025009461614994366
1.37628e-05;-0.0025012908343277408
1.37630e-05;-0.0025014474129355976
1.37633e-05;-0.0025009668403863992
1.37635e-05;-0.0024999938411265662
1.37638e-05;-0.0024954267130993225
1.37640e-05;-0.002488081837614601
1.37643e-05;-0.0024807369621298796
1.37645e-05;-0.002468823790115402
1.37648e-05;-0.002453379978301412
1.37650e-05;-0.002437936166487422
1.37653e-05;-0.002418000011096985
1.37655e-05;-0.002394591916675956
1.37658e-05;-0.0023711838222549267
1.37660e-05;-0.002342074309551485
1.37663e-05;-0.0023085584160079525
1.37665e-05;-0.0022750425224641923
1.37668e-05;-0.0022368177647061455
1.37670e-05;-0.0021949537284344594
1.37673e-05;-0.00215308969216249
1.37675e-05;-0.002106942434652676
1.37678e-05;-0.0020574848597689145
1.37680e-05;-0.002008027284884818
1.37683e-05;-0.0019552753984025143
1.37685e-05;-0.0018999774802508252
1.37688e-05;-0.0018428927415140401
1.37690e-05;-0.0017844270460397433
1.37693e-05;-0.0017247874834465753
1.37695e-05;-0.0016642406894716393
1.37698e-05;-0.0016027524509807782
1.37700e-05;-0.001540536610537231
1.37703e-05;-0.0014780242252488828
1.37705e-05;-0.0014152826532115436
1.37708e-05;-0.0013528479354832585
1.37710e-05;-0.0012911372810182988
1.37713e-05;-0.0012304741688790712
1.37715e-05;-0.0011711182011932527
1.37718e-05;-0.0011132675414144517
1.37720e-05;-0.001057839056333545
1.37723e-05;-0.001003747375538957
1.37725e-05;-0.000952715652082122
1.37728e-05;-0.0009040488379728115
1.37730e-05;-0.0008593262475904056
1.37733e-05;-0.0008176519779942908
1.37735e-05;-0.0007792837795707759
1.37738e-05;-0.0007456582776696292
1.37740e-05;-0.0007159211811003915
1.37743e-05;-0.000690137459608061
1.37745e-05;-0.0006684088870129577
1.37748e-05;-0.00065083765059278
1.37750e-05;-0.0006375259301671173
1.37753e-05;-0.0006285498766916386
1.37755e-05;-0.0006238843817373341
1.37758e-05;-0.0006233852033846356
1.37760e-05;-0.0006268927087914157
1.37763e-05;-0.0006342984803056407
1.37765e-05;-0.0006455171974101306
1.37768e-05;-0.0006604637530468582
1.37770e-05;-0.0006790529894077182
1.37773e-05;-0.0007021107572985113
1.37775e-05;-0.000727407282862556
1.37778e-05;-0.0007561204600944985
1.37780e-05;-0.0007874742203723509
1.37783e-05;-0.0008217416683600441
1.37785e-05;-0.0008582609801939233
1.37788e-05;-0.0008977531278265521
1.37790e-05;-0.0009395428523180887
1.37793e-05;-0.0009813325768093422
1.37795e-05;-0.0010255877078954652
1.37798e-05;-0.0010717482456449941
1.37800e-05;-0.0011179087833942103
1.37803e-05;-0.0011650719001259123
1.37805e-05;-0.0012130098670090949
1.37808e-05;-0.0012609478338919526
1.37810e-05;-0.0013084700076054308
1.37813e-05;-0.0013556708326708051
1.37815e-05;-0.0014028716577358597
1.37818e-05;-0.0014480612398452967
1.37820e-05;-0.0014916964188235412
1.37823e-05;-0.00153533159780149
1.37825e-05;-0.0015752945499909574
1.37828e-05;-0.0016124193961215669
1.37830e-05;-0.0016495442422521764
1.37833e-05;-0.0016820825368789004
1.37835e-05;-0.0017110760832207566
1.37838e-05;-0.001740069629562613
1.37840e-05;-0.001765377575267054
1.37843e-05;-0.00178783707884073
1.37845e-05;-0.0018102965824144058
1.37848e-05;-0.0018286354741139576
1.37850e-05;-0.001843789722217457
1.37853e-05;-0.0018589439703209565
1.37855e-05;-0.0018672091323509398
1.37858e-05;-0.0018701500162109366
1.37860e-05;-0.0018730909000709334
1.37863e-05;-0.00187603178393091
1.37865e-05;-0.0018789726677909068
1.37868e-05;-0.0018819135516509036
1.37870e-05;-0.0018848544355108802
1.37873e-05;-0.001887795319370877
1.37875e-05;-0.0018898838608140329
1.37878e-05;-0.001879519637542478
1.37880e-05;-0.0018691554142708532
1.37883e-05;-0.0018587911909992284
1.37885e-05;-0.0018484269677276738
1.37888e-05;-0.0018380627444560488
1.37890e-05;-0.001827698521184424
1.37893e-05;-0.0018173342979128694
1.37895e-05;-0.0018069700746412445
1.37898e-05;-0.0017934334256568898
1.37900e-05;-0.001777444945357287
1.37903e-05;-0.0017614564650575758
1.37905e-05;-0.0017454679847578646
1.37908e-05;-0.0017294795044582618
1.37910e-05;-0.0017134910241585505
1.37913e-05;-0.001697559555232981
1.37915e-05;-0.0016824610252935128
1.37918e-05;-0.0016673624953541472
1.37920e-05;-0.0016522639654146791
1.37923e-05;-0.001637165435475211
1.37925e-05;-0.0016220669055358452
1.37928e-05;-0.0016069683755963772
1.37930e-05;-0.0015945218224759795
1.37933e-05;-0.0015841248681176417
1.37935e-05;-0.0015737279137592332
1.37938e-05;-0.001563330959400825
1.37940e-05;-0.001552934005042487
1.37943e-05;-0.0015425370506840788
1.37945e-05;-0.0015321400963256705
1.37948e-05;-0.0015217431419673325
1.37950e-05;-0.0015113461876089243
1.37953e-05;-0.0015010643395717306
1.37955e-05;-0.0014924642005616797
1.37958e-05;-0.0014838640615515702
1.37960e-05;-0.0014752639225414609
1.37963e-05;-0.0014666637835314097
1.37965e-05;-0.0014580636445213004
1.37968e-05;-0.0014494635055111909
1.37970e-05;-0.0014408633665011397
1.37973e-05;-0.0014322632274910304
1.37975e-05;-0.0014236630884809209
1.37978e-05;-0.001415328436665289
1.37980e-05;-0.001407198968477599
1.37983e-05;-0.0013990695002899093
1.37985e-05;-0.0013909400321022746
1.37988e-05;-0.001382810563914585
1.37990e-05;-0.0013746810957268952
1.37993e-05;-0.0013665516275392603
1.37995e-05;-0.0013584221593515705
1.37998e-05;-0.0013502926911638808
1.38000e-05;-0.001342163222976191
1.38003e-05;-0.0013347795952779662
1.38005e-05;-0.0013279723955986512
1.38008e-05;-0.001321165195919336
1.38010e-05;-0.0013143579962400672
1.38013e-05;-0.001307550796560752
1.38015e-05;-0.001300743596881437
1.38018e-05;-0.001293936397202168
1.38020e-05;-0.0012871291975228528
1.38023e-05;-0.0012803219978435377
1.38025e-05;-0.0012735147981642687
1.38028e-05;-0.0012676015275334092
1.38030e-05;-0.001262379136196253
1.38033e-05;-0.0012570200295434239
1.38035e-05;-0.001251555261506224
1.38038e-05;-0.001243723190949045
1.38040e-05;-0.0012340615341447276
1.38043e-05;-0.0012209436896442089
1.38045e-05;-0.0012051547064010019
1.38048e-05;-0.0011893657231579016
1.38050e-05;-0.0011699971013091261
1.38053e-05;-0.0011478619308220599
1.38055e-05;-0.0011257267603351439
1.38058e-05;-0.0010995374203929221
1.38060e-05;-0.0010702147873388147
1.38063e-05;-0.0010375128498015752
1.38065e-05;-0.0010021991932479492
1.38068e-05;-0.0009641179216176155
1.38070e-05;-0.0009238976793913917
1.38073e-05;-0.0008812782541043418
1.38075e-05;-0.0008368046034719157
1.38078e-05;-0.0007896303985297957
1.38080e-05;-0.000740369051371915
1.38083e-05;-0.0006887980723119072
1.38085e-05;-0.0006354420781435998
1.38088e-05;-0.0005805124132061165
1.38090e-05;-0.000524366525849865
1.38093e-05;-0.0004672304620599897
1.38095e-05;-0.000409329133514387
1.38098e-05;-0.00035060153752488043
1.38100e-05;-0.0002912353549843371
1.38103e-05;-0.00023164041478985413
1.38105e-05;-0.00017186867764785378
1.38108e-05;-0.00011243382030812824
1.38110e-05;-5.375518060426671e-05
1.38113e-05;3.8705395407761265e-06
1.38115e-05;6.020847142175172e-05
1.38118e-05;0.0001150919780651033
1.38120e-05;0.00016828447320944175
1.38123e-05;0.000219441198197727
1.38125e-05;0.00026818042629228177
1.38128e-05;0.0003141200861363937
1.38130e-05;0.00035687816458000575
1.38133e-05;0.0003960361638983003
1.38135e-05;0.00043108415005607
1.38138e-05;0.0004615225596786543
1.38140e-05;0.00048705993065427524
1.38143e-05;0.0005076076577979345
1.38145e-05;0.0005231375976585985
1.38148e-05;0.0005336222985933127
1.38150e-05;0.000539034329878519
1.38153e-05;0.0005393234062372456
1.38155e-05;0.0005343819956489846
1.38158e-05;0.000524109014064887
1.38160e-05;0.0005085338653223867
1.38163e-05;0.00048781295434938425
1.38165e-05;0.0004621405835007329
1.38168e-05;0.0004317114208407096
1.38170e-05;0.0003967201657655505
1.38173e-05;0.0003573472332232451
1.38175e-05;0.0003137371606196533
1.38178e-05;0.00026603852355093873
1.38180e-05;0.00021448156148841504
1.38183e-05;0.00015937611867969294
1.38185e-05;0.00010105574664483538
1.38188e-05;3.985421408045817e-05
1.38190e-05;-2.3894721811717973e-05
1.38193e-05;-8.986629532436548e-05
1.38195e-05;-0.00015775821248573748
1.38198e-05;-0.0002275733474703612
1.38200e-05;-0.00029827048794283664
1.38203e-05;-0.000369715328602254
1.38205e-05;-0.00044173803456203103
1.38208e-05;-0.0005137607405218081
1.38210e-05;-0.0005847932235346402
1.38213e-05;-0.0006550604058438207
1.38215e-05;-0.0007253275881530012
1.38218e-05;-0.0007932263023818473
1.38220e-05;-0.0008592945295518825
1.38223e-05;-0.0009222788479393159
1.38225e-05;-0.0009828797459346603
1.38228e-05;-0.0010393252239363547
1.38230e-05;-0.0010925591566400882
1.38233e-05;-0.0011409998451227682
1.38235e-05;-0.0011857360414097445
1.38238e-05;-0.0012264858568003898
1.38240e-05;-0.001264154769937302
1.38243e-05;-0.0012979086804433804
1.38245e-05;-0.0013286368538855653
1.38248e-05;-0.00135501157697185
1.38250e-05;-0.0013780217056152137
1.38253e-05;-0.0013965108058598564
1.38255e-05;-0.0014115057978029949
1.38258e-05;-0.0014227169208738469
1.38260e-05;-0.0014310036545198209
1.38263e-05;-0.0014348972321452423
1.38265e-05;-0.0014353955285277666
1.38268e-05;-0.0014358938249102943
1.38270e-05;-0.0014311476464874452
1.38273e-05;-0.001422348239166747
1.38275e-05;-0.0014135488318459894
1.38278e-05;-0.001400586020715829
1.38280e-05;-0.00138440549394032
1.38283e-05;-0.0013682249671647018
1.38285e-05;-0.0013487101932996646
1.38288e-05;-0.0013266185233380041
1.38290e-05;-0.001304526853376194
1.38293e-05;-0.0012797927867408887
1.38295e-05;-0.0012530165254238368
1.38298e-05;-0.0012262402641066035
1.38300e-05;-0.0011981226780144775
1.38303e-05;-0.0011689684397235903
1.38305e-05;-0.0011398142014325055
1.38308e-05;-0.0011102180351517867
1.38310e-05;-0.0010802803217450096
1.38313e-05;-0.0010503426083380296
1.38315e-05;-0.0010210778337182284
1.38318e-05;-0.0009923331445295255
1.38320e-05;-0.0009635884553406279
1.38323e-05;-0.0009367996531932739
1.38325e-05;-0.0009115224719753773
1.38328e-05;-0.0008862452907573095
1.38330e-05;-0.0008636391034844177
1.38333e-05;-0.0008430972124945678
1.38335e-05;-0.0008225553215045788
1.38338e-05;-0.0008027179434040235
1.38340e-05;-0.0007834250529994927
1.38343e-05;-0.0007641321625948312
1.38345e-05;-0.0007453763095143678
1.38348e-05;-0.0007270355094721883
1.38350e-05;-0.0007086947094301331
1.38353e-05;-0.0006903539093879536
1.38355e-05;-0.0006720131093457741
1.38358e-05;-0.000653649220213617
1.38360e-05;-0.0006349479983350613
1.38363e-05;-0.0006162467764565056
1.38365e-05;-0.0005975455545780767
1.38368e-05;-0.0005788443326995209
1.38370e-05;-0.0005601431108209653
1.38373e-05;-0.0005409809308510743
1.38375e-05;-0.000521462496207902
1.38378e-05;-0.0005019440615647297
1.38380e-05;-0.00048242562692168967
1.38383e-05;-0.00046290719227851736
1.38385e-05;-0.00044338875763534505
1.38388e-05;-0.000423850107991394
1.38390e-05;-0.0004040161161858727
1.38393e-05;-0.00038418212438035134
1.38395e-05;-0.0003643481325749644
1.38398e-05;-0.00034451414076944306
1.38400e-05;-0.00032468014896392175
1.38403e-05;-0.0003048461571585348
1.38405e-05;-0.0002854964738192131
1.38408e-05;-0.00026652109165291934
1.38410e-05;-0.0002475457094867542
1.38413e-05;-0.00022930139091071765
1.38415e-05;-0.0002116220799248768
1.38418e-05;-0.00019454646358580755
1.38420e-05;-0.00017793741686118262
1.38423e-05;-0.00016187416433673262
1.38425e-05;-0.00014668564318731902
1.38428e-05;-0.00013236693138675434
1.38430e-05;-0.00011903656473250885
1.38433e-05;-0.00010681720045658978
1.38435e-05;-9.58365755056475e-05
1.38438e-05;-8.620302798932039e-05
1.38440e-05;-7.797784089767356e-05
1.38443e-05;-7.118596365234998e-05
1.38445e-05;-6.58426263334542e-05
1.38448e-05;-6.19629558445192e-05
1.38450e-05;-5.956206183139644e-05
1.38453e-05;-5.8657636808330925e-05
1.38455e-05;-5.927055307937852e-05
1.38458e-05;-6.1409521295397e-05
1.38460e-05;-6.505378298033919e-05
1.38463e-05;-7.015980926262747e-05
1.38465e-05;-7.66779927599254e-05
1.38468e-05;-8.455866088489457e-05
1.38470e-05;-9.375213115926642e-05
1.38473e-05;-0.00010421034763025156
1.38475e-05;-0.00011588723869406798
1.38478e-05;-0.00012872911285999263
1.38480e-05;-0.00014266383959553433
1.38483e-05;-0.00015760501148047397
1.38485e-05;-0.0001736842962940977
1.38488e-05;-0.0001903173391268215
1.38490e-05;-0.00020773654837765536
1.38493e-05;-0.000225763351823192
1.38495e-05;-0.0002445813405278655
1.38498e-05;-0.0002640108022738247
1.38500e-05;-0.0002834402640197839
1.38503e-05;-0.00030286972576561144
1.38505e-05;-0.0003223062700634318
1.38508e-05;-0.00034184629079377825
1.38510e-05;-0.00036138631152399226
1.38513e-05;-0.0003809263322543387
1.38515e-05;-0.00040046635298468514
1.38518e-05;-0.0004190706913369409
1.38520e-05;-0.0004369518810426237
1.38523e-05;-0.0004548330707484277
1.38525e-05;-0.00047152436277594787
1.38528e-05;-0.0004872960340905648
1.38530e-05;-0.0005017453442445791
1.38533e-05;-0.0005151726583602673
1.38535e-05;-0.0005265894135361347
1.38538e-05;-0.0005364522942242954
1.38540e-05;-0.0005437433904089589
1.38543e-05;-0.0005490468650177497
1.38545e-05;-0.0005517886347584821
1.38548e-05;-0.000552550573039842
1.38550e-05;-0.0005507899758506856
1.38553e-05;-0.0005470798195440486
1.38555e-05;-0.0005406564026783843
1.38558e-05;-0.0005321360234815607
1.38560e-05;-0.0005207911958254957
1.38563e-05;-0.0005072634734947318
1.38565e-05;-0.0004911580239439031
1.38568e-05;-0.0004730603599471619
1.38570e-05;-0.0004526498628624523
1.38573e-05;-0.00043045187660813416
1.38575e-05;-0.00040606191439271713
1.38578e-05;-0.00037997786828034366
1.38580e-05;-0.0003518725761883038
1.38583e-05;-0.00032220515005477546
1.38585e-05;-0.0002909113238553378
1.38588e-05;-0.0002583605230310205
1.38590e-05;-0.0002245895199566291
1.38593e-05;-0.0001898754750699879
1.38595e-05;-0.0001542571563763672
1.38598e-05;-0.00011793996336880488
1.38600e-05;-8.106562425905893e-05
1.38603e-05;-4.376069090154076e-05
1.38605e-05;-6.341207931492058e-06
1.38608e-05;3.1077074060694833e-05
1.38610e-05;6.821169227677688e-05
1.38613e-05;0.00010484939418634173
1.38615e-05;0.00014079998677255003
1.38618e-05;0.00017588542146578878
1.38620e-05;0.00020990291907195215
1.38623e-05;0.00024261817251346754
1.38625e-05;0.0002737866219392544
1.38628e-05;0.0003031636059983849
1.38630e-05;0.0003305045207977309
1.38633e-05;0.00035538294658723357
1.38635e-05;0.00037908012935602883
1.38638e-05;0.0004023079442159838
1.38640e-05;0.0004251730048164359
1.38643e-05;0.0004474372208300136
1.38645e-05;0.00046923706991759294
1.38648e-05;0.0004910369190051723
1.38650e-05;0.000512836768092604
1.38653e-05;0.0005345657643167237
1.38655e-05;0.0005552595967042506
1.38658e-05;0.0005759534290916371
1.38660e-05;0.000596647261479164
1.38663e-05;0.0006173410938666909
1.38665e-05;0.0006383504298711413
1.38668e-05;0.0006596036050449558
1.38670e-05;0.0006808567802187703
1.38673e-05;0.0007021099553924407
1.38675e-05;0.0007233631305662552
1.38678e-05;0.0007446163057400697
1.38680e-05;0.000765889435468183
1.38683e-05;0.0007874541022231073
1.38685e-05;0.0008090187689780316
1.38688e-05;0.000830583435732956
1.38690e-05;0.0008521481024877342
1.38693e-05;0.0008737127692426585
1.38695e-05;0.0008952774359975829
1.38698e-05;0.000916615223822516
1.38700e-05;0.0009377776666855036
1.38703e-05;0.0009589401095484911
1.38705e-05;0.0009796166176748973
1.38708e-05;0.000999917567753812
1.38710e-05;0.0010202185178327264
1.38713e-05;0.0010396921935995082
1.38715e-05;0.0010585265046489398
1.38718e-05;0.0010767012398158339
1.38720e-05;0.001094366217165055
1.38723e-05;0.0011101355664018106
1.38725e-05;0.0011244398662406516
1.38728e-05;0.0011387441660793956
1.38730e-05;0.0011530484659182366
1.38733e-05;0.0011673527657570775
1.38735e-05;0.0011816570655958215
1.38738e-05;0.0011945959414670817
1.38740e-05;0.0012064795399089607
1.38743e-05;0.001218363138350759
1.38745e-05;0.0012302467367926381
1.38748e-05;0.0012421303352345172
1.38750e-05;0.0012540139336763155
1.38753e-05;0.0012658728309920923
1.38755e-05;0.0012777126378704106
1.38758e-05;0.001289552444748649
1.38760e-05;0.0013013922516269673
1.38763e-05;0.0013132320585052856
1.38765e-05;0.0013250718653835237
1.38768e-05;0.0013374752672511427
1.38770e-05;0.001350314247434148
1.38773e-05;0.0013631532276171534
1.38775e-05;0.0013759922078000718
1.38778e-05;0.0013888311879830771
1.38780e-05;0.0014016701681660824
1.38783e-05;0.0014149416682806522
1.38785e-05;0.0014285474444388983
1.38788e-05;0.0014421532205971446
1.38790e-05;0.0014557589967552984
1.38793e-05;0.0014693647729135445
1.38795e-05;0.0014829563699189853
1.38798e-05;0.0014963408088007146
1.38800e-05;0.0015097252476825344
1.38803e-05;0.0015231096865643543
1.38805e-05;0.0015364941254460837
1.38808e-05;0.0015498785643279034
1.38810e-05;0.001562792415267984
1.38813e-05;0.0015753425690374517
1.38815e-05;0.001587466620173611
1.38818e-05;0.0015992613549198288
1.38820e-05;0.0016107288134254356
1.38823e-05;0.001621669903576534
1.38825e-05;0.0016320790269212565
1.38828e-05;0.001641872415177768
1.38830e-05;0.0016509660523183881
1.38833e-05;0.0016589941969274002
1.38835e-05;0.0016646856469997428
1.38838e-05;0.0016661555131400265
1.38840e-05;0.0016622311079589212
1.38843e-05;0.0016527961677725628
1.38845e-05;0.001638092850990916
1.38848e-05;0.0016183670476928287
1.38850e-05;0.0015938646568691155
1.38853e-05;0.0015646550093140101
1.38855e-05;0.0015284101221941806
1.38858e-05;0.0014883238448992766
1.38860e-05;0.0014409919842065697
1.38863e-05;0.00138806032388596
1.38865e-05;0.0013287550507126125
1.38868e-05;0.001264523886425272
1.38870e-05;0.0011948849484870294
1.38873e-05;0.0011210665749931791
1.38875e-05;0.0010419187994772483
1.38878e-05;0.000958652158463924
1.38880e-05;0.0008701413655041131
1.38883e-05;0.0007775775931635039
1.38885e-05;0.0006818314303926376
1.38888e-05;0.0005819418448951503
1.38890e-05;0.00047939524073061516
1.38893e-05;0.00037470429738953374
1.38895e-05;0.00026815911332502365
1.38898e-05;0.00015989895445694404
1.38900e-05;5.0238181183659183e-05
1.38903e-05;-6.021403863755713e-05
1.38905e-05;-0.00017087385971219457
1.38908e-05;-0.0002806455465096085
1.38910e-05;-0.00038973082125345605
1.38913e-05;-0.0004965723921356955
1.38915e-05;-0.0006016799008518689
1.38918e-05;-0.0007045162657876311
1.38920e-05;-0.0008036814098764763
1.38923e-05;-0.000899048170800417
1.38925e-05;-0.0009899038122140687
1.38928e-05;-0.0010755351484803832
1.38930e-05;-0.0011552291506697738
1.38933e-05;-0.001228343021973733
1.38935e-05;-0.0012945114944728931
1.38938e-05;-0.00135370015436984
