Time(s);Current(A)
8.25000e-06;-0.0011041457277920078
8.25025e-06;-0.0011181625205910436
8.25050e-06;-0.0011321793133899844
8.25075e-06;-0.0011466361786717533
8.25100e-06;-0.0011611514230737447
8.25125e-06;-0.0011756666674756378
8.25150e-06;-0.0011901819118776292
8.25175e-06;-0.0012046971562796206
8.25200e-06;-0.0012192124006815135
8.25225e-06;-0.0012337276450835048
8.25250e-06;-0.0012482428894854962
8.25275e-06;-0.0012627581338873891
8.25300e-06;-0.0012753770067779992
8.25325e-06;-0.0012877443108820692
8.25350e-06;-0.0013001116149860552
8.25375e-06;-0.0013109120966026029
8.25400e-06;-0.0013215047267356357
8.25425e-06;-0.001329659194291353
8.25450e-06;-0.0013374902201600336
8.25475e-06;-0.0013395376760773228
8.25500e-06;-0.0013408178953714493
8.25525e-06;-0.0013355098236156797
8.25550e-06;-0.001329327762573022
8.25575e-06;-0.0013170392975576303
8.25600e-06;-0.0013039407694145674
8.25625e-06;-0.0012847273578951233
8.25650e-06;-0.0012647027583876723
8.25675e-06;-0.0012371662295200124
8.25700e-06;-0.0012086331833861962
8.25725e-06;-0.0011727826688816751
8.25750e-06;-0.0011359614339106396
8.25775e-06;-0.0010928232488052968
8.25800e-06;-0.0010488470699468676
8.25825e-06;-0.000999247170743231
8.25850e-06;-0.0009489012402395496
8.25875e-06;-0.0008927548837579991
8.25900e-06;-0.0008358390545674005
8.25925e-06;-0.0007739432973268447
8.25950e-06;-0.0007113869129627017
8.25975e-06;-0.0006459235577823608
8.26000e-06;-0.0005785787515786628
8.26025e-06;-0.0005098129373465473
8.26050e-06;-0.0004397810745124243
8.26075e-06;-0.0003685908998030834
8.26100e-06;-0.0002965242355902358
8.26125e-06;-0.00022399715027972874
8.26150e-06;-0.0001514423222504393
8.26175e-06;-7.929265983765316e-05
8.26200e-06;-7.981016577656515e-06
8.26225e-06;6.20963918241222e-05
8.26250e-06;0.00013064492792432735
8.26275e-06;0.00019739963188939493
8.26300e-06;0.00026198650627931266
8.26325e-06;0.00032394744543476546
8.26350e-06;0.00038281400026689814
8.26375e-06;0.0004381176727829941
8.26400e-06;0.0004893899272334486
8.26425e-06;0.0005365220047164255
8.26450e-06;0.000579770363927681
8.26475e-06;0.0006225679540679343
8.26500e-06;0.0006630039018249449
8.26525e-06;0.0007031265589076479
8.26550e-06;0.0007401434930924006
8.26575e-06;0.0007767484283957311
8.26600e-06;0.0008092771088187189
8.26625e-06;0.0008412650415622235
8.26650e-06;0.0008699635738210943
8.26675e-06;0.0008982257409033814
8.26700e-06;0.00092648790798586
8.26725e-06;0.000950884460565201
8.26750e-06;0.0009747682085884995
8.26775e-06;0.00099865195661196
8.26800e-06;0.00102253570463542
8.26825e-06;0.0010464194526587185
8.26850e-06;0.0010703032006821789
8.26875e-06;0.0010897139519519578
8.26900e-06;0.001108531324571936
8.26925e-06;0.0011273486971920418
8.26950e-06;0.0011461660698121475
8.26975e-06;0.0011649834424321257
8.27000e-06;0.0011838008150522315
8.27025e-06;0.001199064317422075
8.27050e-06;0.0012138563705941965
8.27075e-06;0.001228648423766418
8.27100e-06;0.0012434404769386396
8.27125e-06;0.0012582325301107608
8.27150e-06;0.0012730245832829824
8.27175e-06;0.0012865012532632938
8.27200e-06;0.001297857800738078
8.27225e-06;0.0013092143482129391
8.27250e-06;0.0013205708956878003
8.27275e-06;0.0013319274431625844
8.27300e-06;0.0013432839906374456
8.27325e-06;0.0013546405381123067
8.27350e-06;0.001364347970059546
8.27375e-06;0.001373304743832409
8.27400e-06;0.0013815903080601
8.27425e-06;0.0013890859769742437
8.27450e-06;0.001395564357288582
8.27475e-06;0.0014001785637212266
8.27500e-06;0.0014045617170033472
8.27525e-06;0.0014065491561169822
8.27550e-06;0.0014082187846626297
8.27575e-06;0.0014075422393130539
8.27600e-06;0.0014065544553073556
8.27625e-06;0.0014025347106500947
8.27650e-06;0.0013981127522607033
8.27675e-06;0.0013936907938713417
8.27700e-06;0.0013839822442340355
8.27725e-06;0.001373572386156271
8.27750e-06;0.001363162528078577
8.27775e-06;0.0013527526700008127
8.27800e-06;0.0013423428119230482
8.27825e-06;0.0013294837005174743
8.27850e-06;0.0013126769051710085
8.27875e-06;0.0012958701098245424
8.27900e-06;0.0012790633144781904
8.27925e-06;0.0012622565191317244
8.27950e-06;0.0012454497237852583
8.27975e-06;0.001224874521071716
8.28000e-06;0.0012037994091026523
8.28025e-06;0.0011827242971335888
8.28050e-06;0.001161649185164668
8.28075e-06;0.0011405740731956042
8.28100e-06;0.0011194989612265404
8.28125e-06;0.001097645165923922
8.28150e-06;0.0010756880720741437
8.28175e-06;0.0010537309782243656
8.28200e-06;0.0010317738843745874
8.28225e-06;0.001009816790524958
8.28250e-06;0.0009878596966751798
8.28275e-06;0.0009676690938550991
8.28300e-06;0.0009477128301416958
8.28325e-06;0.0009277565664281572
8.28350e-06;0.000910367694828473
8.28375e-06;0.0008933194082440722
8.28400e-06;0.0008762711216595559
8.28425e-06;0.000861823750810847
8.28450e-06;0.0008477214121529177
8.28475e-06;0.0008336190734948929
8.28500e-06;0.0008200503709634426
8.28525e-06;0.000806552459515108
8.28550e-06;0.0007930545480666818
8.28575e-06;0.0007795566366182558
8.28600e-06;0.0007660587251699211
8.28625e-06;0.000752560813721495
8.28650e-06;0.0007390629022730689
8.28675e-06;0.0007255649908247343
8.28700e-06;0.000711910735684571
8.28725e-06;0.0006980044872228968
8.28750e-06;0.0006840982387613168
8.28775e-06;0.0006701919902996425
8.28800e-06;0.0006562857418379683
8.28825e-06;0.0006423794933763882
8.28850e-06;0.000628473244914714
8.28875e-06;0.0006145669964530399
8.28900e-06;0.0006006607479914598
8.28925e-06;0.0005859839655212894
8.28950e-06;0.0005712049655769389
8.28975e-06;0.0005564259656326885
8.29000e-06;0.000541646965688338
8.29025e-06;0.0005268679657439875
8.29050e-06;0.0005120889657996368
8.29075e-06;0.0004973099658553865
8.29100e-06;0.0004832805194954741
8.29125e-06;0.00046935050738937693
8.29150e-06;0.00045542049528337416
8.29175e-06;0.00044149048317727695
8.29200e-06;0.0004275604710711798
8.29225e-06;0.000413630458965177
8.29250e-06;0.00039970044685907986
8.29275e-06;0.0003873628643047705
8.29300e-06;0.00037523653021568774
8.29325e-06;0.00036311019612652283
8.29350e-06;0.000352549588197431
8.29375e-06;0.0003421966863159405
8.29400e-06;0.0003318437844343798
8.29425e-06;0.00032328324861092064
8.29450e-06;0.0003149604844229258
8.29475e-06;0.00030823849031400556
8.29500e-06;0.00030172885110766316
8.29525e-06;0.0002968739675168324
8.29550e-06;0.0002922386004399884
8.29575e-06;0.0002893239227655012
8.29600e-06;0.0002866375082471167
8.29625e-06;0.0002857198202373219
8.29650e-06;0.00028503676788841525
8.29675e-06;0.0002860700624594265
8.29700e-06;0.0002873310441216296
8.29725e-06;0.00029021407145749434
8.29750e-06;0.0002933122760730098
8.29775e-06;0.00029794570240820715
8.29800e-06;0.00030278278813394675
8.29825e-06;0.0003093840951497691
8.29850e-06;0.0003162194401733912
8.29875e-06;0.00032305478519701334
8.29900e-06;0.00033166376450526904
8.29925e-06;0.00034050803052993774
8.29950e-06;0.00034935229655466633
8.29975e-06;0.0003600092834886581
8.30000e-06;0.0003709067422911825
8.30025e-06;0.0003818042010937807
8.30050e-06;0.00039270165989637893
8.30075e-06;0.00040359911869890334
8.30100e-06;0.0004144965775015015
8.30125e-06;0.0004261194321532381
8.30150e-06;0.00043783851634274256
8.30175e-06;0.0004495576005323264
8.30200e-06;0.0004612766847219103
8.30225e-06;0.0004729957689114147
8.30250e-06;0.00048471485310099856
8.30275e-06;0.000495073104356131
8.30300e-06;0.0005052508302821035
8.30325e-06;0.0005154285562081451
8.30350e-06;0.0005256062821341867
8.30375e-06;0.0005357840080601594
8.30400e-06;0.0005436999018928297
8.30425e-06;0.000551315745680619
8.30450e-06;0.0005589315894683568
8.30475e-06;0.0005665474332561461
8.30500e-06;0.0005741632770439354
8.30525e-06;0.0005802744450073594
8.30550e-06;0.0005861860057365054
8.30575e-06;0.0005920975664656514
8.30600e-06;0.0005980091271947573
8.30625e-06;0.0006039206879239033
8.30650e-06;0.0006098322486530493
8.30675e-06;0.0006157438093821552
8.30700e-06;0.0006216553701113012
8.30725e-06;0.0006275669308404472
8.30750e-06;0.0006334784915695932
8.30775e-06;0.0006393900522986992
8.30800e-06;0.0006453016130278452
8.30825e-06;0.0006508371364100443
8.30850e-06;0.0006557665662614834
8.30875e-06;0.0006606959961129557
8.30900e-06;0.0006656254259644281
8.30925e-06;0.000670554855815867
8.30950e-06;0.0006754842856673395
8.30975e-06;0.0006804137155188118
8.31000e-06;0.0006853431453702508
8.31025e-06;0.0006902725752217231
8.31050e-06;0.0006952020050731956
8.31075e-06;0.0007001314349246345
8.31100e-06;0.0007050608647761069
8.31125e-06;0.0007099902946275792
8.31150e-06;0.0007143249965822501
8.31175e-06;0.0007185808031438095
8.31200e-06;0.000722836609705369
8.31225e-06;0.0007270924162668996
8.31250e-06;0.0007313482228284591
8.31275e-06;0.0007349293258139823
8.31300e-06;0.0007384209239953851
8.31325e-06;0.0007419125221768116
8.31350e-06;0.0007454041203582382
8.31375e-06;0.0007488957185396411
8.31400e-06;0.0007517618519283694
8.31425e-06;0.0007545450124298396
8.31450e-06;0.000757328172931291
8.31475e-06;0.0007616621735284241
8.31500e-06;0.0007662019054183873
8.31525e-06;0.0007707416373083196
8.31550e-06;0.0007752813691982828
8.31575e-06;0.0007798211010882459
8.31600e-06;0.0007843608329782091
8.31625e-06;0.0007889005648681415
8.31650e-06;0.0007964347228940951
8.31675e-06;0.0008043661154009244
8.31700e-06;0.0008122975079077001
8.31725e-06;0.0008202289004145294
8.31750e-06;0.0008281602929213587
8.31775e-06;0.0008360916854281342
8.31800e-06;0.0008440230779349636
8.31825e-06;0.0008547324981314765
8.31850e-06;0.0008658104458310811
8.31875e-06;0.000876888393530761
8.31900e-06;0.0008879663412304407
8.31925e-06;0.0008990442889300455
8.31950e-06;0.0009101222366297252
8.31975e-06;0.0009218643115785968
8.32000e-06;0.0009346768207083367
8.32025e-06;0.0009474893298381637
8.32050e-06;0.0009603018389679905
8.32075e-06;0.0009731143480977305
8.32100e-06;0.0009859268572275574
8.32125e-06;0.000998739366357384
8.32150e-06;0.001011606628584083
8.32175e-06;0.0010244811542453526
8.32200e-06;0.0010373556799066225
8.32225e-06;0.0010495372584264872
8.32250e-06;0.0010616269119879996
8.32275e-06;0.0010737165655495123
8.32300e-06;0.0010849508442826452
8.32325e-06;0.0010960716507308068
8.32350e-06;0.001106479673372234
8.32375e-06;0.0011162186985114286
8.32400e-06;0.001125232870787809
8.32425e-06;0.0011331722447978233
8.32450e-06;0.0011389465269834535
8.32475e-06;0.0011412430030021655
8.32500e-06;0.001139534166385498
8.32525e-06;0.0011339009236082467
8.32550e-06;0.0011244995092385148
8.32575e-06;0.001111487625133172
8.32600e-06;0.0010934929185190754
8.32625e-06;0.0010748930097202684
8.32650e-06;0.0010491957887069974
8.32675e-06;0.001022557052689949
8.32700e-06;0.0009878251113520492
8.32725e-06;0.0009520195418560435
8.32750e-06;0.0009090441483972831
8.32775e-06;0.0008651176206739108
8.32800e-06;0.0008150607924801442
8.32825e-06;0.0007641907310937675
8.32850e-06;0.0007089070630418256
8.32875e-06;0.0006499010294720983
8.32900e-06;0.0005874982782583117
8.32925e-06;0.0005220727980131891
8.32950e-06;0.00045402817704390827
8.32975e-06;0.0003837684124388006
8.33000e-06;0.0003116975458592508
8.33025e-06;0.00023815415450856506
8.33050e-06;0.00016329498345319543
8.33075e-06;8.72220428057585e-05
8.33100e-06;1.0230422592696651e-05
8.33125e-06;-6.721631968913125e-05
8.33150e-06;-0.00014470975026954996
8.33175e-06;-0.00022130895127983404
8.33200e-06;-0.00029778953218109543
8.33225e-06;-0.0003718761526093871
8.33250e-06;-0.00044564519511061315
8.33275e-06;-0.0005169492492865526
8.33300e-06;-0.0005858399844083165
8.33325e-06;-0.0006519273474069171
8.33350e-06;-0.0007147112309144569
8.33375e-06;-0.0007736913914752444
8.33400e-06;-0.0008283676952316725
8.33425e-06;-0.0008782992750065754
8.33450e-06;-0.0009232644410261039
8.33475e-06;-0.0009632484261231885
8.33500e-06;-0.0009982189792375896
8.33525e-06;-0.001028068645133815
8.33550e-06;-0.0010526791757418225
8.33575e-06;-0.00107193237542364
8.33600e-06;-0.0010857096715048936
8.33625e-06;-0.001093930157270899
8.33650e-06;-0.001094313850286477
8.33675e-06;-0.0010937444047397589
8.33700e-06;-0.0010841120698317109
8.33725e-06;-0.001073277470452224
8.33750e-06;-0.001053830366518956
8.33775e-06;-0.0010332407452470877
8.33800e-06;-0.0010044771330639526
8.33825e-06;-0.0009746291758701011
8.33850e-06;-0.0009373163114686003
8.33875e-06;-0.0008990131676581194
8.33900e-06;-0.00085429622865058
8.33925e-06;-0.0008087284486162722
8.33950e-06;-0.0007577173025853042
8.33975e-06;-0.0007059840506914114
8.34000e-06;-0.0006507655326568717
8.34025e-06;-0.0005930942162388077
8.34050e-06;-0.0005334738133992504
8.34075e-06;-0.0004722940368242571
8.34100e-06;-0.0004099404378458762
8.34125e-06;-0.0003467799009995423
8.34150e-06;-0.00028317675301776224
8.34175e-06;-0.00021949518376614466
8.34200e-06;-0.00015609935662674816
8.34225e-06;-9.336254863747667e-05
8.34250e-06;-3.169172474654134e-05
8.34275e-06;2.8474336690336397e-05
8.34300e-06;8.669960558036128e-05
8.34325e-06;0.00014255967220450075
8.34350e-06;0.00019563185529058682
8.34375e-06;0.00024549354198345383
8.34400e-06;0.00029172214210805884
8.34425e-06;0.0003339815451160763
8.34450e-06;0.00037222375929696317
8.34475e-06;0.0004109983323105003
8.34500e-06;0.0004420184663462731
8.34525e-06;0.0004614586950493834
8.34550e-06;0.0004911149170784388
8.34575e-06;0.0005080951876738423
8.34600e-06;0.0005234839835470446
8.34625e-06;0.0005340055859603132
8.34650e-06;0.0005419842636222841
8.34675e-06;0.0005466889988578797
8.34700e-06;0.0005476195651832193
8.34725e-06;0.0005447556133016673
8.34750e-06;0.0005383177870357409
8.34775e-06;0.0005291976588789046
8.34800e-06;0.0005162117853661242
8.34825e-06;0.0004996364863803409
8.34850e-06;0.0004809789446467628
8.34875e-06;0.0004598103259850206
8.34900e-06;0.0004359584182402703
8.34925e-06;0.00040955160519648784
8.34950e-06;0.0003808691639648865
8.34975e-06;0.00035061068857399953
8.35000e-06;0.00031817595890474616
8.35025e-06;0.0002838791038417209
8.35050e-06;0.0002483967011147781
8.35075e-06;0.00021275826036517014
8.35100e-06;0.00017597719827079503
8.35125e-06;0.00013840919251829274
8.35150e-06;0.00010074117189859238
8.35175e-06;6.307315127914727e-05
8.35200e-06;2.5476133142932163e-05
8.35225e-06;-1.1754719841473948e-05
8.35250e-06;-4.7817112625680686e-05
8.35275e-06;-8.265013535203183e-05
8.35300e-06;-0.00011609214032156948
8.35325e-06;-0.00014786360306888585
8.35350e-06;-0.00017762576769292542
8.35375e-06;-0.00020487504255905202
8.35400e-06;-0.00022961788022097816
8.35425e-06;-0.0002515167849792268
8.35450e-06;-0.0002700075760907415
8.35475e-06;-0.0002851173166386182
8.35500e-06;-0.00029687261053113997
8.35525e-06;-0.0003052344280531726
8.35550e-06;-0.0003101266245834751
8.35575e-06;-0.00031136976235227596
8.35600e-06;-0.00030910395424188036
8.35625e-06;-0.0003032538329434068
8.35650e-06;-0.00029360205228337615
8.35675e-06;-0.00028030163328623806
8.35700e-06;-0.0002635052915557424
8.35725e-06;-0.00024332464098357812
8.35750e-06;-0.00021984806794309784
8.35775e-06;-0.0001930992287505725
8.35800e-06;-0.0001633019128364938
8.35825e-06;-0.00013054496318078097
8.35850e-06;-9.482828147431896e-05
8.35875e-06;-5.638377241573121e-05
8.35900e-06;-1.544311740604241e-05
8.35925e-06;2.778774501788893e-05
8.35950e-06;7.311747454571515e-05
8.35975e-06;0.00012039524201284225
8.36000e-06;0.00016934489143691036
8.36025e-06;0.00021977480432153274
8.36050e-06;0.0002719852666252245
8.36075e-06;0.00032445989494425697
8.36100e-06;0.0003780061379719455
8.36125e-06;0.0004321429591356508
8.36150e-06;0.0004865412255942922
8.36175e-06;0.0005409706038679221
8.36200e-06;0.000595122273764775
8.36225e-06;0.0006487404028231833
8.36250e-06;0.0007016040215010513
8.36275e-06;0.0007534011571493535
8.36300e-06;0.000803820012472833
8.36325e-06;0.0008525589293452201
8.36350e-06;0.00089932193282963
8.36375e-06;0.0009438289915811157
8.36400e-06;0.0009857510066097813
8.36425e-06;0.0010247312139278007
8.36450e-06;0.0010603052153184702
8.36475e-06;0.0010919993229994345
8.36500e-06;0.001119603341698143
8.36525e-06;0.0011430831941782998
8.36550e-06;0.0011624312913897153
8.36575e-06;0.0011776500330632665
8.36600e-06;0.0011887111876448537
8.36625e-06;0.0011955695507276686
8.36650e-06;0.0011962065807475382
8.36675e-06;0.0011958994189208967
8.36700e-06;0.0011881388026382682
8.36725e-06;0.001179124938892161
8.36750e-06;0.0011632085823554722
8.36775e-06;0.0011461316187966213
8.36800e-06;0.0011227234046046436
8.36825e-06;0.0010982506338578463
8.36850e-06;0.00106787768504427
8.36875e-06;0.0010365126615842434
8.36900e-06;0.000999834199101389
8.36925e-06;0.000962262318134964
8.36950e-06;0.0009194447658829501
8.36975e-06;0.0008757451898291817
8.37000e-06;0.0008320456137754133
8.37025e-06;0.0007844811839012141
8.37050e-06;0.0007362669052516754
8.37075e-06;0.0006941304458315985
8.37100e-06;0.000667660040037742
8.37125e-06;0.000602085101427824
8.37150e-06;0.0005560110710666582
8.37175e-06;0.0004952848588805236
8.37200e-06;0.00044224500478079145
8.37225e-06;0.0003888612251460255
8.37250e-06;0.0003430802867954215
8.37275e-06;0.00029217446859851825
8.37300e-06;0.0002500445352861968
8.37325e-06;0.00020228086102891458
8.37350e-06;0.00017075389031691012
8.37375e-06;0.00012429329637509754
8.37400e-06;8.418783698142373e-05
8.37425e-06;5.647419078755858e-05
8.37450e-06;2.8768562700776694e-05
8.37475e-06;1.7550109469092414e-06
8.37500e-06;-2.460852754339381e-05
8.37525e-06;-5.008591168111781e-05
8.37550e-06;-7.461116892946264e-05
8.37575e-06;-9.884553951737829e-05
8.37600e-06;-0.00012168127900835805
8.37625e-06;-0.00014103591473639603
8.37650e-06;-0.0001583186516556214
8.37675e-06;-0.00017546399919548029
8.37700e-06;-0.00019247193252931488
8.37725e-06;-0.00020916814787635558
8.37750e-06;-0.0002254604735168422
8.37775e-06;-0.00024154284277360684
8.37800e-06;-0.00025736919483810395
8.37825e-06;-0.0002704012207285288
8.37850e-06;-0.00028337831146411913
8.37875e-06;-0.0002957558067594034
8.37900e-06;-0.00030810604841737194
8.37925e-06;-0.0003201588274256959
8.37950e-06;-0.0003322116064339382
8.37975e-06;-0.0003441655699892783
8.38000e-06;-0.00035504100204285916
8.38025e-06;-0.0003657704020209233
8.38050e-06;-0.00037490591977830926
8.38075e-06;-0.00038404143753569523
8.38100e-06;-0.00039311538453723054
8.38125e-06;-0.0004015173111441241
8.38150e-06;-0.0004099192377510176
8.38175e-06;-0.0004181668393079094
8.38200e-06;-0.0004247300441142074
8.38225e-06;-0.00043129324892050543
8.38250e-06;-0.00043769915102264534
8.38275e-06;-0.0004423881564590211
8.38300e-06;-0.0004470771618953968
8.38325e-06;-0.00045161408712529345
8.38350e-06;-0.0004544911171812699
8.38375e-06;-0.00045736814723724636
8.38400e-06;-0.0004600147335664663
8.38425e-06;-0.00046014611795842513
8.38450e-06;-0.00046027750235038393
8.38475e-06;-0.00046025921096924194
8.38500e-06;-0.00045860726785124464
8.38525e-06;-0.00045695532473323617
8.38550e-06;-0.00045514514172762834
8.38575e-06;-0.00045160783307011043
8.38600e-06;-0.00044807052441256856
8.38625e-06;-0.00044436018693309567
8.38650e-06;-0.000438761308445189
8.38675e-06;-0.0004331624299572444
8.38700e-06;-0.00042744689858946363
8.38725e-06;-0.0004204581472755514
8.38750e-06;-0.0004134693959615919
8.38775e-06;-0.00040635110651283924
8.38800e-06;-0.0003978189596672633
8.38825e-06;-0.0003892868128216295
8.38850e-06;-0.0003806071895745595
8.38875e-06;-0.00037031791986022786
8.38900e-06;-0.0003600286501458266
8.38925e-06;-0.00034973938043142525
8.38950e-06;-0.0003394501107170936
8.38975e-06;-0.00032916084100269235
8.39000e-06;-0.000318871571288291
8.39025e-06;-0.00030769221239947294
8.39050e-06;-0.0002958786362811688
8.39075e-06;-0.0002840650601628646
8.39100e-06;-0.00027225148404464046
8.39125e-06;-0.0002604379079263363
8.39150e-06;-0.00024862433180803214
8.39175e-06;-0.00023677511597337765
8.39200e-06;-0.00022453690675993703
8.39225e-06;-0.0002122986975464964
8.39250e-06;-0.00020006048833313872
8.39275e-06;-0.0001878222791196981
8.39300e-06;-0.0001758017482980987
8.39325e-06;-0.00016393632034770157
8.39350e-06;-0.00015207089239738483
8.39375e-06;-0.0001402054644469877
8.39400e-06;-0.00012837001303463562
8.39425e-06;-0.00011686174365370268
8.39450e-06;-0.00010531342830483944
8.39475e-06;-9.327957425597478e-05
