Time(s);Current(A)
7.50000e-06;-0.0004862873153885499
7.50025e-06;-0.00045951039438440225
7.50050e-06;-0.0004327334733803453
7.50075e-06;-0.000405732127793479
7.50100e-06;-0.0003776971180478566
7.50125e-06;-0.00034966210830232917
7.50150e-06;-0.00032151602889427346
7.50175e-06;-0.0002933172926400712
7.50200e-06;-0.00026511284915391745
7.50225e-06;-0.0002368821190588749
7.50250e-06;-0.00020834743589631124
7.50275e-06;-0.00017817810229982034
7.50300e-06;-0.00014673802394562211
7.50325e-06;-0.00011427885984638079
7.50350e-06;-8.10522200296214e-05
7.50375e-06;-4.7308455105359934e-05
7.50400e-06;-1.32427350611626e-05
7.50425e-06;2.125014719637934e-05
7.50450e-06;5.658398912972518e-05
7.50475e-06;9.298838373733546e-05
7.50500e-06;0.00013037543876919745
7.50525e-06;0.0001685689484504772
7.50550e-06;0.00020686924020509707
7.50575e-06;0.0002456613533133914
7.50600e-06;0.0002844534664218172
7.50625e-06;0.0003232455795301115
7.50650e-06;0.0003620376926385373
7.50675e-06;0.0004008298057468317
7.50700e-06;0.00043962191885512606
7.50725e-06;0.00047821519348015517
7.50750e-06;0.0005158927310524149
7.50775e-06;0.0005535702686246746
7.50800e-06;0.0005907344910427618
7.50825e-06;0.0006255344649888265
7.50850e-06;0.0006603344389348912
7.50875e-06;0.000694458945467643
7.50900e-06;0.0007254723558508575
7.50925e-06;0.0007564857662340721
7.50950e-06;0.0007866695504269838
7.50975e-06;0.0008130322075083195
7.51000e-06;0.0008386610390455786
7.51025e-06;0.0008609099861072523
7.51050e-06;0.0008831589331688506
7.51075e-06;0.0009046021237303116
7.51100e-06;0.0009223341272012544
7.51125e-06;0.0009400661306721372
7.51150e-06;0.00095779813414308
7.51175e-06;0.0009755301376139628
7.51200e-06;0.0009932621410848456
7.51225e-06;0.0010109941445557884
7.51250e-06;0.0010287261480266712
7.51275e-06;0.0010455631367539998
7.51300e-06;0.0010582778290290828
7.51325e-06;0.0010709925213041227
7.51350e-06;0.0010837072135791625
7.51375e-06;0.0010964219058542453
7.51400e-06;0.0011091365981292852
7.51425e-06;0.001121851290404325
7.51450e-06;0.001134565982679408
7.51475e-06;0.0011467436526098737
7.51500e-06;0.0011564478824974487
7.51525e-06;0.0011661521123850565
7.51550e-06;0.0011758563422726313
7.51575e-06;0.0011855605721602391
7.51600e-06;0.0011952648020478141
7.51625e-06;0.001204969031935389
7.51650e-06;0.0012146732618229968
7.51675e-06;0.0012243774917105716
7.51700e-06;0.0012340817215981466
7.51725e-06;0.0012432525524261797
7.51750e-06;0.0012499666314895654
7.51775e-06;0.0012566807105529511
7.51800e-06;0.0012633947896163596
7.51825e-06;0.0012701088686797454
7.51850e-06;0.001276822947743131
7.51875e-06;0.0012835370268065396
7.51900e-06;0.0012902511058699253
7.51925e-06;0.001296965184933311
7.51950e-06;0.0013036792639967195
7.51975e-06;0.0013091548312083108
7.52000e-06;0.001308926008577879
7.52025e-06;0.001308697185947448
7.52050e-06;0.001308468363317017
7.52075e-06;0.0013082395406865852
7.52100e-06;0.0013080107180561543
7.52125e-06;0.0013077818954257234
7.52150e-06;0.0013048273519921242
7.52175e-06;0.001289318569341381
7.52200e-06;0.0012738097866906379
7.52225e-06;0.0012583010040398421
7.52250e-06;0.0012427922213890988
7.52275e-06;0.0012272834387383556
7.52300e-06;0.0012117746560875598
7.52325e-06;0.0011941594241345916
7.52350e-06;0.0011668422196219358
7.52375e-06;0.0011395250151091875
7.52400e-06;0.0011111547545519262
7.52425e-06;0.0010779342842897432
7.52450e-06;0.0010447138140276726
7.52475e-06;0.0010105156157771773
7.52500e-06;0.0009718141569429345
7.52525e-06;0.0009331126981088229
7.52550e-06;0.0008936666184625815
7.52575e-06;0.0008507909330438069
7.52600e-06;0.0008079152476251774
7.52625e-06;0.000765039562206548
7.52650e-06;0.0007221638767877733
7.52675e-06;0.0006779660187236019
7.52700e-06;0.0006331413338569844
7.52725e-06;0.0005883166489902152
7.52750e-06;0.0005434919641235977
7.52775e-06;0.0004989922679256233
7.52800e-06;0.0004559894181702897
7.52825e-06;0.0004129865684151019
7.52850e-06;0.0003705016743258088
7.52875e-06;0.0003304024021706059
7.52900e-06;0.0002907470693939026
7.52925e-06;0.0002535013677939117
7.52950e-06;0.00021835303229147504
7.52975e-06;0.00018558906909913034
7.53000e-06;0.0001553685112996005
7.53025e-06;0.0001271519737289
7.53050e-06;9.96753967526874e-05
7.53075e-06;7.208772805554232e-05
7.53100e-06;4.4367214374244184e-05
7.53125e-06;1.6756980022866153e-05
7.53150e-06;-1.0499900512509905e-05
7.53175e-06;-3.71621696309257e-05
7.53200e-06;-6.30819797002585e-05
7.53225e-06;-8.855697177173963e-05
7.53250e-06;-0.00011417445612085903
7.53275e-06;-0.00014061987876267298
7.53300e-06;-0.00016785585448452398
7.53325e-06;-0.0001951935316485687
7.53350e-06;-0.00022299962958128848
7.53375e-06;-0.00025088288521053596
7.53400e-06;-0.0002791215169954519
7.53425e-06;-0.0003073601487804635
7.53450e-06;-0.0003355987805653794
7.53475e-06;-0.00036383741235029534
7.53500e-06;-0.00039228472957097456
7.53525e-06;-0.00042169321892492935
7.53550e-06;-0.00045110170827888414
7.53575e-06;-0.00048051019763293857
7.53600e-06;-0.0005099186869868934
7.53625e-06;-0.0005392252133079334
7.53650e-06;-0.0005680621140150178
7.53675e-06;-0.0005968990147220046
7.53700e-06;-0.0006257359154290891
7.53725e-06;-0.0006545728161360758
7.53750e-06;-0.0006834097168430625
7.53775e-06;-0.0007101537516216273
7.53800e-06;-0.0007359055828009506
7.53825e-06;-0.000761657413980274
7.53850e-06;-0.0007874092451596845
7.53875e-06;-0.0008131610763390079
7.53900e-06;-0.0008381482458131889
7.53925e-06;-0.0008596135043308747
7.53950e-06;-0.0008810787628484876
7.53975e-06;-0.0009013248389707679
7.54000e-06;-0.0009159555536761438
7.54025e-06;-0.0009305862683814702
7.54050e-06;-0.0009452169830867966
7.54075e-06;-0.0009598476977921726
7.54100e-06;-0.0009744784124974989
7.54125e-06;-0.000989109127202875
7.54150e-06;-0.0010037398419082012
7.54175e-06;-0.0010183705566135276
7.54200e-06;-0.001028333133553052
7.54225e-06;-0.0010360826002168248
7.54250e-06;-0.0010438320668805976
7.54275e-06;-0.0010515815335443966
7.54300e-06;-0.0010593310002081694
7.54325e-06;-0.0010670804668719421
7.54350e-06;-0.0010748299335357411
7.54375e-06;-0.001082579400199514
7.54400e-06;-0.0010894030542113898
7.54425e-06;-0.0010919625614770859
7.54450e-06;-0.001094522068742773
7.54475e-06;-0.0010970815760084605
7.54500e-06;-0.0010996410832741566
7.54525e-06;-0.001102200590539844
7.54550e-06;-0.00110476009780554
7.54575e-06;-0.0011073196050712273
7.54600e-06;-0.0011098791123369148
7.54625e-06;-0.0011124386196026109
7.54650e-06;-0.001114998126868298
7.54675e-06;-0.0011175576341339855
7.54700e-06;-0.0011183576525213925
7.54725e-06;-0.0011183235175244186
7.54750e-06;-0.0011182893825274446
7.54775e-06;-0.0011182552475304706
7.54800e-06;-0.0011182211125334966
7.54825e-06;-0.0011181869775365226
7.54850e-06;-0.0011181528425395486
7.54875e-06;-0.0011181187075425746
7.54900e-06;-0.0011180845725456009
7.54925e-06;-0.0011180504375486267
7.54950e-06;-0.0011180163025516527
7.54975e-06;-0.001117764363091989
7.55000e-06;-0.0011165092507022657
7.55025e-06;-0.0011152541383125422
7.55050e-06;-0.001112997886843255
7.55075e-06;-0.001106130547008684
7.55100e-06;-0.0010982925571980063
7.55125e-06;-0.001085983907013542
7.55150e-06;-0.0010728197171495817
7.55175e-06;-0.0010557150467441938
7.55200e-06;-0.0010377064500470608
7.55225e-06;-0.001015534511720851
7.55250e-06;-0.0009921655654475737
7.55275e-06;-0.0009632833897635006
7.55300e-06;-0.0009332844957200589
7.55325e-06;-0.0008981421734163316
7.55350e-06;-0.0008620709008432434
7.55375e-06;-0.0008217210301558927
7.55400e-06;-0.0007805275139656702
7.55425e-06;-0.0007354482999329308
7.55450e-06;-0.0006894575226227821
7.55475e-06;-0.0006392682289344488
7.55500e-06;-0.0005883332985915946
7.55525e-06;-0.0005339640836694049
7.55550e-06;-0.00047908247944463463
7.55575e-06;-0.00042184089107934804
7.55600e-06;-0.00036425594207311127
7.55625e-06;-0.00030508952822462244
7.55650e-06;-0.00024562918128268074
7.55675e-06;-0.00018481502496925394
7.55700e-06;-0.0001240008686556211
7.55725e-06;-6.317954131129108e-05
7.55750e-06;-2.430689170986035e-06
7.55775e-06;5.766163207442599e-05
7.55800e-06;0.00011674710709517482
7.55825e-06;0.0001745624373842731
7.55850e-06;0.00023092832898740796
7.55875e-06;0.0002856005159482025
7.55900e-06;0.00033822211209450436
7.55925e-06;0.00038840150304770535
7.55950e-06;0.0004357470489449221
7.55975e-06;0.0004798668150955245
7.56000e-06;0.0005203559914758523
7.56025e-06;0.0005567535611353257
7.56050e-06;0.0005886124722839211
7.56075e-06;0.0006156743868763775
7.56100e-06;0.0006378553286101178
7.56125e-06;0.0006551140074868128
7.56150e-06;0.000667409069009626
7.56175e-06;0.000674699084103436
7.56200e-06;0.0006769345379092919
7.56225e-06;0.0006740306931859565
7.56250e-06;0.0006659116067374685
7.56275e-06;0.0006526195866556809
7.56300e-06;0.0006343061477067028
7.56325e-06;0.00061114938865875
7.56350e-06;0.0005833275995773679
7.56375e-06;0.0005510189043935684
7.56400e-06;0.0005143962696747102
7.56425e-06;0.00047361077098038176
7.56450e-06;0.0004288188735287675
7.56475e-06;0.00038025115335754684
7.56500e-06;0.0003282065030146489
7.56525e-06;0.0002730005587329112
7.56550e-06;0.00021494897546556698
7.56575e-06;0.00015436729599547767
7.56600e-06;9.156787904096191e-05
7.56625e-06;2.6849257181066984e-05
7.56650e-06;-3.948663521423601e-05
7.56675e-06;-0.00010714032677946997
7.56700e-06;-0.00017579917320995043
7.56725e-06;-0.0002444636166430428
7.56750e-06;-0.0003131537981978811
7.56775e-06;-0.00038184397975248664
7.56800e-06;-0.0004501259892564546
7.56825e-06;-0.0005165280228101384
7.56850e-06;-0.0005822666068613957
7.56875e-06;-0.0006449494473688732
7.56900e-06;-0.0007066496295057799
7.56925e-06;-0.0007638238425035592
7.56950e-06;-0.0008196914560305506
7.56975e-06;-0.000869541078913622
7.57000e-06;-0.0009179518594303425
7.57025e-06;-0.0009597355594289746
7.57050e-06;-0.0010003365857543562
7.57075e-06;-0.0010354904040711138
7.57100e-06;-0.0010694329372747046
7.57125e-06;-0.0010977964826999406
7.57150e-06;-0.001124816718167773
7.57175e-06;-0.0011456498802930434
7.57200e-06;-0.001165127812325458
7.57225e-06;-0.0011783637687558931
7.57250e-06;-0.0011904758474767239
7.57275e-06;-0.0011974115231052072
7.57300e-06;-0.0012032762659458017
7.57325e-06;-0.001204208461635334
7.57350e-06;-0.0012040579186189224
7.57375e-06;-0.0011989204522590388
7.57400e-06;-0.001192556731393943
7.57425e-06;-0.0011805450760980544
7.57450e-06;-0.001168533420802166
7.57475e-06;-0.0011553978601074749
7.57500e-06;-0.0011370857687892052
7.57525e-06;-0.0011187736774708737
7.57550e-06;-0.001099513111642528
7.57575e-06;-0.001075884022135564
7.57600e-06;-0.0010522549326285203
7.57625e-06;-0.0010278873727382922
7.57650e-06;-0.0010001185349846088
7.57675e-06;-0.0009723496972308314
7.57700e-06;-0.0009445808594771481
7.57725e-06;-0.0009168120217234647
7.57750e-06;-0.0008888983003314465
7.57775e-06;-0.0008603172678019732
7.57800e-06;-0.0008317362352725
7.57825e-06;-0.0008031552027429298
7.57850e-06;-0.0007745741702134565
7.57875e-06;-0.0007465588602473639
7.57900e-06;-0.0007211491789904174
7.57925e-06;-0.0006957394977335569
7.57950e-06;-0.0006711332661343982
7.57975e-06;-0.0006502275966662537
7.58000e-06;-0.0006293219271981092
7.58025e-06;-0.0006085015192323399
7.58050e-06;-0.0005880738122705094
7.58075e-06;-0.0005676461053086789
7.58100e-06;-0.000546779751902324
7.58125e-06;-0.0005238930623052041
7.58150e-06;-0.0005010063727080841
7.58175e-06;-0.0004778829607828332
7.58200e-06;-0.00045366924323093124
7.58225e-06;-0.0004294555256790293
7.58250e-06;-0.0004046516030800139
7.58275e-06;-0.0003771292893222143
7.58300e-06;-0.000349118034559275
7.58325e-06;-0.00031885479480853386
7.58350e-06;-0.0002883280504977154
7.58375e-06;-0.0002564659446766343
7.58400e-06;-0.0002239191820834006
7.58425e-06;-0.000190612471060515
7.58450e-06;-0.000156208017591937
7.58475e-06;-0.00012053205513581265
7.58500e-06;-8.372516488468604e-05
7.58525e-06;-4.602738952875079e-05
7.58550e-06;-7.678706265491455e-06
7.58575e-06;3.108158549914653e-05
7.58600e-06;7.00672848403802e-05
7.58625e-06;0.00010926798714416789
7.58650e-06;0.00014855952315509578
7.58675e-06;0.00018826942486402942
7.58700e-06;0.00022797932657282852
7.58725e-06;0.0002675046020329313
7.58750e-06;0.00030617951817379755
7.58775e-06;0.0003448544343145327
7.58800e-06;0.0003831310149390011
7.58825e-06;0.0004195729251360281
7.58850e-06;0.00045562517514165235
7.58875e-06;0.0004898827118957805
7.58900e-06;0.000523602617318138
7.58925e-06;0.0005548462778053726
7.58950e-06;0.0005853748340049505
7.58975e-06;0.0006126097328850747
7.59000e-06;0.0006389334111388984
7.59025e-06;0.0006610601512164839
7.59050e-06;0.0006821071118546142
7.59075e-06;0.0006981807790660722
7.59100e-06;0.0007131323233608267
7.59125e-06;0.0007229155468650273
7.59150e-06;0.0007315589333837175
7.59175e-06;0.0007349524109111537
7.59200e-06;0.000737176687217154
7.59225e-06;0.0007340158075027288
7.59250e-06;0.0007296736247221247
7.59275e-06;0.0007198905467370765
7.59300e-06;0.0007089931385717494
7.59325e-06;0.0006929633017289592
7.59350e-06;0.0006759015269307518
7.59375e-06;0.000654086809019494
7.59400e-06;0.0006313152302772128
7.59425e-06;0.0006041365017898702
7.59450e-06;0.0005760868194747407
7.59475e-06;0.0005440256614938068
7.59500e-06;0.0005112289595155537
7.59525e-06;0.0004750444581468786
7.59550e-06;0.0004382694739753256
7.59575e-06;0.0003987748193459461
7.59600e-06;0.0003588301380728839
7.59625e-06;0.00031681270521185384
7.59650e-06;0.00027445363881375084
7.59675e-06;0.00023052106234398427
7.59700e-06;0.00018658848587421766
7.59725e-06;0.00014257694088704292
7.59750e-06;9.820167939145457e-05
7.59775e-06;5.3917181082488724e-05
7.59800e-06;1.0171355851850683e-05
7.59825e-06;-3.285405560411622e-05
7.59850e-06;-7.490803778001143e-05
7.59875e-06;-0.00011572055360048774
7.59900e-06;-0.00015500357386225664
7.59925e-06;-0.00019246460428303026
7.59950e-06;-0.00022781118306651035
7.59975e-06;-0.0002607498557788274
7.60000e-06;-0.000290944283376412
7.60025e-06;-0.0003178372177935529
7.60050e-06;-0.00034070917927657586
7.60075e-06;-0.0003591153803180958
7.60100e-06;-0.00037297269354688757
7.60125e-06;-0.0003823015893392206
7.60150e-06;-0.00038712259627896387
7.60175e-06;-0.0003874556366204574
7.60200e-06;-0.00038329369115964286
7.60225e-06;-0.0003744915100809132
7.60250e-06;-0.00036080214483160414
7.60275e-06;-0.00034215077330819016
7.60300e-06;-0.00031868913650978534
7.60325e-06;-0.0002906338355262117
7.60350e-06;-0.00025820151667546413
7.60375e-06;-0.00022160841455877504
7.60400e-06;-0.00018105392113617022
7.60425e-06;-0.00013665079021578784
7.60450e-06;-8.844810182815447e-05
7.60475e-06;-3.660273640228616e-05
7.60500e-06;1.85865107854748e-05
7.60525e-06;7.678022059424683e-05
7.60550e-06;0.0001376389910409568
7.60575e-06;0.00020082367544045477
7.60600e-06;0.000266143015905506
7.60625e-06;0.0003335432380840546
7.60650e-06;0.0004014521886781689
7.60675e-06;0.00047170426194168626
7.60700e-06;0.0005419563352052037
7.60725e-06;0.0006122084084689591
7.60750e-06;0.0006820653951368779
7.60775e-06;0.0007517350758067479
7.60800e-06;0.000821404756476854
7.60825e-06;0.0008902188870824994
7.60850e-06;0.0009550924893237771
7.60875e-06;0.0010199660915652746
7.60900e-06;0.001083654865577863
7.60925e-06;0.001141886508047824
7.60950e-06;0.0011987847151657177
7.60975e-06;0.001249541329820974
7.61000e-06;0.001298596095951165
7.61025e-06;0.001339812416775043
7.61050e-06;0.0013790065510107547
7.61075e-06;0.0014088868134565144
7.61100e-06;0.0014366653109886519
7.61125e-06;0.00145476341154285
7.61150e-06;0.0014707276417318413
7.61175e-06;0.0014768636023070345
7.61200e-06;0.0014808103490313198
7.61225e-06;0.0014746739227948186
7.61250e-06;0.0014663231133623241
7.61275e-06;0.0014477732049441158
7.61300e-06;0.0014271345420038568
7.61325e-06;0.0013968754058933126
7.61350e-06;0.001364682850822593
7.61375e-06;0.0013235852736269784
7.61400e-06;0.0012806950762827957
7.61425e-06;0.0012295483538839241
7.61450e-06;0.0011767686975403236
7.61475e-06;0.0011164680055557297
7.61500e-06;0.0010547884768321828
7.61525e-06;0.0009867582440357373
7.61550e-06;0.0009176218891306983
7.61575e-06;0.0008433909106322114
7.61600e-06;0.0007683173457359512
7.61625e-06;0.0006893629610737402
7.61650e-06;0.0006097687361484455
7.61675e-06;0.0005272275081092553
7.61700e-06;0.00044468628007006514
7.61725e-06;0.00036199829834308877
7.61750e-06;0.0002786343923283781
7.61775e-06;0.00019544192392233147
7.61800e-06;0.0001132661756206805
7.61825e-06;3.2446256792752366e-05
7.61850e-06;-4.654786891254701e-05
7.61875e-06;-0.00012321017384194828
7.61900e-06;-0.00019700004642564563
7.61925e-06;-0.00026736826774877446
7.61950e-06;-0.0003337656682737577
7.61975e-06;-0.0003956453633597283
7.62000e-06;-0.0004525645662650263
7.62025e-06;-0.0005046588785663852
7.62050e-06;-0.0005527178982599519
7.62075e-06;-0.000597305092762998
7.62100e-06;-0.000638377116411284
7.62125e-06;-0.0006756872476971371
7.62150e-06;-0.0007089888503779749
7.62175e-06;-0.0007380366525281014
7.62200e-06;-0.0007623158334315206
7.62225e-06;-0.0007814712179385508
7.62250e-06;-0.0007994371328397122
7.62275e-06;-0.0008119245387508424
7.62300e-06;-0.0008232752071183105
7.62325e-06;-0.0008293902420394053
7.62350e-06;-0.0008343281584007961
7.62375e-06;-0.0008338444527386052
7.62400e-06;-0.0008322482755226381
7.62425e-06;-0.000825528230173986
7.62450e-06;-0.0008179654945932078
7.62475e-06;-0.0008065214610039937
7.62500e-06;-0.0007943371537812262
7.62525e-06;-0.0007787432632148474
7.62550e-06;-0.0007622963145982116
7.62575e-06;-0.0007419203154417569
7.62600e-06;-0.0007215443162853712
7.62625e-06;-0.0007004682237658586
7.62650e-06;-0.0006761676118774896
7.62675e-06;-0.0006518669999891207
7.62700e-06;-0.0006272119414562727
7.62725e-06;-0.0006009243577056
7.62750e-06;-0.0005746367739549274
7.62775e-06;-0.0005483491902041656
7.62800e-06;-0.000522150028833989
7.62825e-06;-0.0004963581269717402
7.62850e-06;-0.00047056622510940405
7.62875e-06;-0.0004447743232471553
7.62900e-06;-0.0004194900758610139
7.62925e-06;-0.0003965440047484077
7.62950e-06;-0.00037411932793703794
7.62975e-06;-0.0003540961108615336
7.63000e-06;-0.0003345256486666556
7.63025e-06;-0.0003173291622161862
7.63050e-06;-0.0003017327504847938
7.63075e-06;-0.0002876556879640823
7.63100e-06;-0.0002751208397259844
7.63125e-06;-0.00026418841640411583
7.63150e-06;-0.0002549186047199143
7.63175e-06;-0.00024737131363887824
7.63200e-06;-0.00024159358236488303
7.63225e-06;-0.00023755953250448127
7.63250e-06;-0.00023515304369645186
7.63275e-06;-0.00023426974539253483
7.63300e-06;-0.00023496013310314495
7.63325e-06;-0.0002372728379206088
7.63350e-06;-0.00023957094884870416
7.63375e-06;-0.00024395263637894119
7.63400e-06;-0.00025021543087807614
7.63425e-06;-0.00025809634308457196
7.63450e-06;-0.00026817375564346265
7.63475e-06;-0.0002785388561065173
7.63500e-06;-0.0002897078698095441
7.63525e-06;-0.0003010952072283641
7.63550e-06;-0.00031402137036577315
7.63575e-06;-0.000327334809805967
7.63600e-06;-0.0003418086311254785
7.63625e-06;-0.00035695321063147745
7.63650e-06;-0.00037319230183730054
7.63675e-06;-0.00038943139304312363
7.63700e-06;-0.0004056704842488367
7.63725e-06;-0.00042201726944166083
7.63750e-06;-0.00043849340099367964
7.63775e-06;-0.00045496953254558684
7.63800e-06;-0.00047144566409760565
7.63825e-06;-0.0004817610418839578
7.63850e-06;-0.0004990185375788434
7.63875e-06;-0.0005168221947684869
7.63900e-06;-0.0005314624110184595
7.63925e-06;-0.0005461026272683329
7.63950e-06;-0.0005603512636603188
7.63975e-06;-0.000571883365440495
7.64000e-06;-0.000583415467220593
7.64025e-06;-0.0005944953861885884
7.64050e-06;-0.0006024383453891792
7.64075e-06;-0.0006098970896255773
7.64100e-06;-0.0006139966551837267
7.64125e-06;-0.0006175599351973101
7.64150e-06;-0.0006174028036166737
7.64175e-06;-0.0006167684604384328
7.64200e-06;-0.0006128235235315006
7.64225e-06;-0.0006083662115267583
7.64250e-06;-0.0006003543635595035
7.64275e-06;-0.0005918143774195961
7.64300e-06;-0.0005796105010248176
7.64325e-06;-0.0005668920055216937
7.64350e-06;-0.0005506034065223127
7.64375e-06;-0.0005338833194756099
7.64400e-06;-0.0005141698399158749
