Time(s);Current(A)
1.50000e-06;0.008538917049838512
1.50025e-06;0.008519123040983331
1.50050e-06;0.00849932903212817
1.50075e-06;0.008479535023273007
1.50100e-06;0.008459741014417828
1.50125e-06;0.008439947005562665
1.50150e-06;0.008420152996707486
1.50175e-06;0.008408614818049482
1.50200e-06;0.008397410650800118
1.50225e-06;0.008386206483550762
1.50250e-06;0.008375002316301408
1.50275e-06;0.008363798149052044
1.50300e-06;0.00835259398180269
1.50325e-06;0.008341389814553325
1.50350e-06;0.00833018564730397
1.50375e-06;0.008318981480054615
1.50400e-06;0.008307777312805251
1.50425e-06;0.008296573145555897
1.50450e-06;0.008285368978306533
1.50475e-06;0.008274164811057177
1.50500e-06;0.008262960643807823
1.50525e-06;0.008251756476558458
1.50550e-06;0.008240552309309104
1.50575e-06;0.00822934814205974
1.50600e-06;0.008218143974810386
1.50625e-06;0.008206939807561021
1.50650e-06;0.008195735640311666
1.50675e-06;0.008184531473062312
1.50700e-06;0.008173327305812947
1.50725e-06;0.008162123138563593
1.50750e-06;0.008153552122901208
1.50775e-06;0.008148058350110421
1.50800e-06;0.008142564577319633
1.50825e-06;0.00813707080452884
1.50850e-06;0.008131577031738054
1.50875e-06;0.008126083258947262
1.50900e-06;0.008120589486156475
1.50925e-06;0.008115095713365689
1.50950e-06;0.008109601940574897
1.50975e-06;0.00810410816778411
1.51000e-06;0.008098614394993318
1.51025e-06;0.00809312062220253
1.51050e-06;0.008087626849411738
1.51075e-06;0.008082133076620951
1.51100e-06;0.008076639303830164
1.51125e-06;0.008071145531039372
1.51150e-06;0.008065651758248586
1.51175e-06;0.008060157985457794
1.51200e-06;0.008054664212667007
1.51225e-06;0.008049170439876218
1.51250e-06;0.008043676667085426
1.51275e-06;0.00803818289429464
1.51300e-06;0.008032689121503848
1.51325e-06;0.008027195348713061
1.51350e-06;0.00801480211153481
1.51375e-06;0.00800212973830809
1.51400e-06;0.00798945736508138
1.51425e-06;0.007976784991854658
1.51450e-06;0.007964112618627948
1.51475e-06;0.007951440245401228
1.51500e-06;0.007938767872174518
1.51525e-06;0.007926095498947806
1.51550e-06;0.007913423125721086
1.51575e-06;0.007900750752494376
1.51600e-06;0.0078809971408425
1.51625e-06;0.007852968012288178
1.51650e-06;0.007824938883733855
1.51675e-06;0.007796909755179509
1.51700e-06;0.007768880626625186
1.51725e-06;0.00774085149807084
1.51750e-06;0.0077128223695165175
1.51775e-06;0.007684793240962194
1.51800e-06;0.007656764112407849
1.51825e-06;0.007628734983853525
1.51850e-06;0.007600705855299179
1.51875e-06;0.007565110963442144
1.51900e-06;0.007529209978654835
1.51925e-06;0.007493308993867557
1.51950e-06;0.007457408009080278
1.51975e-06;0.007421507024292969
1.52000e-06;0.00738560603950569
1.52025e-06;0.007349705054718381
1.52050e-06;0.007313804069931102
1.52075e-06;0.007277903085143823
1.52100e-06;0.007247084526948332
1.52125e-06;0.00721647159173972
1.52150e-06;0.007185858656531082
1.52175e-06;0.00715524572132247
1.52200e-06;0.007124632786113858
1.52225e-06;0.00709401985090522
1.52250e-06;0.0070634069156966075
1.52275e-06;0.00703279398048797
1.52300e-06;0.007002181045279358
1.52325e-06;0.0069936078219487415
1.52350e-06;0.006985926273353314
1.52375e-06;0.006978244724757885
1.52400e-06;0.006970563176162451
1.52425e-06;0.006962881627567023
1.52450e-06;0.006955200078971589
1.52475e-06;0.00694751853037616
1.52500e-06;0.0069547335067763
1.52525e-06;0.006979357365208298
1.52550e-06;0.007003981223640274
1.52575e-06;0.007028605082072271
1.52600e-06;0.007053228940504248
1.52625e-06;0.007077852798936224
1.52650e-06;0.007102476657368221
1.52675e-06;0.007127100515800198
1.52700e-06;0.007173619923898581
1.52725e-06;0.007221025174269083
1.52750e-06;0.007268430424639626
1.52775e-06;0.007315835675010128
1.52800e-06;0.0073792109556169395
1.52825e-06;0.007443232345962355
1.52850e-06;0.007507253736307717
1.52875e-06;0.007571275126653133
1.52900e-06;0.007635296516998494
1.52925e-06;0.007699317907343856
1.52950e-06;0.007763339297689272
1.52975e-06;0.007827360688034633
1.53000e-06;0.007891382078380048
1.53025e-06;0.007956389281655995
1.53050e-06;0.008021436368596866
1.53075e-06;0.008086483455537793
1.53100e-06;0.008151530542478665
1.53125e-06;0.00821657762941959
1.53150e-06;0.008281624716360462
1.53175e-06;0.008346671803301389
1.53200e-06;0.00841171889024226
1.53225e-06;0.008476765977183132
1.53250e-06;0.008508704210632885
1.53275e-06;0.00853930293799822
1.53300e-06;0.00856990166536358
1.53325e-06;0.008600500392728914
1.53350e-06;0.00863109912009425
1.53375e-06;0.00866169784745961
1.53400e-06;0.008692296574824945
1.53425e-06;0.008722895302190305
1.53450e-06;0.008753494029555641
1.53475e-06;0.008784092756920976
1.53500e-06;0.008814691484286336
1.53525e-06;0.00884529021165167
1.53550e-06;0.008875888939017033
1.53575e-06;0.008906487666382367
1.53600e-06;0.008937086393747727
1.53625e-06;0.00893403792942249
1.53650e-06;0.008929628179119856
1.53675e-06;0.00892521842881722
1.53700e-06;0.008920808678514587
1.53725e-06;0.00891639892821195
1.53750e-06;0.008911989177909318
1.53775e-06;0.008907579427606685
1.53800e-06;0.008903169677304049
1.53825e-06;0.008898759927001417
1.53850e-06;0.008894350176698781
1.53875e-06;0.008889940426396148
1.53900e-06;0.008885530676093515
1.53925e-06;0.008881120925790879
1.53950e-06;0.008876711175488246
1.53975e-06;0.00887230142518561
1.54000e-06;0.008857582924959688
1.54025e-06;0.008842447357037831
1.54050e-06;0.008827311789115961
1.54075e-06;0.008812176221194103
1.54100e-06;0.008797040653272232
1.54125e-06;0.008781905085350376
1.54150e-06;0.008767462579311335
1.54175e-06;0.008753830022744508
1.54200e-06;0.008740197466177681
1.54225e-06;0.008726564909610844
1.54250e-06;0.008712932353044019
1.54275e-06;0.00869929979647718
1.54300e-06;0.008685667239910355
1.54325e-06;0.008667618606370315
1.54350e-06;0.008649391308776733
1.54375e-06;0.008631164011183166
1.54400e-06;0.008612936713589585
1.54425e-06;0.008594709415996018
1.54450e-06;0.008576482118402451
1.54475e-06;0.00855825482080887
1.54500e-06;0.008540027523215303
1.54525e-06;0.008514324912153459
1.54550e-06;0.008479886246854605
1.54575e-06;0.008445447581555724
1.54600e-06;0.00841100891625687
1.54625e-06;0.008376570250958018
1.54650e-06;0.008342131585659137
1.54675e-06;0.008307692920360283
1.54700e-06;0.008273254255061402
1.54725e-06;0.008238815589762548
1.54750e-06;0.008189942699152486
1.54775e-06;0.008140485833847454
1.54800e-06;0.008091028968542463
1.54825e-06;0.008041572103237431
1.54850e-06;0.00799211523793244
1.54875e-06;0.00794265837262745
1.54900e-06;0.007893201507322417
1.54925e-06;0.007843744642017429
1.54950e-06;0.007794287776712395
1.54975e-06;0.0077448309114074056
1.55000e-06;0.0076959733909423836
1.55025e-06;0.007647816297162001
1.55050e-06;0.007599659203381617
1.55075e-06;0.0075515021096011934
1.55100e-06;0.00750334501582081
1.55125e-06;0.007455187922040386
1.55150e-06;0.0074070308282600025
1.55175e-06;0.00735887373447962
1.55200e-06;0.007310716640699195
1.55225e-06;0.007262559546918812
1.55250e-06;0.007214402453138388
1.55275e-06;0.007188632856445591
1.55300e-06;0.007163769005055877
1.55325e-06;0.007138905153666141
1.55350e-06;0.007114041302276427
1.55375e-06;0.00708917745088669
1.55400e-06;0.007064313599496976
1.55425e-06;0.00703944974810724
1.55450e-06;0.007048798161939018
1.55475e-06;0.007059530723288887
1.55500e-06;0.007070263284638765
1.55525e-06;0.007080995845988634
1.55550e-06;0.007091728407338511
1.55575e-06;0.00710246096868838
1.55600e-06;0.007113193530038249
1.55625e-06;0.007162861100975472
1.55650e-06;0.007214103890523164
1.55675e-06;0.0072653466800708996
1.55700e-06;0.0073165894696185915
1.55725e-06;0.007367832259166283
1.55750e-06;0.00741907504871402
1.55775e-06;0.0074703178382617115
1.55800e-06;0.007521560627809447
1.55825e-06;0.007572803417357139
1.55850e-06;0.0076358072994509646
1.55875e-06;0.0077125558282138355
1.55900e-06;0.007789304356976707
1.55925e-06;0.007866052885739643
1.55950e-06;0.007942801414502513
1.55975e-06;0.00801954994326545
1.56000e-06;0.008096298472028321
1.56025e-06;0.008173047000791193
1.56050e-06;0.008249795529554129
1.56075e-06;0.008326544058316999
1.56100e-06;0.008399760557096283
1.56125e-06;0.008472834158277145
1.56150e-06;0.008545907759458007
1.56175e-06;0.008618981360638931
1.56200e-06;0.008692054961819795
1.56225e-06;0.008756363465406359
1.56250e-06;0.008810428603507933
1.56275e-06;0.008864493741609553
1.56300e-06;0.008918558879711125
1.56325e-06;0.0089726240178127
1.56350e-06;0.009026689155914319
1.56375e-06;0.009053395777256302
1.56400e-06;0.009078995537570153
1.56425e-06;0.009104595297883981
1.56450e-06;0.00913019505819781
1.56475e-06;0.009155794818511661
1.56500e-06;0.00918139457882549
1.56525e-06;0.00920699433913934
1.56550e-06;0.009232594099453168
1.56575e-06;0.009258193859766997
1.56600e-06;0.009283793620080848
1.56625e-06;0.009309393380394677
1.56650e-06;0.009334993140708528
1.56675e-06;0.009360592901022357
1.56700e-06;0.009386192661336206
1.56725e-06;0.009411792421650035
1.56750e-06;0.009414233514723393
1.56775e-06;0.00941573766276957
1.56800e-06;0.009417241810815746
1.56825e-06;0.009418745958861923
1.56850e-06;0.009420250106908098
1.56875e-06;0.009421754254954274
1.56900e-06;0.009423258403000451
1.56925e-06;0.009424762551046626
1.56950e-06;0.009426266699092804
1.56975e-06;0.009427770847138979
1.57000e-06;0.009429274995185154
1.57025e-06;0.009430779143231332
1.57050e-06;0.009432283291277507
1.57075e-06;0.009433787439323684
1.57100e-06;0.00943529158736986
1.57125e-06;0.00943112912012641
1.57150e-06;0.009426737395000346
1.57175e-06;0.00942234566987428
1.57200e-06;0.00941795394474821
1.57225e-06;0.009413562219622145
1.57250e-06;0.009409170494496076
1.57275e-06;0.00940477876937001
1.57300e-06;0.009400387044243945
1.57325e-06;0.009395995319117875
1.57350e-06;0.009384459399020913
1.57375e-06;0.009364574387611437
1.57400e-06;0.009344689376201977
1.57425e-06;0.009324804364792518
1.57450e-06;0.009304919353383042
1.57475e-06;0.009285034341973582
1.57500e-06;0.009265149330564106
1.57525e-06;0.009245264319154647
1.57550e-06;0.009225379307745188
1.57575e-06;0.009205494296335711
1.57600e-06;0.009157637513789653
1.57625e-06;0.009108649059390957
1.57650e-06;0.009059660604992305
1.57675e-06;0.009010672150593611
1.57700e-06;0.008961683696194959
1.57725e-06;0.008912695241796305
1.57750e-06;0.008863706787397611
1.57775e-06;0.00881471833299896
1.57800e-06;0.008765729878600264
1.57825e-06;0.008716741424201611
1.57850e-06;0.008660520668174158
1.57875e-06;0.00859584785464504
1.57900e-06;0.008531175041115977
1.57925e-06;0.00846650222758686
1.57950e-06;0.008401829414057798
1.57975e-06;0.008337156600528734
1.58000e-06;0.008272483786999617
1.58025e-06;0.008207810973470555
1.58050e-06;0.008143138159941438
1.58075e-06;0.008078465346412374
1.58100e-06;0.008013792532883257
1.58125e-06;0.007959139479698183
1.58150e-06;0.00790489180237198
1.58175e-06;0.007850644125045731
1.58200e-06;0.007796396447719529
1.58225e-06;0.00774214877039328
1.58250e-06;0.007687901093067078
1.58275e-06;0.0076336534157408755
1.58300e-06;0.007579405738414627
1.58325e-06;0.007554063243446245
1.58350e-06;0.007529890183945471
1.58375e-06;0.007505717124444717
1.58400e-06;0.007481544064943963
1.58425e-06;0.007457371005443188
1.58450e-06;0.0074331979459424345
1.58475e-06;0.007409024886441661
1.58500e-06;0.007384851826940907
1.58525e-06;0.007400047993029923
1.58550e-06;0.007416836945082517
1.58575e-06;0.00743362589713511
1.58600e-06;0.007450414849187719
1.58625e-06;0.007467203801240312
1.58650e-06;0.007483992753292921
1.58675e-06;0.007500781705345514
1.58700e-06;0.0075175706573981085
1.58725e-06;0.0075343596094507165
1.58750e-06;0.007551148561503311
1.58775e-06;0.007582246656889226
1.58800e-06;0.007630067188430617
1.58825e-06;0.007677887719972009
1.58850e-06;0.00772570825151344
1.58875e-06;0.007773528783054831
1.58900e-06;0.007821349314596262
1.58925e-06;0.007869169846137654
1.58950e-06;0.007916990377679085
1.58975e-06;0.007964810909220476
1.59000e-06;0.008012631440761867
1.59025e-06;0.008060451972303298
1.59050e-06;0.008110958586204246
1.59075e-06;0.008161573872658848
1.59100e-06;0.008212189159113406
1.59125e-06;0.008262804445567965
1.59150e-06;0.008313419732022567
1.59175e-06;0.008364035018477125
1.59200e-06;0.008414650304931725
1.59225e-06;0.008465265591386283
1.59250e-06;0.008497652886448371
1.59275e-06;0.008529302719993487
1.59300e-06;0.008560952553538576
1.59325e-06;0.008592602387083691
1.59350e-06;0.00862425222062878
1.59375e-06;0.008655902054173896
1.59400e-06;0.008687551887718985
1.59425e-06;0.008719201721264074
1.59450e-06;0.008720969416616577
1.59475e-06;0.008721528151174295
1.59500e-06;0.008722086885732012
1.59525e-06;0.00872264562028973
1.59550e-06;0.008723204354847448
1.59575e-06;0.008723763089405166
1.59600e-06;0.008724321823962884
1.59625e-06;0.008724880558520602
1.59650e-06;0.00872543929307832
1.59675e-06;0.008725998027636038
1.59700e-06;0.008726556762193756
1.59725e-06;0.008727115496751474
1.59750e-06;0.008727674231309192
1.59775e-06;0.008717740248808835
1.59800e-06;0.00869425267035708
1.59825e-06;0.008670765091905345
1.59850e-06;0.00864727751345361
1.59875e-06;0.008623789935001855
1.59900e-06;0.00860030235655012
1.59925e-06;0.008576814778098366
1.59950e-06;0.00855332719964663
1.59975e-06;0.008529839621194895
1.60000e-06;0.00850635204274314
1.60025e-06;0.008482864464291405
1.60050e-06;0.008459376885839651
1.60075e-06;0.008435889307387916
1.60100e-06;0.008412401728936182
1.60125e-06;0.008390089145338692
1.60150e-06;0.008367890512979188
1.60175e-06;0.008345691880619665
1.60200e-06;0.008323493248260162
1.60225e-06;0.008301294615900639
1.60250e-06;0.008279095983541134
1.60275e-06;0.00825689735118163
1.60300e-06;0.008234698718822108
1.60325e-06;0.008212500086462604
1.60350e-06;0.00819030145410308
1.60375e-06;0.008168102821743578
1.60400e-06;0.008145904189384073
1.60425e-06;0.008122832186382937
1.60450e-06;0.008098511628669428
1.60475e-06;0.008074191070955897
1.60500e-06;0.008049870513242388
1.60525e-06;0.00802554995552888
1.60550e-06;0.008001229397815349
1.60575e-06;0.00797690884010184
1.60600e-06;0.007952588282388309
1.60625e-06;0.0079282677246748
1.60650e-06;0.007903947166961271
1.60675e-06;0.00787962660924776
1.60700e-06;0.007855306051534252
1.60725e-06;0.00783098549382072
1.60750e-06;0.0077993057758635465
1.60775e-06;0.00776691236506163
1.60800e-06;0.007734518954259742
1.60825e-06;0.007702125543457853
1.60850e-06;0.007669732132655937
1.60875e-06;0.007637338721854048
1.60900e-06;0.007604945311052132
1.60925e-06;0.0075725519002502436
1.60950e-06;0.007540158489448355
1.60975e-06;0.00750776507864644
1.61000e-06;0.00747537166784455
1.61025e-06;0.007442978257042635
1.61050e-06;0.00741308848830269
1.61075e-06;0.0073867778805117214
1.61100e-06;0.0073604672727207755
1.61125e-06;0.00733415666492983
1.61150e-06;0.007307846057138861
1.61175e-06;0.007281535449347915
1.61200e-06;0.007255224841556947
1.61225e-06;0.007228914233766001
1.61250e-06;0.007202603625975054
1.61275e-06;0.0071762930181840864
1.61300e-06;0.00714998241039314
1.61325e-06;0.007123671802602172
1.61350e-06;0.007097361194811225
1.61375e-06;0.007093753784891736
1.61400e-06;0.007092348135680639
1.61425e-06;0.007090942486469543
1.61450e-06;0.007089536837258446
1.61475e-06;0.00708813118804735
1.61500e-06;0.007086725538836255
1.61525e-06;0.007085319889625158
1.61550e-06;0.007083914240414062
1.61575e-06;0.007082508591202965
1.61600e-06;0.007081102941991869
1.61625e-06;0.007079697292780772
1.61650e-06;0.007088401008078288
1.61675e-06;0.00711155688617381
1.61700e-06;0.007134712764269352
1.61725e-06;0.007157868642364874
1.61750e-06;0.007181024520460416
1.61775e-06;0.007204180398555939
1.61800e-06;0.007227336276651461
1.61825e-06;0.007250492154747003
1.61850e-06;0.007273648032842525
1.61875e-06;0.007296803910938067
1.61900e-06;0.007319959789033589
1.61925e-06;0.007343115667129112
1.61950e-06;0.007374222581594369
1.61975e-06;0.007406100589170238
1.62000e-06;0.007437978596746135
1.62025e-06;0.007469856604322004
1.62050e-06;0.007501734611897901
1.62075e-06;0.00753361261947377
1.62100e-06;0.00756549062704964
1.62125e-06;0.007597368634625536
1.62150e-06;0.00762334909686523
1.62175e-06;0.007648757613968894
1.62200e-06;0.007674166131072536
1.62225e-06;0.007699574648176178
1.62250e-06;0.007724983165279842
1.62275e-06;0.0077503916823834845
1.62300e-06;0.007775800199487148
1.62325e-06;0.007801208716590791
1.62350e-06;0.007820064224459446
1.62375e-06;0.007838284220170992
1.62400e-06;0.007856504215882522
1.62425e-06;0.00787472421159407
1.62450e-06;0.0078929442073056
1.62475e-06;0.007911164203017147
1.62500e-06;0.007929384198728677
1.62525e-06;0.00794760419444021
1.62550e-06;0.007965824190151755
1.62575e-06;0.007984044185863286
1.62600e-06;0.008002264181574832
1.62625e-06;0.008020484177286364
1.62650e-06;0.008038704172997894
1.62675e-06;0.00805692416870944
1.62700e-06;0.008074889892638604
1.62725e-06;0.008092830957239052
1.62750e-06;0.008110772021839487
1.62775e-06;0.00812871308643992
1.62800e-06;0.00814665415104037
1.62825e-06;0.008164595215640802
1.62850e-06;0.008182536280241251
1.62875e-06;0.008200477344841686
1.62900e-06;0.008218418409442135
1.62925e-06;0.008236359474042568
1.62950e-06;0.008254300538643001
1.62975e-06;0.00827224160324345
1.63000e-06;0.008290182667843884
1.63025e-06;0.008308123732444333
1.63050e-06;0.00832356927888813
1.63075e-06;0.00833877280947787
1.63100e-06;0.00835397634006762
1.63125e-06;0.00836917987065736
1.63150e-06;0.00838438340124711
1.63175e-06;0.00839958693183685
1.63200e-06;0.008414790462426588
1.63225e-06;0.008428717771988536
1.63250e-06;0.008440820619286523
1.63275e-06;0.00845292346658452
1.63300e-06;0.008465026313882507
1.63325e-06;0.008477129161180505
1.63350e-06;0.008489232008478492
1.63375e-06;0.008501334855776478
1.63400e-06;0.008513437703074476
1.63425e-06;0.008535328862715083
1.63450e-06;0.00855816929486048
1.63475e-06;0.00858100972700586
1.63500e-06;0.008603850159151239
1.63525e-06;0.008626690591296636
1.63550e-06;0.008649531023442016
1.63575e-06;0.008672371455587413
1.63600e-06;0.008695211887732793
1.63625e-06;0.008718052319878171
1.63650e-06;0.00874089275202357
1.63675e-06;0.008763733184168948
1.63700e-06;0.008800329607828623
1.63725e-06;0.00883826009031912
1.63750e-06;0.008876190572809648
1.63775e-06;0.008914121055300145
1.63800e-06;0.008952051537790641
1.63825e-06;0.00898998202028117
1.63850e-06;0.009027912502771665
1.63875e-06;0.009065842985262194
1.63900e-06;0.00910377346775269
1.63925e-06;0.009141703950243186
1.63950e-06;0.009179634432733714
1.63975e-06;0.00921851387865011
1.64000e-06;0.00925748535523093
1.64025e-06;0.009296456831811718
1.64050e-06;0.009335428308392506
1.64075e-06;0.009374399784973324
1.64100e-06;0.009413371261554112
1.64125e-06;0.009452342738134932
1.64150e-06;0.00949131421471572
1.64175e-06;0.00953028569129654
1.64200e-06;0.009569257167877326
1.64225e-06;0.009608228644458114
1.64250e-06;0.009636238255504775
1.64275e-06;0.009648576983865283
1.64300e-06;0.0096609157122258
1.64325e-06;0.009673254440586308
1.64350e-06;0.009685593168946816
1.64375e-06;0.009697931897307333
1.64400e-06;0.00971027062566784
1.64425e-06;0.009722609354028359
1.64450e-06;0.009734948082388865
1.64475e-06;0.009747286810749373
1.64500e-06;0.009759625539109891
1.64525e-06;0.009771964267470398
1.64550e-06;0.00974584874400277
1.64575e-06;0.009716003919439399
1.64600e-06;0.009686159094876
1.64625e-06;0.009656314270312626
1.64650e-06;0.009626469445749252
1.64675e-06;0.009596624621185854
1.64700e-06;0.00956677979662248
1.64725e-06;0.009536934972059083
1.64750e-06;0.00950709014749571
1.64775e-06;0.009477245322932336
1.64800e-06;0.009447400498368938
1.64825e-06;0.00939479122936434
1.64850e-06;0.009339974259947936
1.64875e-06;0.009285157290531577
1.64900e-06;0.009230340321115218
1.64925e-06;0.009175523351698814
1.64950e-06;0.009120706382282455
1.64975e-06;0.009065889412866051
1.65000e-06;0.009011072443449692
1.65025e-06;0.008956255474033333
1.65050e-06;0.00890143850461693
1.65075e-06;0.00884662153520057
1.65100e-06;0.008794546056961472
1.65125e-06;0.008742736449089532
1.65150e-06;0.008690926841217547
1.65175e-06;0.008639117233345605
