Time(s);Current(A)
2.25000e-06;0.005781288774533415
2.25025e-06;0.0057960401790572635
2.25050e-06;0.005810791583581111
2.25075e-06;0.005825542988104935
2.25100e-06;0.005840294392628784
2.25125e-06;0.005855045797152632
2.25150e-06;0.005871433185682288
2.25175e-06;0.005893699314783053
2.25200e-06;0.005915965443883819
2.25225e-06;0.005938231572984585
2.25250e-06;0.005960497702085312
2.25275e-06;0.005982763831186078
2.25300e-06;0.006005029960286843
2.25325e-06;0.006027296089387572
2.25350e-06;0.006049562218488337
2.25375e-06;0.006071828347589103
2.25400e-06;0.00609409447668983
2.25425e-06;0.006116360605790596
2.25450e-06;0.006138626734891362
2.25475e-06;0.006160892863992127
2.25500e-06;0.006180707449544502
2.25525e-06;0.006199557763389005
2.25550e-06;0.006218408077233509
2.25575e-06;0.00623725839107798
2.25600e-06;0.006256108704922482
2.25625e-06;0.0062749590187669855
2.25650e-06;0.006293809332611489
2.25675e-06;0.006312659646455959
2.25700e-06;0.006331509960300462
2.25725e-06;0.006350360274144966
2.25750e-06;0.006369210587989437
2.25775e-06;0.006388060901833939
2.25800e-06;0.0064069112156784425
2.25825e-06;0.006422437187173821
2.25850e-06;0.00642601747572143
2.25875e-06;0.00642959776426904
2.25900e-06;0.006433178052816649
2.25925e-06;0.006436758341364252
2.25950e-06;0.006440338629911862
2.25975e-06;0.006443918918459471
2.26000e-06;0.006447499207007074
2.26025e-06;0.006451079495554683
2.26050e-06;0.006454659784102292
2.26075e-06;0.006458240072649901
2.26100e-06;0.006461820361197505
2.26125e-06;0.006465400649745114
2.26150e-06;0.006468980938292723
2.26175e-06;0.006472561226840327
2.26200e-06;0.006476141515387936
2.26225e-06;0.006479721803935545
2.26250e-06;0.0064833020924831486
2.26275e-06;0.006484906276782619
2.26300e-06;0.006479409533337023
2.26325e-06;0.006473912789891427
2.26350e-06;0.00646841604644584
2.26375e-06;0.006462919303000244
2.26400e-06;0.006457422559554647
2.26425e-06;0.00645192581610906
2.26450e-06;0.006446429072663465
2.26475e-06;0.006440932329217868
2.26500e-06;0.0064354355857722725
2.26525e-06;0.0064299388423266855
2.26550e-06;0.00642444209888109
2.26575e-06;0.006418945355435493
2.26600e-06;0.006413448611989906
2.26625e-06;0.0064079518685443105
2.26650e-06;0.006402455125098714
2.26675e-06;0.006396958381653127
2.26700e-06;0.006391461638207531
2.26725e-06;0.006384878490290495
2.26750e-06;0.0063743914594375705
2.26775e-06;0.0063639044285846635
2.26800e-06;0.006353417397731738
2.26825e-06;0.006342930366878814
2.26850e-06;0.006332443336025907
2.26875e-06;0.0063219563051729825
2.26900e-06;0.006311469274320057
2.26925e-06;0.006300982243467133
2.26950e-06;0.006290495212614226
2.26975e-06;0.0062800081817613014
2.27000e-06;0.006265620617663555
2.27025e-06;0.0062372168877859145
2.27050e-06;0.006208813157908226
2.27075e-06;0.006180409428030538
2.27100e-06;0.006152005698152897
2.27125e-06;0.0061236019682752085
2.27150e-06;0.00609519823839752
2.27175e-06;0.006066794508519831
2.27200e-06;0.00603839077864219
2.27225e-06;0.006009987048764502
2.27250e-06;0.005981583318886813
2.27275e-06;0.005950550188302316
2.27300e-06;0.00591006857621602
2.27325e-06;0.005869586964129724
2.27350e-06;0.0058291053520434285
2.27375e-06;0.005788623739957201
2.27400e-06;0.005748142127870904
2.27425e-06;0.005707660515784608
2.27450e-06;0.005667178903698381
2.27475e-06;0.005626697291612085
2.27500e-06;0.005586215679525789
2.27525e-06;0.005546815032001183
2.27550e-06;0.005511298719655321
2.27575e-06;0.005475782407309458
2.27600e-06;0.005440266094963596
2.27625e-06;0.005404749782617794
2.27650e-06;0.005369233470271931
2.27675e-06;0.005333717157926069
2.27700e-06;0.005298200845580267
2.27725e-06;0.005262684533234404
2.27750e-06;0.005227168220888542
2.27775e-06;0.0051961179469462455
2.27800e-06;0.005181115923517589
2.27825e-06;0.005166113900088907
2.27850e-06;0.005151111876660225
2.27875e-06;0.0051361098532315685
2.27900e-06;0.005121107829802887
2.27925e-06;0.005106105806374205
2.27950e-06;0.005091103782945548
2.27975e-06;0.0050761017595168665
2.28000e-06;0.005061099736088185
2.28025e-06;0.005046097712659502
2.28050e-06;0.005031095689230846
2.28075e-06;0.005016093665802164
2.28100e-06;0.005001091642373482
2.28125e-06;0.004986089618944826
2.28150e-06;0.004974580999993267
2.28175e-06;0.004975625571392956
2.28200e-06;0.004976670142792646
2.28225e-06;0.004977714714192332
2.28250e-06;0.0049787592855920215
2.28275e-06;0.004979803856991711
2.28300e-06;0.004980848428391397
2.28325e-06;0.004981892999791087
2.28350e-06;0.004982937571190776
2.28375e-06;0.0049839821425904625
2.28400e-06;0.004985026713990152
2.28425e-06;0.004986071285389841
2.28450e-06;0.004987115856789529
2.28475e-06;0.004988160428189217
2.28500e-06;0.004989204999588906
2.28525e-06;0.004990975003814949
2.28550e-06;0.004995351776428694
2.28575e-06;0.004999728549042447
2.28600e-06;0.0050041053216562
2.28625e-06;0.005008482094269953
2.28650e-06;0.005012858866883698
2.28675e-06;0.005017235639497451
2.28700e-06;0.005021612412111204
2.28725e-06;0.0050259891847249496
2.28750e-06;0.005030365957338702
2.28775e-06;0.005034742729952455
2.28800e-06;0.005044034667085404
2.28825e-06;0.005055259898077243
2.28850e-06;0.005066485129069083
2.28875e-06;0.005077710360060922
2.28900e-06;0.0050889355910527425
2.28925e-06;0.005100160822044582
2.28950e-06;0.0051113860530364215
2.28975e-06;0.005122611284028242
2.29000e-06;0.005133836515020081
2.29025e-06;0.005145061746011921
2.29050e-06;0.005160070619852988
2.29075e-06;0.005188675625840254
2.29100e-06;0.005217280631827568
2.29125e-06;0.005245885637814883
2.29150e-06;0.005274490643802149
2.29175e-06;0.005303095649789463
2.29200e-06;0.005331700655776778
2.29225e-06;0.005360305661764045
2.29250e-06;0.005388910667751359
2.29275e-06;0.005417515673738674
2.29300e-06;0.005446120679725989
2.29325e-06;0.005474725685713254
2.29350e-06;0.005508956933576588
2.29375e-06;0.0055454011651204374
2.29400e-06;0.005581845396664225
2.29425e-06;0.005618289628208074
2.29450e-06;0.005654733859751924
2.29475e-06;0.005691178091295773
2.29500e-06;0.0057276223228395606
2.29525e-06;0.005764066554383409
2.29550e-06;0.005800510785927258
2.29575e-06;0.005836955017471046
2.29600e-06;0.005873399249014895
2.29625e-06;0.0059082131929015765
2.29650e-06;0.005937168865458683
2.29675e-06;0.005966124538015838
2.29700e-06;0.005995080210572994
2.29725e-06;0.0060240358831301485
2.29750e-06;0.006052991555687255
2.29775e-06;0.006077265408613279
2.29800e-06;0.006084715623333478
2.29825e-06;0.006092165838053664
2.29850e-06;0.006099616052773863
2.29875e-06;0.006107066267494062
2.29900e-06;0.006114516482214261
2.29925e-06;0.006121966696934447
2.29950e-06;0.006129416911654646
2.29975e-06;0.006136867126374845
2.30000e-06;0.006144317341095031
2.30025e-06;0.0061517675558152305
2.30050e-06;0.0061592177705354295
2.30075e-06;0.006166667985255616
2.30100e-06;0.006174118199975815
2.30125e-06;0.006176241709512335
2.30150e-06;0.006159224250813752
2.30175e-06;0.006142206792115197
2.30200e-06;0.006125189333416614
2.30225e-06;0.0061081718747180306
2.30250e-06;0.006091154416019476
2.30275e-06;0.006074136957320893
2.30300e-06;0.006057119498622309
2.30325e-06;0.006040102039923726
2.30350e-06;0.006023084581225171
2.30375e-06;0.006006067122526588
2.30400e-06;0.0059890496638280045
2.30425e-06;0.00597203220512945
2.30450e-06;0.0059550147464308666
2.30475e-06;0.005937279218467456
2.30500e-06;0.005916963382318251
2.30525e-06;0.005896647546169011
2.30550e-06;0.005876331710019771
2.30575e-06;0.0058560158738705315
2.30600e-06;0.005835700037721326
2.30625e-06;0.005815384201572086
2.30650e-06;0.005795068365422847
2.30675e-06;0.005774752529273642
2.30700e-06;0.0057544366931244016
2.30725e-06;0.0057341208569751615
2.30750e-06;0.005713805020825922
2.30775e-06;0.005693489184676717
2.30800e-06;0.005673173348527477
2.30825e-06;0.005664857544243961
2.30850e-06;0.005661261742276804
2.30875e-06;0.005657665940309642
2.30900e-06;0.00565407013834248
2.30925e-06;0.005650474336375323
2.30950e-06;0.005646878534408161
2.30975e-06;0.005643282732440999
2.31000e-06;0.0056396869304738365
2.31025e-06;0.00563609112850668
2.31050e-06;0.005632495326539518
2.31075e-06;0.005628899524572356
2.31100e-06;0.0056253037226051995
2.31125e-06;0.005621707920638037
2.31150e-06;0.005621553436643065
2.31175e-06;0.005633764975494327
2.31200e-06;0.005645976514345568
2.31225e-06;0.00565818805319683
2.31250e-06;0.005670399592048092
2.31275e-06;0.005682611130899334
2.31300e-06;0.005694822669750596
2.31325e-06;0.005707034208601858
2.31350e-06;0.005719245747453099
2.31375e-06;0.005731457286304361
2.31400e-06;0.005743668825155623
2.31425e-06;0.005755880364006885
2.31450e-06;0.005768091902858126
2.31475e-06;0.005781861139824507
2.31500e-06;0.005796243070056554
2.31525e-06;0.005810625000288576
2.31550e-06;0.005825006930520624
2.31575e-06;0.005839388860752671
2.31600e-06;0.005853770790984693
2.31625e-06;0.005868152721216741
2.31650e-06;0.005882534651448787
2.31675e-06;0.005896916581680835
2.31700e-06;0.005911298511912857
2.31725e-06;0.005925680442144904
2.31750e-06;0.005940062372376952
2.31775e-06;0.005950744126847312
2.31800e-06;0.005948129679578365
2.31825e-06;0.005945515232309418
2.31850e-06;0.005942900785040471
2.31875e-06;0.005940286337771529
2.31900e-06;0.005937671890502582
2.31925e-06;0.005935057443233635
2.31950e-06;0.005932442995964693
2.31975e-06;0.005929828548695746
2.32000e-06;0.005927214101426799
2.32025e-06;0.005924599654157856
2.32050e-06;0.00592198520688891
2.32075e-06;0.005919370759619963
2.32100e-06;0.005916756312351016
2.32125e-06;0.005914141865082073
2.32150e-06;0.005896825657612688
2.32175e-06;0.005873726770315067
2.32200e-06;0.005850627883017485
2.32225e-06;0.005827528995719865
2.32250e-06;0.0058044301084222445
2.32275e-06;0.005781331221124624
2.32300e-06;0.005758232333827042
2.32325e-06;0.005735133446529422
2.32350e-06;0.005712034559231801
2.32375e-06;0.005688935671934219
2.32400e-06;0.005665836784636599
2.32425e-06;0.005642737897338978
2.32450e-06;0.005619639010041397
2.32475e-06;0.005596540122743776
2.32500e-06;0.005573381569734183
2.32525e-06;0.005550008614113893
2.32550e-06;0.005526635658493642
2.32575e-06;0.005503262702873352
2.32600e-06;0.005479889747253061
2.32625e-06;0.00545651679163281
2.32650e-06;0.005433143836012519
2.32675e-06;0.005409770880392229
2.32700e-06;0.005386397924771939
2.32725e-06;0.005363024969151688
2.32750e-06;0.005339652013531398
2.32775e-06;0.005316279057911107
2.32800e-06;0.005292906102290856
2.32825e-06;0.005278689693014853
2.32850e-06;0.005268074850838416
2.32875e-06;0.005257460008661998
2.32900e-06;0.0052468451664855606
2.32925e-06;0.005236230324309124
2.32950e-06;0.005225615482132687
2.32975e-06;0.0052150006399562686
2.33000e-06;0.005204385797779832
2.33025e-06;0.005193770955603395
2.33050e-06;0.0051831561134269765
2.33075e-06;0.00517254127125054
2.33100e-06;0.005161926429074103
2.33125e-06;0.005153340736235718
2.33150e-06;0.005152046583231863
2.33175e-06;0.005150752430228006
2.33200e-06;0.005149458277224149
2.33225e-06;0.005148164124220293
2.33250e-06;0.005146869971216436
2.33275e-06;0.005145575818212579
2.33300e-06;0.005144281665208724
2.33325e-06;0.005142987512204867
2.33350e-06;0.005141693359201009
2.33375e-06;0.005140399206197152
2.33400e-06;0.005139105053193297
2.33425e-06;0.00513781090018944
2.33450e-06;0.005136516747185582
2.33475e-06;0.005135222594181727
2.33500e-06;0.005136071882699158
2.33525e-06;0.005137764256390093
2.33550e-06;0.005139456630081027
2.33575e-06;0.005141149003771959
2.33600e-06;0.005142841377462893
2.33625e-06;0.005144533751153828
2.33650e-06;0.00514622612484476
2.33675e-06;0.005147918498535694
2.33700e-06;0.005149610872226628
2.33725e-06;0.00515130324591756
2.33750e-06;0.005152995619608494
2.33775e-06;0.0051546879932994295
2.33800e-06;0.005156380366990364
2.33825e-06;0.0051580727406812955
2.33850e-06;0.0051618338325991105
2.33875e-06;0.0051730286510917045
2.33900e-06;0.00518422346958428
2.33925e-06;0.005195418288076874
2.33950e-06;0.005206613106569468
2.33975e-06;0.005217807925062062
2.34000e-06;0.005229002743554637
2.34025e-06;0.005240197562047231
2.34050e-06;0.005251392380539826
2.34075e-06;0.005262587199032401
2.34100e-06;0.005273782017524995
2.34125e-06;0.005284976836017589
2.34150e-06;0.005296171654510164
2.34175e-06;0.005307366473002758
2.34200e-06;0.0053185612914953525
2.34225e-06;0.005337582151586013
2.34250e-06;0.005359681248042453
2.34275e-06;0.0053817803444989295
2.34300e-06;0.005403879440955407
2.34325e-06;0.0054259785374118465
2.34350e-06;0.005448077633868323
2.34375e-06;0.005470176730324801
2.34400e-06;0.005492275826781278
2.34425e-06;0.005514374923237718
2.34450e-06;0.005536474019694195
2.34475e-06;0.005558573116150671
2.34500e-06;0.005580672212607112
2.34525e-06;0.005602771309063588
2.34550e-06;0.005624870405520065
2.34575e-06;0.005645381887935518
2.34600e-06;0.005660188442277828
2.34625e-06;0.005674994996620137
2.34650e-06;0.005689801550962447
2.34675e-06;0.005704608105304732
2.34700e-06;0.005719414659647041
2.34725e-06;0.005734221213989351
2.34750e-06;0.005749027768331636
2.34775e-06;0.0057638343226739455
2.34800e-06;0.005778640877016255
2.34825e-06;0.0057934474313585645
2.34850e-06;0.005808253985700849
2.34875e-06;0.005823060540043158
2.34900e-06;0.005837867094385468
2.34925e-06;0.005852673648727753
2.34950e-06;0.005867480203070062
2.34975e-06;0.005882286757412372
2.35000e-06;0.005897093311754657
2.35025e-06;0.005909952558330308
2.35050e-06;0.00591581435435508
2.35075e-06;0.005921676150379853
2.35100e-06;0.005927537946404616
2.35125e-06;0.005933399742429389
2.35150e-06;0.005939261538454162
2.35175e-06;0.005945123334478925
2.35200e-06;0.005950985130503698
2.35225e-06;0.00595684692652847
2.35250e-06;0.0059627087225532435
2.35275e-06;0.005968570518578006
2.35300e-06;0.005974432314602779
2.35325e-06;0.005980294110627552
2.35350e-06;0.005986155906652315
2.35375e-06;0.005992017702677088
2.35400e-06;0.00599787949870186
2.35425e-06;0.006003741294726623
2.35450e-06;0.0060096030907513965
2.35475e-06;0.006014488737530773
2.35500e-06;0.006015866692207117
2.35525e-06;0.00601724464688346
2.35550e-06;0.006018622601559804
2.35575e-06;0.006020000556236149
2.35600e-06;0.006021378510912492
2.35625e-06;0.006022756465588836
2.35650e-06;0.006024134420265182
2.35675e-06;0.006025512374941526
2.35700e-06;0.006026890329617869
2.35725e-06;0.006028268284294213
2.35750e-06;0.006029646238970558
2.35775e-06;0.006031024193646901
2.35800e-06;0.006032402148323245
2.35825e-06;0.00603378010299959
2.35850e-06;0.006035158057675932
2.35875e-06;0.0060365360123522775
2.35900e-06;0.006037913967028622
2.35925e-06;0.006039291921704967
2.35950e-06;0.006032794661833609
2.35975e-06;0.006023199824277593
2.36000e-06;0.006013604986721577
2.36025e-06;0.006004010149165578
2.36050e-06;0.005994415311609563
2.36075e-06;0.005984820474053547
2.36100e-06;0.005975225636497532
2.36125e-06;0.005965630798941532
2.36150e-06;0.005956035961385517
2.36175e-06;0.005946441123829502
2.36200e-06;0.005936846286273502
2.36225e-06;0.0059272514487174865
2.36250e-06;0.0059176566111614716
2.36275e-06;0.005908061773605472
2.36300e-06;0.0058984669360494565
2.36325e-06;0.005888872098493441
2.36350e-06;0.005879277260937426
2.36375e-06;0.0058696824233814265
2.36400e-06;0.005859276231369084
2.36425e-06;0.005845954520410367
2.36450e-06;0.005832632809451674
2.36475e-06;0.0058193110984929575
2.36500e-06;0.005805989387534241
2.36525e-06;0.005792667676575524
2.36550e-06;0.00577934596561683
2.36575e-06;0.005766024254658114
2.36600e-06;0.005752702543699397
2.36625e-06;0.005739380832740703
2.36650e-06;0.005726059121781987
2.36675e-06;0.00571273741082327
2.36700e-06;0.005699415699864576
2.36725e-06;0.00568609398890586
2.36750e-06;0.005672772277947143
2.36775e-06;0.005659450566988427
2.36800e-06;0.005646128856029733
2.36825e-06;0.0056341422382854885
2.36850e-06;0.005622848833576963
2.36875e-06;0.005611555428868458
2.36900e-06;0.005600262024159933
2.36925e-06;0.005588968619451407
2.36950e-06;0.005577675214742882
2.36975e-06;0.005566381810034377
2.37000e-06;0.005555088405325852
2.37025e-06;0.005543795000617326
2.37050e-06;0.005532501595908821
2.37075e-06;0.005521208191200296
2.37100e-06;0.0055099147864917705
2.37125e-06;0.005498621381783265
2.37150e-06;0.00548732797707474
2.37175e-06;0.005476034572366215
2.37200e-06;0.005464741167657689
2.37225e-06;0.005453157722992489
2.37250e-06;0.005438927424493222
2.37275e-06;0.005424697125993955
2.37300e-06;0.005410466827494712
2.37325e-06;0.005396236528995444
2.37350e-06;0.005382006230496178
2.37375e-06;0.00536777593199691
2.37400e-06;0.005353545633497667
2.37425e-06;0.0053393153349983995
2.37450e-06;0.005325085036499133
2.37475e-06;0.00531085473799989
2.37500e-06;0.005296624439500622
2.37525e-06;0.005282394141001355
2.37550e-06;0.005268163842502112
2.37575e-06;0.005256929104092324
2.37600e-06;0.005247701766983605
2.37625e-06;0.0052384744298748865
2.37650e-06;0.005229247092766183
2.37675e-06;0.005220019755657465
2.37700e-06;0.005210792418548746
2.37725e-06;0.005201565081440043
2.37750e-06;0.005192337744331325
2.37775e-06;0.005183110407222606
2.37800e-06;0.005173883070113888
2.37825e-06;0.005164655733005184
2.37850e-06;0.005155428395896466
2.37875e-06;0.005146201058787747
2.37900e-06;0.005138694590660588
2.37925e-06;0.005146892471390071
2.37950e-06;0.005155090352119554
2.37975e-06;0.0051632882328490224
2.38000e-06;0.005171486113578505
2.38025e-06;0.0051796839943079875
2.38050e-06;0.0051878818750374705
2.38075e-06;0.005196079755766939
2.38100e-06;0.005204277636496422
2.38125e-06;0.005212475517225904
2.38150e-06;0.005220673397955373
2.38175e-06;0.005228871278684855
2.38200e-06;0.005237069159414338
2.38225e-06;0.00524526704014382
2.38250e-06;0.005261268916569893
2.38275e-06;0.0052825004497705505
2.38300e-06;0.005303731982971207
2.38325e-06;0.005324963516171827
2.38350e-06;0.005346195049372483
2.38375e-06;0.0053674265825731406
2.38400e-06;0.0053886581157737605
2.38425e-06;0.005409889648974417
2.38450e-06;0.005431121182175074
2.38475e-06;0.005452352715375731
2.38500e-06;0.0054735842485763506
2.38525e-06;0.005494815781777007
2.38550e-06;0.005516047314977664
2.38575e-06;0.005536455841348168
2.38600e-06;0.005549353751564086
2.38625e-06;0.005562251661780004
2.38650e-06;0.005575149571995921
2.38675e-06;0.005588047482211817
2.38700e-06;0.005600945392427734
2.38725e-06;0.005613843302643652
2.38750e-06;0.005626741212859547
2.38775e-06;0.005639639123075465
2.38800e-06;0.005652537033291382
2.38825e-06;0.005665434943507278
2.38850e-06;0.005678332853723195
2.38875e-06;0.005691230763939113
2.38900e-06;0.00570412867415503
2.38925e-06;0.005717026584370926
2.38950e-06;0.005729924494586843
2.38975e-06;0.005742822404802761
2.39000e-06;0.005755720315018656
2.39025e-06;0.005768618225234574
2.39050e-06;0.0057815161354504915
2.39075e-06;0.005786216334931851
2.39100e-06;0.005785423039138806
2.39125e-06;0.005784629743345762
2.39150e-06;0.005783836447552718
2.39175e-06;0.005783043151759675
2.39200e-06;0.005782249855966631
2.39225e-06;0.005781456560173586
2.39250e-06;0.005780663264380544
2.39275e-06;0.005779869968587499
2.39300e-06;0.005779076672794455
2.39325e-06;0.0057782833770014105
2.39350e-06;0.005777490081208367
2.39375e-06;0.005776696785415323
2.39400e-06;0.005775903489622278
2.39425e-06;0.005775110193829236
2.39450e-06;0.005774316898036191
2.39475e-06;0.005773523602243147
2.39500e-06;0.005772730306450103
2.39525e-06;0.005771937010657059
2.39550e-06;0.005770813145263216
2.39575e-06;0.005766672559602282
2.39600e-06;0.005762531973941353
2.39625e-06;0.005758391388280419
2.39650e-06;0.005754250802619485
2.39675e-06;0.005750110216958556
2.39700e-06;0.005745969631297622
2.39725e-06;0.0057418290456366875
2.39750e-06;0.005737688459975752
2.39775e-06;0.005733547874314825
2.39800e-06;0.00572940728865389
2.39825e-06;0.005725266702992955
2.39850e-06;0.005721126117332028
2.39875e-06;0.005710418918468679
2.39900e-06;0.0056953112644335885
2.39925e-06;0.005680203610398523
2.39950e-06;0.005665095956363433
2.39975e-06;0.005649988302328343
2.40000e-06;0.0056348806482932525
2.40025e-06;0.005619772994258187
2.40050e-06;0.005604665340223097
2.40075e-06;0.005589557686188007
