Time(s);Current(A)
9.00000e-06;-0.007866940083948044
9.00025e-06;-0.007841899369298988
9.00050e-06;-0.007815340429517535
9.00075e-06;-0.007788781489736261
9.00100e-06;-0.0077622225499548074
9.00125e-06;-0.007735090241823097
9.00150e-06;-0.0077052051869468926
9.00175e-06;-0.007675320132070485
9.00200e-06;-0.007645251708135784
9.00225e-06;-0.007614302927658947
9.00250e-06;-0.007583267854286383
9.00275e-06;-0.007551765588373717
9.00300e-06;-0.007519985028669028
9.00325e-06;-0.007488095161488602
9.00350e-06;-0.0074562803887024305
9.00375e-06;-0.007424725192452957
9.00400e-06;-0.007393613155911443
9.00425e-06;-0.007363109494614502
9.00450e-06;-0.007333310249032283
9.00475e-06;-0.007304271023729174
9.00500e-06;-0.0072761102068664265
9.00525e-06;-0.00724900964675858
9.00550e-06;-0.007223163122799772
9.00575e-06;-0.007198762647985484
9.00600e-06;-0.007176009675514583
9.00625e-06;-0.0071552159938053
9.00650e-06;-0.007137077869385132
9.00675e-06;-0.007122475447806477
9.00700e-06;-0.007111828336823539
9.00725e-06;-0.0071051336806002155
9.00750e-06;-0.0071023232517711254
9.00775e-06;-0.007103327907621836
9.00800e-06;-0.007108084959586863
9.00825e-06;-0.00711660026107469
9.00850e-06;-0.0071295061231744375
9.00875e-06;-0.007147858300168523
9.00900e-06;-0.007168021290093826
9.00925e-06;-0.0071968780096272325
9.00950e-06;-0.007225734729160835
9.00975e-06;-0.0072569054361681816
9.01000e-06;-0.007299185618410288
9.01025e-06;-0.0073414658006526815
9.01050e-06;-0.007383745982895075
9.01075e-06;-0.007426026165137182
9.01100e-06;-0.00747728739683128
9.01125e-06;-0.007532924607438808
9.01150e-06;-0.007588561818045961
9.01175e-06;-0.007644199028653489
9.01200e-06;-0.007701045463612326
9.01225e-06;-0.007763697395851433
9.01250e-06;-0.007826349328090966
9.01275e-06;-0.007889493758635714
9.01300e-06;-0.007955002678092864
9.01325e-06;-0.008020511597550458
9.01350e-06;-0.00808601021537557
9.01375e-06;-0.008151459374967515
9.01400e-06;-0.0082165873644438
9.01425e-06;-0.008280173413225672
9.01450e-06;-0.00834321633853661
9.01475e-06;-0.008403651723048558
9.01500e-06;-0.008463280850963146
9.01525e-06;-0.008519039133504996
9.01550e-06;-0.008573352190661096
9.01575e-06;-0.008620726707386636
9.01600e-06;-0.008668101224111855
9.01625e-06;-0.008713493599717837
9.01650e-06;-0.008749369697496316
9.01675e-06;-0.008785245795274796
9.01700e-06;-0.008819294356693243
9.01725e-06;-0.008844568899164016
9.01750e-06;-0.008869843441634788
9.01775e-06;-0.008892162111277845
9.01800e-06;-0.008900289608166103
9.01825e-06;-0.008908417105054361
9.01850e-06;-0.008916544601942565
9.01875e-06;-0.008924672098830824
9.01900e-06;-0.008932799595719082
9.01925e-06;-0.008937494214059602
9.01950e-06;-0.008925707550775671
9.01975e-06;-0.00891392088749174
9.02000e-06;-0.00890213422420789
9.02025e-06;-0.008890347560923958
9.02050e-06;-0.008878560897640027
9.02075e-06;-0.008864280390353554
9.02100e-06;-0.008838026914969275
9.02125e-06;-0.008811773439584997
9.02150e-06;-0.008785519964200895
9.02175e-06;-0.008759266488816617
9.02200e-06;-0.008733013013432338
9.02225e-06;-0.0087012915054305
9.02250e-06;-0.00866690572132468
9.02275e-06;-0.008632519937218858
9.02300e-06;-0.008598134153113269
9.02325e-06;-0.008563748369007449
9.02350e-06;-0.008529027761169776
9.02375e-06;-0.008492699661501997
9.02400e-06;-0.008456417477681595
9.02425e-06;-0.008420355736269909
9.02450e-06;-0.008384533527881733
9.02475e-06;-0.008349861319751373
9.02500e-06;-0.008315616161112892
9.02525e-06;-0.00828342127103101
9.02550e-06;-0.00825164813245879
9.02575e-06;-0.008222422962407954
9.02600e-06;-0.00819570937133897
9.02625e-06;-0.008169848514622026
9.02650e-06;-0.008148081643408113
9.02675e-06;-0.008127307662262741
9.02700e-06;-0.008111300555511645
9.02725e-06;-0.008096316601546687
9.02750e-06;-0.008086244813563473
9.02775e-06;-0.00807747774740183
9.02800e-06;-0.008074974662762115
9.02825e-06;-0.008072471578122402
9.02850e-06;-0.008072207516206265
9.02875e-06;-0.008082693023076808
9.02900e-06;-0.008093178529947351
9.02925e-06;-0.008103664036817823
9.02950e-06;-0.008114149543688366
9.02975e-06;-0.008124635050558908
9.03000e-06;-0.008144910323734525
9.03025e-06;-0.008169955619742493
9.03050e-06;-0.00819500091575046
9.03075e-06;-0.008220046211758258
9.03100e-06;-0.008245091507766226
9.03125e-06;-0.008272017545992705
9.03150e-06;-0.008307973044990443
9.03175e-06;-0.008343928543988426
9.03200e-06;-0.008379884042986407
9.03225e-06;-0.008415839541984145
9.03250e-06;-0.008451795040982127
9.03275e-06;-0.008487750539980108
9.03300e-06;-0.00852624814716823
9.03325e-06;-0.00856598438597796
9.03350e-06;-0.008605720624787693
9.03375e-06;-0.008645456863597425
9.03400e-06;-0.00868519310240689
9.03425e-06;-0.00872492934121662
9.03450e-06;-0.008764123345728087
9.03475e-06;-0.008800714078361907
9.03500e-06;-0.008837304810995974
9.03525e-06;-0.008872993816319813
9.03550e-06;-0.00890435362049291
9.03575e-06;-0.008935713424666222
9.03600e-06;-0.008965730645174363
9.03625e-06;-0.008989302109096863
9.03650e-06;-0.009012873573019522
9.03675e-06;-0.00903473897957436
9.03700e-06;-0.009048413588937345
9.03725e-06;-0.009062088198300424
9.03750e-06;-0.009073966256474894
9.03775e-06;-0.00907721905578716
9.03800e-06;-0.00908047185509945
9.03825e-06;-0.009081114553994886
9.03850e-06;-0.009069226136664311
9.03875e-06;-0.009057337719333656
9.03900e-06;-0.009045449302003
9.03925e-06;-0.009033560884672425
9.03950e-06;-0.00902167246734177
9.03975e-06;-0.008998001581694181
9.04000e-06;-0.008968589737462479
9.04025e-06;-0.008939177893230578
9.04050e-06;-0.008909766048998674
9.04075e-06;-0.008880354204766973
9.04100e-06;-0.008848767189933333
9.04125e-06;-0.008806737160934481
9.04150e-06;-0.008764707131935915
9.04175e-06;-0.008722677102937063
9.04200e-06;-0.008680647073938211
9.04225e-06;-0.008637493872667395
9.04250e-06;-0.008588948310936862
9.04275e-06;-0.008540402749206
9.04300e-06;-0.00849185718747514
9.04325e-06;-0.008443311625744606
9.04350e-06;-0.008394579414487832
9.04375e-06;-0.008344951097131723
9.04400e-06;-0.00829543500067618
9.04425e-06;-0.008246595264797577
9.04450e-06;-0.008198601033117304
9.04475e-06;-0.008151731059418226
9.04500e-06;-0.008106286096187253
9.04525e-06;-0.008062580480767119
9.04550e-06;-0.00802093086283346
9.04575e-06;-0.00798165405260601
9.04600e-06;-0.007945075016149394
9.04625e-06;-0.007911614058555963
9.04650e-06;-0.007882020405571762
9.04675e-06;-0.007857164279290993
9.04700e-06;-0.007837462765454727
9.04725e-06;-0.00782293966313923
9.04750e-06;-0.007813995533632326
9.04775e-06;-0.007811379681350884
9.04800e-06;-0.00781052861912041
9.04825e-06;-0.007818150330240446
9.04850e-06;-0.007828168374996862
9.04875e-06;-0.007849691239696274
9.04900e-06;-0.007871214104395686
9.04925e-06;-0.007896239160233276
9.04950e-06;-0.007938078268104332
9.04975e-06;-0.007979917375975388
9.05000e-06;-0.008021756483846159
9.05025e-06;-0.008063595591717215
9.05050e-06;-0.008109041020162628
9.05075e-06;-0.00817180042702727
9.05100e-06;-0.008234559833891488
9.05125e-06;-0.008297319240756131
9.05150e-06;-0.008360078647620775
9.05175e-06;-0.008424834205822292
9.05200e-06;-0.008499173305050674
9.05225e-06;-0.008573512404279057
9.05250e-06;-0.008648691635081675
9.05275e-06;-0.00872790434534302
9.05300e-06;-0.008807117055604365
9.05325e-06;-0.008886523329525643
9.05350e-06;-0.008966858904371116
9.05375e-06;-0.00904719447921659
9.05400e-06;-0.009126991800454405
9.05425e-06;-0.00920420496114805
9.05450e-06;-0.009281418121841696
9.05475e-06;-0.00935767981305706
9.05500e-06;-0.009429373490512247
9.05525e-06;-0.009499894307042813
9.05550e-06;-0.009564784207428706
9.05575e-06;-0.009628129505124556
9.05600e-06;-0.009684059151020514
9.05625e-06;-0.00973806996401349
9.05650e-06;-0.009782868442497645
9.05675e-06;-0.00982495274853774
9.05700e-06;-0.009854006287575247
9.05725e-06;-0.009883059826612951
9.05750e-06;-0.009908730577123373
9.05775e-06;-0.00991816052863219
9.05800e-06;-0.009927590480141074
9.05825e-06;-0.009933531576444337
9.05850e-06;-0.009922722646643399
9.05875e-06;-0.009911913716842387
9.05900e-06;-0.009896975999778396
9.05925e-06;-0.009862215936885164
9.05950e-06;-0.009827455873992167
9.05975e-06;-0.009792695811098937
9.06000e-06;-0.009757935748205705
9.06025e-06;-0.009706527784514571
9.06050e-06;-0.009647008200534239
9.06075e-06;-0.009587488616553907
9.06100e-06;-0.009527969032573979
9.06125e-06;-0.009465689360302251
9.06150e-06;-0.00939015847861922
9.06175e-06;-0.009314627596936699
9.06200e-06;-0.009237793679155386
9.06225e-06;-0.009154703873015917
9.06250e-06;-0.009071038673878196
9.06275e-06;-0.008984332301647503
9.06300e-06;-0.0088960964898646
9.06325e-06;-0.008806838359645446
9.06350e-06;-0.008717067665526986
9.06375e-06;-0.008627295382513445
9.06400e-06;-0.008538030944053735
9.06425e-06;-0.00844978314141528
9.06450e-06;-0.008363060572565284
9.06475e-06;-0.008278391167996002
9.06500e-06;-0.008196333559895993
9.06525e-06;-0.008117467801684894
9.06550e-06;-0.00804237381818429
9.06575e-06;-0.007971634296235045
9.06600e-06;-0.007905828454585172
9.06625e-06;-0.00784550466935877
9.06650e-06;-0.0077910671897642
9.06675e-06;-0.007742706763651872
9.06700e-06;-0.007700523090457953
9.06725e-06;-0.00766462481342821
9.06750e-06;-0.007635129889440071
9.06775e-06;-0.007612155054905184
9.06800e-06;-0.0075963997202702065
9.06825e-06;-0.007589009442809964
9.06850e-06;-0.00758390379985532
9.06875e-06;-0.0075897667082931485
9.06900e-06;-0.007598311345721231
9.06925e-06;-0.00761973098883529
9.06950e-06;-0.007641150631949203
9.06975e-06;-0.0076664280946062485
9.07000e-06;-0.007710226984571067
9.07025e-06;-0.007754025874535589
9.07050e-06;-0.007797824764500408
9.07075e-06;-0.007841623654465227
9.07100e-06;-0.007889133074709958
9.07125e-06;-0.007954456785151548
9.07150e-06;-0.008019780495593137
9.07175e-06;-0.008085104206034284
9.07200e-06;-0.008150427916475873
9.07225e-06;-0.008217629071338398
9.07250e-06;-0.00829384385423154
9.07275e-06;-0.008370058637125198
9.07300e-06;-0.008446846939993383
9.07325e-06;-0.008526388717563886
9.07350e-06;-0.008605930495134929
9.07375e-06;-0.008685410409396226
9.07400e-06;-0.008764593317334647
9.07425e-06;-0.008843338499545203
9.07450e-06;-0.008919982156484471
9.07475e-06;-0.008995822767726033
9.07500e-06;-0.009067807949147074
9.07525e-06;-0.0091374961341042
9.07550e-06;-0.009196156417788533
9.07575e-06;-0.009254816701473264
9.07600e-06;-0.009313476985157994
9.07625e-06;-0.009372137268842725
9.07650e-06;-0.009428601265892553
9.07675e-06;-0.00947452087049203
9.07700e-06;-0.009520440475091504
9.07725e-06;-0.00956636007969067
9.07750e-06;-0.009612279684290145
9.07775e-06;-0.009656741833997338
9.07800e-06;-0.009694206729282749
9.07825e-06;-0.009731671624568415
9.07850e-06;-0.009769136519854081
9.07875e-06;-0.009806601415139494
9.07900e-06;-0.00984406631042516
9.07925e-06;-0.009881531205710826
9.07950e-06;-0.009918996100996239
9.07975e-06;-0.009955733687651592
9.08000e-06;-0.009988979458843606
9.08025e-06;-0.010022225230035394
9.08050e-06;-0.010055471001227409
9.08075e-06;-0.010088716772419423
9.08100e-06;-0.010121962543611212
9.08125e-06;-0.010155208314803226
9.08150e-06;-0.01018845408599524
9.08175e-06;-0.010221086394974198
9.08200e-06;-0.010250773466193285
9.08225e-06;-0.010280460537412371
9.08250e-06;-0.010310147608631257
9.08275e-06;-0.010339834679850344
9.08300e-06;-0.01036952175106943
9.08325e-06;-0.010399208822288316
9.08350e-06;-0.010428895893507402
9.08375e-06;-0.010457530311813104
9.08400e-06;-0.010481110933740921
9.08425e-06;-0.010504691555668898
9.08450e-06;-0.010528272177596875
9.08475e-06;-0.010551852799524851
9.08500e-06;-0.010575433421452667
9.08525e-06;-0.010599014043380643
9.08550e-06;-0.01062259466530862
9.08575e-06;-0.010644914822301193
9.08600e-06;-0.010661183475475434
9.08625e-06;-0.010677452128649675
9.08650e-06;-0.010692026925873366
9.08675e-06;-0.010698469505003727
9.08700e-06;-0.010704912084134087
9.08725e-06;-0.010709287272796807
9.08750e-06;-0.010703736900692946
9.08775e-06;-0.010698186528589082
9.08800e-06;-0.01068944281096905
9.08825e-06;-0.010665367811974354
9.08850e-06;-0.01064129281297966
9.08875e-06;-0.010617217813985126
9.08900e-06;-0.010593142814990431
9.08925e-06;-0.010569067815995736
9.08950e-06;-0.010540891777257165
9.08975e-06;-0.010493026608755231
9.09000e-06;-0.010445161440253299
9.09025e-06;-0.01039729627175169
9.09050e-06;-0.010349431103249755
9.09075e-06;-0.010301565934747823
9.09100e-06;-0.010250763570152418
9.09125e-06;-0.010185859699927465
9.09150e-06;-0.010120955829702512
9.09175e-06;-0.010056051959477999
9.09200e-06;-0.009991148089253046
9.09225e-06;-0.009926244219028093
9.09250e-06;-0.009856342881691477
9.09275e-06;-0.009784006549326962
9.09300e-06;-0.009711670216962447
9.09325e-06;-0.00963933388459793
9.09350e-06;-0.009566997552233905
9.09375e-06;-0.009494737807094365
9.09400e-06;-0.009422845757930785
9.09425e-06;-0.009351420172036636
9.09450e-06;-0.009282234080613601
9.09475e-06;-0.00921375021267649
9.09500e-06;-0.009148637726195267
9.09525e-06;-0.009084853213787866
9.09550e-06;-0.009027444317202562
9.09575e-06;-0.008970035420617644
9.09600e-06;-0.008914240214551537
9.09625e-06;-0.00886619235160455
9.09650e-06;-0.008818374977649927
9.09675e-06;-0.008771664183479229
9.09700e-06;-0.008724953389308532
9.09725e-06;-0.00867814947908379
9.09750e-06;-0.008630898517819816
9.09775e-06;-0.008583647556555841
9.09800e-06;-0.008536617291044006
9.09825e-06;-0.00849064658787927
9.09850e-06;-0.008444675884714535
9.09875e-06;-0.008397938811449129
9.09900e-06;-0.008347522388234323
9.09925e-06;-0.008297105965019516
9.09950e-06;-0.008246689541805052
9.09975e-06;-0.008196273118590244
9.10000e-06;-0.008143714235200415
9.10025e-06;-0.008090111447017354
9.10050e-06;-0.00803650865883393
9.10075e-06;-0.007982905870650507
9.10100e-06;-0.007928687160796118
9.10125e-06;-0.007871511405295325
9.10150e-06;-0.007814335649794531
9.10175e-06;-0.007757069989137821
9.10200e-06;-0.007699372692995634
9.10225e-06;-0.007641721392973001
9.10250e-06;-0.00758429092074805
9.10275e-06;-0.007526810358508053
9.10300e-06;-0.007469101033419075
9.10325e-06;-0.007411520461130743
9.10350e-06;-0.00735442082614809
9.10375e-06;-0.007298152771419685
9.10400e-06;-0.007243062765727306
9.10425e-06;-0.007189439268759833
9.10450e-06;-0.007137352810317531
9.10475e-06;-0.007086732909735445
9.10500e-06;-0.007037693422299048
9.10525e-06;-0.00699054593849264
9.10550e-06;-0.006945633730957762
9.10575e-06;-0.006903300457724716
9.10600e-06;-0.006863879742765397
9.10625e-06;-0.006827571546278652
9.10650e-06;-0.006794076848838767
9.10675e-06;-0.0067627284603181195
9.10700e-06;-0.00673339432017064
9.10725e-06;-0.006706497957046571
9.10750e-06;-0.00668037758779908
9.10775e-06;-0.006657982772339232
9.10800e-06;-0.0066364430994024295
9.10825e-06;-0.0066190089736362714
9.10850e-06;-0.006602381224873184
9.10875e-06;-0.006589624899568763
9.10900e-06;-0.006576868574264255
9.10925e-06;-0.006565353538505611
9.10950e-06;-0.006559797945350988
9.10975e-06;-0.006554242352196327
9.11000e-06;-0.006548686759041666
9.11025e-06;-0.006543131165887043
9.11050e-06;-0.006537575572732382
9.11075e-06;-0.006537059914855284
9.11100e-06;-0.006538999944443902
9.11125e-06;-0.006540939974032506
9.11150e-06;-0.006542880003621123
9.11175e-06;-0.006544820033209741
9.11200e-06;-0.0065474912768045184
9.11225e-06;-0.006553673085613958
9.11250e-06;-0.006559854894423397
9.11275e-06;-0.0065663078636047185
9.11300e-06;-0.006574062676242684
9.11325e-06;-0.006581817488880648
9.11350e-06;-0.006589729474996419
9.11375e-06;-0.0065983960524349326
9.11400e-06;-0.006607062629873445
9.11425e-06;-0.006615748927579721
9.11450e-06;-0.006624529902474483
9.11475e-06;-0.006633310877369245
9.11500e-06;-0.006641904844188247
9.11525e-06;-0.006649600983504011
9.11550e-06;-0.006657297122819775
9.11575e-06;-0.0066647541037178955
9.11600e-06;-0.006671062882838341
9.11625e-06;-0.006677344730548257
9.11650e-06;-0.006683497280306769
9.11675e-06;-0.006689988379167858
9.11700e-06;-0.006698104855405632
9.11725e-06;-0.006706612579616247
9.11750e-06;-0.006716998688968359
9.11775e-06;-0.006727384798320471
9.11800e-06;-0.006738174357059402
9.11825e-06;-0.006750900880041523
9.11850e-06;-0.0067636274030236435
9.11875e-06;-0.00677730407098533
9.11900e-06;-0.006795542393794669
9.11925e-06;-0.006813780716604007
9.11950e-06;-0.006832019039413346
9.11975e-06;-0.006850257362222561
9.12000e-06;-0.0068684956850319
9.12025e-06;-0.0068877418687200076
9.12050e-06;-0.006911826801821975
9.12075e-06;-0.006935911734924106
9.12100e-06;-0.006959996668026237
9.12125e-06;-0.006984081601128205
9.12150e-06;-0.007008166534230336
9.12175e-06;-0.0070328278112497524
9.12200e-06;-0.007060256120754369
9.12225e-06;-0.0070876844302591715
9.12250e-06;-0.007115112739763974
9.12275e-06;-0.007142541049268591
9.12300e-06;-0.007169969358773393
9.12325e-06;-0.007197397668278195
9.12350e-06;-0.007224120917761829
9.12375e-06;-0.007250500629687812
9.12400e-06;-0.007276880341613796
9.12425e-06;-0.0073032600535396005
9.12450e-06;-0.007329639765465584
9.12475e-06;-0.007356019477391567
9.12500e-06;-0.007381691266487741
9.12525e-06;-0.007403964311520957
9.12550e-06;-0.007426237356554174
9.12575e-06;-0.007447879138957464
9.12600e-06;-0.007466490223627292
9.12625e-06;-0.007484944335500512
9.12650e-06;-0.00750264481952289
9.12675e-06;-0.007520997918649646
9.12700e-06;-0.007542484228937956
9.12725e-06;-0.007564709567634128
9.12750e-06;-0.007590482988564037
9.12775e-06;-0.007616256409493946
9.12800e-06;-0.007642763627743184
9.12825e-06;-0.0076727938137205985
9.12850e-06;-0.007702823999698217
9.12875e-06;-0.007734738969670615
9.12900e-06;-0.007775702805063727
9.12925e-06;-0.007816666640457116
9.12950e-06;-0.007857630475850506
9.12975e-06;-0.007898594311243616
9.13000e-06;-0.007939558146637006
9.13025e-06;-0.007982511949705817
9.13050e-06;-0.008035019606021423
9.13075e-06;-0.008087527262337385
9.13100e-06;-0.008140034918653347
9.13125e-06;-0.008192542574968955
9.13150e-06;-0.008245050231284917
9.13175e-06;-0.00829868703061067
9.13200e-06;-0.008357744855988279
9.13225e-06;-0.008416802681366287
9.13250e-06;-0.008475860506744298
9.13275e-06;-0.008534918332121905
9.13300e-06;-0.008593976157499916
9.13325e-06;-0.008653033982877924
9.13350e-06;-0.00871147302225987
9.13375e-06;-0.008766941264343147
9.13400e-06;-0.008822409506426423
9.13425e-06;-0.008877877748509325
9.13450e-06;-0.008933345990592602
9.13475e-06;-0.008988814232675878
9.13500e-06;-0.00904428247475878
9.13525e-06;-0.009098221434729319
9.13550e-06;-0.009144818297105055
9.13575e-06;-0.009190293432117304
9.13600e-06;-0.009230383143664202
9.13625e-06;-0.009268507892407752
9.13650e-06;-0.009297198836523074
9.13675e-06;-0.0093258897806382
9.13700e-06;-0.009351733942214098
9.13725e-06;-0.009363910674436364
9.13750e-06;-0.009376087406658549
9.13775e-06;-0.009385370370194495
9.13800e-06;-0.009380760323450128
9.13825e-06;-0.009376150276705792
9.13850e-06;-0.009367527088570665
9.13875e-06;-0.009339636771428617
9.13900e-06;-0.009311746454286758
9.13925e-06;-0.009283856137144712
9.13950e-06;-0.009255965820002664
9.13975e-06;-0.009223650595856796
9.14000e-06;-0.009170091352177749
9.14025e-06;-0.009116532108498703
9.14050e-06;-0.009062972864820018
9.14075e-06;-0.009009413621140973
9.14100e-06;-0.00895299011693221
9.14125e-06;-0.008882815271376267
9.14150e-06;-0.008812640425819848
9.14175e-06;-0.00874119047898586
9.14200e-06;-0.008663618759101514
9.14225e-06;-0.008585317523095638
9.14250e-06;-0.008503513873431713
9.14275e-06;-0.008421309824735395
9.14300e-06;-0.00833702130620018
9.14325e-06;-0.008251876759037964
9.14350e-06;-0.00816636682970123
9.14375e-06;-0.008080981714952902
9.14400e-06;-0.007996212189843432
9.14425e-06;-0.00791253798296049
9.14450e-06;-0.00783040478088549
9.14475e-06;-0.007750252728161114
9.14500e-06;-0.0076725788443055085
9.14525e-06;-0.007597926909078243
9.14550e-06;-0.007526846868458627
9.14575e-06;-0.007459888909244864
9.14600e-06;-0.007397595143068562
9.14625e-06;-0.007340384454016375
9.14650e-06;-0.007288206823258779
9.14675e-06;-0.007240616108854558
9.14700e-06;-0.007197408114567947
