Time(s);Current(A)
9.50000e-06;-0.0094675107746552
9.50025e-06;-0.009474202777993773
9.50050e-06;-0.009480894781332301
9.50075e-06;-0.009487586784670876
9.50100e-06;-0.00949427878800945
9.50125e-06;-0.009500970791347978
9.50150e-06;-0.009507662794686551
9.50175e-06;-0.009514354798025124
9.50200e-06;-0.009521046801363653
9.50225e-06;-0.009528101657875463
9.50250e-06;-0.009535504741021082
9.50275e-06;-0.009544151684864942
9.50300e-06;-0.009553992349629187
9.50325e-06;-0.009563833014393432
9.50350e-06;-0.009579180598344473
9.50375e-06;-0.009599813118662363
9.50400e-06;-0.009620445638980395
9.50425e-06;-0.009646358547563277
9.50450e-06;-0.00967733899300765
9.50475e-06;-0.009708319438452235
9.50500e-06;-0.00974764727906517
9.50525e-06;-0.009794986033003526
9.50550e-06;-0.0098423247869422
9.50575e-06;-0.009889663540880875
9.50600e-06;-0.009937002294819228
9.50625e-06;-0.009994342278068861
9.50650e-06;-0.010061280343061288
9.50675e-06;-0.010128218408053263
9.50700e-06;-0.010195156473045692
9.50725e-06;-0.010262094538038119
9.50750e-06;-0.010336512305560677
9.50775e-06;-0.010418108270290462
9.50800e-06;-0.010499704235020248
9.50825e-06;-0.010581300199749481
9.50850e-06;-0.010666725883571058
9.50875e-06;-0.010755826911268383
9.50900e-06;-0.010844927938965104
9.50925e-06;-0.010934028966662429
9.50950e-06;-0.011024533139562753
9.50975e-06;-0.01111658920070976
9.51000e-06;-0.011208782409459151
9.51025e-06;-0.011300591662094583
9.51050e-06;-0.011391496387609867
9.51075e-06;-0.01148100397751547
9.51100e-06;-0.011568732926263321
9.51125e-06;-0.011654415169886646
9.51150e-06;-0.011737718667587363
9.51175e-06;-0.011818156422400208
9.51200e-06;-0.011895176577807675
9.51225e-06;-0.011968224046397996
9.51250e-06;-0.01203674377907451
9.51275e-06;-0.012100154550242133
9.51300e-06;-0.012157795435496176
9.51325e-06;-0.01220901432850926
9.51350e-06;-0.012253395260364426
9.51375e-06;-0.012290788341163551
9.51400e-06;-0.012321136798543728
9.51425e-06;-0.01234438615971254
9.51450e-06;-0.012360482883200154
9.51475e-06;-0.012367463895281188
9.51500e-06;-0.012369070426722405
9.51525e-06;-0.012363081439719845
9.51550e-06;-0.01234980310811222
9.51575e-06;-0.012325102522418493
9.51600e-06;-0.012289440111430986
9.51625e-06;-0.012253777700443239
9.51650e-06;-0.01221811528945549
9.51675e-06;-0.012182177601383602
9.51700e-06;-0.012119749600483027
9.51725e-06;-0.012057321599582452
9.51750e-06;-0.011994893598682301
9.51775e-06;-0.011932465597781727
9.51800e-06;-0.011861299470197002
9.51825e-06;-0.011781747448078177
9.51850e-06;-0.011702195425958814
9.51875e-06;-0.011618048311217485
9.51900e-06;-0.011529491331124764
9.51925e-06;-0.011440934351031443
9.51950e-06;-0.01134998026191083
9.51975e-06;-0.011256725690751783
9.52000e-06;-0.011163471119592101
9.52025e-06;-0.011070149222808802
9.52050e-06;-0.010976762714284384
9.52075e-06;-0.010884688342561587
9.52100e-06;-0.010793873215665682
9.52125e-06;-0.010705538364743828
9.52150e-06;-0.010619583810365424
9.52175e-06;-0.010537404084892668
9.52200e-06;-0.010458847025723852
9.52225e-06;-0.01038540259520629
9.52250e-06;-0.010316864704295188
9.52275e-06;-0.010254652016119426
9.52300e-06;-0.010198509563015549
9.52325e-06;-0.0101509164344243
9.52350e-06;-0.010111528008776087
9.52375e-06;-0.010072139583128142
9.52400e-06;-0.010043504089256979
9.52425e-06;-0.010025188078622833
9.52450e-06;-0.01000687206798881
9.52475e-06;-0.00999977567451333
9.52500e-06;-0.010003446637661622
9.52525e-06;-0.010007117600809889
9.52550e-06;-0.010023921179306996
9.52575e-06;-0.010053328000041339
9.52600e-06;-0.010082734820775482
9.52625e-06;-0.010112141641509823
9.52650e-06;-0.01014182775161611
9.52675e-06;-0.010198390282941365
9.52700e-06;-0.010254952814267002
9.52725e-06;-0.010311515345592638
9.52750e-06;-0.010368077876917892
9.52775e-06;-0.010433738608203045
9.52800e-06;-0.01050813079281818
9.52825e-06;-0.01058252297743281
9.52850e-06;-0.010661443008252369
9.52875e-06;-0.010744708368697153
9.52900e-06;-0.010830069773821506
9.52925e-06;-0.010918499190325417
9.52950e-06;-0.011008734228402574
9.52975e-06;-0.01110026659665164
9.53000e-06;-0.011192596136535787
9.53025e-06;-0.011285224191866419
9.53050e-06;-0.011377651972355346
9.53075e-06;-0.011469376069415144
9.53100e-06;-0.011559869369945904
9.53125e-06;-0.011648562414403926
9.53150e-06;-0.011734866150838595
9.53175e-06;-0.011818197686260285
9.53200e-06;-0.011897980075911837
9.53225e-06;-0.011973636355879363
9.53250e-06;-0.012044589581407335
9.53275e-06;-0.012110353559363785
9.53300e-06;-0.012170850014398339
9.53325e-06;-0.012226500504785253
9.53350e-06;-0.012277691304697722
9.53375e-06;-0.012324406437264847
9.53400e-06;-0.012366438539538279
9.53425e-06;-0.012403573407325523
9.53450e-06;-0.012435597311673915
9.53475e-06;-0.012461070386058848
9.53500e-06;-0.012482707803434889
9.53525e-06;-0.012499682644153102
9.53550e-06;-0.012512182855749633
9.53575e-06;-0.012517672965003212
9.53600e-06;-0.01251643554774241
9.53625e-06;-0.012515198130481601
9.53650e-06;-0.01251396071322079
9.53675e-06;-0.012512549954433048
9.53700e-06;-0.012494458289059112
9.53725e-06;-0.012476366623685177
9.53750e-06;-0.012458274958311241
9.53775e-06;-0.012440183292937428
9.53800e-06;-0.01241676313448278
9.53825e-06;-0.01238822927344171
9.53850e-06;-0.012359695412400836
9.53875e-06;-0.012327984415578606
9.53900e-06;-0.012293224352685374
9.53925e-06;-0.012258464289792378
9.53950e-06;-0.012222061481683241
9.53975e-06;-0.012184082147090422
9.54000e-06;-0.01214610281249786
9.54025e-06;-0.012107657743002948
9.54050e-06;-0.012068765712287006
9.54075e-06;-0.01203013530102398
9.54100e-06;-0.011991755963385363
9.54125e-06;-0.011954407420647383
9.54150e-06;-0.011918048121673354
9.54175e-06;-0.011883411566597078
9.54200e-06;-0.011850428311955784
9.54225e-06;-0.011820476215302377
9.54250e-06;-0.011793433091262408
9.54275e-06;-0.011766389967222441
9.54300e-06;-0.011743323173718982
9.54325e-06;-0.011724072425660823
9.54350e-06;-0.011704821677602662
9.54375e-06;-0.011691692760152488
9.54400e-06;-0.011684438903539388
9.54425e-06;-0.011677185046926285
9.54450e-06;-0.011669931190313234
9.54475e-06;-0.011662677333700133
9.54500e-06;-0.011655423477087033
9.54525e-06;-0.011648331734303977
9.54550e-06;-0.011656840440626077
9.54575e-06;-0.011665349146948178
9.54600e-06;-0.011673857853270278
9.54625e-06;-0.011682366559592322
9.54650e-06;-0.011690875265914422
9.54675e-06;-0.011699383972236523
9.54700e-06;-0.011713833360866174
9.54725e-06;-0.011733983964084687
9.54750e-06;-0.011754134567303199
9.54775e-06;-0.011774285170521573
9.54800e-06;-0.011794435773740087
9.54825e-06;-0.011814656292375752
9.54850e-06;-0.011841604873063266
9.54875e-06;-0.011868553453750963
9.54900e-06;-0.011895502034438657
9.54925e-06;-0.011922450615126172
9.54950e-06;-0.011949399195813868
9.54975e-06;-0.011977510536824953
9.55000e-06;-0.012006737767522625
9.55025e-06;-0.012036107094889587
9.55050e-06;-0.012065612791037267
9.55075e-06;-0.012094963796663716
9.55100e-06;-0.012124166347313359
9.55125e-06;-0.012152808352741629
9.55150e-06;-0.012180912408414322
9.55175e-06;-0.012208360395686957
9.55200e-06;-0.012234631284415858
9.55225e-06;-0.012259746597831541
9.55250e-06;-0.012283544761046062
9.55275e-06;-0.012305796695977318
9.55300e-06;-0.012326001850663565
9.55325e-06;-0.012343413733964833
9.55350e-06;-0.012357497845524866
9.55375e-06;-0.012368139374760582
9.55400e-06;-0.01237539669216593
9.55425e-06;-0.012378511143151333
9.55450e-06;-0.012379225001904777
9.55475e-06;-0.012376563945957555
9.55500e-06;-0.012370664017447346
9.55525e-06;-0.012359967336272808
9.55550e-06;-0.012344667258576235
9.55575e-06;-0.012329367180879559
9.55600e-06;-0.012307229417803054
9.55625e-06;-0.012278529595079383
9.55650e-06;-0.012249829772355517
9.55675e-06;-0.012221129949631652
9.55700e-06;-0.012192430126907981
9.55725e-06;-0.012156706451574233
9.55750e-06;-0.01211424205372658
9.55775e-06;-0.012071777655879216
9.55800e-06;-0.012029313258031563
9.55825e-06;-0.01198684886018391
9.55850e-06;-0.011940630607343832
9.55875e-06;-0.011890809816655636
9.55900e-06;-0.01184098902596744
9.55925e-06;-0.011789654596848121
9.55950e-06;-0.011736867543759775
9.55975e-06;-0.011684080490671427
9.56000e-06;-0.011631153400286379
9.56025e-06;-0.01157809191747938
9.56050e-06;-0.011525030434672378
9.56075e-06;-0.011473003707096929
9.56100e-06;-0.011421970023975724
9.56125e-06;-0.011372440712111867
9.56150e-06;-0.011324355130600934
9.56175e-06;-0.01127848131463433
9.56200e-06;-0.011234730108385332
9.56225e-06;-0.01119397338746037
9.56250e-06;-0.011156090444754024
9.56275e-06;-0.01112214058577078
9.56300e-06;-0.011091965268692156
9.56325e-06;-0.011066996440101473
9.56350e-06;-0.011047024227488845
9.56375e-06;-0.011032649388014201
9.56400e-06;-0.011023646292685424
9.56425e-06;-0.011020244134792325
9.56450e-06;-0.011022217141666655
9.56475e-06;-0.011029888510114364
9.56500e-06;-0.011043028540319659
9.56525e-06;-0.011063635853453093
9.56550e-06;-0.011091409444832293
9.56575e-06;-0.01111918303621168
9.56600e-06;-0.011155855852983778
9.56625e-06;-0.011201069169151576
9.56650e-06;-0.01124628248531968
9.56675e-06;-0.011291664605886974
9.56700e-06;-0.011353291018925356
9.56725e-06;-0.011414917431964154
9.56750e-06;-0.011476543845002954
9.56775e-06;-0.0115428918323111
9.56800e-06;-0.011615525653131906
9.56825e-06;-0.01169139831622593
9.56850e-06;-0.011770119616590682
9.56875e-06;-0.011851310241424658
9.56900e-06;-0.011934633247204224
9.56925e-06;-0.012019778407727364
9.56950e-06;-0.012106379610077864
9.56975e-06;-0.012193985841409684
9.57000e-06;-0.012282113783619635
9.57025e-06;-0.012370280041979057
9.57050e-06;-0.012457999872665671
9.57075e-06;-0.01254479659177523
9.57100e-06;-0.012630220297558836
9.57125e-06;-0.012713836460985976
9.57150e-06;-0.01279517551938642
9.57175e-06;-0.012873716441992089
9.57200e-06;-0.012948916704667482
9.57225e-06;-0.013020233840748113
9.57250e-06;-0.013087125326098605
9.57275e-06;-0.013149129009563974
9.57300e-06;-0.013206145854820807
9.57325e-06;-0.013258526808357063
9.57350e-06;-0.013306601908374639
9.57375e-06;-0.013349173375500789
9.57400e-06;-0.013388452836407504
9.57425e-06;-0.013422827586033872
9.57450e-06;-0.013452495332309536
9.57475e-06;-0.01347705092517723
9.57500e-06;-0.013496700434517755
9.57525e-06;-0.013511829463871809
9.57550e-06;-0.013522620232882554
9.57575e-06;-0.013529221288735148
9.57600e-06;-0.013531801517928129
9.57625e-06;-0.013529226109281145
9.57650e-06;-0.013521702885523384
9.57675e-06;-0.013514179661765623
9.57700e-06;-0.01350194918882098
9.57725e-06;-0.01348520121496167
9.57750e-06;-0.013466149754296795
9.57775e-06;-0.013443486653295256
9.57800e-06;-0.0134181578536125
9.57825e-06;-0.013390321718399989
9.57850e-06;-0.013360138435140771
9.57875e-06;-0.013327787676144797
9.57900e-06;-0.013293537673355938
9.57925e-06;-0.013257766474473923
9.57950e-06;-0.013220848026885742
9.57975e-06;-0.013183069703293306
9.58000e-06;-0.013144677848096269
9.58025e-06;-0.013105917360817601
9.58050e-06;-0.01306703179188923
9.58075e-06;-0.013028278929776883
9.58100e-06;-0.01298997161044326
9.58125e-06;-0.012952491319525363
9.58150e-06;-0.012916217442772573
9.58175e-06;-0.012881978704689996
9.58200e-06;-0.012849045275806444
9.58225e-06;-0.01281777566109777
9.58250e-06;-0.01278941492934814
9.58275e-06;-0.01276355096659459
9.58300e-06;-0.012739300933664675
9.58325e-06;-0.01271477898859324
9.58350e-06;-0.012688544642714095
9.58375e-06;-0.012660394040197087
9.58400e-06;-0.012630386840983297
9.58425e-06;-0.012599426884635355
9.58450e-06;-0.012567667812739013
9.58475e-06;-0.012535141837482075
9.58500e-06;-0.012500286791682705
9.58525e-06;-0.012463196559707785
9.58550e-06;-0.012426106327733118
9.58575e-06;-0.01238433390754523
9.58600e-06;-0.012338068037212513
9.58625e-06;-0.01229180216688011
9.58650e-06;-0.01224553629654739
9.58675e-06;-0.012199270426214673
9.58700e-06;-0.012148492440115203
9.58725e-06;-0.012093384220730056
9.58750e-06;-0.012038276001344909
9.58775e-06;-0.011983167781960135
9.58800e-06;-0.011928059562574988
9.58825e-06;-0.011870353841426288
9.58850e-06;-0.01181015532328956
9.58875e-06;-0.011749956805152423
9.58900e-06;-0.011689066338018332
9.58925e-06;-0.011627511814212555
9.58950e-06;-0.011565957290407195
9.58975e-06;-0.011504397855791229
9.59000e-06;-0.011442833708318847
9.59025e-06;-0.011381269560846882
9.59050e-06;-0.011321477265373291
9.59075e-06;-0.011263385398899935
9.59100e-06;-0.011205293532426972
9.59125e-06;-0.011149424203597129
9.59150e-06;-0.01109568782236439
9.59175e-06;-0.011044399400804487
9.59200e-06;-0.010995460262153593
9.59225e-06;-0.010948896371501728
9.59250e-06;-0.010906484427480035
9.59275e-06;-0.010869386223749071
9.59300e-06;-0.010835663033322245
9.59325e-06;-0.010808254827971698
9.59350e-06;-0.010786907051916289
9.59375e-06;-0.01077242791518254
9.59400e-06;-0.01076454054429815
9.59425e-06;-0.010763447200103141
9.59450e-06;-0.010768874016745445
9.59475e-06;-0.01078118919515674
9.59500e-06;-0.010800115066856852
9.59525e-06;-0.010826475113116525
9.59550e-06;-0.010859969663851056
9.59575e-06;-0.010900624175840902
9.59600e-06;-0.010948150032484817
9.59625e-06;-0.011003663005073718
9.59650e-06;-0.011066841134567908
9.59675e-06;-0.011130019264062098
9.59700e-06;-0.011200512995811089
9.59725e-06;-0.011278027439357623
9.59750e-06;-0.01135965959724725
9.59775e-06;-0.011447674811524564
9.59800e-06;-0.01154019376550005
9.59825e-06;-0.011636706588800587
9.59850e-06;-0.011736704304060127
9.59875e-06;-0.01183969696265717
9.59900e-06;-0.011945270819373533
9.59925e-06;-0.012053070641695173
9.59950e-06;-0.012162662173220786
9.59975e-06;-0.012273478077887947
9.60000e-06;-0.012384896174745624
9.60025e-06;-0.012496293922543972
9.60050e-06;-0.012607048684251337
9.60075e-06;-0.012716549799610262
9.60100e-06;-0.012824234508107785
9.60125e-06;-0.012929576689117976
9.60150e-06;-0.013032001119069523
9.60175e-06;-0.01313084820717324
9.60200e-06;-0.01322407249810438
9.60225e-06;-0.013313741166910933
9.60250e-06;-0.013397346965299988
9.60275e-06;-0.013475134286360884
9.60300e-06;-0.01354676131286729
9.60325e-06;-0.013612476365054287
9.60350e-06;-0.013672819545342345
9.60375e-06;-0.013728007392807622
9.60400e-06;-0.013777423691789204
9.60425e-06;-0.013821301092247064
9.60450e-06;-0.013857358265100449
9.60475e-06;-0.013885910442151959
9.60500e-06;-0.013914462619203661
9.60525e-06;-0.013934696042210322
9.60550e-06;-0.013946946038475043
9.60575e-06;-0.013959196034739847
9.60600e-06;-0.013962611404269994
9.60625e-06;-0.01395754826909308
9.60650e-06;-0.0139524851339162
9.60675e-06;-0.013947421998739285
9.60700e-06;-0.013933595205955489
9.60725e-06;-0.013911358016841508
9.60750e-06;-0.013889120827727376
9.60775e-06;-0.013866883638613244
9.60800e-06;-0.013839626730214482
9.60825e-06;-0.013807552446406012
9.60850e-06;-0.013773300376692445
9.60875e-06;-0.013735652823742244
9.60900e-06;-0.013695662211261433
9.60925e-06;-0.01365380840761942
9.60950e-06;-0.013610558013541049
9.60975e-06;-0.013566251617531166
9.61000e-06;-0.013521170440693966
9.61025e-06;-0.013475594355041837
9.61050e-06;-0.013429802262950031
9.61075e-06;-0.013384090708133916
9.61100e-06;-0.013338835783544747
9.61125e-06;-0.013294508059801419
9.61150e-06;-0.013251569542167082
9.61175e-06;-0.01321040411974948
9.61200e-06;-0.0131727611138135
9.61225e-06;-0.013137585060170274
9.61250e-06;-0.013102409006527285
9.61275e-06;-0.013070837645974916
9.61300e-06;-0.013042725674060148
9.61325e-06;-0.013015931541821353
9.61350e-06;-0.012990402127405994
9.61375e-06;-0.012965810836149666
9.61400e-06;-0.012942119852496757
9.61425e-06;-0.012920262660415592
9.61450e-06;-0.012900165340137106
9.61475e-06;-0.012880068019858621
9.61500e-06;-0.012861645761093839
9.61525e-06;-0.012844831042450013
9.61550e-06;-0.01282801632380619
9.61575e-06;-0.012812424324893087
9.61600e-06;-0.012798005758124268
9.61625e-06;-0.012783587191355448
9.61650e-06;-0.012769168624586727
9.61675e-06;-0.012754750057817907
9.61700e-06;-0.012740361271191023
9.61725e-06;-0.01272883827097245
9.61750e-06;-0.0127173152707538
9.61775e-06;-0.012705792270535147
9.61800e-06;-0.012694269270316574
9.61825e-06;-0.012682746270097921
9.61850e-06;-0.012672221302042269
9.61875e-06;-0.012662654135674167
9.61900e-06;-0.012653086969306001
9.61925e-06;-0.01264403052719728
9.61950e-06;-0.012635464222156025
9.61975e-06;-0.012626897917114712
9.62000e-06;-0.0126187545754024
9.62025e-06;-0.012611017147452547
9.62050e-06;-0.012603829571830337
9.62075e-06;-0.012597169684099262
9.62100e-06;-0.012591025431437844
9.62125e-06;-0.012585376028700227
9.62150e-06;-0.01258000606690356
9.62175e-06;-0.012575124317818863
9.62200e-06;-0.012570712740741207
9.62225e-06;-0.012566847704121736
9.62250e-06;-0.012563605101171906
9.62275e-06;-0.012561214821921254
9.62300e-06;-0.012560537826865727
9.62325e-06;-0.012563054810566241
9.62350e-06;-0.012569858072275918
9.62375e-06;-0.012581144878548346
9.62400e-06;-0.012596735672014045
9.62425e-06;-0.012616438619379307
9.62450e-06;-0.012640060898557738
9.62475e-06;-0.012667506712987844
9.62500e-06;-0.012699075482834376
9.62525e-06;-0.012736809106110534
9.62550e-06;-0.012778386139809092
9.62575e-06;-0.01282614461622651
9.62600e-06;-0.012879835362653093
9.62625e-06;-0.012933526109079675
9.62650e-06;-0.012994836743174337
9.62675e-06;-0.013063460108801732
9.62700e-06;-0.013132083474429127
9.62725e-06;-0.013200706840056057
9.62750e-06;-0.01326948617835343
9.62775e-06;-0.013353274993825291
9.62800e-06;-0.013437063809296584
9.62825e-06;-0.013520852624768445
9.62850e-06;-0.013604641440240307
9.62875e-06;-0.013692156504554858
9.62900e-06;-0.013783247613373708
9.62925e-06;-0.013874338722192556
9.62950e-06;-0.013966830520806514
9.62975e-06;-0.014060666547693612
9.63000e-06;-0.014154502574580712
9.63025e-06;-0.014247845461076535
9.63050e-06;-0.014340715085572041
9.63075e-06;-0.014432008339997757
9.63100e-06;-0.014521788767512657
9.63125e-06;-0.01460926927252209
9.63150e-06;-0.014694542564437744
9.63175e-06;-0.014776511752370864
9.63200e-06;-0.014855310024085971
9.63225e-06;-0.014929635102168359
9.63250e-06;-0.014999667300150432
9.63275e-06;-0.015063942444461643
9.63300e-06;-0.015122692600774824
9.63325e-06;-0.01517428802347337
9.63350e-06;-0.015219017118425411
9.63375e-06;-0.015256142853490742
9.63400e-06;-0.015285971718571814
9.63425e-06;-0.015308106452983972
9.63450e-06;-0.01532285720558207
9.63475e-06;-0.015327723843788181
9.63500e-06;-0.015323104794258958
9.63525e-06;-0.015318485744729701
9.63550e-06;-0.015301988554252955
9.63575e-06;-0.015274092028293907
9.63600e-06;-0.01524619550233467
9.63625e-06;-0.015206754431063722
9.63650e-06;-0.015156234172773637
9.63675e-06;-0.015105713914483211
9.63700e-06;-0.015054975703621234
9.63725e-06;-0.014983263599284164
9.63750e-06;-0.014911551494946608
9.63775e-06;-0.014839839390609053
9.63800e-06;-0.014761276841845463
9.63825e-06;-0.01467613998868699
9.63850e-06;-0.014588091341914758
9.63875e-06;-0.014495635787055738
9.63900e-06;-0.014400242191638182
9.63925e-06;-0.014302359740495917
9.63950e-06;-0.014202504052555395
9.63975e-06;-0.014101270836801743
9.64000e-06;-0.013999284079360621
9.64025e-06;-0.01389716824159672
9.64050e-06;-0.013795548716197986
9.64075e-06;-0.01369504517381714
9.64100e-06;-0.013596258049320074
9.64125e-06;-0.013499783561566532
9.64150e-06;-0.013406258930445109
9.64175e-06;-0.013316371855152857
9.64200e-06;-0.013230828278201899
9.64225e-06;-0.013150333191623238
9.64250e-06;-0.01307559257624266
9.64275e-06;-0.013007285722835592
9.64300e-06;-0.012945940044403146
9.64325e-06;-0.012891818987366096
9.64350e-06;-0.012845029765081008
9.64375e-06;-0.0128056917054584
9.64400e-06;-0.012773952907944792
9.64425e-06;-0.012749963334631582
9.64450e-06;-0.012733873384535962
9.64475e-06;-0.012725816367203295
9.64500e-06;-0.01272583026424883
9.64525e-06;-0.012733787546384278
9.64550e-06;-0.012751352612776521
9.64575e-06;-0.012774454069239778
9.64600e-06;-0.01280839360457589
9.64625e-06;-0.01285273433801462
9.64650e-06;-0.01289707507145305
9.64675e-06;-0.01294141580489178
9.64700e-06;-0.012998340410224017
9.64725e-06;-0.013067341634115522
