Time(s);Current(A)
7.00000e-06;-0.002043171024202085
7.00025e-06;-0.0020856975850159685
7.00050e-06;-0.00211852305809108
7.00075e-06;-0.002151348531166303
7.00100e-06;-0.0021816079571840784
7.00125e-06;-0.0021992411531505606
7.00150e-06;-0.002216874349117102
7.00175e-06;-0.002232316565016434
7.00200e-06;-0.002236978067333028
7.00225e-06;-0.002241639569649638
7.00250e-06;-0.002244235660426214
7.00275e-06;-0.0022366688973380813
7.00300e-06;-0.002229102134249974
7.00325e-06;-0.0022196477926565393
7.00350e-06;-0.0022009056243342704
7.00375e-06;-0.002182163456012065
7.00400e-06;-0.0021619907581738136
7.00425e-06;-0.0021347791423579625
7.00450e-06;-0.002107567526542204
7.00475e-06;-0.0020791620724439886
7.00500e-06;-0.0020448823391684984
7.00525e-06;-0.002010602605893125
7.00550e-06;-0.001975546095142942
7.00575e-06;-0.001936667452188878
7.00600e-06;-0.0018977888092349456
7.00625e-06;-0.0018585819498926903
7.00650e-06;-0.0018177601023866845
7.00675e-06;-0.001776938254880817
7.00700e-06;-0.0017361022892723175
7.00725e-06;-0.0016951968555653783
7.00750e-06;-0.0016545421853140136
7.00775e-06;-0.0016151213962061998
7.00800e-06;-0.001576342181129451
7.00825e-06;-0.0015407198299474472
7.00850e-06;-0.0015050974787653227
7.00875e-06;-0.0014703848832951863
7.00900e-06;-0.0014401487392107029
7.00925e-06;-0.001410405244149725
7.00950e-06;-0.0013830858277459545
7.00975e-06;-0.0013553562129547557
7.01000e-06;-0.0013256082177171453
7.01025e-06;-0.001295860222479636
7.01050e-06;-0.0012657835782656653
7.01075e-06;-0.001234089817339033
7.01100e-06;-0.0012023960564125085
7.01125e-06;-0.001170315640377979
7.01150e-06;-0.0011363326885630493
7.01175e-06;-0.0011023497367481198
7.01200e-06;-0.0010674669000950061
7.01225e-06;-0.0010281561816741132
7.01250e-06;-0.0009888454632532202
7.01275e-06;-0.0009489905555583153
7.01300e-06;-0.0009064579654956474
7.01325e-06;-0.0008639253754329794
7.01350e-06;-0.0008207664797327101
7.01375e-06;-0.0007745258482417642
7.01400e-06;-0.0007282852167508184
7.01425e-06;-0.0006814940120341756
7.01450e-06;-0.0006319937127269683
7.01475e-06;-0.0005824934134197611
7.01500e-06;-0.0005328328238358719
7.01525e-06;-0.0004823835262276851
7.01550e-06;-0.0004319342286193274
7.01575e-06;-0.00038137809240158083
7.01600e-06;-0.0003302962569928858
7.01625e-06;-0.00027921442158401766
7.01650e-06;-0.0002283053375289054
7.01675e-06;-0.00017824627620607848
7.01700e-06;-0.00012844900810630332
7.01725e-06;-8.01584975654398e-05
7.01750e-06;-3.316078236828623e-05
7.01775e-06;1.253504368310914e-05
7.01800e-06;5.6802546044406525e-05
7.01825e-06;9.935905921152232e-05
7.01850e-06;0.000139886459979333
7.01875e-06;0.00017806669148657533
7.01900e-06;0.00021359135388952544
7.01925e-06;0.0002463384163984203
7.01950e-06;0.0002770322351196084
7.01975e-06;0.00030710085683486433
7.02000e-06;0.00033732983758152674
7.02025e-06;0.0003676312615577246
7.02050e-06;0.0003977342652383168
7.02075e-06;0.000426860942201959
7.02100e-06;0.00045598761916560126
7.02125e-06;0.000485044999557764
7.02150e-06;0.0005137614062909864
7.02175e-06;0.0005424778130242087
7.02200e-06;0.0005711942197575284
7.02225e-06;0.0005999106264907507
7.02250e-06;0.0006296525002354389
7.02275e-06;0.0006599019609393269
7.02300e-06;0.0006901514216431123
7.02325e-06;0.0007204008823468976
7.02350e-06;0.0007508916491037854
7.02375e-06;0.0007825697618708014
7.02400e-06;0.0008142478746379245
7.02425e-06;0.0008459259874049404
7.02450e-06;0.0008776041001719564
7.02475e-06;0.0009092822129390795
7.02500e-06;0.0009409856124467863
7.02525e-06;0.0009728134353176717
7.02550e-06;0.0010046412581886648
7.02575e-06;0.00103646908105955
7.02600e-06;0.0010682969039304355
7.02625e-06;0.0011001247268014286
7.02650e-06;0.001131754504613978
7.02675e-06;0.0011624098020646993
7.02700e-06;0.0011927839172512155
7.02725e-06;0.0012217744755998116
7.02750e-06;0.0012504715032601837
7.02775e-06;0.0012777242136846397
7.02800e-06;0.0013047348124152617
7.02825e-06;0.0013303512368267438
7.02850e-06;0.001354734002950665
7.02875e-06;0.0013776900745204284
7.02900e-06;0.0013990182173218826
7.02925e-06;0.0014183649409700342
7.02950e-06;0.0014347066846100254
7.02975e-06;0.001446550080871928
7.03000e-06;0.0014530774486273051
7.03025e-06;0.0014542630799405686
7.03050e-06;0.0014502542976198372
7.03075e-06;0.0014407921207910818
7.03100e-06;0.0014252388591720205
7.03125e-06;0.0014079235875733439
7.03150e-06;0.001381938348965371
7.03175e-06;0.0013539131526926873
7.03200e-06;0.0013158503483139893
7.03225e-06;0.0012758989822737698
7.03250e-06;0.0012266549518948442
7.03275e-06;0.0011757643044118618
7.03300e-06;0.0011167714803603326
7.03325e-06;0.0010562532916821913
7.03350e-06;0.0009882295490399376
7.03375e-06;0.0009186875843906792
7.03400e-06;0.0008416752110230938
7.03425e-06;0.0007634206707609712
7.03450e-06;0.0006790540504755347
7.03475e-06;0.0005939644132557925
7.03500e-06;0.0005047849195269418
7.03525e-06;0.0004129864760633108
7.03550e-06;0.0003207346384874963
7.03575e-06;0.0002260090785370172
7.03600e-06;0.0001299349606356434
7.03625e-06;3.3047374695564795e-05
7.03650e-06;-6.407617939731883e-05
7.03675e-06;-0.00016085826724203904
7.03700e-06;-0.0002567227708866788
7.03725e-06;-0.00035111705978611504
7.03750e-06;-0.0004435917257248885
7.03775e-06;-0.0005337696870823904
7.03800e-06;-0.0006211699220687141
7.03825e-06;-0.0007051894536544098
7.03850e-06;-0.0007851987085600999
7.03875e-06;-0.0008605683742692928
7.03900e-06;-0.0009306808204889821
7.03925e-06;-0.000994848793437933
7.03950e-06;-0.0010531672235301187
7.03975e-06;-0.001110554596223134
7.04000e-06;-0.0011633607026191534
7.04025e-06;-0.0012151845194207055
7.04050e-06;-0.0012621749819996977
7.04075e-06;-0.0013079392539485323
7.04100e-06;-0.0013476700570583722
7.04125e-06;-0.001386059404472737
7.04150e-06;-0.0014178481214967653
7.04175e-06;-0.0014496368385209012
7.04200e-06;-0.0014804009378603408
7.04225e-06;-0.0015061234076843965
7.04250e-06;-0.0015318458775085396
7.04275e-06;-0.0015563475378363013
7.04300e-06;-0.0015748422071843028
7.04325e-06;-0.001593336876532367
7.04350e-06;-0.001610338495092956
7.04375e-06;-0.0016199935598797404
7.04400e-06;-0.0016296486246665574
7.04425e-06;-0.0016393036894533418
7.04450e-06;-0.0016489587542401261
7.04475e-06;-0.001658613819026943
7.04500e-06;-0.0016682688838137274
7.04525e-06;-0.0016779239486005445
7.04550e-06;-0.001686195557320017
7.04575e-06;-0.001687659872893702
7.04600e-06;-0.0016891241884673918
7.04625e-06;-0.0016905885040410767
7.04650e-06;-0.0016920528196147616
7.04675e-06;-0.0016935171351884514
7.04700e-06;-0.0016949814507621363
7.04725e-06;-0.0016964457663358212
7.04750e-06;-0.0016974856494302738
7.04775e-06;-0.0016964371132573383
7.04800e-06;-0.0016953885770844028
7.04825e-06;-0.0016943400409114638
7.04850e-06;-0.0016933543575632824
7.04875e-06;-0.0016923997851858226
7.04900e-06;-0.0016914452128083594
7.04925e-06;-0.0016900880198254494
7.04950e-06;-0.0016867497328618363
7.04975e-06;-0.0016834114458982342
7.05000e-06;-0.0016789500356961342
7.05025e-06;-0.0016689622995752803
7.05050e-06;-0.0016589745634544603
7.05075e-06;-0.0016479774813195805
7.05100e-06;-0.0016320139138986862
7.05125e-06;-0.001616050346477846
7.05150e-06;-0.0015988309430331102
7.05175e-06;-0.0015754322006428553
7.05200e-06;-0.0015520334582526797
7.05225e-06;-0.0015273444825303288
7.05250e-06;-0.00149630691596773
7.05275e-06;-0.0014652693494052362
7.05300e-06;-0.0014332060443614065
7.05325e-06;-0.0013960955949254706
7.05350e-06;-0.0013589851454896603
7.05375e-06;-0.0013208449659639766
7.05400e-06;-0.0012776380013445189
7.05425e-06;-0.0012344310367250612
7.05450e-06;-0.0011905059889693907
7.05475e-06;-0.001143047614407028
7.05500e-06;-0.001095589239844665
7.05525e-06;-0.0010477223317029239
7.05550e-06;-0.00099784523480407
7.05575e-06;-0.0009479681379052163
7.05600e-06;-0.0008979191134541855
7.05625e-06;-0.0008470241197863842
7.05650e-06;-0.0007961291261185829
7.05675e-06;-0.0007454197356854875
7.05700e-06;-0.0006956236056429643
7.05725e-06;-0.0006461791402305299
7.05750e-06;-0.0005984650400110589
7.05775e-06;-0.0005512306627886756
7.05800e-06;-0.0005063567617278932
7.05825e-06;-0.00046196766657406155
7.05850e-06;-0.0004203606774145133
7.05875e-06;-0.00038115691452744483
7.05900e-06;-0.0003446683664415978
7.05925e-06;-0.0003109126213594453
7.05950e-06;-0.00027867190729639944
7.05975e-06;-0.0002461088733153799
7.06000e-06;-0.0002116667666447455
7.06025e-06;-0.00017555063601851407
7.06050e-06;-0.00013812317686351055
7.06075e-06;-9.974701912257069e-05
7.06100e-06;-6.077603493777911e-05
7.06125e-06;-2.1396225909892816e-05
7.06150e-06;1.8964954010784525e-05
7.06175e-06;6.149468508170456e-05
7.06200e-06;0.00010678155412690673
7.06225e-06;0.00015461998138340322
7.06250e-06;0.00020462414956273517
7.06275e-06;0.0002564082839981334
7.06300e-06;0.00030959215477983074
7.06325e-06;0.00036405761546193585
7.06350e-06;0.0004203061229243778
7.06375e-06;0.00047723760588567517
7.06400e-06;0.0005375296685845386
7.06425e-06;0.0005983283730580539
7.06450e-06;0.0006616200074912399
7.06475e-06;0.0007251495850419748
7.06500e-06;0.0007898499612843741
7.06525e-06;0.0008546161695704838
7.06550e-06;0.0009197862544563679
7.06575e-06;0.0009854353470122833
7.06600e-06;0.0010515365501588922
7.06625e-06;0.001117751273501699
7.06650e-06;0.0011836702007693844
7.06675e-06;0.001248884074679909
7.06700e-06;0.0013129860518215602
7.06725e-06;0.0013756104321159097
7.06750e-06;0.001436577840965382
7.06775e-06;0.0014958602957322999
7.06800e-06;0.001553282381373943
7.06825e-06;0.0016084736422810422
7.06850e-06;0.0016610193874143503
7.06875e-06;0.0017105048879716422
7.06900e-06;0.0017565206998331243
7.06925e-06;0.0017987576175362186
7.06950e-06;0.0018373745171233146
7.06975e-06;0.0018729660825070535
7.07000e-06;0.0019058713069892022
7.07025e-06;0.0019360093984877103
7.07050e-06;0.00196319878842652
7.07075e-06;0.0019872581017343293
7.07100e-06;0.002008009148761252
7.07125e-06;0.002025095791217178
7.07150e-06;0.0020382329110394267
7.07175e-06;0.0020504963405423423
7.07200e-06;0.0020584607783698102
7.07225e-06;0.002065032522843663
7.07250e-06;0.002064751522126844
7.07275e-06;0.002064470521410025
7.07300e-06;0.0020641895206932053
7.07325e-06;0.0020639085199763867
7.07350e-06;0.0020570434948967197
7.07375e-06;0.0020469195011091883
7.07400e-06;0.0020367955073216917
7.07425e-06;0.002026671513534195
7.07450e-06;0.0020155291374471694
7.07475e-06;0.001999375813051751
7.07500e-06;0.001983222488656333
7.07525e-06;0.0019664589135397308
7.07550e-06;0.0019466926008263065
7.07575e-06;0.0019269262881128153
7.07600e-06;0.0019068650355222546
7.07625e-06;0.0018853525317865335
7.07650e-06;0.0018638400280507395
7.07675e-06;0.0018422208028645514
7.07700e-06;0.0018200764549696146
7.07725e-06;0.0017979694669559277
7.07750e-06;0.001776046308172462
7.07775e-06;0.0017543947327859513
7.07800e-06;0.0017340794830249368
7.07825e-06;0.0017137642332639912
7.07850e-06;0.0016937769573805298
7.07875e-06;0.001675609427644074
7.07900e-06;0.001658673580412429
7.07925e-06;0.0016428605228962936
7.07950e-06;0.0016269618387468427
7.07975e-06;0.0016089066636964335
7.08000e-06;0.0015872957925564598
7.08025e-06;0.001561683781470264
7.08050e-06;0.0015351611331082457
7.08075e-06;0.001504157695637496
7.08100e-06;0.0014723789029876116
7.08125e-06;0.0014367849765466872
7.08150e-06;0.0013999815829368856
7.08175e-06;0.0013572270082580474
7.08200e-06;0.0013130872766527267
7.08225e-06;0.0012621318828352783
7.08250e-06;0.0012100502360691111
7.08275e-06;0.0011524268636558931
7.08300e-06;0.001093907296510183
7.08325e-06;0.0010309780047663979
7.08350e-06;0.000967025892871473
7.08375e-06;0.000898040996228152
7.08400e-06;0.0008280686287637279
7.08425e-06;0.0007532374128658993
7.08450e-06;0.0006777262176334295
7.08475e-06;0.0005988691852840964
7.08500e-06;0.0005196215774961392
7.08525e-06;0.0004384521439536119
7.08550e-06;0.0003569581009710938
7.08575e-06;0.0002738668178119474
7.08600e-06;0.00019061832943399165
7.08625e-06;0.00010659631305307811
7.08650e-06;2.266673160574518e-05
7.08675e-06;-6.063161459157892e-05
7.08700e-06;-0.00014280124109258832
7.08725e-06;-0.0002233720718731046
7.08750e-06;-0.00030204341944316927
7.08775e-06;-0.00037864729458722876
7.08800e-06;-0.00045287326192274593
7.08825e-06;-0.0005242280661052334
7.08850e-06;-0.0005921775165494908
7.08875e-06;-0.0006561875866792012
7.08900e-06;-0.0007157288534279429
7.08925e-06;-0.00077036721648967
7.08950e-06;-0.0008201182226372054
7.08975e-06;-0.0008654431720101762
7.09000e-06;-0.0009066109180553447
7.09025e-06;-0.0009431296278205658
7.09050e-06;-0.0009740569296707357
7.09075e-06;-0.0010033614460857538
7.09100e-06;-0.0010246810496332076
7.09125e-06;-0.0010443773761680188
7.09150e-06;-0.0010560863710297507
7.09175e-06;-0.0010663896217036435
7.09200e-06;-0.0010697759105849454
7.09225e-06;-0.001071815257765352
7.09250e-06;-0.001067226980686187
7.09275e-06;-0.0010613056735460987
7.09300e-06;-0.0010488251943466594
7.09325e-06;-0.001035106431711704
7.09350e-06;-0.0010152946976201462
7.09375e-06;-0.000994475982000588
7.09400e-06;-0.0009687024155515269
7.09425e-06;-0.0009420536791345973
7.09450e-06;-0.0009110986704378326
7.09475e-06;-0.0008792075673106455
7.09500e-06;-0.0008427104131926496
7.09525e-06;-0.0008062132590747773
7.09550e-06;-0.000768971053884616
7.09575e-06;-0.0007280628262098143
7.09600e-06;-0.0006871545985351513
7.09625e-06;-0.0006459618655325021
7.09650e-06;-0.0006033692245661808
7.09675e-06;-0.0005607366453952684
7.09700e-06;-0.0005179075503584005
7.09725e-06;-0.00047523006270333465
7.09750e-06;-0.00043329855890172805
7.09775e-06;-0.00039176373838750007
7.09800e-06;-0.00035218079728843005
7.09825e-06;-0.00031302552114164224
7.09850e-06;-0.0002763245825669242
7.09875e-06;-0.00024174456354762803
7.09900e-06;-0.00020956430099714515
7.09925e-06;-0.00017988239742265064
7.09950e-06;-0.00015197966165365158
7.09975e-06;-0.00012446071080487642
7.10000e-06;-9.654871400867918e-05
7.10025e-06;-6.831805479479044e-05
7.10050e-06;-4.0045606177873204e-05
7.10075e-06;-1.1850711881662715e-05
7.10100e-06;1.5859347108392287e-05
7.10125e-06;4.300526854654206e-05
7.10150e-06;6.996336530317273e-05
7.10175e-06;9.753343625759319e-05
7.10200e-06;0.0001261882622204152
7.10225e-06;0.00015593027783342535
7.10250e-06;0.00018583521878295917
7.10275e-06;0.0002165418335628373
7.10300e-06;0.00024732467356106065
7.10325e-06;0.0002784825796118545
7.10350e-06;0.00030964048566275385
7.10375e-06;0.00034118075468153684
7.10400e-06;0.00037460244000803237
7.10425e-06;0.0004080241253346411
7.10450e-06;0.0004414458106611366
7.10475e-06;0.00047486749598763206
7.10500e-06;0.0005082891813142408
7.10525e-06;0.0005419687108733869
7.10550e-06;0.0005757758684970088
7.10575e-06;0.0006095830261205161
7.10600e-06;0.0006433901837440234
7.10625e-06;0.0006771973413676453
7.10650e-06;0.0007107708337880691
7.10675e-06;0.0007431945769901096
7.10700e-06;0.0007756183201922601
7.10725e-06;0.0008076727494969527
7.10750e-06;0.000837909970423163
7.10775e-06;0.0008678275136594045
7.10800e-06;0.0008961720833871829
7.10825e-06;0.0009240813810025063
7.10850e-06;0.0009498489229587501
7.10875e-06;0.000975202448608626
7.10900e-06;0.000998000350918284
7.10925e-06;0.0010182471872751712
7.10950e-06;0.001037566967670716
7.10975e-06;0.0010523251708494101
7.11000e-06;0.0010660291469969238
7.11025e-06;0.0010745458009034778
7.11050e-06;0.0010820099384682132
7.11075e-06;0.001084295171235676
7.11100e-06;0.0010855235617802917
7.11125e-06;0.0010815517620378478
7.11150e-06;0.0010764513104479544
7.11175e-06;0.0010657973294403188
7.11200e-06;0.0010540290801394857
7.11225e-06;0.0010367780756745614
7.11250e-06;0.0010185079034776365
7.11275e-06;0.0009952229182593607
7.11300e-06;0.0009710100807244308
7.11325e-06;0.0009422317475075253
7.11350e-06;0.0009125746164811555
7.11375e-06;0.0008785933623896692
7.11400e-06;0.0008436743080935889
7.11425e-06;0.0008041408095518266
7.11450e-06;0.0007646073110100641
7.11475e-06;0.0007242542513724156
7.11500e-06;0.000679868542814353
7.11525e-06;0.0006354828342562903
7.11550e-06;0.0005905843465790143
7.11575e-06;0.0005431627301545184
7.11600e-06;0.0004957411137300224
7.11625e-06;0.0004481802530948947
7.11650e-06;0.00039993424156888134
7.11675e-06;0.0003516882300428679
7.11700e-06;0.00030364166539038255
7.11725e-06;0.0002565764787268518
7.11750e-06;0.00020976135747978656
7.11775e-06;0.00016440232406546182
7.11800e-06;0.00012043121884403197
7.11825e-06;7.815741094204506e-05
7.11850e-06;3.7897110922106515e-05
7.11875e-06;-3.352487941326644e-08
7.11900e-06;-3.533139401628617e-05
7.11925e-06;-6.794455852451186e-05
7.11950e-06;-9.895651455164018e-05
7.11975e-06;-0.00013037302514910365
7.12000e-06;-0.0001633080957984491
7.12025e-06;-0.00019775887226167703
7.12050e-06;-0.00023351692247862573
7.12075e-06;-0.00026942527616819286
7.12100e-06;-0.00030615420486662214
7.12125e-06;-0.00034328172854975944
7.12150e-06;-0.0003807601352554571
7.12175e-06;-0.0004203843079424619
7.12200e-06;-0.000462630881858085
7.12225e-06;-0.0005076304678106947
7.12250e-06;-0.0005531747116761363
7.12275e-06;-0.0006013989438356913
7.12300e-06;-0.0006500947330733724
7.12325e-06;-0.0007011108180786002
7.12350e-06;-0.000752126903083655
7.12375e-06;-0.0008039783058784877
7.12400e-06;-0.0008599398883779232
7.12425e-06;-0.000915901470877169
7.12450e-06;-0.000972413182873146
7.12475e-06;-0.0010316318060830912
7.12500e-06;-0.001090850429292836
7.12525e-06;-0.0011500690525025807
7.12550e-06;-0.001209287675712526
7.12575e-06;-0.0012685845796716107
7.12600e-06;-0.0013282666639190806
7.12625e-06;-0.0013879487481667527
7.12650e-06;-0.0014476308324142225
7.12675e-06;-0.0015073129166618946
7.12700e-06;-0.0015663237644413302
7.12725e-06;-0.001622031794369637
7.12750e-06;-0.0016777398242981325
7.12775e-06;-0.00173256006546632
7.12800e-06;-0.0017830119436141405
7.12825e-06;-0.001833463821762132
7.12850e-06;-0.0018825375790926296
7.12875e-06;-0.001924830295384673
7.12900e-06;-0.00196712301167686
7.12925e-06;-0.002007822748507428
7.12950e-06;-0.0020406842327220917
7.12975e-06;-0.0020735457169368666
7.13000e-06;-0.0021050894853634153
7.13025e-06;-0.002130149435590954
7.13050e-06;-0.0021552093858185776
7.13075e-06;-0.0021787687141439707
7.13100e-06;-0.0021949442350608053
7.13125e-06;-0.0022111197559775853
7.13150e-06;-0.00222487727442996
7.13175e-06;-0.0022267370160441113
7.13200e-06;-0.0022285967576582562
7.13225e-06;-0.0022304564992724017
7.13250e-06;-0.0022323162408865527
7.13275e-06;-0.0022341759825006977
7.13300e-06;-0.0022360357241148427
7.13325e-06;-0.002237895465728994
7.13350e-06;-0.002239755207343139
7.13375e-06;-0.0022311562834095794
7.13400e-06;-0.0022173805159797434
7.13425e-06;-0.002203604748549954
7.13450e-06;-0.0021898289811201647
7.13475e-06;-0.0021760532136903287
7.13500e-06;-0.002162277446260539
7.13525e-06;-0.002148501678830703
7.13550e-06;-0.002134725911400914
7.13575e-06;-0.0021198938553710772
7.13600e-06;-0.002099864333158521
7.13625e-06;-0.0020798348109460326
7.13650e-06;-0.0020598052887335445
7.13675e-06;-0.002039775766520988
7.13700e-06;-0.0020197462443085
7.13725e-06;-0.0019997167220960114
7.13750e-06;-0.001980079703359128
7.13775e-06;-0.0019623739972779077
7.13800e-06;-0.0019446682911966877
7.13825e-06;-0.0019269625851154077
7.13850e-06;-0.0019092568790341875
7.13875e-06;-0.0018915511729529675
7.13900e-06;-0.0018738454668716874
7.13925e-06;-0.0018575682053996493
7.13950e-06;-0.001848319603092114
7.13975e-06;-0.00183907100078461
7.14000e-06;-0.0018298223984771062
7.14025e-06;-0.0018205737961695708
7.14050e-06;-0.001811325193862067
7.14075e-06;-0.001802076591554563
7.14100e-06;-0.001792827989247028
7.14125e-06;-0.0017835793869395238
7.14150e-06;-0.00177433078463202
7.14175e-06;-0.0017650821823244848
7.14200e-06;-0.0017558335800169809
7.14225e-06;-0.001746584977709477
7.14250e-06;-0.0017373363754019417
7.14275e-06;-0.0017326343869904974
7.14300e-06;-0.001730182887273394
7.14325e-06;-0.0017277313875562824
7.14350e-06;-0.0017252798878391788
7.14375e-06;-0.001722828388122067
7.14400e-06;-0.0017203768884049638
7.14425e-06;-0.0017179253886878602
7.14450e-06;-0.0017154738889707485
