Time(s);Current(A)
5.50000e-06;0.008892973205385511
5.50025e-06;0.008904767474470443
5.50050e-06;0.008916561743555373
5.50075e-06;0.008928356012640346
5.50100e-06;0.008940150281725278
5.50125e-06;0.00895194455081021
5.50150e-06;0.008963738819895182
5.50175e-06;0.008975533088980114
5.50200e-06;0.008987327358065046
5.50225e-06;0.008999121627150018
5.50250e-06;0.009032217714585964
5.50275e-06;0.009065819609560667
5.50300e-06;0.009099421504535484
5.50325e-06;0.00913302339951019
5.50350e-06;0.009166625294485007
5.50375e-06;0.00920022718945971
5.50400e-06;0.009233829084434415
5.50425e-06;0.009267430979409233
5.50450e-06;0.009301032874383936
5.50475e-06;0.00933463476935864
5.50500e-06;0.009368236664333458
5.50525e-06;0.009401838559308163
5.50550e-06;0.009429846507381325
5.50575e-06;0.009451716277154364
5.50600e-06;0.009473586046927331
5.50625e-06;0.009495455816700296
5.50650e-06;0.009517325586473337
5.50675e-06;0.009539195356246302
5.50700e-06;0.009561065126019268
5.50725e-06;0.009582934895792308
5.50750e-06;0.009604804665565273
5.50775e-06;0.009626674435338314
5.50800e-06;0.009648544205111279
5.50825e-06;0.009670413974884245
5.50850e-06;0.009692283744657285
5.50875e-06;0.00971415351443025
5.50900e-06;0.009736023284203216
5.50925e-06;0.009757893053976256
5.50950e-06;0.009779762823749222
5.50975e-06;0.009801632593522187
5.51000e-06;0.009823502363295227
5.51025e-06;0.009832161109486051
5.51050e-06;0.009840506162488692
5.51075e-06;0.009848851215491363
5.51100e-06;0.009857196268494003
5.51125e-06;0.009865541321496646
5.51150e-06;0.009873886374499315
5.51175e-06;0.009882231427501957
5.51200e-06;0.009890576480504627
5.51225e-06;0.00989892153350727
5.51250e-06;0.009907266586509911
5.51275e-06;0.009915611639512581
5.51300e-06;0.009923956692515223
5.51325e-06;0.009932301745517865
5.51350e-06;0.009940646798520535
5.51375e-06;0.009948991851523177
5.51400e-06;0.009957336904525818
5.51425e-06;0.009965681957528488
5.51450e-06;0.00997402701053113
5.51475e-06;0.009980597891661327
5.51500e-06;0.009985221992909995
5.51525e-06;0.009989846094158648
5.51550e-06;0.009994470195407302
5.51575e-06;0.00999909429665597
5.51600e-06;0.010003718397904622
5.51625e-06;0.010006209285133868
5.51650e-06;0.01000864951961074
5.51675e-06;0.010011089754087609
5.51700e-06;0.010013529988564489
5.51725e-06;0.010015970223041359
5.51750e-06;0.010008737668737349
5.51775e-06;0.009990891266424261
5.51800e-06;0.009973044864111233
5.51825e-06;0.009955198461798204
5.51850e-06;0.009937352059485116
5.51875e-06;0.009919505657172088
5.51900e-06;0.00990165925485906
5.51925e-06;0.009867808354559847
5.51950e-06;0.009816395889242938
5.51975e-06;0.00976498342392603
5.52000e-06;0.009713570958608947
5.52025e-06;0.009662158493292038
5.52050e-06;0.009610746027974956
5.52075e-06;0.009559333562658047
5.52100e-06;0.009492286867138891
5.52125e-06;0.009408084897494019
5.52150e-06;0.009323882927849433
5.52175e-06;0.009239680958204847
5.52200e-06;0.009155478988559977
5.52225e-06;0.009071277018915391
5.52250e-06;0.008987075049270805
5.52275e-06;0.008902873079625933
5.52300e-06;0.008818671109981347
5.52325e-06;0.008719570472161407
5.52350e-06;0.008620116068360927
5.52375e-06;0.008520661664560784
5.52400e-06;0.00842120726076064
5.52425e-06;0.00832175285696016
5.52450e-06;0.00822229845316002
5.52475e-06;0.00812284404935954
5.52500e-06;0.008023389645559396
5.52525e-06;0.007927137368057228
5.52550e-06;0.007834398749603571
5.52575e-06;0.007741660131150227
5.52600e-06;0.007654023763580221
5.52625e-06;0.007571986041508931
5.52650e-06;0.0074899483194379194
5.52675e-06;0.007420970072718679
5.52700e-06;0.007366321849074993
5.52725e-06;0.007311673625431491
5.52750e-06;0.0072570254017879894
5.52775e-06;0.0072023771781443025
5.52800e-06;0.007147728954500801
5.52825e-06;0.007115295430896079
5.52850e-06;0.007107237860811123
5.52875e-06;0.007099180290726193
5.52900e-06;0.007091122720641236
5.52925e-06;0.0070830651505563065
5.52950e-06;0.007075007580471377
5.52975e-06;0.007093715493048004
5.53000e-06;0.007141792884398984
5.53025e-06;0.007189870275749964
5.53050e-06;0.007237947667101107
5.53075e-06;0.007286025058452087
5.53100e-06;0.007334102449803067
5.53125e-06;0.0073821798411542105
5.53150e-06;0.0074302572325051905
5.53175e-06;0.00747833462385617
5.53200e-06;0.007571043376001825
5.53225e-06;0.007664811891132859
5.53250e-06;0.0077585804062638925
5.53275e-06;0.007852348921395245
5.53300e-06;0.00794611743652628
5.53325e-06;0.008039885951657631
5.53350e-06;0.008133654466788664
5.53375e-06;0.008227422981919698
5.53400e-06;0.008326465901464223
5.53425e-06;0.008431296368739434
5.53450e-06;0.008536126836014644
5.53475e-06;0.00864095730329021
5.53500e-06;0.008745787770565422
5.53525e-06;0.008850618237840632
5.53550e-06;0.0089554487051162
5.53575e-06;0.009049282657664814
5.53600e-06;0.009131050251840493
5.53625e-06;0.00921281784601645
5.53650e-06;0.009294585440192129
5.53675e-06;0.009376353034367808
5.53700e-06;0.009458120628543764
5.53725e-06;0.009539888222719443
5.53750e-06;0.009598253838072598
5.53775e-06;0.009630940711558884
5.53800e-06;0.009663627585045057
5.53825e-06;0.00969631445853134
5.53850e-06;0.009729001332017513
5.53875e-06;0.009761688205503688
5.53900e-06;0.009794375078989972
5.53925e-06;0.009827061952476145
5.53950e-06;0.009859748825962317
5.53975e-06;0.009892435699448601
5.54000e-06;0.009874105587419402
5.54025e-06;0.009854564086989048
5.54050e-06;0.009835022586558627
5.54075e-06;0.009815481086128272
5.54100e-06;0.009795939585697917
5.54125e-06;0.009776398085267497
5.54150e-06;0.009756856584837142
5.54175e-06;0.009737315084406787
5.54200e-06;0.009717773583976366
5.54225e-06;0.009682959967583575
5.54250e-06;0.009631388421166877
5.54275e-06;0.009579816874750353
5.54300e-06;0.009528245328333828
5.54325e-06;0.00947667378191713
5.54350e-06;0.009425102235500605
5.54375e-06;0.00937353068908408
5.54400e-06;0.00932195914266738
5.54425e-06;0.009270387596250856
5.54450e-06;0.009218816049834332
5.54475e-06;0.009166108596528942
5.54500e-06;0.009113374171335547
5.54525e-06;0.009060639746142152
5.54550e-06;0.009007905320948579
5.54575e-06;0.008955170895755185
5.54600e-06;0.00890243647056179
5.54625e-06;0.008849702045368217
5.54650e-06;0.008796967620174822
5.54675e-06;0.008744233194981249
5.54700e-06;0.008704974788150747
5.54725e-06;0.008680503472595472
5.54750e-06;0.008656032157040115
5.54775e-06;0.00863156084148484
5.54800e-06;0.008607089525929566
5.54825e-06;0.008582618210374208
5.54850e-06;0.008558146894818933
5.54875e-06;0.008533675579263659
5.54900e-06;0.008526531489949774
5.54925e-06;0.008538400381255995
5.54950e-06;0.008550269272562217
5.54975e-06;0.008562138163868478
5.55000e-06;0.0085740070551747
5.55025e-06;0.008585875946480921
5.55050e-06;0.008597744837787184
5.55075e-06;0.008609613729093406
5.55100e-06;0.008637345813700008
5.55125e-06;0.00868248441118841
5.55150e-06;0.008727623008676813
5.55175e-06;0.00877276160616537
5.55200e-06;0.008817900203653773
5.55225e-06;0.008863038801142177
5.55250e-06;0.008908177398630732
5.55275e-06;0.008953315996119137
5.55300e-06;0.00899845459360754
5.55325e-06;0.009043593191096096
5.55350e-06;0.009094730286028058
5.55375e-06;0.00915244946825114
5.55400e-06;0.009210168650474417
5.55425e-06;0.009267887832697498
5.55450e-06;0.00932560701492058
5.55475e-06;0.009383326197143858
5.55500e-06;0.00944104537936694
5.55525e-06;0.009498764561590215
5.55550e-06;0.009556483743813297
5.55575e-06;0.009614202926036378
5.55600e-06;0.009664484254808106
5.55625e-06;0.009706604106287259
5.55650e-06;0.00974872395776641
5.55675e-06;0.009790843809245706
5.55700e-06;0.009832963660724859
5.55725e-06;0.009875083512204012
5.55750e-06;0.009917203363683307
5.55775e-06;0.009923022951370876
5.55800e-06;0.009927980596356151
5.55825e-06;0.00993293824134144
5.55850e-06;0.009937895886326716
5.55875e-06;0.009942853531311989
5.55900e-06;0.00994781117629728
5.55925e-06;0.009929020767947154
5.55950e-06;0.009884171873867486
5.55975e-06;0.00983932297978797
5.56000e-06;0.009794474085708455
5.56025e-06;0.009749625191628787
5.56050e-06;0.00970477629754927
5.56075e-06;0.009659927403469755
5.56100e-06;0.009615078509390087
5.56125e-06;0.009526680402026392
5.56150e-06;0.0094372482270656
5.56175e-06;0.009347816052104505
5.56200e-06;0.009258383877143712
5.56225e-06;0.00916895170218292
5.56250e-06;0.009079519527221825
5.56275e-06;0.008990087352261032
5.56300e-06;0.008891416535914957
5.56325e-06;0.008782608256877112
5.56350e-06;0.008673799977839637
5.56375e-06;0.008562748307028729
5.56400e-06;0.008449234986344296
5.56425e-06;0.008335721665659863
5.56450e-06;0.008222665874928238
5.56475e-06;0.008110112126936516
5.56500e-06;0.007997558378944796
5.56525e-06;0.007888101802334343
5.56550e-06;0.007782043718859707
5.56575e-06;0.007675985635385071
5.56600e-06;0.007583051801273262
5.56625e-06;0.007504519066058764
5.56650e-06;0.007425986330844265
5.56675e-06;0.007347453595629501
5.56700e-06;0.007268920860415003
5.56725e-06;0.007190388125200504
5.56750e-06;0.00711185538998574
5.56775e-06;0.007033322654771242
5.56800e-06;0.006954789919556477
5.56825e-06;0.006915288621181833
5.56850e-06;0.0068767141166801455
5.56875e-06;0.006838139612178328
5.56900e-06;0.006799565107676641
5.56925e-06;0.006760990603174953
5.56950e-06;0.006722416098673136
5.56975e-06;0.006683841594171448
5.57000e-06;0.006645267089669762
5.57025e-06;0.006622402388882436
5.57050e-06;0.006616775888213585
5.57075e-06;0.006611149387544734
5.57100e-06;0.006605522886875865
5.57125e-06;0.006599896386207014
5.57150e-06;0.0065942698855381635
5.57175e-06;0.0065886433848692935
5.57200e-06;0.006583016884200443
5.57225e-06;0.006577390383531573
5.57250e-06;0.006571763882862722
5.57275e-06;0.006566137382193871
5.57300e-06;0.006569482712746674
5.57325e-06;0.006582672738041043
5.57350e-06;0.0065958627633354115
5.57375e-06;0.006609052788629825
5.57400e-06;0.006622242813924194
5.57425e-06;0.006635432839218563
5.57450e-06;0.006648622864512977
5.57475e-06;0.0066618128898073455
5.57500e-06;0.006675002915101714
5.57525e-06;0.006688192940396128
5.57550e-06;0.006701382965690497
5.57575e-06;0.006714293663999686
5.57600e-06;0.0067268978597862855
5.57625e-06;0.006739502055572843
5.57650e-06;0.006752106251359443
5.57675e-06;0.006764710447146
5.57700e-06;0.0067773146429325574
5.57725e-06;0.006789918838719157
5.57750e-06;0.006802523034505715
5.57775e-06;0.006815127230292271
5.57800e-06;0.006827731426078871
5.57825e-06;0.006840335621865428
5.57850e-06;0.006852939817651986
5.57875e-06;0.0068709329657921404
5.57900e-06;0.00688905407355701
5.57925e-06;0.006907175181321878
5.57950e-06;0.006925296289086808
5.57975e-06;0.006943417396851677
5.58000e-06;0.006961538504616545
5.58025e-06;0.006979659612381475
5.58050e-06;0.006997780720146345
5.58075e-06;0.007015901827911275
5.58100e-06;0.007034022935676143
5.58125e-06;0.007052144043441012
5.58150e-06;0.007074248138882643
5.58175e-06;0.007100722724234384
5.58200e-06;0.007127197309586124
5.58225e-06;0.007153671894937955
5.58250e-06;0.007180146480289695
5.58275e-06;0.007206621065641436
5.58300e-06;0.0072330956509932655
5.58325e-06;0.007259570236345007
5.58350e-06;0.007286044821696747
5.58375e-06;0.007312519407048577
5.58400e-06;0.0073389939924003176
5.58425e-06;0.007365468577752058
5.58450e-06;0.007388845838551858
5.58475e-06;0.007412149553983026
5.58500e-06;0.007435453269414274
5.58525e-06;0.007458756984845443
5.58550e-06;0.007482060700276611
5.58575e-06;0.007505364415707858
5.58600e-06;0.007528668131139026
5.58625e-06;0.007551971846570195
5.58650e-06;0.007575275562001442
5.58675e-06;0.007598579277432611
5.58700e-06;0.00762188299286378
5.58725e-06;0.007642491001056834
5.58750e-06;0.007660141038439874
5.58775e-06;0.007677791075822914
5.58800e-06;0.007695441113206013
5.58825e-06;0.007713091150589053
5.58850e-06;0.007730741187972093
5.58875e-06;0.007748391225355192
5.58900e-06;0.007766041262738232
5.58925e-06;0.007783691300121332
5.58950e-06;0.0078013413375043715
5.58975e-06;0.007818991374887412
5.59000e-06;0.007836641412270511
5.59025e-06;0.007856689707397328
5.59050e-06;0.007879369585175223
5.59075e-06;0.007902049462953194
5.59100e-06;0.007924729340731088
5.59125e-06;0.007947409218508983
5.59150e-06;0.007970089096286954
5.59175e-06;0.007992768974064849
5.59200e-06;0.008015448851842742
5.59225e-06;0.008038128729620713
5.59250e-06;0.008060808607398608
5.59275e-06;0.008083488485176503
5.59300e-06;0.008106168362954474
5.59325e-06;0.008128998321669948
5.59350e-06;0.008151992962598073
5.59375e-06;0.008174987603526121
5.59400e-06;0.00819798224445417
5.59425e-06;0.008220976885382297
5.59450e-06;0.008243971526310345
5.59475e-06;0.008266966167238394
5.59500e-06;0.008289960808166519
5.59525e-06;0.008312955449094567
5.59550e-06;0.008335950090022616
5.59575e-06;0.008358944730950743
5.59600e-06;0.008381939371878791
5.59625e-06;0.008404934012806838
5.59650e-06;0.008419341931329436
5.59675e-06;0.008424327730912541
5.59700e-06;0.008429313530495646
5.59725e-06;0.008434299330078767
5.59750e-06;0.008439285129661873
5.59775e-06;0.008444270929244994
5.59800e-06;0.008449256728828099
5.59825e-06;0.008454242528411204
5.59850e-06;0.008459228327994325
5.59875e-06;0.00846421412757743
5.59900e-06;0.008469199927160536
5.59925e-06;0.008474185726743659
5.59950e-06;0.008479171526326762
5.59975e-06;0.008469923032545354
5.60000e-06;0.00844505540042939
5.60025e-06;0.00842018776831351
5.60050e-06;0.008395320136197627
5.60075e-06;0.008370452504081664
5.60100e-06;0.008345584871965782
5.60125e-06;0.008320717239849902
5.60150e-06;0.008295849607733937
5.60175e-06;0.008270981975618057
5.60200e-06;0.008246114343502092
5.60225e-06;0.00822124671138621
5.60250e-06;0.00819637907927033
5.60275e-06;0.008164872137636529
5.60300e-06;0.008126079952461606
5.60325e-06;0.008087287767286684
5.60350e-06;0.00804849558211163
5.60375e-06;0.008009703396936707
5.60400e-06;0.007970911211761786
5.60425e-06;0.007932119026586732
5.60450e-06;0.007893326841411811
5.60475e-06;0.007854534656236888
5.60500e-06;0.007815742471061834
5.60525e-06;0.007776950285886913
5.60550e-06;0.00773815810071199
5.60575e-06;0.007706621334167003
5.60600e-06;0.0076830458611224055
5.60625e-06;0.007659470388077729
5.60650e-06;0.007635894915033131
5.60675e-06;0.007612319441988534
5.60700e-06;0.007588743968943856
5.60725e-06;0.007565168495899259
5.60750e-06;0.007541593022854661
5.60775e-06;0.007518017549809983
5.60800e-06;0.007494442076765386
5.60825e-06;0.007470866603720788
5.60850e-06;0.007447291130676111
5.60875e-06;0.0074237156576315135
5.60900e-06;0.007400140184586916
5.60925e-06;0.007376564711542239
5.60950e-06;0.007352989238497641
5.60975e-06;0.007329413765453044
5.61000e-06;0.007305838292408366
5.61025e-06;0.007298753833334502
5.61050e-06;0.007292060950175046
5.61075e-06;0.007285368067015612
5.61100e-06;0.007278675183856179
5.61125e-06;0.007271982300696722
5.61150e-06;0.007265289417537288
5.61175e-06;0.0072585965343778544
5.61200e-06;0.007251903651218398
5.61225e-06;0.007245210768058964
5.61250e-06;0.00723851788489953
5.61275e-06;0.007231825001740074
5.61300e-06;0.0072251321185806405
5.61325e-06;0.007218439235421207
5.61350e-06;0.00721174635226175
5.61375e-06;0.007205053469102316
5.61400e-06;0.007198360585942883
5.61425e-06;0.007191667702783427
5.61450e-06;0.007187110236063131
5.61475e-06;0.0071848959390317605
5.61500e-06;0.007182681642000398
5.61525e-06;0.007180467344969035
5.61550e-06;0.007178253047937665
5.61575e-06;0.007176038750906302
5.61600e-06;0.007174216669984319
5.61625e-06;0.007172824963616981
5.61650e-06;0.0071714332572496466
5.61675e-06;0.007170041550882313
5.61700e-06;0.0071686498445149745
5.61725e-06;0.007167258138147641
5.61750e-06;0.0071729649126890714
5.61775e-06;0.007186460774640911
5.61800e-06;0.007199956636592705
5.61825e-06;0.007213452498544499
5.61850e-06;0.007226948360496339
5.61875e-06;0.007240444222448132
5.61900e-06;0.007253940084399972
5.61925e-06;0.007279624128163716
5.61950e-06;0.007318682133867063
5.61975e-06;0.007357740139570542
5.62000e-06;0.00739679814527389
5.62025e-06;0.007435856150977237
5.62050e-06;0.007474914156680716
5.62075e-06;0.0075139721623840635
5.62100e-06;0.007559788002012783
5.62125e-06;0.007619909166032871
5.62150e-06;0.007687590681328113
5.62175e-06;0.007755272196623355
5.62200e-06;0.007822953711918827
5.62225e-06;0.00789063522721407
5.62250e-06;0.007958316742509313
5.62275e-06;0.008025998257804784
5.62300e-06;0.008093679773100026
5.62325e-06;0.008161361288395499
5.62350e-06;0.008229042803690741
5.62375e-06;0.008303122964271537
5.62400e-06;0.008377355059438058
5.62425e-06;0.008451587154604328
5.62450e-06;0.008525819249770597
5.62475e-06;0.00860005134493712
5.62500e-06;0.00867428344010339
5.62525e-06;0.008748515535269659
5.62550e-06;0.00882274763043618
5.62575e-06;0.008896979725602449
5.62600e-06;0.008960944913519023
5.62625e-06;0.009013644333588146
5.62650e-06;0.009066343753657091
5.62675e-06;0.009119043173726036
5.62700e-06;0.00917174259379516
5.62725e-06;0.009224442013864105
5.62750e-06;0.009277141433933229
5.62775e-06;0.00931091710470697
5.62800e-06;0.009323927947166513
5.62825e-06;0.0093369387896261
5.62850e-06;0.009349949632085642
5.62875e-06;0.009362960474545184
5.62900e-06;0.009375971317004772
5.62925e-06;0.009388982159464314
5.62950e-06;0.009379335265529965
5.62975e-06;0.009344826279054776
5.63000e-06;0.009310317292579706
5.63025e-06;0.009275808306104635
5.63050e-06;0.009241299319629446
5.63075e-06;0.009206790333154375
5.63100e-06;0.009172281346679304
5.63125e-06;0.009137772360204117
5.63150e-06;0.009089859121299981
5.63175e-06;0.009018633661631175
5.63200e-06;0.008947408201962612
5.63225e-06;0.008876182742294047
5.63250e-06;0.008804957282625241
5.63275e-06;0.008733731822956677
5.63300e-06;0.008662506363288112
5.63325e-06;0.008591280903619306
5.63350e-06;0.00852037818350172
5.63375e-06;0.00844711491628713
5.63400e-06;0.008365580525842823
5.63425e-06;0.008273179502156922
5.63450e-06;0.00818006834634476
5.63475e-06;0.008092316882905673
5.63500e-06;0.008007314014146137
5.63525e-06;0.0079223111453866
5.63550e-06;0.007838808365773293
5.63575e-06;0.0077637961336480795
5.63600e-06;0.007688783901522612
5.63625e-06;0.007613771669397398
5.63650e-06;0.007540766938683483
5.63675e-06;0.007468361032289115
5.63700e-06;0.007407668810756186
5.63725e-06;0.007350470703513602
5.63750e-06;0.007309002389700199
5.63775e-06;0.007272226168653354
5.63800e-06;0.007235449947606509
5.63825e-06;0.007198673726559539
5.63850e-06;0.007161897505512694
5.63875e-06;0.007125121284465849
5.63900e-06;0.0071143997642771255
5.63925e-06;0.007111450188073104
5.63950e-06;0.007108500611869082
5.63975e-06;0.00710555103566505
5.64000e-06;0.007102601459461028
5.64025e-06;0.007099651883256996
5.64050e-06;0.007124955477623876
5.64075e-06;0.00715868680486898
5.64100e-06;0.007192418132114198
5.64125e-06;0.007226149459359303
5.64150e-06;0.007259880786604406
5.64175e-06;0.007293612113849625
5.64200e-06;0.0073273434410947285
5.64225e-06;0.007361074768339832
5.64250e-06;0.007394806095585051
5.64275e-06;0.007435067667829599
5.64300e-06;0.007492963433714536
5.64325e-06;0.007550859199599669
5.64350e-06;0.007608754965484606
5.64375e-06;0.007666650731369543
5.64400e-06;0.0077245464972546755
5.64425e-06;0.007782442263139612
5.64450e-06;0.007840338029024745
5.64475e-06;0.007898233794909683
5.64500e-06;0.007956129560794618
5.64525e-06;0.008009181836072654
5.64550e-06;0.008060789330315144
5.64575e-06;0.008112396824557633
5.64600e-06;0.008164004318800296
5.64625e-06;0.008215611813042785
5.64650e-06;0.008267219307285275
5.64675e-06;0.00831882680152794
5.64700e-06;0.008370434295770428
5.64725e-06;0.008396755962058852
5.64750e-06;0.00841553503403814
5.64775e-06;0.008434314106017365
5.64800e-06;0.00845309317799659
5.64825e-06;0.008471872249975879
5.64850e-06;0.008490651321955103
5.64875e-06;0.00850943039393439
5.64900e-06;0.008528209465913615
5.64925e-06;0.008510819175810192
5.64950e-06;0.008482639805551107
5.64975e-06;0.008454460435292119
5.65000e-06;0.008426281065033129
5.65025e-06;0.008398101694774045
5.65050e-06;0.008369922324515057
5.65075e-06;0.008341742954256067
5.65100e-06;0.008313563583996984
5.65125e-06;0.008285384213737994
