Time(s);Current(A)
1.42500e-05;-0.00037421206043898266
1.42503e-05;-0.0003656811165516744
1.42505e-05;-0.00035951706421489437
1.42508e-05;-0.0003534676438795643
1.42510e-05;-0.00034984647725329755
1.42513e-05;-0.00034634291448718213
1.42515e-05;-0.00034530942496956835
1.42518e-05;-0.0003443955646932238
1.42520e-05;-0.00034602149540408317
1.42523e-05;-0.0003477704318877256
1.42525e-05;-0.00035204067159670595
1.42528e-05;-0.0003564330216892511
1.42530e-05;-0.0003631839355115738
1.42533e-05;-0.0003700490780069452
1.42535e-05;-0.00037909781671995285
1.42538e-05;-0.0003882523101747346
1.42540e-05;-0.000399898543091527
1.42543e-05;-0.00041166545457582807
1.42545e-05;-0.0004234323660600494
1.42548e-05;-0.00043769275659548716
1.42550e-05;-0.0004520739099492875
1.42553e-05;-0.00046645506330299046
1.42555e-05;-0.0004831183844086725
1.42558e-05;-0.0004998922342190614
1.42560e-05;-0.0005166660840293367
1.42563e-05;-0.0005334399338397256
1.42565e-05;-0.0005502137836501147
1.42568e-05;-0.0005673308504213822
1.42570e-05;-0.0005848610082448365
1.42573e-05;-0.0006023911660682907
1.42575e-05;-0.0006199213238916261
1.42578e-05;-0.0006374514817150804
1.42580e-05;-0.0006549816395385347
1.42583e-05;-0.0006711369582894407
1.42585e-05;-0.0006872256915837986
1.42588e-05;-0.0007033144248781563
1.42590e-05;-0.0007172058719430329
1.42593e-05;-0.0007309909012388648
1.42595e-05;-0.0007447759305346968
1.42598e-05;-0.0007552474680379309
1.42600e-05;-0.0007655585283125716
1.42603e-05;-0.0007758695885872124
1.42605e-05;-0.0007818026950319072
1.42608e-05;-0.0007875237708026757
1.42610e-05;-0.0007932448465734443
1.42613e-05;-0.0007944028318077572
1.42615e-05;-0.000795339819928037
1.42618e-05;-0.0007962768080483168
1.42620e-05;-0.0007924766726865055
1.42623e-05;-0.0007884471115419044
1.42625e-05;-0.0007844175503972759
1.42628e-05;-0.000775760330346636
1.42630e-05;-0.0007668789860419658
1.42633e-05;-0.0007579976417372352
1.42635e-05;-0.0007450088497240564
1.42638e-05;-0.0007318211280420543
1.42640e-05;-0.0007186334063599627
1.42643e-05;-0.0007018057053027838
1.42645e-05;-0.0006848017147483378
1.42648e-05;-0.0006677977241937766
1.42650e-05;-0.0006483269961457069
1.42653e-05;-0.0006287368004117859
1.42655e-05;-0.0006076514832743534
1.42658e-05;-0.0005864937552318999
1.42660e-05;-0.0005642182670999497
1.42663e-05;-0.0005418886442203253
1.42665e-05;-0.0005188509067495663
1.42668e-05;-0.0004957788742589775
1.42670e-05;-0.0004725050447938226
1.42673e-05;-0.00044922144200757217
1.42675e-05;-0.0004262512567521978
1.42678e-05;-0.0004032962507637191
1.42680e-05;-0.0003811493070940433
1.42683e-05;-0.0003590414990583947
1.42685e-05;-0.00033825650981637975
1.42688e-05;-0.0003175355866133361
1.42690e-05;-0.0002987127680557204
1.42693e-05;-0.00027998187746781683
1.42695e-05;-0.0002630379845178333
1.42698e-05;-0.00024754245921765805
1.42700e-05;-0.00023348420334747263
1.42703e-05;-0.0002207759986299529
1.42705e-05;-0.00020938295230845254
1.42708e-05;-0.00019934328995912956
1.42710e-05;-0.00019070447408577282
1.42713e-05;-0.00018351420788322004
1.42715e-05;-0.0001778201786499268
1.42718e-05;-0.00017365555484462496
1.42720e-05;-0.00017098214023196094
1.42723e-05;-0.00016969759264200232
1.42725e-05;-0.00016973229979991576
1.42728e-05;-0.00017106245895188863
1.42730e-05;-0.00017367003877780872
1.42733e-05;-0.00017753717019804204
1.42735e-05;-0.00018264598346063806
1.42738e-05;-0.00018896950372974093
1.42740e-05;-0.00019643605283030805
1.42743e-05;-0.00020538002478562482
1.42745e-05;-0.00021439300086481165
1.42748e-05;-0.00022507506652103378
1.42750e-05;-0.0002358379686141537
1.42753e-05;-0.0002480440681486411
1.42755e-05;-0.00026032006383529136
1.42758e-05;-0.00027400836537528413
1.42760e-05;-0.0002877650669427116
1.42763e-05;-0.0003015217685102323
1.42765e-05;-0.0003162098627939876
1.42768e-05;-0.0003309430657821696
1.42770e-05;-0.0003456762687704514
1.42773e-05;-0.0003605810526238198
1.42775e-05;-0.0003754941463880537
1.42778e-05;-0.0003904072401523886
1.42780e-05;-0.00040467087494252255
1.42783e-05;-0.0004189030554893953
1.42785e-05;-0.00043313523603636446
1.42788e-05;-0.00044578223442617724
1.42790e-05;-0.00045835246013746825
1.42793e-05;-0.0004709226858486741
1.42795e-05;-0.00048098608023678887
1.42798e-05;-0.0004909280651361309
1.42800e-05;-0.0005008700500354057
1.42803e-05;-0.0005076912396596991
1.42805e-05;-0.0005143612846276038
1.42808e-05;-0.0005181652823545603
1.42810e-05;-0.0005218304732431414
1.42813e-05;-0.0005226406651328587
1.42815e-05;-0.0005233125852666111
1.42818e-05;-0.0005210935579756374
1.42820e-05;-0.0005187345178941284
1.42823e-05;-0.0005132919356553469
1.42825e-05;-0.0005077000129828624
1.42828e-05;-0.0004991259254899807
1.42830e-05;-0.0004904074074154379
1.42833e-05;-0.00047896810705168395
1.42835e-05;-0.0004673970352425262
1.42838e-05;-0.0004533372636265186
1.42840e-05;-0.00043915696065733857
1.42843e-05;-0.0004226218831172083
1.42845e-05;-0.00040597276041815726
1.42848e-05;-0.0003872868332207099
1.42850e-05;-0.0003685022606175289
1.42853e-05;-0.0003480991344293481
1.42855e-05;-0.0003276176193356416
1.42858e-05;-0.00030591736932688055
1.42860e-05;-0.00028415809421286425
1.42863e-05;-0.0002615183324996165
1.42865e-05;-0.00023883592753911085
1.42868e-05;-0.00021572656909302928
1.42870e-05;-0.00019259653266818382
1.42873e-05;-0.0001695558051801066
1.42875e-05;-0.00014651940305379806
1.42878e-05;-0.0001240769549770815
1.42880e-05;-0.00010166327295914047
1.42883e-05;-7.998191867081319e-05
1.42885e-05;-5.8991317058949616e-05
1.42888e-05;-3.8831287639411646e-05
1.42890e-05;-1.965325486075625e-05
1.42893e-05;-1.6086739100269195e-06
1.42895e-05;1.5151027006978167e-05
1.42898e-05;3.0466300182464714e-05
1.42900e-05;4.415644407082488e-05
1.42903e-05;5.6064494478717653e-05
1.42905e-05;6.611681034292662e-05
1.42908e-05;7.429133885193837e-05
1.42910e-05;8.057118880541299e-05
1.42913e-05;8.493962466053033e-05
1.42915e-05;8.737993253424644e-05
1.42918e-05;8.787030570170131e-05
1.42920e-05;8.637572015463682e-05
1.42923e-05;8.287600650734376e-05
1.42925e-05;7.740319728094606e-05
1.42928e-05;7.002163743210405e-05
1.42930e-05;6.0798903181226283e-05
1.42933e-05;4.980266770577685e-05
1.42935e-05;3.7100608157498814e-05
1.42938e-05;2.2757230344535535e-05
1.42940e-05;6.828728679495984e-06
1.42943e-05;-1.0619381727816014e-05
1.42945e-05;-2.94888925820574e-05
1.42948e-05;-4.9661359989364555e-05
1.42950e-05;-7.101633380610338e-05
1.42953e-05;-9.343328962803179e-05
1.42955e-05;-0.00011679173253092322
1.42958e-05;-0.0001413090946314549
1.42960e-05;-0.00016588049098371249
1.42963e-05;-0.00019172116055578002
1.42965e-05;-0.0002176233028771605
1.42968e-05;-0.00024352544519854098
1.42970e-05;-0.00026982240487082227
1.42973e-05;-0.00029613848612215044
1.42975e-05;-0.00032245456737347867
1.42978e-05;-0.0003478549584770434
1.42980e-05;-0.0003732110013743721
1.42983e-05;-0.00039856704427170084
1.42985e-05;-0.00042216597252774725
1.42988e-05;-0.00044567980116482566
1.42990e-05;-0.00046702502366212844
1.42993e-05;-0.0004882652174080372
1.42995e-05;-0.0005066686084437292
1.42998e-05;-0.0005249346089958321
1.43000e-05;-0.0005396556506073937
1.43003e-05;-0.0005542050046986804
1.43005e-05;-0.000564759003548693
1.43008e-05;-0.0005751195015299327
1.43010e-05;-0.000581374994631288
1.43013e-05;-0.0005874316763723376
1.43015e-05;-0.0005893012409216213
1.43018e-05;-0.0005909680172918841
1.43020e-05;-0.0005883404418996549
1.43023e-05;-0.0005855048848020953
1.43025e-05;-0.0005784294398891608
1.43028e-05;-0.0005711486510390969
1.43030e-05;-0.0005598957138080794
1.43033e-05;-0.0005484503996503252
1.43035e-05;-0.0005333179428940341
1.43038e-05;-0.000518006912455968
1.43040e-05;-0.0004992780611395265
1.43043e-05;-0.0004803836797840322
1.43045e-05;-0.0004584419822915599
1.43048e-05;-0.0004363526988439969
1.43050e-05;-0.0004117202100034534
1.43053e-05;-0.0003869645500246166
1.43055e-05;-0.0003606238281797931
1.43058e-05;-0.00033331967641590766
1.43060e-05;-0.0003052088655957889
1.43063e-05;-0.0002764282912925613
1.43065e-05;-0.0002471364722167924
1.43068e-05;-0.000217504947628991
1.43070e-05;-0.00018770644828952887
1.43073e-05;-0.00015791373453559313
1.43075e-05;-0.00012829953894557365
1.43078e-05;-9.903541991868598e-05
1.43080e-05;-7.029029048719813e-05
1.43083e-05;-4.223791765881571e-05
1.43085e-05;-1.5065647990805923e-05
1.43088e-05;1.1031090737951102e-05
1.43090e-05;3.585610570558429e-05
1.43093e-05;5.921320326050023e-05
1.43095e-05;8.090621356650607e-05
1.43098e-05;0.00010073407585801052
1.43100e-05;0.0001184924954761014
1.43103e-05;0.0001340219819760158
1.43105e-05;0.00014724666102427196
1.43108e-05;0.00015813506877239195
1.43110e-05;0.00016665988726533628
1.43113e-05;0.00017279389054187686
1.43115e-05;0.00017650992136701015
1.43118e-05;0.00017777771681399694
1.43120e-05;0.00017656498962029065
1.43123e-05;0.00017286759308657833
1.43125e-05;0.0001667336863001002
1.43128e-05;0.00015823930910660534
1.43130e-05;0.00014746300910854976
1.43133e-05;0.0001344834790302582
1.43135e-05;0.00011937939480956834
1.43138e-05;0.0001022275090376332
1.43140e-05;8.310331530911327e-05
1.43143e-05;6.2099891852408e-05
1.43145e-05;3.934310847267364e-05
1.43148e-05;1.4976260117878341e-05
1.43150e-05;-1.0855741680276352e-05
1.43153e-05;-3.800795487835383e-05
1.43155e-05;-6.633543958797637e-05
1.43158e-05;-9.569446692525755e-05
1.43160e-05;-0.0001259421154188497
1.43163e-05;-0.00015718773562107267
1.43165e-05;-0.00018847971574282305
1.43168e-05;-0.00022049664421963698
1.43170e-05;-0.0002525486830001438
1.43173e-05;-0.0002846007217808678
1.43175e-05;-0.00031610206954060555
1.43178e-05;-0.0003475767465325156
1.43180e-05;-0.0003790514235246389
1.43183e-05;-0.00040886824887158914
1.43185e-05;-0.0004386047820503355
1.43188e-05;-0.0004661033383436703
1.43190e-05;-0.0004934935061592811
1.43193e-05;-0.0005178361635222591
1.43195e-05;-0.0005420312255188383
1.43198e-05;-0.000562331032678983
1.43200e-05;-0.0005824421869780761
1.43203e-05;-0.0005978236388105742
1.43205e-05;-0.0006129760242689244
1.43208e-05;-0.0006231027087547495
1.43210e-05;-0.0006329859912280603
1.43213e-05;-0.0006377527717243469
1.43215e-05;-0.0006422717525832096
1.43218e-05;-0.0006415617226078434
1.43220e-05;-0.0006405984440273831
1.43223e-05;-0.0006343020290950109
1.43225e-05;-0.0006277473226072284
1.43228e-05;-0.000616092658746024
1.43230e-05;-0.0006041909965266679
1.43233e-05;-0.0005875511097042223
1.43235e-05;-0.0005706817437680771
1.43238e-05;-0.0005494222283729894
1.43240e-05;-0.0005279500916502573
1.43243e-05;-0.0005024410716209445
1.43245e-05;-0.0004767365394577268
1.43248e-05;-0.0004483472289509271
1.43250e-05;-0.0004182528222400871
1.43253e-05;-0.0003866684573535577
1.43255e-05;-0.00035376339948064224
1.43258e-05;-0.00031970408503981306
1.43260e-05;-0.00028464934603932105
1.43263e-05;-0.0002487661472133215
1.43265e-05;-0.00021225034583695161
1.43268e-05;-0.00017531568153406583
1.43270e-05;-0.00013817773416871035
1.43273e-05;-0.00010105210626083332
1.43275e-05;-6.415436428745591e-05
1.43278e-05;-2.7698292973393976e-05
1.43280e-05;8.107055398687498e-06
1.43283e-05;4.304760704203709e-05
1.43285e-05;7.689119865706796e-05
1.43288e-05;0.00010939442460323833
1.43290e-05;0.00014031280405351972
1.43293e-05;0.00016940184927164266
1.43295e-05;0.00019641708740996363
1.43298e-05;0.00022110755059232115
1.43300e-05;0.00024321666818043176
1.43303e-05;0.0002625427435950787
1.43305e-05;0.000278989848711752
1.43308e-05;0.00029251900033326665
1.43310e-05;0.00030309650730020996
1.43313e-05;0.00031068884065567744
1.43315e-05;0.00031526250054618
1.43318e-05;0.00031677990783080104
1.43320e-05;0.0003151999823687491
1.43323e-05;0.0003105160444879792
1.43325e-05;0.0003027876566992748
1.43328e-05;0.00029211004267266005
1.43330e-05;0.0002785817783501234
1.43333e-05;0.0002623014979575791
1.43335e-05;0.00024336782049653595
1.43338e-05;0.00022187687983009198
1.43340e-05;0.00019792257978051942
1.43343e-05;0.00017162036044708856
1.43345e-05;0.00014312715536036075
1.43348e-05;0.00011262225310369158
1.43350e-05;8.028697105606799e-05
1.43353e-05;4.6302694362758865e-05
1.43355e-05;1.0850798599571874e-05
1.43358e-05;-2.588893203927139e-05
1.43360e-05;-6.37381161749256e-05
1.43363e-05;-0.00010250491068818486
1.43365e-05;-0.0001421894987005298
1.43368e-05;-0.00018191650376036064
1.43370e-05;-0.00022207096197475506
1.43373e-05;-0.0002622461223678739
1.43375e-05;-0.0003019599353760694
1.43378e-05;-0.00034165140465864356
1.43380e-05;-0.0003799932395657575
1.43383e-05;-0.00041826970971562473
1.43385e-05;-0.0004542493946865812
1.43388e-05;-0.0004901178430080457
1.43390e-05;-0.0005226816871741688
1.43393e-05;-0.0005550854845510697
1.43395e-05;-0.000583203896453253
1.43398e-05;-0.0006111147608995652
1.43400e-05;-0.0006346434705952995
1.43403e-05;-0.0006579599461578929
1.43405e-05;-0.000677573372985588
1.43408e-05;-0.000697007455773072
1.43410e-05;-0.0007124732764967502
1.43413e-05;-0.0007277469085127832
1.43415e-05;-0.0007386703090908336
1.43418e-05;-0.0007493830216282583
1.43420e-05;-0.0007559175277432731
1.43423e-05;-0.0007622496772395965
1.43425e-05;-0.0007650614071079516
1.43428e-05;-0.00076770263792957
1.43430e-05;-0.0007660222480037303
1.43433e-05;-0.0007641325556947367
1.43435e-05;-0.0007622428633857303
1.43438e-05;-0.0007553931951162149
1.43440e-05;-0.0007483033079914502
1.43443e-05;-0.0007412134208666374
1.43445e-05;-0.0007303333019776257
1.43448e-05;-0.0007192696166474488
1.43450e-05;-0.000708205931317197
1.43453e-05;-0.000694635275867773
1.43455e-05;-0.0006809432042065127
1.43458e-05;-0.0006672511325451595
1.43460e-05;-0.0006597280968628454
1.43463e-05;-0.0006376298263599101
1.43465e-05;-0.0006264917658955651
1.43468e-05;-0.000601433316869583
1.43470e-05;-0.0005849076207726519
1.43473e-05;-0.0005646967496355519
1.43475e-05;-0.0005496038761425908
1.43478e-05;-0.0005277175973955946
1.43480e-05;-0.0005142008524270838
1.43483e-05;-0.0004950272954764793
1.43485e-05;-0.00047764897356448674
1.43488e-05;-0.0004606925514263676
1.43490e-05;-0.00044501739579808037
1.43493e-05;-0.00043034082886386733
1.43495e-05;-0.00041689059533015713
1.43498e-05;-0.00040458134851721004
1.43500e-05;-0.0003935132402681359
1.43503e-05;-0.00038359989353803044
1.43505e-05;-0.0003747521868937459
1.43508e-05;-0.0003668959571079161
1.43510e-05;-0.0003605974657131314
1.43513e-05;-0.00035574830189773584
1.43515e-05;-0.0003523800916489775
1.43518e-05;-0.0003503897679955396
1.43520e-05;-0.00034978705904208676
1.43523e-05;-0.0003504753937362213
1.43525e-05;-0.0003523387940523539
1.43528e-05;-0.000355295481292294
1.43530e-05;-0.00035963287817637594
1.43533e-05;-0.00036525489420951456
1.43535e-05;-0.0003721068770895168
1.43538e-05;-0.00038010322726708055
1.43540e-05;-0.0003893810608327279
1.43543e-05;-0.0003998511929433683
1.43545e-05;-0.0004103213250540087
1.43548e-05;-0.0004220501222075764
1.43550e-05;-0.0004349499876038972
1.43553e-05;-0.00044784985300021804
1.43555e-05;-0.00046175611772648136
1.43558e-05;-0.0004765987414159031
1.43560e-05;-0.0004914413651054255
1.43563e-05;-0.0005067898771097618
1.43565e-05;-0.0005226090701288757
1.43568e-05;-0.0005384282631480969
1.43570e-05;-0.000554393427239319
1.43573e-05;-0.0005704944035449133
1.43575e-05;-0.0005865953798506165
1.43578e-05;-0.0006023690243445875
1.43580e-05;-0.0006178381176858631
1.43583e-05;-0.0006333072110272435
1.43585e-05;-0.0006479137452929067
1.43588e-05;-0.0006617177502861028
1.43590e-05;-0.0006755217552793925
1.43593e-05;-0.0006880249663481119
1.43595e-05;-0.0006993179122520717
1.43598e-05;-0.000710610858156108
1.43600e-05;-0.0007201934408170859
1.43603e-05;-0.000728184692973627
1.43605e-05;-0.0007361759451302225
1.43608e-05;-0.0007423329651812089
1.43610e-05;-0.0007467834065193106
1.43613e-05;-0.0007512338478574426
1.43615e-05;-0.0007537793682137379
1.43618e-05;-0.000754552540573648
1.43620e-05;-0.0007553257129335634
1.43623e-05;-0.0007542120762631453
1.43625e-05;-0.0007513429430465124
1.43628e-05;-0.0007484738098298601
1.43630e-05;-0.0007438859308132433
1.43633e-05;-0.0007376989221194709
1.43635e-05;-0.0007315119134256566
1.43638e-05;-0.0007237720511403366
1.43640e-05;-0.0007145874061171396
1.43643e-05;-0.0007054027610940049
1.43645e-05;-0.00069493076037002
1.43648e-05;-0.0006832609974717834
1.43650e-05;-0.0006715912345736261
1.43653e-05;-0.0006589580605900667
1.43655e-05;-0.0006454285241205376
1.43658e-05;-0.0006318989876511002
1.43660e-05;-0.0006177358243586666
1.43663e-05;-0.0006029831315052557
1.43665e-05;-0.0005882304386519445
1.43668e-05;-0.000573244079511852
1.43670e-05;-0.0005580403160914689
1.43673e-05;-0.0005428365526711888
1.43675e-05;-0.0005278119789685836
1.43678e-05;-0.0005129541242744556
1.43680e-05;-0.0004980962695804282
1.43683e-05;-0.0004838522009809496
1.43685e-05;-0.00047017920202982244
1.43688e-05;-0.00045650620307878797
1.43690e-05;-0.00044391800147170174
1.43693e-05;-0.00043233910073215114
1.43695e-05;-0.000420760199992679
1.43698e-05;-0.00041011984409640987
1.43700e-05;-0.00040035271501045187
1.43703e-05;-0.0003905697254032094
1.43705e-05;-0.0003807719790876109
1.43708e-05;-0.00037097423277201243
1.43710e-05;-0.0003612819585884264
1.43713e-05;-0.00035168781620318533
1.43715e-05;-0.0003420936738179443
1.43718e-05;-0.0003324995314327682
1.43720e-05;-0.00032289682237162336
1.43723e-05;-0.00031282744030509534
1.43725e-05;-0.0003027580582385673
1.43728e-05;-0.00029268867617210755
1.43730e-05;-0.0002826192941055796
1.43733e-05;-0.00027215834091276323
1.43735e-05;-0.0002613330679881465
1.43738e-05;-0.00025050779506345644
1.43740e-05;-0.00023968252213876635
1.43743e-05;-0.00022885724921414962
1.43745e-05;-0.0002180193073351719
1.43748e-05;-0.000206491219237796
1.43750e-05;-0.0001949631311404982
1.43753e-05;-0.0001834350430431223
1.43755e-05;-0.0001719069549457464
1.43758e-05;-0.00016037886684844863
1.43760e-05;-0.00014883665663324434
1.43763e-05;-0.00013728130712906836
1.43765e-05;-0.00012572595762497065
1.43768e-05;-0.00011417724201628489
1.43770e-05;-0.0001029899104482343
1.43773e-05;-9.18025788802595e-05
1.43775e-05;-8.06152473122089e-05
1.43778e-05;-6.983336028242211e-05
1.43780e-05;-5.9428700876443445e-05
1.43783e-05;-4.9260322908739955e-05
1.43785e-05;-3.949303254996421e-05
1.43788e-05;-3.011222957163019e-05
1.43790e-05;-2.1188837529902322e-05
1.43793e-05;-1.2793472952486817e-05
1.43795e-05;-4.996026696066359e-06
1.43798e-05;2.164733708232893e-06
1.43800e-05;8.734684965130329e-06
1.43803e-05;1.4810930866683381e-05
1.43805e-05;2.0443948412013e-05
1.43808e-05;2.562091396351004e-05
1.43810e-05;3.0309706812398317e-05
1.43813e-05;3.44784067316478e-05
1.43815e-05;3.809554791054363e-05
1.43818e-05;4.114916264823758e-05
1.43820e-05;4.368030635411129e-05
1.43823e-05;4.576211484917694e-05
1.43825e-05;4.743851443190894e-05
1.43828e-05;4.871377675901781e-05
1.43830e-05;4.9580086057691805e-05
1.43833e-05;5.0029757363232016e-05
1.43835e-05;5.005538838964216e-05
1.43838e-05;4.966179074784285e-05
1.43840e-05;4.888698917635625e-05
1.43843e-05;4.7789102692618826e-05
1.43845e-05;4.640794374752449e-05
1.43848e-05;4.4758485711326e-05
1.43850e-05;4.2848133279223934e-05
1.43853e-05;4.068436721927476e-05
1.43855e-05;3.8274851082205694e-05
1.43858e-05;3.559066502595792e-05
1.43860e-05;3.27594589510421e-05
1.43863e-05;2.9795953871345783e-05
1.43865e-05;2.6709357136719525e-05
1.43868e-05;2.3541348492993967e-05
1.43870e-05;2.0297593802364537e-05
1.43873e-05;1.7005036347878867e-05
1.43875e-05;1.366707255806099e-05
1.43878e-05;1.0329108768243112e-05
1.43880e-05;7.0075729902282975e-06
1.43883e-05;3.7450222133830196e-06
1.43885e-05;5.818591928349717e-07
1.43888e-05;-2.456072382790307e-06
1.43890e-05;-5.34590294499562e-06
1.43893e-05;-8.064733299854867e-06
1.43895e-05;-1.0589804841754144e-05
1.43898e-05;-1.2924348178694662e-05
1.43900e-05;-1.5139277270012436e-05
1.43903e-05;-1.7338842501524317e-05
1.43905e-05;-1.958352900192543e-05
1.43908e-05;-2.1856020658111024e-05
1.43910e-05;-2.4124362653377666e-05
1.43913e-05;-2.63888437833796e-05
1.43915e-05;-2.865332491339688e-05
1.43918e-05;-3.0915819080921406e-05
1.43920e-05;-3.3176464568601086e-05
