Time(s);Current(A)
3.00000e-06;-0.004198149868042728
3.00025e-06;-0.004188699039386174
3.00050e-06;-0.0041792482107296195
3.00075e-06;-0.004169797382073081
3.00100e-06;-0.004160346553416527
3.00125e-06;-0.0041508957247599725
3.00150e-06;-0.004141444896103435
3.00175e-06;-0.0041319940674468805
3.00200e-06;-0.004122543238790326
3.00225e-06;-0.004113092410133772
3.00250e-06;-0.004106981871041767
3.00275e-06;-0.004102570351226242
3.00300e-06;-0.004098158831410718
3.00325e-06;-0.004093747311595201
3.00350e-06;-0.004089335791779677
3.00375e-06;-0.004084924271964153
3.00400e-06;-0.004080512752148628
3.00425e-06;-0.0040761012323331115
3.00450e-06;-0.0040716897125175865
3.00475e-06;-0.004067278192702062
3.00500e-06;-0.004062866672886545
3.00525e-06;-0.004058455153071021
3.00550e-06;-0.004055568976940406
3.00575e-06;-0.004053458658193992
3.00600e-06;-0.004051348339447574
3.00625e-06;-0.004049238020701156
3.00650e-06;-0.0040471277019547384
3.00675e-06;-0.004045017383208324
3.00700e-06;-0.004042907064461906
3.00725e-06;-0.004040796745715489
3.00750e-06;-0.004039265052617053
3.00775e-06;-0.004038027674161355
3.00800e-06;-0.004036790295705656
3.00825e-06;-0.004035552917249958
3.00850e-06;-0.004034315538794261
3.00875e-06;-0.004033078160338563
3.00900e-06;-0.004031840781882864
3.00925e-06;-0.004030603403427168
3.00950e-06;-0.00402947413386429
3.00975e-06;-0.004028411891095512
3.01000e-06;-0.004027369043765253
3.01025e-06;-0.0040265027115438945
3.01050e-06;-0.004026312582118718
3.01075e-06;-0.004027375626679397
3.01100e-06;-0.004029945773600754
3.01125e-06;-0.004034457445103578
3.01150e-06;-0.004039692176464852
3.01175e-06;-0.004046636432745137
3.01200e-06;-0.004054450229146161
3.01225e-06;-0.004064607079381309
3.01250e-06;-0.004075955710614286
3.01275e-06;-0.004087304341847244
3.01300e-06;-0.004103039678532795
3.01325e-06;-0.00412100628798099
3.01350e-06;-0.004138972897429154
3.01375e-06;-0.004156939506877348
3.01400e-06;-0.004174906116325543
3.01425e-06;-0.004197324558924717
3.01450e-06;-0.004222007401119751
3.01475e-06;-0.004246690243314785
3.01500e-06;-0.004271373085509819
3.01525e-06;-0.0042960559277048106
3.01550e-06;-0.004324065786994931
3.01575e-06;-0.00435376791459564
3.01600e-06;-0.0043834700421963
3.01625e-06;-0.00441317216979701
3.01650e-06;-0.004442874297397719
3.01675e-06;-0.004472576424998429
3.01700e-06;-0.004503013837112561
3.01725e-06;-0.004533825247509852
3.01750e-06;-0.004564636657907143
3.01775e-06;-0.0045954480683043815
3.01800e-06;-0.004626259478701673
3.01825e-06;-0.004657070889098964
3.01850e-06;-0.00468615204277431
3.01875e-06;-0.004714353111215383
3.01900e-06;-0.004742554179656457
3.01925e-06;-0.0047656775168439715
3.01950e-06;-0.004786218094927796
3.01975e-06;-0.0048067586730116555
3.02000e-06;-0.004827299251095515
3.02025e-06;-0.004847839829179339
3.02050e-06;-0.004868380407263199
3.02075e-06;-0.004888920985347059
3.02100e-06;-0.004909461563430919
3.02125e-06;-0.004930002141514743
3.02150e-06;-0.004945994035146766
3.02175e-06;-0.004959672266319858
3.02200e-06;-0.004973350497492926
3.02225e-06;-0.004987028728666017
3.02250e-06;-0.005000706959839109
3.02275e-06;-0.005014385191012177
3.02300e-06;-0.005028063422185269
3.02325e-06;-0.00504174165335836
3.02350e-06;-0.005055419884531452
3.02375e-06;-0.005066995166671371
3.02400e-06;-0.005077500795753892
3.02425e-06;-0.0050880064248364125
3.02450e-06;-0.005098512053918916
3.02475e-06;-0.005109017683001436
3.02500e-06;-0.005119523312083957
3.02525e-06;-0.005130028941166478
3.02550e-06;-0.005140534570248981
3.02575e-06;-0.005151040199331502
3.02600e-06;-0.005161545828414022
3.02625e-06;-0.0051720514574965255
3.02650e-06;-0.005182557086579046
3.02675e-06;-0.005191151582962012
3.02700e-06;-0.005198773992573939
3.02725e-06;-0.0052063964021858795
3.02750e-06;-0.00521401881179782
3.02775e-06;-0.00522164122140976
3.02800e-06;-0.005229263631021688
3.02825e-06;-0.005236886040633628
3.02850e-06;-0.005244508450245568
3.02875e-06;-0.005252130859857497
3.02900e-06;-0.005259753269469437
3.02925e-06;-0.005267375679081377
3.02950e-06;-0.005274998088693318
3.02975e-06;-0.005279316155012116
3.03000e-06;-0.005281953485920445
3.03025e-06;-0.0052845908168287735
3.03050e-06;-0.005287228147737098
3.03075e-06;-0.0052898654786454275
3.03100e-06;-0.005292502809553756
3.03125e-06;-0.005295140140462081
3.03150e-06;-0.005297777471370409
3.03175e-06;-0.005300414802278738
3.03200e-06;-0.005303052133187067
3.03225e-06;-0.005305689464095391
3.03250e-06;-0.00530832679500372
3.03275e-06;-0.005310964125912049
3.03300e-06;-0.0053136014568203735
3.03325e-06;-0.005316238787728703
3.03350e-06;-0.005318876118637031
3.03375e-06;-0.005318858608429847
3.03400e-06;-0.0053174907283983835
3.03425e-06;-0.005316122848366917
3.03450e-06;-0.0053147549683354505
3.03475e-06;-0.005313387088303986
3.03500e-06;-0.005312019208272519
3.03525e-06;-0.005310651328241053
3.03550e-06;-0.005309283448209588
3.03575e-06;-0.005307915568178122
3.03600e-06;-0.005306547688146655
3.03625e-06;-0.005305179808115189
3.03650e-06;-0.005303811928083724
3.03675e-06;-0.005302444048052257
3.03700e-06;-0.005301076168020791
3.03725e-06;-0.005299708287989326
3.03750e-06;-0.00529834040795786
3.03775e-06;-0.005296316837074136
3.03800e-06;-0.005293959752770042
3.03825e-06;-0.005291602668465951
3.03850e-06;-0.005289245584161857
3.03875e-06;-0.005286888499857763
3.03900e-06;-0.005284644941465954
3.03925e-06;-0.005282459127383331
3.03950e-06;-0.0052802733133007086
3.03975e-06;-0.0052780874992180895
3.04000e-06;-0.005275901685135467
3.04025e-06;-0.005272223757412947
3.04050e-06;-0.005267786874579307
3.04075e-06;-0.005263349991745676
3.04100e-06;-0.005258913108912036
3.04125e-06;-0.0052544762260783974
3.04150e-06;-0.005250039343244766
3.04175e-06;-0.005245602460411126
3.04200e-06;-0.005240138516631003
3.04225e-06;-0.0052293947173220655
3.04250e-06;-0.005218650918013147
3.04275e-06;-0.00520790711870421
3.04300e-06;-0.005197163319395273
3.04325e-06;-0.005186419520086354
3.04350e-06;-0.005175675720777417
3.04375e-06;-0.00516493192146848
3.04400e-06;-0.005150270580126254
3.04425e-06;-0.005133616603323938
3.04450e-06;-0.005116962626521624
3.04475e-06;-0.005100308649719308
3.04500e-06;-0.0050836546729170215
3.04525e-06;-0.005067000696114706
3.04550e-06;-0.005050346719312392
3.04575e-06;-0.005031479988167689
3.04600e-06;-0.005011487752119706
3.04625e-06;-0.004991495516071723
3.04650e-06;-0.00497150328002374
3.04675e-06;-0.0049515110439757905
3.04700e-06;-0.004931518807927807
3.04725e-06;-0.004911526571879824
3.04750e-06;-0.004891365394787865
3.04775e-06;-0.004871118286795295
3.04800e-06;-0.004850871178802726
3.04825e-06;-0.004831374222547021
3.04850e-06;-0.004812258826703038
3.04875e-06;-0.004793143430859056
3.04900e-06;-0.004775969581217932
3.04925e-06;-0.0047597832880034
3.04950e-06;-0.004743596994788841
3.04975e-06;-0.004727410701574281
3.05000e-06;-0.004711224408359749
3.05025e-06;-0.004697156401253884
3.05050e-06;-0.00468416584832186
3.05075e-06;-0.004671175295389836
3.05100e-06;-0.004658184742457834
3.05125e-06;-0.00464519418952581
3.05150e-06;-0.00463267060116281
3.05175e-06;-0.00462038453167033
3.05200e-06;-0.00460809846217783
3.05225e-06;-0.004595812392685329
3.05250e-06;-0.004583526323192849
3.05275e-06;-0.004571240253700349
3.05300e-06;-0.004558954184207848
3.05325e-06;-0.004546584305814144
3.05350e-06;-0.004533783587466936
3.05375e-06;-0.004520982869119706
3.05400e-06;-0.004508182150772476
3.05425e-06;-0.004495381432425267
3.05450e-06;-0.004482580714078037
3.05475e-06;-0.004469779995730807
3.05500e-06;-0.004456979277383577
3.05525e-06;-0.0044437796059515
3.05550e-06;-0.004430377009303249
3.05575e-06;-0.004416974412654999
3.05600e-06;-0.004403571816006772
3.05625e-06;-0.004390169219358521
3.05650e-06;-0.004376766622710271
3.05675e-06;-0.004363364026062043
3.05700e-06;-0.004350489506134607
3.05725e-06;-0.004337883589425899
3.05750e-06;-0.004325277672717192
3.05775e-06;-0.004312671756008505
3.05800e-06;-0.004300065839299797
3.05825e-06;-0.004287459922591089
3.05850e-06;-0.004274854005882403
3.05875e-06;-0.004263295276716862
3.05900e-06;-0.00425226919353556
3.05925e-06;-0.004241243110354259
3.05950e-06;-0.0042310370908704405
3.05975e-06;-0.004221248192119301
3.06000e-06;-0.004212385588264124
3.06025e-06;-0.004203994139036209
3.06050e-06;-0.0041972203877588725
3.06075e-06;-0.004191269469337723
3.06100e-06;-0.004187425632591777
3.06125e-06;-0.004184653550948432
3.06150e-06;-0.0041839408626892435
3.06175e-06;-0.004184275673154818
3.06200e-06;-0.004187157768862447
3.06225e-06;-0.004191335526711747
3.06250e-06;-0.004195513284561048
3.06275e-06;-0.004204195265804146
3.06300e-06;-0.004215168294642781
3.06325e-06;-0.0042261413234814145
3.06350e-06;-0.004237114352320049
3.06375e-06;-0.004248087381158666
3.06400e-06;-0.004263886341586218
3.06425e-06;-0.004282139984651909
3.06450e-06;-0.004300393627717569
3.06475e-06;-0.0043186472707832605
3.06500e-06;-0.004336900913848951
3.06525e-06;-0.004357636385218651
3.06550e-06;-0.004381539999073334
3.06575e-06;-0.004406412974353982
3.06600e-06;-0.0044312859496346306
3.06625e-06;-0.004456158924915237
3.06650e-06;-0.004481031900195886
3.06675e-06;-0.004505904875476534
3.06700e-06;-0.004530977800749838
3.06725e-06;-0.004557078617384826
3.06750e-06;-0.004583179434019815
3.06775e-06;-0.004609280250654804
3.06800e-06;-0.004635381067289748
3.06825e-06;-0.004661481883924737
3.06850e-06;-0.004687582700559725
3.06875e-06;-0.004711886462833569
3.06900e-06;-0.00473527616363375
3.06925e-06;-0.00475866586443393
3.06950e-06;-0.004777984119512042
3.06975e-06;-0.004795231456894328
3.07000e-06;-0.004812478794276615
3.07025e-06;-0.004829726131658902
3.07050e-06;-0.004846973469041159
3.07075e-06;-0.004864220806423446
3.07100e-06;-0.004881468143805733
3.07125e-06;-0.00489871548118799
3.07150e-06;-0.004913298216016822
3.07175e-06;-0.0049265256159211025
3.07200e-06;-0.004939753015825383
3.07225e-06;-0.004952980415729642
3.07250e-06;-0.004966207815633923
3.07275e-06;-0.0049794352155382035
3.07300e-06;-0.004992662615442462
3.07325e-06;-0.005005890015346743
3.07350e-06;-0.0050184486749745745
3.07375e-06;-0.005030667183666567
3.07400e-06;-0.0050428856923585815
3.07425e-06;-0.005055104201050595
3.07450e-06;-0.005067322709742608
3.07475e-06;-0.005079541218434602
3.07500e-06;-0.005091759727126615
3.07525e-06;-0.00510397823581863
3.07550e-06;-0.005116196744510622
3.07575e-06;-0.005128415253202637
3.07600e-06;-0.005140414674047909
3.07625e-06;-0.005151287820757832
3.07650e-06;-0.005162160967467775
3.07675e-06;-0.005173034114177718
3.07700e-06;-0.00518390726088766
3.07725e-06;-0.0051947804075975846
3.07750e-06;-0.005205653554307527
3.07775e-06;-0.00521652670101747
3.07800e-06;-0.005227399847727394
3.07825e-06;-0.005238272994437337
3.07850e-06;-0.005249146141147279
3.07875e-06;-0.005256052125656034
3.07900e-06;-0.005260940235688162
3.07925e-06;-0.005265828345720298
3.07950e-06;-0.005270716455752434
3.07975e-06;-0.005275604565784562
3.08000e-06;-0.005280492675816698
3.08025e-06;-0.005285380785848834
3.08050e-06;-0.005290268895880962
3.08075e-06;-0.005295157005913098
3.08100e-06;-0.005300045115945235
3.08125e-06;-0.005304933225977371
3.08150e-06;-0.005309821336009499
3.08175e-06;-0.005314709446041635
3.08200e-06;-0.005319597556073771
3.08225e-06;-0.005324485666105899
3.08250e-06;-0.005329373776138035
3.08275e-06;-0.005334261886170171
3.08300e-06;-0.005339149996202308
3.08325e-06;-0.005344038106234435
3.08350e-06;-0.005348926216266572
3.08375e-06;-0.005353814326298708
3.08400e-06;-0.005358702436330835
3.08425e-06;-0.005360415984951519
3.08450e-06;-0.00536051481097654
3.08475e-06;-0.005360613637001559
3.08500e-06;-0.005360712463026579
3.08525e-06;-0.0053608112890515995
3.08550e-06;-0.005360910115076619
3.08575e-06;-0.005361008941101639
3.08600e-06;-0.005361107767126659
3.08625e-06;-0.005361206593151679
3.08650e-06;-0.005361305419176699
3.08675e-06;-0.0053614042452017185
3.08700e-06;-0.005361503071226739
3.08725e-06;-0.005361601897251759
3.08750e-06;-0.005361700723276778
3.08775e-06;-0.005361799549301799
3.08800e-06;-0.005361898375326819
3.08825e-06;-0.005361997201351838
3.08850e-06;-0.005362096027376859
3.08875e-06;-0.0053621948534018785
3.08900e-06;-0.005362293679426898
3.08925e-06;-0.005362392505451919
3.08950e-06;-0.005362491331476938
3.08975e-06;-0.00536203079166626
3.09000e-06;-0.005361285733606568
3.09025e-06;-0.005360540675546876
3.09050e-06;-0.005358274427879742
3.09075e-06;-0.0053552344357757735
3.09100e-06;-0.005352194443671799
3.09125e-06;-0.005345160039788406
3.09150e-06;-0.0053360939010853176
3.09175e-06;-0.005327027762382245
3.09200e-06;-0.0053179616236791565
3.09225e-06;-0.005308895484976068
3.09250e-06;-0.0052998293462729945
3.09275e-06;-0.00528932428860484
3.09300e-06;-0.0052714221195147865
3.09325e-06;-0.005253519950424764
3.09350e-06;-0.005235617781334711
3.09375e-06;-0.005217715612244657
3.09400e-06;-0.005199813443154604
3.09425e-06;-0.005181911274064581
3.09450e-06;-0.005159158876140396
3.09475e-06;-0.005133939436921955
3.09500e-06;-0.0051087199977035555
3.09525e-06;-0.0050835005584851135
3.09550e-06;-0.0050582811192666725
3.09575e-06;-0.0050330616800482305
3.09600e-06;-0.0050053140926368395
3.09625e-06;-0.004976280577034489
3.09650e-06;-0.004947247061432139
3.09675e-06;-0.004918213545829838
3.09700e-06;-0.004889180030227488
3.09725e-06;-0.004860146514625138
3.09750e-06;-0.004830824862973087
3.09775e-06;-0.004801356652559035
3.09800e-06;-0.00477244264490591
3.09825e-06;-0.004743810529333219
3.09850e-06;-0.004716048069165146
3.09875e-06;-0.004688727954269445
3.09900e-06;-0.004662819381922324
3.09925e-06;-0.004637628782659644
3.09950e-06;-0.004612996181422905
3.09975e-06;-0.004591232104176723
3.10000e-06;-0.004569468026930541
3.10025e-06;-0.004549638129152056
3.10050e-06;-0.004530792040752566
3.10075e-06;-0.0045119459523530765
3.10100e-06;-0.004492695310856814
3.10125e-06;-0.004473238895730093
3.10150e-06;-0.004453782480603371
3.10175e-06;-0.00443446218545305
3.10200e-06;-0.004415211126954031
3.10225e-06;-0.0043959600684550125
3.10250e-06;-0.004375703306596219
3.10275e-06;-0.004354934999446843
3.10300e-06;-0.004334166692297433
3.10325e-06;-0.004313398385148023
3.10350e-06;-0.004292630077998648
3.10375e-06;-0.004270427541637946
3.10400e-06;-0.004247495492750932
3.10425e-06;-0.004224563443863917
3.10450e-06;-0.004201631394976942
3.10475e-06;-0.004178699346089927
3.10500e-06;-0.004154472487222642
3.10525e-06;-0.004129587030627524
3.10550e-06;-0.004104701574032363
3.10575e-06;-0.004079816117437202
3.10600e-06;-0.004054865428957183
3.10625e-06;-0.004029579400174661
3.10650e-06;-0.004004293371392139
3.10675e-06;-0.0039790073426096174
3.10700e-06;-0.003953721313827138
3.10725e-06;-0.003928456994277427
3.10750e-06;-0.0039040378237160207
3.10775e-06;-0.003880042916786212
3.10800e-06;-0.0038575620772695607
3.10825e-06;-0.0038361318646597553
3.10850e-06;-0.00381470165204995
3.10875e-06;-0.003793271439440181
3.10900e-06;-0.0037724621958480685
3.10925e-06;-0.0037519378253011164
3.10950e-06;-0.0037314134547541994
3.10975e-06;-0.0037108890842072477
3.11000e-06;-0.0036934132302843033
3.11025e-06;-0.003676793802618331
3.11050e-06;-0.0036622537838481386
3.11075e-06;-0.003648051226973254
3.11100e-06;-0.0036352167321814133
3.11125e-06;-0.0036233461194091774
3.11150e-06;-0.003613099962832414
3.11175e-06;-0.0036052450354884377
3.11200e-06;-0.003599196730253294
3.11225e-06;-0.00359314842501814
3.11250e-06;-0.0035871001197829862
3.11275e-06;-0.003581051814547832
3.11300e-06;-0.0035770397607966836
3.11325e-06;-0.003576210703029982
3.11350e-06;-0.00357538164526328
3.11375e-06;-0.00357455258749658
3.11400e-06;-0.0035737235297298785
3.11425e-06;-0.003573875173286537
3.11450e-06;-0.003577701628499661
3.11475e-06;-0.0035815280837127915
3.11500e-06;-0.0035853545389259223
3.11525e-06;-0.0035891809941390527
3.11550e-06;-0.003593007449352177
3.11575e-06;-0.003597512800134009
3.11600e-06;-0.0036045620583114906
3.11625e-06;-0.0036116113164889594
3.11650e-06;-0.003618660574666441
3.11675e-06;-0.003625709832843922
3.11700e-06;-0.003632759091021403
3.11725e-06;-0.003640041566024375
3.11750e-06;-0.0036481979339124285
3.11775e-06;-0.003656354301800482
3.11800e-06;-0.0036644866858761825
3.11825e-06;-0.003672529199579489
3.11850e-06;-0.0036805717132827958
3.11875e-06;-0.003688486924768533
3.11900e-06;-0.0036959251187752167
3.11925e-06;-0.003703363312781901
3.11950e-06;-0.0037100790336304337
3.11975e-06;-0.003716500595914652
3.12000e-06;-0.003722709447778166
3.12025e-06;-0.0037281212468439347
3.12050e-06;-0.0037337242052319594
3.12075e-06;-0.003740043461731369
3.12100e-06;-0.003746794639388352
3.12125e-06;-0.003755164280145992
3.12150e-06;-0.003763533920903618
3.12175e-06;-0.0037722639237550222
3.12200e-06;-0.0037823442488618022
3.12225e-06;-0.003792424573968565
3.12250e-06;-0.0038033842401321923
3.12275e-06;-0.003817638908238828
3.12300e-06;-0.003831893576345439
3.12325e-06;-0.0038461482444520742
3.12350e-06;-0.0038604029125587098
3.12375e-06;-0.0038746575806653453
3.12400e-06;-0.003889936506333601
3.12425e-06;-0.003909053454381875
3.12450e-06;-0.003928170402430149
3.12475e-06;-0.00394728735047839
3.12500e-06;-0.003966404298526664
3.12525e-06;-0.003985521246574937
3.12550e-06;-0.004005290837028707
3.12575e-06;-0.004027505960961761
3.12600e-06;-0.004049721084894854
3.12625e-06;-0.004071936208827946
3.12650e-06;-0.004094151332761001
3.12675e-06;-0.004116366456694093
3.12700e-06;-0.004138581580627186
3.12725e-06;-0.004160587102424212
3.12750e-06;-0.004182507283661948
3.12775e-06;-0.004204427464899686
3.12800e-06;-0.004226347646137423
3.12825e-06;-0.004248267827375123
3.12850e-06;-0.00427018800861286
3.12875e-06;-0.004291517416651335
3.12900e-06;-0.004310633122936143
3.12925e-06;-0.004329748829220984
3.12950e-06;-0.004348165882311296
3.12975e-06;-0.004363964993687503
3.13000e-06;-0.004379764105063682
3.13025e-06;-0.004394101567384292
3.13050e-06;-0.004402962046182844
3.13075e-06;-0.00441182252498138
3.13100e-06;-0.004420683003779931
3.13125e-06;-0.004429543482578483
3.13150e-06;-0.004438403961377019
3.13175e-06;-0.004447264440175571
3.13200e-06;-0.004456124918974122
3.13225e-06;-0.0044580652044678105
3.13250e-06;-0.004457187898602524
3.13275e-06;-0.004456310592737236
3.13300e-06;-0.004455433286871948
3.13325e-06;-0.004454555981006661
3.13350e-06;-0.004453678675141373
3.13375e-06;-0.004452801369276085
3.13400e-06;-0.004450282500028706
3.13425e-06;-0.00444161248556642
3.13450e-06;-0.004432942471104119
3.13475e-06;-0.004424272456641818
3.13500e-06;-0.004415602442179532
3.13525e-06;-0.004406932427717231
3.13550e-06;-0.00439826241325493
3.13575e-06;-0.004388670882287145
3.13600e-06;-0.0043756263126457935
3.13625e-06;-0.004362581743004442
3.13650e-06;-0.00434953717336309
3.13675e-06;-0.00433649260372176
3.13700e-06;-0.004323448034080408
3.13725e-06;-0.004310403464439057
3.13750e-06;-0.004297158522879544
3.13775e-06;-0.004283162762448651
3.13800e-06;-0.004269167002017759
3.13825e-06;-0.004255281302271692
3.13850e-06;-0.0042418080138051815
3.13875e-06;-0.004228334725338649
3.13900e-06;-0.00421509511146632
3.13925e-06;-0.004202731105796389
3.13950e-06;-0.004190642055651892
3.13975e-06;-0.004179583298570264
3.14000e-06;-0.0041688930780241955
3.14025e-06;-0.004159583810398983
3.14050e-06;-0.004150825827130901
3.14075e-06;-0.004144133575940357
3.14100e-06;-0.004138220398103031
3.14125e-06;-0.004135226506466498
3.14150e-06;-0.004132232614829963
3.14175e-06;-0.004130162140840513
3.14200e-06;-0.004131551829342268
3.14225e-06;-0.004132941517844025
3.14250e-06;-0.004135800120845183
3.14275e-06;-0.004144162931903929
3.14300e-06;-0.0041525257429626886
3.14325e-06;-0.004160888554021448
3.14350e-06;-0.004169251365080194
3.14375e-06;-0.004177614176138954
3.14400e-06;-0.004187644524284718
3.14425e-06;-0.004203923344397042
3.14450e-06;-0.004220202164509395
3.14475e-06;-0.004236480984621747
3.14500e-06;-0.004252759804734099
3.14525e-06;-0.004269038624846424
3.14550e-06;-0.0042864454128315665
3.14575e-06;-0.004308078838825145
3.14600e-06;-0.004329712264818687
3.14625e-06;-0.004351345690812265
