Time(s);Current(A)
1.45500e-05;-0.000356039812187694
1.45503e-05;-0.0003537244225602883
1.45505e-05;-0.0003514090329328668
1.45508e-05;-0.00034909364330544534
1.45510e-05;-0.000347200567651766
1.45513e-05;-0.000345498543897023
1.45515e-05;-0.00034379652014227994
1.45518e-05;-0.00034209449638753696
1.45520e-05;-0.00034039247263280547
1.45523e-05;-0.00033874600690158343
1.45525e-05;-0.0003373386911798433
1.45528e-05;-0.0003360387074823764
1.45530e-05;-0.000335200735443948
1.45533e-05;-0.0003348215464276892
1.45535e-05;-0.00033695784467443416
1.45538e-05;-0.00034196931512056654
1.45540e-05;-0.0003498580376528567
1.45543e-05;-0.00036046880703008563
1.45545e-05;-0.0003736464526015389
1.45548e-05;-0.0003892400317561085
1.45550e-05;-0.0004071849340612952
1.45553e-05;-0.0004277886059604328
1.45555e-05;-0.0004516385459725635
1.45558e-05;-0.0004789923172019058
1.45560e-05;-0.0005096888153749927
1.45563e-05;-0.0005434684326532438
1.45565e-05;-0.0005802948146754542
1.45568e-05;-0.0006202021325168797
1.45570e-05;-0.0006610194613253609
1.45573e-05;-0.0007057539404860372
1.45575e-05;-0.0007514571758656006
1.45578e-05;-0.0008013304310588341
1.45580e-05;-0.0008521291182816115
1.45583e-05;-0.0009069113359605359
1.45585e-05;-0.0009616935536394603
1.45588e-05;-0.001017299654039315
1.45590e-05;-0.0010764521649877941
1.45593e-05;-0.0011356046759362734
1.45595e-05;-0.0011947571868843518
1.45598e-05;-0.001253909697832831
1.45600e-05;-0.0013131098984914542
1.45603e-05;-0.0013725153799342632
1.45605e-05;-0.0014319208613766698
1.45608e-05;-0.001491326342819479
1.45610e-05;-0.001550731824262288
1.45613e-05;-0.0016091806540696387
1.45615e-05;-0.0016635115683509474
1.45618e-05;-0.001717842482632256
1.45620e-05;-0.0017710941566068015
1.45623e-05;-0.0018197002310219488
1.45625e-05;-0.0018670980856431323
1.45628e-05;-0.0019092951473454554
1.45630e-05;-0.0019498012324414933
1.45633e-05;-0.001983028493597337
1.45635e-05;-0.0020139667145059135
1.45638e-05;-0.002035051741179957
1.45640e-05;-0.0020537706954473606
1.45643e-05;-0.002062304869859821
1.45645e-05;-0.002068502050957245
1.45648e-05;-0.002064639623409658
1.45650e-05;-0.0020583530530582984
1.45653e-05;-0.0020416317383076302
1.45655e-05;-0.002022326927331411
1.45658e-05;-0.001991901433726182
1.45660e-05;-0.0019590595115061486
1.45663e-05;-0.0019158160506832981
1.45665e-05;-0.0018703896279449969
1.45668e-05;-0.0018155666260983258
1.45670e-05;-0.0017587213544931184
1.45673e-05;-0.0016931712046094876
1.45675e-05;-0.0016257142344470042
1.45678e-05;-0.001550049339325996
1.45680e-05;-0.001473148977851596
1.45683e-05;-0.001390227594507583
1.45685e-05;-0.0013036679137597446
1.45688e-05;-0.0012139488186563873
1.45690e-05;-0.0011215273724909023
1.45693e-05;-0.0010267708288821805
1.45695e-05;-0.0009299973025655906
1.45698e-05;-0.0008316412651880107
1.45700e-05;-0.0007322613445420171
1.45703e-05;-0.0006324434952042064
1.45705e-05;-0.0005327735663091028
1.45708e-05;-0.00043383667941377735
1.45710e-05;-0.000336204279252735
1.45713e-05;-0.00024039139145495993
1.45715e-05;-0.00014688229465708967
1.45718e-05;-5.623415779539263e-05
1.45720e-05;3.091819309644055e-05
1.45723e-05;0.00011392284320541609
1.45725e-05;0.00019212795593332032
1.45728e-05;0.0002648833137741177
1.45730e-05;0.0003315777911282974
1.45733e-05;0.0003917989822885313
1.45735e-05;0.0004454119187762056
1.45738e-05;0.0004923614568717565
1.45740e-05;0.0005325288116291377
1.45743e-05;0.000565768080059462
1.45745e-05;0.0005919333684769934
1.45748e-05;0.0006108799124903682
1.45750e-05;0.0006224874334643745
1.45753e-05;0.0006267600401091158
1.45755e-05;0.0006238758517505632
1.45758e-05;0.0006140628045936827
1.45760e-05;0.0005975090116057914
1.45763e-05;0.0005743855307875245
1.45765e-05;0.0005448635981045395
1.45768e-05;0.0005091150113019704
1.45770e-05;0.00046732689116365524
1.45773e-05;0.0004197643614260626
1.45775e-05;0.0003668014320553306
1.45778e-05;0.0003088433365960925
1.45780e-05;0.0002462703577005611
1.45783e-05;0.00017945207501152415
1.45785e-05;0.00010875813162742946
1.45788e-05;3.455848028126902e-05
1.45790e-05;-4.2767290292817934e-05
1.45793e-05;-0.00012279078193586188
1.45795e-05;-0.00020513588372070708
1.45798e-05;-0.0002894436051286855
1.45800e-05;-0.00037404327010019786
1.45803e-05;-0.0004598996087526696
1.45805e-05;-0.0005457559474045595
1.45808e-05;-0.0006312076550705551
1.45810e-05;-0.00071491762503195
1.45813e-05;-0.0007986275949927776
1.45815e-05;-0.0008813096977101407
1.45818e-05;-0.0009595673366712174
1.45820e-05;-0.0010364962696404714
1.45823e-05;-0.00110770577577218
1.45825e-05;-0.0011771622077213829
1.45828e-05;-0.0012390725161527975
1.45830e-05;-0.0012993943929264493
1.45833e-05;-0.0013528788514027544
1.45835e-05;-0.001405766189937358
1.45838e-05;-0.0014560832203373958
1.45840e-05;-0.0015055510022704372
1.45843e-05;-0.0015513631865716423
1.45845e-05;-0.0015971753708731576
1.45848e-05;-0.0016416369978007846
1.45850e-05;-0.0016802851384172376
1.45853e-05;-0.0017189332790339526
1.45855e-05;-0.0017564218727702514
1.45858e-05;-0.0017889191865749557
1.45860e-05;-0.00182141650037988
1.45863e-05;-0.0018539138141848046
1.45865e-05;-0.001886411127989729
1.45868e-05;-0.0019189084417944335
1.45870e-05;-0.0019514057555993578
1.45873e-05;-0.001983903069404282
1.45875e-05;-0.0020164003832089865
1.45878e-05;-0.002048897697013911
1.45880e-05;-0.002079985370583564
1.45883e-05;-0.0021050052351351176
1.45885e-05;-0.0021300250996868406
1.45888e-05;-0.0021550449642385636
1.45890e-05;-0.002180064828790117
1.45893e-05;-0.00220508469334184
1.45895e-05;-0.002230104557893563
1.45898e-05;-0.0022551244224451165
1.45900e-05;-0.0022801442869968395
1.45903e-05;-0.0023051641515485625
1.45905e-05;-0.0023286597344928154
1.45908e-05;-0.0023455940336054772
1.45910e-05;-0.002362528332718139
1.45913e-05;-0.0023794626318306865
1.45915e-05;-0.0023963969309433487
1.45918e-05;-0.0024133312300560106
1.45920e-05;-0.002430265529168558
1.45923e-05;-0.00244719982828122
1.45925e-05;-0.002464134127393882
1.45928e-05;-0.002481068426506429
1.45930e-05;-0.0024980027256190913
1.45933e-05;-0.002514937024731753
1.45935e-05;-0.0025247075227335055
1.45938e-05;-0.002531237167027135
1.45940e-05;-0.002537766811320765
1.45943e-05;-0.00254429645561435
1.45945e-05;-0.00255082609990798
1.45948e-05;-0.0025573557442016095
1.45950e-05;-0.002563885388495239
1.45953e-05;-0.0025704150327888245
1.45955e-05;-0.002576944677082454
1.45958e-05;-0.0025834743213760834
1.45960e-05;-0.002590003965669669
1.45963e-05;-0.0025949703053319817
1.45965e-05;-0.0025932073862040385
1.45968e-05;-0.0025914444670761074
1.45970e-05;-0.0025896815479481646
1.45973e-05;-0.0025879186288202214
1.45975e-05;-0.0025861557096922903
1.45978e-05;-0.0025843927905643475
1.45980e-05;-0.0025826298714364043
1.45983e-05;-0.002580866952308473
1.45985e-05;-0.0025791040331805304
1.45988e-05;-0.002577341114052587
1.45990e-05;-0.002575578194924656
1.45993e-05;-0.002573815275796713
1.45995e-05;-0.00256985641523642
1.45998e-05;-0.002564904126072385
1.46000e-05;-0.0025599518369083156
1.46003e-05;-0.0025549995477442467
1.46005e-05;-0.0025500472585802112
1.46008e-05;-0.0025450949694161423
1.46010e-05;-0.0025401426802520734
1.46013e-05;-0.002535190391088038
1.46015e-05;-0.002530238101923969
1.46018e-05;-0.0025252858127599
1.46020e-05;-0.0025203335235958646
1.46023e-05;-0.0025153812344317953
1.46025e-05;-0.002510578909398015
1.46028e-05;-0.002506422106306676
1.46030e-05;-0.0025022653032153092
1.46033e-05;-0.0024972836049395337
1.46035e-05;-0.002488751137951765
1.46038e-05;-0.002480218670964054
1.46040e-05;-0.0024699530052629537
1.46043e-05;-0.002452226770171267
1.46045e-05;-0.002434500535079701
1.46048e-05;-0.002416774299988015
1.46050e-05;-0.0023990480648963287
1.46053e-05;-0.0023788971295641086
1.46055e-05;-0.0023483090503202105
1.46058e-05;-0.002317720971076312
1.46060e-05;-0.002287132891832621
1.46063e-05;-0.0022565448125887225
1.46065e-05;-0.002223431071961668
1.46068e-05;-0.0021794455992803444
1.46070e-05;-0.002135460126598723
1.46073e-05;-0.002091474653917101
1.46075e-05;-0.0020474891812357772
1.46078e-05;-0.0020035037085541557
1.46080e-05;-0.0019575735323078204
1.46083e-05;-0.0019032723621416065
1.46085e-05;-0.0018489711919750247
1.46088e-05;-0.0017946700218084428
1.46090e-05;-0.001740368851642229
1.46093e-05;-0.001686067681475647
1.46095e-05;-0.0016311290939657272
1.46098e-05;-0.0015734467377898412
1.46100e-05;-0.001515764381613564
1.46103e-05;-0.0014581625617186122
1.46105e-05;-0.0014009074109687207
1.46108e-05;-0.0013440108877158757
1.46110e-05;-0.0012886580797395702
1.46113e-05;-0.0012338245365517643
1.46115e-05;-0.001181226173297545
1.46118e-05;-0.0011295873432498932
1.46120e-05;-0.0010820788324889302
1.46123e-05;-0.0010345703217282893
1.46125e-05;-0.0009884200240048318
1.46128e-05;-0.0009481161664734333
1.46130e-05;-0.0009089089473218744
1.46133e-05;-0.0008744222179030154
1.46135e-05;-0.0008405444704994242
1.46138e-05;-0.0008092880916384917
1.46140e-05;-0.000778668555854213
1.46143e-05;-0.0007507903168018428
1.46145e-05;-0.0007237088503430703
1.46148e-05;-0.0007000570986534574
1.46150e-05;-0.0006771679269349595
1.46153e-05;-0.0006575612875368305
1.46155e-05;-0.0006383998709757272
1.46158e-05;-0.0006211549201075379
1.46160e-05;-0.0006044921363087727
1.46163e-05;-0.0005903352958775792
1.46165e-05;-0.0005761784554463857
1.46168e-05;-0.000562814885315517
1.46170e-05;-0.0005528659543019726
1.46173e-05;-0.0005429170232884281
1.46175e-05;-0.0005334533546435
1.46178e-05;-0.0005260785022134246
1.46180e-05;-0.0005187036497833492
1.46183e-05;-0.00051179165236155
1.46185e-05;-0.0005068720184713582
1.46188e-05;-0.0005019523845811666
1.46190e-05;-0.0004974551510134573
1.46193e-05;-0.000494776143419915
1.46195e-05;-0.0004920971358263727
1.46198e-05;-0.0004897286081366338
1.46200e-05;-0.0004886965439757899
1.46203e-05;-0.000487664479814946
1.46205e-05;-0.0004866324156541021
1.46208e-05;-0.0004856003514932652
1.46210e-05;-0.0004845682873324213
1.46213e-05;-0.0004843512560220593
1.46215e-05;-0.00048450293989479355
1.46218e-05;-0.0004846546237675289
1.46220e-05;-0.00048480630764026424
1.46223e-05;-0.00048495799151299855
1.46225e-05;-0.0004851013120295341
1.46228e-05;-0.0004852086324043437
1.46230e-05;-0.00048499219550183126
1.46233e-05;-0.0004833821424971288
1.46235e-05;-0.00048104886505410466
1.46238e-05;-0.0004750607070863718
1.46240e-05;-0.0004662290884569101
1.46243e-05;-0.0004547146441793897
1.46245e-05;-0.0004406780345553405
1.46248e-05;-0.0004242755403661629
1.46250e-05;-0.00040557483444320156
1.46253e-05;-0.000384261391263981
1.46255e-05;-0.0003597319074649577
1.46258e-05;-0.00033171981677264573
1.46260e-05;-0.0003003871103958961
1.46263e-05;-0.00026599664148698696
1.46265e-05;-0.00022881132582054138
1.46268e-05;-0.0001890913333546508
1.46270e-05;-0.00014704123302719044
1.46273e-05;-0.00010262625444345367
1.46275e-05;-5.5630738250960676e-05
1.46278e-05;-6.049944936104606e-06
1.46280e-05;4.5852396816060656e-05
1.46283e-05;9.974936099363502e-05
1.46285e-05;0.00015531406318409585
1.46288e-05;0.0002123073862150925
1.46290e-05;0.00027055125229364806
1.46293e-05;0.00032912636214345943
1.46295e-05;0.0003891273137781794
1.46298e-05;0.0004492999143519298
1.46300e-05;0.0005102113793220759
1.46303e-05;0.0005710821116180842
1.46305e-05;0.0006316581428241336
1.46308e-05;0.0006915329240738279
1.46310e-05;0.0007503626102641322
1.46313e-05;0.0008078971969832013
1.46315e-05;0.0008639577480995844
1.46318e-05;0.0009182825388176772
1.46320e-05;0.0009705045132337233
1.46323e-05;0.0010202318722403422
1.46325e-05;0.0010670730199835072
1.46328e-05;0.0011106367456205496
1.46330e-05;0.001150546966200697
1.46333e-05;0.0011865110270660446
1.46335e-05;0.0012183755123014854
1.46338e-05;0.0012460670334737956
1.46340e-05;0.001269100610277136
1.46343e-05;0.001286858952714582
1.46345e-05;0.001302934372909515
1.46348e-05;0.0013117656392233363
1.46350e-05;0.0013188811952474042
1.46353e-05;0.001318611460946732
1.46355e-05;0.0013166855571677468
1.46358e-05;0.0013076306570206954
1.46360e-05;0.0012970105665453507
1.46363e-05;0.0012796531002685569
1.46365e-05;0.0012608198536397132
1.46368e-05;0.0012356340972545575
1.46370e-05;0.0012090781889453357
1.46373e-05;0.001176624449395371
1.46375e-05;0.0011429640263085452
1.46378e-05;0.0011041094231188336
1.46380e-05;0.0010640132963484874
1.46383e-05;0.0010185730201951017
1.46385e-05;0.0009731327440420241
1.46388e-05;0.0009265737165982678
1.46390e-05;0.000875199014194325
1.46393e-05;0.0008238243117907304
1.46395e-05;0.0007718200562008804
1.46398e-05;0.0007171058832775638
1.46400e-05;0.000662391710354618
1.46403e-05;0.0006075876903541642
1.46405e-05;0.000552396922804565
1.46408e-05;0.0004972061552553398
1.46410e-05;0.00044234699816643225
1.46413e-05;0.0003889152612789996
1.46415e-05;0.0003358805829260146
1.46418e-05;0.00028491214880941695
1.46420e-05;0.00023590702670084413
1.46423e-05;0.00018923154925786737
1.46425e-05;0.00014525205408746054
1.46428e-05;0.00010432848616728882
1.46430e-05;6.668577211485246e-05
1.46433e-05;3.1949865362644324e-05
1.46435e-05;-7.778150972818693e-07
1.46438e-05;-3.201224023173575e-05
1.46440e-05;-6.168664253090236e-05
1.46443e-05;-8.959036600938446e-05
1.46445e-05;-0.00011551279584758967
1.46448e-05;-0.00013924734047176225
1.46450e-05;-0.0001606719790698276
1.46453e-05;-0.00018003992586344538
1.46455e-05;-0.0001979328976597102
1.46458e-05;-0.0002146922821899765
1.46460e-05;-0.00023029502341539114
1.46463e-05;-0.00024462797661629085
1.46465e-05;-0.00025757804430770996
1.46468e-05;-0.0002690346363902054
1.46470e-05;-0.0002788417892896027
1.46473e-05;-0.0002870485456094534
1.46475e-05;-0.0002949433381441781
1.46478e-05;-0.000301495279768045
1.46480e-05;-0.00030774718003433854
1.46483e-05;-0.00031270754958589287
1.46485e-05;-0.00031732939461990737
1.46488e-05;-0.0003204940578322812
1.46490e-05;-0.0003233142325700906
1.46493e-05;-0.0003246515535795714
1.46495e-05;-0.00032598887458906137
1.46498e-05;-0.0003270314477329128
1.46500e-05;-0.0003268052760456687
1.46503e-05;-0.000326579104358423
1.46505e-05;-0.00032635293267117735
1.46508e-05;-0.0003261267609839332
1.46510e-05;-0.000325689954623408
1.46513e-05;-0.0003243464694226267
1.46515e-05;-0.0003230029842218545
1.46518e-05;-0.00032165949902107323
1.46520e-05;-0.00032031601382029193
1.46523e-05;-0.0003189996561198745
1.46525e-05;-0.0003178000689880241
1.46528e-05;-0.00031658753891716606
1.46530e-05;-0.00031531929584927677
1.46533e-05;-0.0003137893327283698
1.46535e-05;-0.0003107994097383622
1.46538e-05;-0.0003060366943212573
1.46540e-05;-0.000299503047647902
1.46543e-05;-0.00029130780183611024
1.46545e-05;-0.0002815602582291101
1.46548e-05;-0.0002703669085458013
1.46550e-05;-0.00025777490194037254
1.46553e-05;-0.00024357544010487718
1.46555e-05;-0.00022736496461905667
1.46558e-05;-0.00020896251717404083
1.46560e-05;-0.00018847240852464791
1.46563e-05;-0.0001660662403420335
1.46565e-05;-0.00014191562556919123
1.46568e-05;-0.00011619033400074515
1.46570e-05;-8.902302065641971e-05
1.46573e-05;-6.038599683093542e-05
1.46575e-05;-3.0129581622229663e-05
1.46578e-05;1.7564512002825008e-06
1.46580e-05;3.510364985101334e-05
1.46583e-05;6.970140947769583e-05
1.46585e-05;0.00010533914866605237
1.46588e-05;0.00014185999873355992
1.46590e-05;0.0001791463711232043
1.46593e-05;0.00021667126064520544
1.46595e-05;0.0002552228493043802
1.46598e-05;0.0002937744379635549
1.46600e-05;0.000332354243399974
1.46603e-05;0.00037105550820854926
1.46605e-05;0.0004097567730171246
1.46608e-05;0.0004481952021595805
1.46610e-05;0.0004855022528207644
1.46613e-05;0.0005224589799860697
1.46615e-05;0.0005579077365204356
1.46618e-05;0.0005928663457656207
1.46620e-05;0.0006257151116063746
1.46623e-05;0.0006580798422533259
1.46625e-05;0.0006879754942078232
1.46628e-05;0.0007157733264877872
1.46630e-05;0.0007411056668788573
1.46633e-05;0.0007631331756389354
1.46635e-05;0.0007807085909073763
1.46638e-05;0.0007931969786248487
1.46640e-05;0.000800552785101585
1.46643e-05;0.0008028646243441072
1.46645e-05;0.0008002212048275853
1.46648e-05;0.0007927077345630797
1.46650e-05;0.0007803391803209022
1.46653e-05;0.0007628352181474098
1.46655e-05;0.0007397224735016705
1.46658e-05;0.0007108486993930108
1.46660e-05;0.0006764308103705916
1.46663e-05;0.0006367697763028086
1.46665e-05;0.000592166494534847
1.46668e-05;0.0005429197622331422
1.46670e-05;0.0004892843529947742
1.46673e-05;0.0004313300259828136
1.46675e-05;0.0003690056924189332
1.46678e-05;0.00030246131563911854
1.46680e-05;0.00023207816189090683
1.46683e-05;0.00015829012372316036
1.46685e-05;8.153102557651222e-05
1.46688e-05;2.2333174321342014e-06
1.46690e-05;-7.919815479620423e-05
1.46693e-05;-0.00016247444389301
1.46695e-05;-0.0002475205896059483
1.46698e-05;-0.000334283580486085
1.46700e-05;-0.00042104657136563374
1.46703e-05;-0.000507737477189866
1.46705e-05;-0.0005941180922441853
1.46708e-05;-0.0006804987072979193
1.46710e-05;-0.0007662072972337225
1.46713e-05;-0.0008490231490171024
1.46715e-05;-0.000930924243910067
1.46718e-05;-0.0010088877595600197
1.46720e-05;-0.001085527232851521
1.46723e-05;-0.0011564673539285221
1.46725e-05;-0.0012256550921427092
1.46728e-05;-0.0012872996826024732
1.46730e-05;-0.00134682858810213
1.46733e-05;-0.001397250508706792
1.46735e-05;-0.0014454132801852149
1.46738e-05;-0.0014838515239766759
1.46740e-05;-0.0015199494605431844
1.46743e-05;-0.0015459735236609865
1.46745e-05;-0.001569570075199544
1.46748e-05;-0.0015827173813623635
1.46750e-05;-0.0015933907701053869
1.46753e-05;-0.0015934151591153096
1.46755e-05;-0.0015910568951594665
1.46758e-05;-0.0015784424801322224
1.46760e-05;-0.0015635757193884603
1.46763e-05;-0.0015390137162975658
1.46765e-05;-0.001512325899944078
1.46768e-05;-0.001476487501327317
1.46770e-05;-0.0014386753237170173
1.46773e-05;-0.0013923669967164291
1.46775e-05;-0.0013443231966196306
1.46778e-05;-0.001288809037007649
1.46780e-05;-0.0012318221037137798
1.46783e-05;-0.0011684956028919211
1.46785e-05;-0.001103956624663651
1.46788e-05;-0.0010341985265568197
1.46790e-05;-0.0009636991749764107
1.46793e-05;-0.0008896191899312811
1.46795e-05;-0.0008135579661410274
1.46798e-05;-0.0007359766776643358
1.46800e-05;-0.0006573344989961084
1.46803e-05;-0.0005780874652136562
1.46805e-05;-0.0004986915608168049
1.46808e-05;-0.000419603041543985
1.46810e-05;-0.00034128167219884533
1.46813e-05;-0.000264207395140655
1.46815e-05;-0.00018889241774912958
1.46818e-05;-0.00011586538272300057
1.46820e-05;-4.565359440864374e-05
1.46823e-05;2.1217625364501296e-05
1.46825e-05;8.422300027147782e-05
1.46828e-05;0.000142851600222392
1.46830e-05;0.0001968927335614047
1.46833e-05;0.00024745434636008876
1.46835e-05;0.0002967442705802878
1.46838e-05;0.0003460160549960273
1.46840e-05;0.00039498132400054355
1.46843e-05;0.00044274603578101714
1.46845e-05;0.0004905107475614907
1.46848e-05;0.0005376205049303371
1.46850e-05;0.000581911005157699
1.46853e-05;0.0006262869467053686
1.46855e-05;0.0006710306711828532
1.46858e-05;0.000715774395660641
1.46860e-05;0.0007607526841603688
1.46863e-05;0.0008067406555975314
1.46865e-05;0.0008527286270350054
1.46868e-05;0.0008987165984724795
1.46870e-05;0.0009447045699096419
1.46873e-05;0.0009911939589601914
1.46875e-05;0.0010379101858459074
1.46878e-05;0.001084626412731307
1.46880e-05;0.0011313426396170232
1.46883e-05;0.0011782409162459828
1.46885e-05;0.001225922827628807
1.46888e-05;0.0012734285745835533
1.46890e-05;0.0013201760201780727
1.46893e-05;0.001366845720352719
1.46895e-05;0.0014131892140657252
1.46898e-05;0.0014595407014776544
1.46900e-05;0.0015056860514877906
1.46903e-05;0.0015513303335097715
1.46905e-05;0.0015961789003646704
1.46908e-05;0.0016399392995210416
1.46910e-05;0.0016823653076385686
1.46913e-05;0.00172341384587034
1.46915e-05;0.0017632111043718996
1.46918e-05;0.001801736035299074
1.46920e-05;0.0018387600374853168
1.46923e-05;0.0018740041072969143
1.46925e-05;0.0019071893861449102
1.46928e-05;0.0019380346099084355
1.46930e-05;0.001966214912170044
1.46933e-05;0.0019912295342664225
1.46935e-05;0.0020124992760826694
1.46938e-05;0.002029708299163143
1.46940e-05;0.0020428060196948446
