Time(s);Current(A)
1.32500e-05;-0.004506143447671473
1.32503e-05;-0.004475885923465385
1.32505e-05;-0.004445628399259297
1.32508e-05;-0.0044153708750534135
1.32510e-05;-0.0043851133508473255
1.32513e-05;-0.00435553432878018
1.32515e-05;-0.0043267829680980335
1.32518e-05;-0.004298031607415693
1.32520e-05;-0.004269280246733352
1.32523e-05;-0.004240528886051207
1.32525e-05;-0.0042117775253688655
1.32528e-05;-0.004183026164686525
1.32530e-05;-0.004155643663049289
1.32533e-05;-0.0041283324733282604
1.32535e-05;-0.004101021283607232
1.32538e-05;-0.004075532439907042
1.32540e-05;-0.004050138532926462
1.32543e-05;-0.004024744625945709
1.32545e-05;-0.004001660666475323
1.32548e-05;-0.003978697045753184
1.32550e-05;-0.00395573342503089
1.32553e-05;-0.003935387582532388
1.32555e-05;-0.003915178115494013
1.32558e-05;-0.003894968648455501
1.32560e-05;-0.003878157195791263
1.32563e-05;-0.0038615227656759545
1.32565e-05;-0.003844888335560533
1.32568e-05;-0.003828348548820462
1.32570e-05;-0.0038118136926104215
1.32573e-05;-0.0037952788364002694
1.32575e-05;-0.003778227019337074
1.32578e-05;-0.003761148270743462
1.32580e-05;-0.003744069522149734
1.32583e-05;-0.0037267409238971533
1.32585e-05;-0.0037093993095068576
1.32588e-05;-0.0036920576951164448
1.32590e-05;-0.0036723844161388325
1.32593e-05;-0.0036525896670429304
1.32595e-05;-0.0036327949179468947
1.32598e-05;-0.0036130001688508585
1.32600e-05;-0.003593205419754957
1.32603e-05;-0.0035713885924456112
1.32605e-05;-0.003549466423192381
1.32608e-05;-0.0035275442539393
1.32610e-05;-0.0035056220846860697
1.32613e-05;-0.0034836999154328396
1.32615e-05;-0.003460319515280426
1.32618e-05;-0.003436863147305946
1.32620e-05;-0.003413406779331466
1.32623e-05;-0.0033898669437192586
1.32625e-05;-0.0033663227597871734
1.32628e-05;-0.0033425932356518457
1.32630e-05;-0.003318854056055541
1.32633e-05;-0.003295135236219019
1.32635e-05;-0.0032716126651722204
1.32638e-05;-0.0032484317726218987
1.32640e-05;-0.003225735760942963
1.32643e-05;-0.0032036306422894663
1.32645e-05;-0.0031821304221531237
1.32648e-05;-0.003161228037431432
1.32650e-05;-0.003141005420386638
1.32653e-05;-0.003121602296434731
1.32655e-05;-0.0031031607153262824
1.32658e-05;-0.0030858235889606035
1.32660e-05;-0.0030697329901460896
1.32663e-05;-0.0030551068520705787
1.32665e-05;-0.003042325071776067
1.32668e-05;-0.003031747008720081
1.32670e-05;-0.003023496828969795
1.32673e-05;-0.0030175656933173235
1.32675e-05;-0.003013937361262314
1.32678e-05;-0.003012595977263131
1.32680e-05;-0.0030135250449307986
1.32683e-05;-0.003017915566206751
1.32685e-05;-0.0030224805602215355
1.32688e-05;-0.0030318375113555494
1.32690e-05;-0.0030414441037127406
1.32693e-05;-0.003058194807857806
1.32695e-05;-0.003075317690793542
1.32698e-05;-0.0030924405737292777
1.32700e-05;-0.003109563456664898
1.32703e-05;-0.0031306995268501293
1.32705e-05;-0.0031567310276134925
1.32708e-05;-0.003182762528376856
1.32710e-05;-0.003208794029140043
1.32713e-05;-0.003234825529903406
1.32715e-05;-0.003266291143948189
1.32718e-05;-0.003298039852906401
1.32720e-05;-0.003329788561864828
1.32723e-05;-0.0033642455614563307
1.32725e-05;-0.0033988436518315596
1.32728e-05;-0.0034334417422070226
1.32730e-05;-0.003469414042589655
1.32733e-05;-0.0035054579336517497
1.32735e-05;-0.003541501824714089
1.32738e-05;-0.0035771290046094067
1.32740e-05;-0.003612734475569504
1.32743e-05;-0.0036483399465298432
1.32745e-05;-0.003682316341651549
1.32748e-05;-0.003716207868633508
1.32750e-05;-0.003747160361040332
1.32753e-05;-0.0037779597418543674
1.32755e-05;-0.0038087591226681947
1.32758e-05;-0.003836298655158376
1.32760e-05;-0.0038616562876065195
1.32763e-05;-0.0038854049113242355
1.32765e-05;-0.0039090751730500185
1.32768e-05;-0.00393660073230128
1.32770e-05;-0.003964327136669969
1.32773e-05;-0.003997100991010746
1.32775e-05;-0.0040301377967000805
1.32778e-05;-0.004067633979883917
1.32780e-05;-0.004105362478263307
1.32783e-05;-0.004143090976642696
1.32785e-05;-0.004188548069280399
1.32788e-05;-0.0042344077898383275
1.32790e-05;-0.004280267510396256
1.32793e-05;-0.004336030926198801
1.32795e-05;-0.0043923102837211455
1.32798e-05;-0.0044485896412438716
1.32800e-05;-0.004511791759640746
1.32803e-05;-0.004575354525357823
1.32805e-05;-0.004638917291075329
1.32808e-05;-0.004710211011603135
1.32810e-05;-0.00478190748302556
1.32813e-05;-0.0048536039544484705
1.32815e-05;-0.004930337032058086
1.32818e-05;-0.005007332496099393
1.32820e-05;-0.00508631901185094
1.32823e-05;-0.005165409253193723
1.32825e-05;-0.005245958758176493
1.32828e-05;-0.00532658428478353
1.32830e-05;-0.005408191948490451
1.32833e-05;-0.005489939298187465
1.32835e-05;-0.0055712991127741
1.32838e-05;-0.005651766126695256
1.32840e-05;-0.005730835540057138
1.32843e-05;-0.005808096850564493
1.32845e-05;-0.0058833715228156286
1.32848e-05;-0.005956525160122499
1.32850e-05;-0.006025751565299272
1.32853e-05;-0.006094778866223335
1.32855e-05;-0.00615495217979922
1.32858e-05;-0.006214664237111549
1.32860e-05;-0.006274376294423879
1.32863e-05;-0.006324129478592637
1.32865e-05;-0.0063733638464996845
1.32868e-05;-0.006419602452820282
1.32870e-05;-0.006465684992303875
1.32873e-05;-0.006508726329578434
1.32875e-05;-0.006551609232747033
1.32878e-05;-0.006594492135915632
1.32880e-05;-0.006631657192390048
1.32883e-05;-0.006668524372608348
1.32885e-05;-0.006705391552826647
1.32888e-05;-0.0067400099016974805
1.32890e-05;-0.006774511095720076
1.32893e-05;-0.006809012289742672
1.32895e-05;-0.006843513483765035
1.32898e-05;-0.006875084753467421
1.32900e-05;-0.006906503386183362
1.32903e-05;-0.006937922018899089
1.32905e-05;-0.006969340651615029
1.32908e-05;-0.006998021191731381
1.32910e-05;-0.007026559088503414
1.32913e-05;-0.007055096985275639
1.32915e-05;-0.0070836348820478645
1.32918e-05;-0.007112172778819897
1.32920e-05;-0.007140710675592123
1.32923e-05;-0.007169248572364348
1.32925e-05;-0.007197786469136381
1.32928e-05;-0.0072263243659086065
1.32930e-05;-0.007249724423245459
1.32933e-05;-0.007272856820314173
1.32935e-05;-0.007295989217383044
1.32938e-05;-0.007319121614451916
1.32940e-05;-0.00734225401152063
1.32943e-05;-0.0073653864085895015
1.32945e-05;-0.0073885188056583735
1.32948e-05;-0.007411651202727088
1.32950e-05;-0.007434783599795959
1.32953e-05;-0.0074535470826022415
1.32955e-05;-0.007472082962974044
1.32958e-05;-0.00748830358459479
1.32960e-05;-0.0075044035907728115
1.32963e-05;-0.007516499805961921
1.32965e-05;-0.007528387440134916
1.32968e-05;-0.007531918499494025
1.32970e-05;-0.0075350142157320586
1.32973e-05;-0.007528815923006797
1.32975e-05;-0.007522133450703265
1.32978e-05;-0.007504620250188814
1.32980e-05;-0.007486542813354322
1.32983e-05;-0.007468465376519707
1.32985e-05;-0.00742954481684255
1.32988e-05;-0.007389538416333507
1.32990e-05;-0.007349532015824192
1.32993e-05;-0.007309525615314879
1.32995e-05;-0.007269519214805836
1.32998e-05;-0.007217893421168456
1.33000e-05;-0.007152093872623789
1.33003e-05;-0.007086294324079568
1.33005e-05;-0.0070204947755349014
1.33008e-05;-0.006954695226990234
1.33010e-05;-0.006888895678446013
1.33013e-05;-0.006807878886116562
1.33015e-05;-0.00672606933807633
1.33018e-05;-0.006644259790036654
1.33020e-05;-0.0065559690518519915
1.33023e-05;-0.006467340670361284
1.33025e-05;-0.006378712288871177
1.33028e-05;-0.006286544628733333
1.33030e-05;-0.006194192586758669
1.33033e-05;-0.006100854424253678
1.33035e-05;-0.006007464888930893
1.33038e-05;-0.005915176772342971
1.33040e-05;-0.005822946035134276
1.33043e-05;-0.005732791993405745
1.33045e-05;-0.005644632514945204
1.33048e-05;-0.0055587993747699335
1.33050e-05;-0.005475796352125486
1.33053e-05;-0.005396216182142642
1.33055e-05;-0.005322862220889765
1.33058e-05;-0.005249823713637328
1.33060e-05;-0.00518658002117323
1.33063e-05;-0.005123846598208419
1.33065e-05;-0.005071895143305151
1.33068e-05;-0.005020505384519585
1.33070e-05;-0.00496911562573402
1.33073e-05;-0.0049290644826404766
1.33075e-05;-0.004889604034713161
1.33078e-05;-0.004850143586785844
1.33080e-05;-0.004829975429694697
1.33083e-05;-0.004810812321478774
1.33085e-05;-0.004791649213262852
1.33088e-05;-0.00477248610504706
1.33090e-05;-0.0047533229968311375
1.33093e-05;-0.004734159888615215
1.33095e-05;-0.004725081657429769
1.33098e-05;-0.00472830532306151
1.33100e-05;-0.004731528988693252
1.33103e-05;-0.004734752654324971
1.33105e-05;-0.004737976319956712
1.33108e-05;-0.0047411999855884535
1.33110e-05;-0.004744423651220173
1.33113e-05;-0.004759212647659346
1.33115e-05;-0.004774604150188729
1.33118e-05;-0.004789995652718007
1.33120e-05;-0.004811059708851925
1.33123e-05;-0.0048324192816598735
1.33125e-05;-0.004853778854467677
1.33128e-05;-0.004878493951715288
1.33130e-05;-0.004903383857962745
1.33133e-05;-0.004928273764210202
1.33135e-05;-0.004954728716326981
1.33138e-05;-0.004981265200886358
1.33140e-05;-0.005007801685445735
1.33143e-05;-0.005034329613004515
1.33145e-05;-0.005060857094779003
1.33148e-05;-0.005087384576553493
1.33150e-05;-0.005111434806706927
1.33153e-05;-0.005135355982256355
1.33155e-05;-0.005159277157805782
1.33158e-05;-0.005179104693862228
1.33160e-05;-0.005198718968165346
1.33163e-05;-0.005218333242468464
1.33165e-05;-0.005236713685831953
1.33168e-05;-0.0052550298516864866
1.33170e-05;-0.005273346017541021
1.33173e-05;-0.005293941207675549
1.33175e-05;-0.0053146551255866025
1.33178e-05;-0.005335369043497655
1.33180e-05;-0.005356082961408567
1.33183e-05;-0.00537679687931962
1.33185e-05;-0.005401241767440202
1.33188e-05;-0.0054258810237385775
1.33190e-05;-0.00545052028003712
1.33193e-05;-0.005475159536335661
1.33195e-05;-0.005499798792634037
1.33198e-05;-0.0055291494260644595
1.33200e-05;-0.005558745502834721
1.33203e-05;-0.005588341579604783
1.33205e-05;-0.005617937656375045
1.33208e-05;-0.005647533733145308
1.33210e-05;-0.0056789528501965305
1.33213e-05;-0.005712595777550562
1.33215e-05;-0.005746238704904595
1.33218e-05;-0.005779881632258627
1.33220e-05;-0.0058135245596124315
1.33223e-05;-0.005847167486966464
1.33225e-05;-0.005881901297751398
1.33228e-05;-0.005916691939068927
1.33230e-05;-0.005951482580386692
1.33233e-05;-0.005986110933765516
1.33235e-05;-0.006020730832611032
1.33238e-05;-0.006055350731456785
1.33240e-05;-0.006088049878777931
1.33243e-05;-0.006120648962856977
1.33245e-05;-0.006153248046936242
1.33248e-05;-0.0061830014857734514
1.33250e-05;-0.006212606678215986
1.33253e-05;-0.0062422118706587214
1.33255e-05;-0.00626745269781994
1.33258e-05;-0.006292466159528792
1.33260e-05;-0.006317479621237815
1.33263e-05;-0.006336161492776456
1.33265e-05;-0.006354513514549988
1.33268e-05;-0.006372865536323644
1.33270e-05;-0.006378825932008585
1.33273e-05;-0.006384140775021296
1.33275e-05;-0.006389455618034044
1.33278e-05;-0.006394770461046791
1.33280e-05;-0.006400085304059503
1.33283e-05;-0.0064054001470722505
1.33285e-05;-0.00640251145258102
1.33288e-05;-0.00638961578709137
1.33290e-05;-0.006376720121601633
1.33293e-05;-0.006363824456111895
1.33295e-05;-0.006350928790622246
1.33298e-05;-0.006338033125132508
1.33300e-05;-0.0063251374596427715
1.33303e-05;-0.006297284491403989
1.33305e-05;-0.006268652309308451
1.33308e-05;-0.006240020127212718
1.33310e-05;-0.006211387945116987
1.33313e-05;-0.006182755763021449
1.33315e-05;-0.0061541235809257164
1.33318e-05;-0.006125491398829985
1.33320e-05;-0.006088125006319241
1.33323e-05;-0.0060503035974258604
1.33325e-05;-0.006012482188532479
1.33328e-05;-0.0059746607796393545
1.33330e-05;-0.005936839370745974
1.33333e-05;-0.005899017961852593
1.33335e-05;-0.005861196552959469
1.33338e-05;-0.005822333339803579
1.33340e-05;-0.005783415852937264
1.33343e-05;-0.005744498366071213
1.33345e-05;-0.005707679409789738
1.33348e-05;-0.005670969778306978
1.33350e-05;-0.005634260146824467
1.33353e-05;-0.00560685161029713
1.33355e-05;-0.005579927622501805
1.33358e-05;-0.005553003634706662
1.33360e-05;-0.005526079646911338
1.33363e-05;-0.005499155659116013
1.33365e-05;-0.0054722316713208706
1.33368e-05;-0.005445307683525545
1.33370e-05;-0.0054183836957302205
1.33373e-05;-0.0053982071125857475
1.33375e-05;-0.005386261257055878
1.33378e-05;-0.005374315401526009
1.33380e-05;-0.005362369545996221
1.33383e-05;-0.005350423690466352
1.33385e-05;-0.005338477834936482
1.33388e-05;-0.005326531979406613
1.33390e-05;-0.005314586123876824
1.33393e-05;-0.005302640268346955
1.33395e-05;-0.00530273142553882
1.33398e-05;-0.005303449661508359
1.33400e-05;-0.005304167897477904
1.33403e-05;-0.005304886133447448
1.33405e-05;-0.0053056043694169885
1.33408e-05;-0.005306322605386533
1.33410e-05;-0.005307040841356077
1.33413e-05;-0.005307759077325617
1.33415e-05;-0.005308477313295161
1.33418e-05;-0.005309195549264706
1.33420e-05;-0.005316825967882168
1.33423e-05;-0.005324816482741737
1.33425e-05;-0.005332806997601304
1.33428e-05;-0.005340797512460818
1.33430e-05;-0.0053487880273203866
1.33433e-05;-0.005356778542179954
1.33435e-05;-0.005364769057039468
1.33438e-05;-0.005372759571899036
1.33440e-05;-0.005380750086758604
1.33443e-05;-0.005388740601618118
1.33445e-05;-0.005396004140278566
1.33448e-05;-0.00540322980647372
1.33450e-05;-0.005410455472668826
1.33453e-05;-0.00541768113886398
1.33455e-05;-0.005424906805059134
1.33458e-05;-0.005432132471254239
1.33460e-05;-0.005439358137449393
1.33463e-05;-0.005446583803644547
1.33465e-05;-0.005453809469839653
1.33468e-05;-0.005461035136034807
1.33470e-05;-0.005467307371127013
1.33473e-05;-0.005473529936386265
1.33475e-05;-0.005479752501645475
1.33478e-05;-0.005485975066904728
1.33480e-05;-0.00549219763216398
1.33483e-05;-0.00549842019742319
1.33485e-05;-0.005504642762682442
1.33488e-05;-0.005510865327941695
1.33490e-05;-0.005517087893200905
1.33493e-05;-0.005523310458460157
1.33495e-05;-0.0055302628333706106
1.33498e-05;-0.0055381054564227
1.33500e-05;-0.005545948079474843
1.33503e-05;-0.005553790702526986
1.33505e-05;-0.005561633325579076
1.33508e-05;-0.005569475948631219
1.33510e-05;-0.005577318571683362
1.33513e-05;-0.005585161194735452
1.33515e-05;-0.005593003817787595
1.33518e-05;-0.005600846440839738
1.33520e-05;-0.005608689063891827
1.33523e-05;-0.00561709141921133
1.33525e-05;-0.005625522934276262
1.33528e-05;-0.005633954449341137
1.33530e-05;-0.0056423859644060695
1.33533e-05;-0.005650817479471003
1.33535e-05;-0.005659248994535878
1.33538e-05;-0.00566768050960081
1.33540e-05;-0.005675590179804759
1.33543e-05;-0.00568228118504271
1.33545e-05;-0.005688972190280707
1.33548e-05;-0.005695663195518703
1.33550e-05;-0.005702354200756654
1.33553e-05;-0.00570904520599465
1.33555e-05;-0.005715736211232647
1.33557e-05;-0.005722427216470597
1.33560e-05;-0.005727921936465146
1.33563e-05;-0.005732447309173555
1.33565e-05;-0.0057320200968997365
1.33568e-05;-0.005731592884625921
1.33570e-05;-0.005731165672352103
1.33573e-05;-0.0057307384600782845
1.33575e-05;-0.005730311247804469
1.33578e-05;-0.005729884035530651
1.33580e-05;-0.005728010437166482
1.33583e-05;-0.005717692358382403
1.33585e-05;-0.005707374279598253
1.33588e-05;-0.005697056200814103
1.33590e-05;-0.005686738122030023
1.33593e-05;-0.005676420043245873
1.33595e-05;-0.005666101964461723
1.33598e-05;-0.0056539864616694906
1.33600e-05;-0.005635896607988069
1.33603e-05;-0.005617239083706583
1.33605e-05;-0.005596751909070786
1.33608e-05;-0.005574574109214106
1.33610e-05;-0.005550425690956472
1.33613e-05;-0.005526277272699002
1.33615e-05;-0.005502128854441369
1.33618e-05;-0.0054779804361837344
1.33620e-05;-0.005453832017926264
1.33623e-05;-0.005428762583438696
1.33625e-05;-0.005401307038718602
1.33628e-05;-0.005373851493998695
1.33630e-05;-0.005346395949278601
1.33633e-05;-0.0053189404045585085
1.33635e-05;-0.0052914848598386004
1.33638e-05;-0.0052642671989218065
1.33640e-05;-0.005237665832223065
1.33642e-05;-0.005211064465524502
1.33645e-05;-0.00518446309882576
1.33648e-05;-0.005157861732127018
1.33650e-05;-0.005134433496952829
1.33653e-05;-0.005111908115242187
1.33655e-05;-0.005089382733531393
1.33658e-05;-0.005066857351820599
1.33660e-05;-0.00504559300354894
1.33663e-05;-0.005027595660455783
1.33665e-05;-0.005009598317362626
1.33668e-05;-0.004991917475434953
1.33670e-05;-0.0049750566045835415
1.33673e-05;-0.004958195733732131
1.33675e-05;-0.004941334862880835
1.33678e-05;-0.004924473992029424
1.33680e-05;-0.004907613121178013
1.33683e-05;-0.004890752250326717
1.33685e-05;-0.004873891379475306
1.33688e-05;-0.004857030508623895
1.33690e-05;-0.004840067086495853
1.33693e-05;-0.004822837981046468
1.33695e-05;-0.004805608875597083
1.33698e-05;-0.004788379770147815
1.33700e-05;-0.004771150664698429
1.33703e-05;-0.004753921559249044
1.33705e-05;-0.004736692453799776
1.33708e-05;-0.004719463348350391
1.33710e-05;-0.004702234242901006
1.33713e-05;-0.0046848139831399205
1.33715e-05;-0.004666898492953043
1.33718e-05;-0.004648983002766166
1.33720e-05;-0.004631067512579411
1.33723e-05;-0.004613152022392535
1.33725e-05;-0.004595236532205658
1.33727e-05;-0.004577321042018903
1.33730e-05;-0.004559405551832026
1.33733e-05;-0.0045414900616451495
1.33735e-05;-0.0045242780931015495
1.33738e-05;-0.004508888763658279
1.33740e-05;-0.004493499434214903
1.33743e-05;-0.004478110104771529
1.33745e-05;-0.004462720775328257
1.33748e-05;-0.004447331445884882
1.33750e-05;-0.004431942116441507
1.33753e-05;-0.0044165527869982355
1.33755e-05;-0.004401163457554861
1.33758e-05;-0.0043877424674463854
1.33760e-05;-0.004379420925619255
1.33763e-05;-0.004371099383792069
1.33765e-05;-0.004362777841964883
1.33768e-05;-0.004354456300137754
1.33770e-05;-0.004346134758310567
1.33773e-05;-0.004337813216483381
1.33775e-05;-0.004329491674656251
1.33778e-05;-0.004323881891469961
1.33780e-05;-0.00432529755999104
1.33783e-05;-0.00432671322851211
1.33785e-05;-0.004328128897033188
1.33788e-05;-0.004329544565554267
1.33790e-05;-0.004330960234075336
1.33793e-05;-0.004332375902596415
1.33795e-05;-0.004333791571117494
1.33798e-05;-0.004337727028038694
1.33800e-05;-0.0043481905923849285
1.33803e-05;-0.004358654156731162
1.33805e-05;-0.004369117721077325
1.33808e-05;-0.004379581285423559
1.33810e-05;-0.004390044849769794
1.33812e-05;-0.004400508414115957
1.33815e-05;-0.00441097197846219
1.33818e-05;-0.0044214355428084245
1.33820e-05;-0.004433186797873173
1.33823e-05;-0.004448274120101556
1.33825e-05;-0.0044633614423300405
1.33828e-05;-0.004478448764558525
1.33830e-05;-0.004493536086786908
1.33833e-05;-0.0045086234090153925
1.33835e-05;-0.004523710731243877
1.33838e-05;-0.00453879805347226
1.33840e-05;-0.0045538853757007445
1.33843e-05;-0.004568789353480047
1.33845e-05;-0.004583218334128466
1.33848e-05;-0.004597647314776984
1.33850e-05;-0.0046120762954255014
1.33853e-05;-0.004624748633371606
1.33855e-05;-0.004636921152467912
1.33858e-05;-0.004649093671564218
1.33860e-05;-0.004660675507534002
1.33863e-05;-0.004670727039251183
1.33865e-05;-0.004681315787207452
1.33868e-05;-0.004693296320807224
1.33870e-05;-0.004705276854407078
1.33873e-05;-0.00471834491857564
1.33875e-05;-0.004734230487730749
1.33878e-05;-0.004750116056885965
1.33880e-05;-0.004766001626041181
1.33883e-05;-0.00478188719519629
1.33885e-05;-0.004799489132951095
1.33888e-05;-0.004821537729243829
1.33890e-05;-0.004843586325536414
1.33893e-05;-0.004865634921829148
1.33895e-05;-0.0048876835181218825
1.33897e-05;-0.004911705627988459
1.33900e-05;-0.004940840591228401
1.33903e-05;-0.0049699755544683425
1.33905e-05;-0.004999110517708285
1.33908e-05;-0.00502824548094803
1.33910e-05;-0.005057380444187972
1.33913e-05;-0.005086515407427914
1.33915e-05;-0.005117066316867511
1.33918e-05;-0.0051512855696114026
1.33920e-05;-0.005185504822355294
1.33923e-05;-0.005219724075098953
1.33925e-05;-0.0052539433278428445
1.33928e-05;-0.005288162580586736
1.33930e-05;-0.005322381833330395
1.33933e-05;-0.005356686683732572
1.33935e-05;-0.0053912132951004325
1.33938e-05;-0.00542573990646806
1.33940e-05;-0.005459680821370693
1.33943e-05;-0.005492104351144644
1.33945e-05;-0.005524527880918375
1.33948e-05;-0.005556246318431339
1.33950e-05;-0.005586138047786198
1.33953e-05;-0.00561544658790091
1.33955e-05;-0.005642770891609788
1.33958e-05;-0.0056683321161122464
1.33960e-05;-0.005691423305576745
