Time(s);Current(A)
1.22500e-05;0.013150303174151133
1.22503e-05;0.013148934020399093
1.22505e-05;0.013147564866647045
1.22508e-05;0.013146195712894996
1.22510e-05;0.013144826559142956
1.22513e-05;0.013143457405390907
1.22515e-05;0.01313457063549761
1.22518e-05;0.013122452704426232
1.22520e-05;0.013110334773354774
1.22523e-05;0.013098216842283314
1.22525e-05;0.013086098911211937
1.22528e-05;0.013073980980140478
1.22530e-05;0.013061863049069018
1.22532e-05;0.013049745117997641
1.22535e-05;0.013035384148626209
1.22538e-05;0.01301201686609086
1.22540e-05;0.012988649583555513
1.22543e-05;0.012965282301020321
1.22545e-05;0.012941915018484972
1.22548e-05;0.012918547735949625
1.22550e-05;0.012895180453414434
1.22553e-05;0.012871813170879086
1.22555e-05;0.012848445888343737
1.22558e-05;0.012825078605808546
1.22560e-05;0.012801711323273198
1.22563e-05;0.01277834404073785
1.22565e-05;0.01275497675820266
1.22568e-05;0.01273160947566731
1.22570e-05;0.012709207920266797
1.22573e-05;0.012690683980780862
1.22575e-05;0.012672160041294801
1.22578e-05;0.01265363610180874
1.22580e-05;0.012635112162322805
1.22583e-05;0.012616588222836744
1.22585e-05;0.012598064283350684
1.22588e-05;0.012579540343864748
1.22590e-05;0.012561016404378688
1.22593e-05;0.012542492464892627
1.22595e-05;0.012523968525406692
1.22598e-05;0.01250544458592063
1.22600e-05;0.01248692064643457
1.22603e-05;0.012468396706948635
1.22605e-05;0.01245399558814163
1.22608e-05;0.012456148539841979
1.22610e-05;0.012458301491542312
1.22613e-05;0.01246045444324266
1.22615e-05;0.01246260739494301
1.22617e-05;0.012464760346643344
1.22620e-05;0.012466913298343693
1.22623e-05;0.012469066250044042
1.22625e-05;0.01247121920174439
1.22628e-05;0.012473372153444726
1.22630e-05;0.012475525105145074
1.22633e-05;0.012477678056845423
1.22635e-05;0.012479831008545758
1.22638e-05;0.012481983960246107
1.22640e-05;0.012486908468043754
1.22643e-05;0.012502961409170144
1.22645e-05;0.012519014350296643
1.22648e-05;0.012535067291423141
1.22650e-05;0.01255112023254953
1.22653e-05;0.01256717317367603
1.22655e-05;0.012583226114802528
1.22658e-05;0.012599279055928917
1.22660e-05;0.012615331997055416
1.22663e-05;0.012631384938181913
1.22665e-05;0.012647437879308304
1.22668e-05;0.012663490820434801
1.22670e-05;0.0126795437615613
1.22673e-05;0.01269559670268769
1.22675e-05;0.012711249226874461
1.22678e-05;0.012725293985220806
1.22680e-05;0.012739338743567058
1.22683e-05;0.012753383501913403
1.22685e-05;0.012767428260259749
1.22688e-05;0.012781473018605998
1.22690e-05;0.012795517776952346
1.22693e-05;0.01280956253529869
1.22695e-05;0.01282360729364494
1.22698e-05;0.012837652051991286
1.22700e-05;0.012851696810337633
1.22702e-05;0.012865741568683883
1.22705e-05;0.012879786327030228
1.22708e-05;0.012893831085376575
1.22710e-05;0.01290787584372292
1.22713e-05;0.01292192060206917
1.22715e-05;0.012935965360415516
1.22718e-05;0.012950010118761863
1.22720e-05;0.012963336067612411
1.22723e-05;0.01297377583149285
1.22725e-05;0.012984215595373287
1.22728e-05;0.012994655359253655
1.22730e-05;0.013005095123134094
1.22733e-05;0.013015534887014532
1.22735e-05;0.0130259746508949
1.22738e-05;0.013036414414775339
1.22740e-05;0.013046854178655776
1.22743e-05;0.013057293942536144
1.22745e-05;0.013067733706416581
1.22748e-05;0.01307817347029702
1.22750e-05;0.013088613234177388
1.22753e-05;0.013099052998057826
1.22755e-05;0.013109492761938265
1.22758e-05;0.013119932525818633
1.22760e-05;0.01313037228969907
1.22763e-05;0.013140812053579509
1.22765e-05;0.013151144927109198
1.22768e-05;0.0131608343285915
1.22770e-05;0.013169663335585712
1.22773e-05;0.013178492342579864
1.22775e-05;0.013187321349574075
1.22778e-05;0.013196150356568287
1.22780e-05;0.01320497936356244
1.22783e-05;0.013213808370556652
1.22785e-05;0.013222637377550864
1.22787e-05;0.013231466384545016
1.22790e-05;0.013240295391539229
1.22793e-05;0.01324912439853344
1.22795e-05;0.013257953405527653
1.22798e-05;0.013266782412521804
1.22800e-05;0.013275611419516017
1.22803e-05;0.01328864092774154
1.22805e-05;0.013303475861552203
1.22808e-05;0.013318310795362968
1.22810e-05;0.013333145729173731
1.22813e-05;0.013347980662984395
1.22815e-05;0.013362815596795159
1.22818e-05;0.013377650530605922
1.22820e-05;0.013392485464416586
1.22823e-05;0.013407320398227349
1.22825e-05;0.013422155332038114
1.22828e-05;0.013436990265848776
1.22830e-05;0.013451825199659541
1.22833e-05;0.013466660133470304
1.22835e-05;0.013483312867335352
1.22838e-05;0.01350726448530056
1.22840e-05;0.013531216103265768
1.22843e-05;0.013555167721230813
1.22845e-05;0.01357911933919602
1.22848e-05;0.013603070957161227
1.22850e-05;0.013627022575126274
1.22853e-05;0.01365097419309148
1.22855e-05;0.013674925811056688
1.22858e-05;0.013700903637673989
1.22860e-05;0.013727808211324879
1.22863e-05;0.01375471278497577
1.22865e-05;0.013781617358626479
1.22868e-05;0.013808521932277369
1.22870e-05;0.01383542650592826
1.22872e-05;0.013862331079578969
1.22875e-05;0.013889235653229859
1.22878e-05;0.013915073136203653
1.22880e-05;0.013935022219494442
1.22883e-05;0.013951217209487823
1.22885e-05;0.013967412199481312
1.22888e-05;0.013983607189474802
1.22890e-05;0.013999802179468184
1.22893e-05;0.014015997169461673
1.22895e-05;0.014032192159455163
1.22898e-05;0.014048387149448543
1.22900e-05;0.014064582139442033
1.22903e-05;0.014080777129435524
1.22905e-05;0.014096972119428904
1.22908e-05;0.014101542448881645
1.22910e-05;0.014100462824274193
1.22913e-05;0.014099383199666748
1.22915e-05;0.014098303575059297
1.22918e-05;0.014097223950451843
1.22920e-05;0.014096144325844398
1.22923e-05;0.014095064701236946
1.22925e-05;0.014093985076629494
1.22928e-05;0.01409290545202205
1.22930e-05;0.014091825827414597
1.22933e-05;0.014087988470164566
1.22935e-05;0.01407096203085556
1.22938e-05;0.01405393559154644
1.22940e-05;0.01403690915223732
1.22943e-05;0.014019882712928316
1.22945e-05;0.014002856273619196
1.22948e-05;0.013985829834310076
1.22950e-05;0.01396880339500107
1.22953e-05;0.01395177695569195
1.22955e-05;0.01393475051638283
1.22957e-05;0.013917724077073826
1.22960e-05;0.013900697637764706
1.22963e-05;0.013883671198455586
1.22965e-05;0.01386664475914658
1.22968e-05;0.01384961831983746
1.22970e-05;0.01383259188052834
1.22973e-05;0.013815986181275691
1.22975e-05;0.013801392705777531
1.22978e-05;0.013786799230279272
1.22980e-05;0.013772205754781013
1.22983e-05;0.013757612279282853
1.22985e-05;0.013743018803784594
1.22988e-05;0.013728425328286335
1.22990e-05;0.013713831852788174
1.22993e-05;0.013699238377289915
1.22995e-05;0.013684644901791656
1.22998e-05;0.013670051426293496
1.23000e-05;0.013655457950795237
1.23003e-05;0.013640864475296978
1.23005e-05;0.013626270999798818
1.23008e-05;0.013611677524300559
1.23010e-05;0.0135970840488023
1.23013e-05;0.013585656240090312
1.23015e-05;0.013589368491872733
1.23018e-05;0.013593080743655154
1.23020e-05;0.01359679299543755
1.23023e-05;0.01360050524721997
1.23025e-05;0.013604217499002392
1.23028e-05;0.013607929750784786
1.23030e-05;0.013611642002567207
1.23033e-05;0.013615354254349628
1.23035e-05;0.013619066506132024
1.23038e-05;0.013622778757914445
1.23040e-05;0.013626491009696866
1.23042e-05;0.013630203261479262
1.23045e-05;0.013633915513261683
1.23048e-05;0.013639281079363637
1.23050e-05;0.01365255375651265
1.23053e-05;0.013665826433661757
1.23055e-05;0.01367909911081086
1.23058e-05;0.013692371787959965
1.23060e-05;0.013705644465108979
1.23063e-05;0.013718917142258083
1.23065e-05;0.013732189819407187
1.23068e-05;0.013745462496556202
1.23070e-05;0.013758735173705306
1.23073e-05;0.01377200785085441
1.23075e-05;0.013785280528003424
1.23078e-05;0.013798553205152529
1.23080e-05;0.013811825882301633
1.23083e-05;0.013824236455474016
1.23085e-05;0.013832523945819561
1.23088e-05;0.013840811436165106
1.23090e-05;0.013849098926510595
1.23093e-05;0.01385738641685614
1.23095e-05;0.013865673907201684
1.23098e-05;0.013873961397547171
1.23100e-05;0.013882248887892716
1.23103e-05;0.01388770017271992
1.23105e-05;0.01387958707252652
1.23108e-05;0.013871473972333065
1.23110e-05;0.01386336087213961
1.23113e-05;0.013855247771946211
1.23115e-05;0.013847134671752756
1.23118e-05;0.013839021571559302
1.23120e-05;0.013830908471365902
1.23123e-05;0.013818959701547099
1.23125e-05;0.013788666527813886
1.23127e-05;0.01375837335408088
1.23130e-05;0.013728080180347667
1.23133e-05;0.013697787006614457
1.23135e-05;0.01366749383288145
1.23138e-05;0.013637200659148238
1.23140e-05;0.013606907485415027
1.23143e-05;0.013576614311681815
1.23145e-05;0.013546321137948809
1.23148e-05;0.013516027964215596
1.23150e-05;0.013476758042571733
1.23153e-05;0.013433125136464353
1.23155e-05;0.013389492230356678
1.23158e-05;0.013345859324249002
1.23160e-05;0.013302226418141622
1.23163e-05;0.013258593512033947
1.23165e-05;0.01321496060592627
1.23168e-05;0.01317132769981889
1.23170e-05;0.013127694793711215
1.23173e-05;0.01308406188760354
1.23175e-05;0.01304119172281061
1.23178e-05;0.01300196943078167
1.23180e-05;0.012962747138752728
1.23183e-05;0.012923524846724054
1.23185e-05;0.012884302554695113
1.23188e-05;0.012845080262666172
1.23190e-05;0.012805857970637498
1.23193e-05;0.01277536016915315
1.23195e-05;0.012749102747045233
1.23198e-05;0.012722845324937494
1.23200e-05;0.012696587902829577
1.23203e-05;0.012670330480721661
1.23205e-05;0.012644073058613923
1.23208e-05;0.012620474177976366
1.23210e-05;0.01260958998951631
1.23212e-05;0.012598705801056327
1.23215e-05;0.012587821612596271
1.23218e-05;0.012576937424136216
1.23220e-05;0.012566053235676233
1.23223e-05;0.012555169047216177
1.23225e-05;0.01254428485875612
1.23228e-05;0.012533400670296064
1.23230e-05;0.012535085728021322
1.23233e-05;0.0125375515541037
1.23235e-05;0.012540017380186076
1.23238e-05;0.012542483206268438
1.23240e-05;0.012544949032350816
1.23243e-05;0.012547414858433192
1.23245e-05;0.012549880684515555
1.23248e-05;0.012552346510597933
1.23250e-05;0.012561036243234687
1.23253e-05;0.01257226692568918
1.23255e-05;0.01258349760814375
1.23258e-05;0.01259472829059832
1.23260e-05;0.012605958973052812
1.23263e-05;0.012617189655507382
1.23265e-05;0.012628420337961951
1.23268e-05;0.012639651020416445
1.23270e-05;0.012650881702871014
1.23273e-05;0.012662258776787724
1.23275e-05;0.012673773378997968
1.23278e-05;0.012685287981208292
1.23280e-05;0.012696802583418616
1.23283e-05;0.012708317185628861
1.23285e-05;0.012719831787839184
1.23288e-05;0.012731346390049508
1.23290e-05;0.012742860992259753
1.23293e-05;0.012754375594470076
1.23295e-05;0.012765205885456123
1.23297e-05;0.012774589468389443
1.23300e-05;0.012783973051322825
1.23303e-05;0.012793356634256209
1.23305e-05;0.012802740217189527
1.23308e-05;0.012812123800122909
1.23310e-05;0.012821507383056293
1.23313e-05;0.012830890965989675
1.23315e-05;0.012840274548922994
1.23318e-05;0.012849658131856376
1.23320e-05;0.012859041714789759
1.23323e-05;0.012870012683384207
1.23325e-05;0.012884339557212271
1.23328e-05;0.012898666431040337
1.23330e-05;0.012912993304868304
1.23333e-05;0.012927320178696368
1.23335e-05;0.012941647052524432
1.23338e-05;0.012955973926352398
1.23340e-05;0.012970300800180464
1.23343e-05;0.012984627674008528
1.23345e-05;0.012998954547836495
1.23348e-05;0.013013281421664559
1.23350e-05;0.013028485314572773
1.23353e-05;0.01304554332081536
1.23355e-05;0.013062601327058061
1.23358e-05;0.013079659333300764
1.23360e-05;0.013096717339543349
1.23363e-05;0.013113775345786052
1.23365e-05;0.013130833352028753
1.23368e-05;0.01314789135827134
1.23370e-05;0.013164949364514041
1.23373e-05;0.013182007370756744
1.23375e-05;0.013195860286001199
1.23378e-05;0.013209014972282754
1.23380e-05;0.01322216965856431
1.23382e-05;0.013235324344845775
1.23385e-05;0.013248479031127332
1.23388e-05;0.013261633717408888
1.23390e-05;0.013274788403690353
1.23393e-05;0.013287943089971908
1.23395e-05;0.013301097776253464
1.23398e-05;0.01331302667147214
1.23400e-05;0.013322364111605171
1.23403e-05;0.013331701551738266
1.23405e-05;0.01334103899187136
1.23408e-05;0.013350376432004393
1.23410e-05;0.013359713872137488
1.23413e-05;0.013369051312270583
1.23415e-05;0.013378388752403613
1.23418e-05;0.013387726192536708
1.23420e-05;0.013397063632669803
1.23423e-05;0.013406401072802835
1.23425e-05;0.01341573851293593
1.23428e-05;0.013425075953069025
1.23430e-05;0.013434413393202055
1.23433e-05;0.013444883195545699
1.23435e-05;0.013455599682957798
1.23438e-05;0.013466316170369825
1.23440e-05;0.013477032657781924
1.23443e-05;0.013487749145194024
1.23445e-05;0.01349846563260605
1.23448e-05;0.01350918212001815
1.23450e-05;0.01351989860743025
1.23453e-05;0.013530615094842277
1.23455e-05;0.013541331582254377
1.23458e-05;0.013552048069666476
1.23460e-05;0.013562764557078503
1.23463e-05;0.013573481044490602
1.23465e-05;0.013583386574555038
1.23467e-05;0.013591577652942445
1.23470e-05;0.013599768731329906
1.23473e-05;0.013607959809717369
1.23475e-05;0.013616150888104774
1.23478e-05;0.013624341966492237
1.23480e-05;0.013632533044879698
1.23483e-05;0.013640724123267159
1.23485e-05;0.013648915201654566
1.23488e-05;0.013657106280042026
1.23490e-05;0.013665297358429489
1.23493e-05;0.013673488436816894
1.23495e-05;0.013681679515204355
1.23498e-05;0.013689870593591818
1.23500e-05;0.013698061671979223
1.23503e-05;0.013700884367841091
1.23505e-05;0.01370253756175475
1.23508e-05;0.013704190755668396
1.23510e-05;0.013705843949582054
1.23513e-05;0.013707497143495711
1.23515e-05;0.013709150337409359
1.23518e-05;0.013710803531323016
1.23520e-05;0.013712456725236674
1.23523e-05;0.01371410991915032
1.23525e-05;0.013715763113063979
1.23528e-05;0.013717416306977636
1.23530e-05;0.013719069500891284
1.23533e-05;0.01372072269480494
1.23535e-05;0.013722375888718599
1.23538e-05;0.013722672821968138
1.23540e-05;0.013720102473261024
1.23543e-05;0.013717532124553912
1.23545e-05;0.013714961775846817
1.23548e-05;0.013712391427139705
1.23550e-05;0.013709821078432593
1.23552e-05;0.013707250729725498
1.23555e-05;0.013704680381018386
1.23558e-05;0.013702110032311273
1.23560e-05;0.013699539683604177
1.23563e-05;0.013696969334897065
1.23565e-05;0.013694398986189953
1.23568e-05;0.01369182863748284
1.23570e-05;0.013689258288775746
1.23573e-05;0.013686687940068634
1.23575e-05;0.013684117591361521
1.23578e-05;0.013681547242654427
1.23580e-05;0.013678976893947313
1.23583e-05;0.0136764065452402
1.23585e-05;0.013673836196533106
1.23588e-05;0.013671265847825994
1.23590e-05;0.013668695499118881
1.23593e-05;0.013666125150411787
1.23595e-05;0.013663554801704674
1.23598e-05;0.01366098445299756
1.23600e-05;0.013658414104290466
1.23603e-05;0.013655843755583354
1.23605e-05;0.013653273406876242
1.23608e-05;0.013647712948356223
1.23610e-05;0.01364150109451609
1.23613e-05;0.013635289240675955
1.23615e-05;0.013629077386835862
1.23618e-05;0.013622865532995729
1.23620e-05;0.013616653679155594
1.23623e-05;0.013610441825315501
1.23625e-05;0.013604229971475368
1.23628e-05;0.013598018117635233
1.23630e-05;0.01359180626379514
1.23633e-05;0.013585594409955007
1.23635e-05;0.013579382556114872
1.23637e-05;0.013573170702274779
1.23640e-05;0.013566958848434646
1.23643e-05;0.013560746994594511
1.23645e-05;0.013554535140754418
1.23648e-05;0.013548323286914283
1.23650e-05;0.01354211143307415
1.23653e-05;0.013535899579234015
1.23655e-05;0.013529687725393922
1.23658e-05;0.01352347587155379
1.23660e-05;0.013517264017713655
1.23663e-05;0.013511052163873561
1.23665e-05;0.013504840310033428
1.23668e-05;0.013498628456193294
1.23670e-05;0.0134924166023532
1.23673e-05;0.013486204748513067
1.23675e-05;0.01347976075203181
1.23678e-05;0.013472825980860874
1.23680e-05;0.013465891209689891
1.23683e-05;0.013458956438518908
1.23685e-05;0.013452021667347972
1.23688e-05;0.013445086896176989
1.23690e-05;0.013438152125006006
1.23693e-05;0.01343121735383507
1.23695e-05;0.013424282582664086
1.23698e-05;0.013417347811493103
1.23700e-05;0.013410413040322169
1.23703e-05;0.013403478269151186
1.23705e-05;0.013396543497980203
1.23708e-05;0.013387902994839511
1.23710e-05;0.01337565638954411
1.23713e-05;0.013363409784248707
1.23715e-05;0.01335116317895339
1.23718e-05;0.013338916573657988
1.23720e-05;0.013326669968362587
1.23723e-05;0.013314423363067268
1.23725e-05;0.013302176757771867
1.23728e-05;0.013289930152476466
1.23730e-05;0.013277683547181148
1.23733e-05;0.013265436941885747
1.23735e-05;0.013253190336590346
1.23738e-05;0.013240943731294943
1.23740e-05;0.013226680380478867
1.23743e-05;0.013208153411170664
1.23745e-05;0.013189626441862461
1.23748e-05;0.013171099472554383
1.23750e-05;0.01315257250324618
1.23753e-05;0.013134045533937978
1.23755e-05;0.0131155185646299
1.23758e-05;0.013096991595321697
1.23760e-05;0.013078464626013494
1.23763e-05;0.013059937656705416
1.23765e-05;0.013041410687397214
1.23768e-05;0.013023352272270701
1.23770e-05;0.01300628443143997
1.23773e-05;0.012989216590609124
1.23775e-05;0.012972148749778279
1.23778e-05;0.012955080908947548
1.23780e-05;0.012938013068116701
1.23783e-05;0.012920945227285855
1.23785e-05;0.012903877386455124
1.23788e-05;0.012886809545624277
1.23790e-05;0.012869741704793432
1.23793e-05;0.012852673863962702
1.23795e-05;0.01283628221814894
1.23798e-05;0.012821320121849496
1.23800e-05;0.012806358025550154
1.23803e-05;0.01279139592925071
1.23805e-05;0.012776433832951265
1.23808e-05;0.012761471736651923
1.23810e-05;0.012746509640352479
1.23813e-05;0.012731547544053036
1.23815e-05;0.012716585447753692
1.23818e-05;0.01270162335145425
1.23820e-05;0.012686661255154805
1.23823e-05;0.012667047944459504
1.23825e-05;0.012646421366866611
1.23828e-05;0.012625794789273581
1.23830e-05;0.01260516821168055
1.23833e-05;0.012584541634087657
1.23835e-05;0.012563915056494627
1.23838e-05;0.012543288478901595
1.23840e-05;0.012522661901308704
1.23843e-05;0.012502035323715672
1.23845e-05;0.01248140874612264
1.23848e-05;0.01245966505770671
1.23850e-05;0.012435559676000222
1.23853e-05;0.012411454294293736
1.23855e-05;0.012387348912587411
1.23858e-05;0.012363243530880925
1.23860e-05;0.01233913814917444
1.23863e-05;0.012315032767468115
1.23865e-05;0.01229092738576163
1.23868e-05;0.012266822004055142
1.23870e-05;0.012242716622348819
1.23873e-05;0.012218611240642333
1.23875e-05;0.012194505858935846
1.23878e-05;0.01217524053324303
1.23880e-05;0.012157029613588142
1.23883e-05;0.012138818693933254
1.23885e-05;0.01212060777427849
1.23888e-05;0.012102396854623602
1.23890e-05;0.012084185934968714
1.23893e-05;0.012065975015313951
1.23895e-05;0.012047764095659063
1.23898e-05;0.012029553176004175
1.23900e-05;0.012011342256349412
1.23903e-05;0.011993131336694524
1.23905e-05;0.011978483173552506
1.23908e-05;0.011971367063614268
1.23910e-05;0.01196425095367608
1.23913e-05;0.011957134843737841
1.23915e-05;0.011950018733799604
1.23918e-05;0.011942902623861416
1.23920e-05;0.011935786513923177
1.23923e-05;0.01192867040398494
1.23925e-05;0.011921554294046751
1.23928e-05;0.011914438184108513
1.23930e-05;0.011907322074170276
1.23933e-05;0.011900205964232087
1.23935e-05;0.011893089854293848
1.23938e-05;0.011885973744355611
1.23940e-05;0.011878857634417423
1.23943e-05;0.011871741524479184
1.23945e-05;0.011864625414540947
1.23948e-05;0.011857509304602758
1.23950e-05;0.011850393194664521
1.23953e-05;0.011848025046418647
1.23955e-05;0.011846691241466523
1.23958e-05;0.011845357436514393
1.23960e-05;0.011844023631562261
1.23963e-05;0.011842689826610138
1.23965e-05;0.011841356021658006
1.23968e-05;0.011840022216705874
1.23970e-05;0.011838688411753751
1.23973e-05;0.01183735460680162
1.23975e-05;0.011836020801849489
1.23978e-05;0.011834686996897366
1.23980e-05;0.011833353191945234
1.23983e-05;0.011832019386993102
1.23985e-05;0.01183068558204098
1.23988e-05;0.011829351777088848
1.23990e-05;0.011828017972136716
1.23993e-05;0.011826684167184584
1.23995e-05;0.011825350362232461
1.23998e-05;0.01182555546427131
1.24000e-05;0.011829013982392292
1.24003e-05;0.011832472500513249
1.24005e-05;0.01183593101863423
1.24008e-05;0.01183938953675521
1.24010e-05;0.01184284805487617
1.24013e-05;0.011846306572997149
1.24015e-05;0.01184976509111813
1.24018e-05;0.01185322360923909
1.24020e-05;0.011856682127360069
