Time(s);Current(A)
1.40000e-05;-0.003823567008622293
1.40003e-05;-0.003774226604386715
1.40005e-05;-0.0037277243677562855
1.40008e-05;-0.0036819398514962576
1.40010e-05;-0.003641566482333183
1.40013e-05;-0.0036027687480279205
1.40015e-05;-0.003563971013722658
1.40018e-05;-0.0035311878489982886
1.40020e-05;-0.003500156025591672
1.40023e-05;-0.003469124202185055
1.40025e-05;-0.0034466361054326755
1.40028e-05;-0.003426635797922361
1.40030e-05;-0.0034066354904120463
1.40033e-05;-0.0033866351829018675
1.40035e-05;-0.003366634875391553
1.40038e-05;-0.0033466345678812384
1.40040e-05;-0.003326634260371059
1.40043e-05;-0.0033104518434885063
1.40045e-05;-0.0033043609007182583
1.40048e-05;-0.003298269957948051
1.40050e-05;-0.003292179015177803
1.40053e-05;-0.0032860880724075547
1.40055e-05;-0.0032799971296373067
1.40058e-05;-0.0032739061868670995
1.40060e-05;-0.0032678152440968515
1.40063e-05;-0.003269076004100122
1.40065e-05;-0.0032724774560770717
1.40068e-05;-0.003275878908054044
1.40070e-05;-0.003279280360031017
1.40073e-05;-0.003282681812007967
1.40075e-05;-0.0032860832639849393
1.40078e-05;-0.0032894847159619122
1.40080e-05;-0.0032928861679388617
1.40083e-05;-0.0032997600866994017
1.40085e-05;-0.0033076451292773906
1.40088e-05;-0.0033155301718553257
1.40090e-05;-0.003323415214433314
1.40093e-05;-0.003331300257011303
1.40095e-05;-0.003339185299589238
1.40098e-05;-0.0033470703421672266
1.40100e-05;-0.0033549553847452155
1.40103e-05;-0.003361737967507173
1.40105e-05;-0.0033681995325468327
1.40108e-05;-0.003374661097586493
1.40110e-05;-0.003381122662626109
1.40113e-05;-0.0033875842276657685
1.40115e-05;-0.0033940457927054283
1.40118e-05;-0.003400507357745044
1.40120e-05;-0.003406968922784704
1.40123e-05;-0.003413430487824364
1.40125e-05;-0.003419907444640207
1.40128e-05;-0.003426425085102254
1.40130e-05;-0.0034329427255643014
1.40133e-05;-0.0034394603660263044
1.40135e-05;-0.0034459780064883512
1.40138e-05;-0.0034524956469503985
1.40140e-05;-0.0034590132874124458
1.40143e-05;-0.003465530927874449
1.40145e-05;-0.003472048568336496
1.40148e-05;-0.0034785662087985433
1.40150e-05;-0.0034868034946712234
1.40153e-05;-0.0034955415123122313
1.40155e-05;-0.003504279529953239
1.40158e-05;-0.0035130175475941877
1.40160e-05;-0.0035217555652351956
1.40163e-05;-0.0035304935828762035
1.40165e-05;-0.0035392316005171524
1.40168e-05;-0.0035479696181581603
1.40170e-05;-0.003556707635799168
1.40173e-05;-0.0035654456534401167
1.40175e-05;-0.003574677306617477
1.40178e-05;-0.0035840526981454875
1.40180e-05;-0.003593428089673434
1.40183e-05;-0.0036028034812014445
1.40185e-05;-0.003612178872729455
1.40188e-05;-0.003621554264257402
1.40190e-05;-0.0036309296557854123
1.40193e-05;-0.0036403050473134226
1.40195e-05;-0.0036496804388413693
1.40198e-05;-0.0036590558303693796
1.40200e-05;-0.003666853377544915
1.40203e-05;-0.00367419148303087
1.40205e-05;-0.0036815295885168748
1.40208e-05;-0.0036888676940028797
1.40210e-05;-0.0036962057994888347
1.40213e-05;-0.0037035439049748395
1.40215e-05;-0.0037088018194593635
1.40218e-05;-0.003708561359134619
1.40220e-05;-0.003708320898809873
1.40223e-05;-0.003708080438485127
1.40225e-05;-0.0037078399781603805
1.40228e-05;-0.003707599517835636
1.40230e-05;-0.00370735905751089
1.40233e-05;-0.0037001461677564217
1.40235e-05;-0.0036909030240340488
1.40238e-05;-0.003681659880311613
1.40240e-05;-0.0036653198436037
1.40243e-05;-0.0036469133112376575
1.40245e-05;-0.00362850677887149
1.40248e-05;-0.0036101002465053224
1.40250e-05;-0.00359169371413928
1.40253e-05;-0.003570509303135277
1.40255e-05;-0.003541982384680673
1.40258e-05;-0.003513455466226263
1.40260e-05;-0.003484928547771659
1.40263e-05;-0.003456401629317055
1.40265e-05;-0.003427874710862645
1.40268e-05;-0.0033946981841698545
1.40270e-05;-0.00336016776990148
1.40273e-05;-0.00332563735563334
1.40275e-05;-0.003289499718155774
1.40278e-05;-0.0032528940843605126
1.40280e-05;-0.0032153767350325026
1.40283e-05;-0.0031775939095029272
1.40285e-05;-0.003139457920430754
1.40288e-05;-0.003101219096085842
1.40290e-05;-0.003063148603712594
1.40293e-05;-0.0030254710036564636
1.40295e-05;-0.0029883955553331324
1.40298e-05;-0.002952086419403224
1.40300e-05;-0.002916688886999243
1.40303e-05;-0.002882393393719965
1.40305e-05;-0.0028494344263846456
1.40308e-05;-0.0028180554733396243
1.40310e-05;-0.0027884997147911966
1.40313e-05;-0.002761010766901971
1.40315e-05;-0.0027360967575823943
1.40318e-05;-0.002715043527297346
1.40320e-05;-0.002699444645338646
1.40323e-05;-0.002690077614506644
1.40325e-05;-0.002686949862103264
1.40328e-05;-0.0026899058758754675
1.40330e-05;-0.0026987869178314687
1.40333e-05;-0.00271343455811922
1.40335e-05;-0.002736337530478105
1.40338e-05;-0.0027612679880627496
1.40340e-05;-0.0027969529382079485
1.40343e-05;-0.0028357694153797624
1.40345e-05;-0.002885012466857481
1.40348e-05;-0.0029372915610915897
1.40350e-05;-0.0029965978614802744
1.40353e-05;-0.0030622114098144593
1.40355e-05;-0.0031331127022831817
1.40358e-05;-0.003209299640930417
1.40360e-05;-0.0032908916459168645
1.40363e-05;-0.0033776877500519896
1.40365e-05;-0.0034691842335236914
1.40368e-05;-0.0035648143478456892
1.40370e-05;-0.003664009369967258
1.40373e-05;-0.0037662011634120285
1.40375e-05;-0.003870886590372109
1.40378e-05;-0.003977753752358315
1.40380e-05;-0.004086565832367173
1.40383e-05;-0.004196886067702888
1.40385e-05;-0.004308088073002813
1.40388e-05;-0.0044195056513886884
1.40390e-05;-0.004530471975898605
1.40393e-05;-0.0046403202195683824
1.40395e-05;-0.004748424308541883
1.40398e-05;-0.004854278229670574
1.40400e-05;-0.004957422621276756
1.40403e-05;-0.0050572734206677655
1.40405e-05;-0.005153127824456798
1.40408e-05;-0.005244257958449107
1.40410e-05;-0.0053299348070967355
1.40413e-05;-0.0054094305874111
1.40415e-05;-0.005482233242701904
1.40418e-05;-0.005546382659681037
1.40420e-05;-0.005608458568907749
1.40423e-05;-0.005659735866429652
1.40425e-05;-0.005707868790171788
1.40428e-05;-0.005756001713913597
1.40430e-05;-0.0057872993967993365
1.40433e-05;-0.0058136949412091335
1.40435e-05;-0.005840090485618751
1.40438e-05;-0.005866486030028547
1.40440e-05;-0.005875147571285909
1.40443e-05;-0.005878645269630182
1.40445e-05;-0.005882142967974477
1.40448e-05;-0.005885640666318774
1.40450e-05;-0.005875183520971322
1.40453e-05;-0.005860662960269568
1.40455e-05;-0.005846142399567814
1.40458e-05;-0.0058211106627938675
1.40460e-05;-0.005793018248653166
1.40463e-05;-0.005764925834512465
1.40465e-05;-0.005728771277637734
1.40468e-05;-0.005690269160639696
1.40470e-05;-0.00565176704364166
1.40473e-05;-0.005606636716250974
1.40475e-05;-0.005559576365673937
1.40478e-05;-0.0055125160150969015
1.40480e-05;-0.0054618839371732356
1.40483e-05;-0.005410211832427483
1.40485e-05;-0.005357081091022904
1.40488e-05;-0.005303525619200285
1.40490e-05;-0.0052494142100782334
1.40493e-05;-0.005195140921381229
1.40495e-05;-0.005141329441125605
1.40498e-05;-0.0050876524317073615
1.40500e-05;-0.005035886129920468
1.40503e-05;-0.004984676194002018
1.40505e-05;-0.00493767062031854
1.40508e-05;-0.004891889286077309
1.40510e-05;-0.0048461079518360775
1.40513e-05;-0.0048048053720638785
1.40515e-05;-0.004767086218961346
1.40518e-05;-0.004730972044946669
1.40520e-05;-0.0046937461723369255
1.40523e-05;-0.004656116782201518
1.40525e-05;-0.0046162608177991015
1.40528e-05;-0.004575756512486345
1.40530e-05;-0.004535252207173314
1.40533e-05;-0.004494074333541414
1.40535e-05;-0.0044527003281644014
1.40538e-05;-0.004408630606923785
1.40540e-05;-0.004363775938644296
1.40543e-05;-0.004318921270365111
1.40545e-05;-0.004269205321400636
1.40548e-05;-0.004218073849409097
1.40550e-05;-0.004166942377417905
1.40553e-05;-0.004112726137353934
1.40555e-05;-0.004057611664802929
1.40558e-05;-0.004002497192252297
1.40560e-05;-0.003945900908544886
1.40563e-05;-0.00388538789164404
1.40565e-05;-0.003824874874743194
1.40568e-05;-0.003764361857842758
1.40570e-05;-0.0037017709605608614
1.40573e-05;-0.0036385750195224316
1.40575e-05;-0.003575076766164282
1.40578e-05;-0.0035114904845517667
1.40580e-05;-0.0034474624104045884
1.40583e-05;-0.0033830586505431137
1.40585e-05;-0.0033186375938873513
1.40588e-05;-0.0032545921922507563
1.40590e-05;-0.0031913169360532683
1.40593e-05;-0.003129205932264568
1.40595e-05;-0.0030685878532331107
1.40598e-05;-0.0030095891550560847
1.40600e-05;-0.002952227767568831
1.40603e-05;-0.00289668749981179
1.40605e-05;-0.0028433268589012984
1.40608e-05;-0.0027925414171970373
1.40610e-05;-0.002744727580271202
1.40613e-05;-0.002700281678386747
1.40615e-05;-0.0026597134127696927
1.40618e-05;-0.0026238376197873594
1.40620e-05;-0.0025935191567072434
1.40623e-05;-0.002569184483451538
1.40625e-05;-0.0025508901839061326
1.40628e-05;-0.0025386167210066893
1.40630e-05;-0.002532343500641953
1.40633e-05;-0.002532049312421522
1.40635e-05;-0.002537784144025595
1.40638e-05;-0.0025523462588200136
1.40640e-05;-0.0025690817762399447
1.40643e-05;-0.0025981887769480376
1.40645e-05;-0.0026308981451421804
1.40648e-05;-0.0026636075133363237
1.40650e-05;-0.002707495284543936
1.40653e-05;-0.002754638018363399
1.40655e-05;-0.002807876317058567
1.40658e-05;-0.002866827445774353
1.40660e-05;-0.002930784509046994
1.40663e-05;-0.002999477029612642
1.40665e-05;-0.003072489038256952
1.40668e-05;-0.0031493752646775644
1.40670e-05;-0.0032296895300531056
1.40673e-05;-0.0033129858586861574
1.40675e-05;-0.0033988459693865157
1.40678e-05;-0.003486926875220573
1.40680e-05;-0.003576897781160902
1.40683e-05;-0.0036683202501485946
1.40685e-05;-0.0037606647200709472
1.40688e-05;-0.003853382956973859
1.40690e-05;-0.003945927133154189
1.40693e-05;-0.004037748188351455
1.40695e-05;-0.004128315756535257
1.40698e-05;-0.00421714651183541
1.40700e-05;-0.004303763795325866
1.40703e-05;-0.0043876244564098835
1.40705e-05;-0.004468128213334636
1.40708e-05;-0.004544662570890095
1.40710e-05;-0.004616615800762502
1.40713e-05;-0.004683375768387241
1.40715e-05;-0.004744779134646384
1.40718e-05;-0.00480207396062925
1.40720e-05;-0.0048573154322248905
1.40723e-05;-0.004911491431104228
1.40725e-05;-0.004964426818744488
1.40728e-05;-0.005014841302642117
1.40730e-05;-0.005064609318384419
1.40733e-05;-0.005110438708599882
1.40735e-05;-0.005155121237423496
1.40738e-05;-0.005197410152326708
1.40740e-05;-0.005238648292511816
1.40743e-05;-0.00527978341364872
1.40745e-05;-0.0053199718364969305
1.40748e-05;-0.005359884596754651
1.40750e-05;-0.005399797357012372
1.40753e-05;-0.0054374037799157825
1.40755e-05;-0.0054743386362411705
1.40758e-05;-0.0055100074053241665
1.40760e-05;-0.005545307511134093
1.40763e-05;-0.005580510681044626
1.40765e-05;-0.005615457629334498
1.40768e-05;-0.005650404577624132
1.40770e-05;-0.0056835542417539315
1.40773e-05;-0.005716180567018505
1.40775e-05;-0.0057488068922828565
1.40778e-05;-0.00578143321754743
1.40780e-05;-0.00581225829153531
1.40783e-05;-0.005842558871500219
1.40785e-05;-0.005872859451465333
1.40788e-05;-0.005903160031430448
1.40790e-05;-0.005931340608307699
1.40793e-05;-0.005958903876005589
1.40795e-05;-0.00598646714370348
1.40798e-05;-0.006011650982928621
1.40800e-05;-0.006036141972673284
1.40803e-05;-0.006060632962417947
1.40805e-05;-0.006083663692593103
1.40808e-05;-0.006105329373789482
1.40810e-05;-0.006125641610647945
1.40813e-05;-0.006144420447882826
1.40815e-05;-0.006161235490595429
1.40818e-05;-0.0061749158013982165
1.40820e-05;-0.0061839853427777865
1.40823e-05;-0.006185674475057555
1.40825e-05;-0.006185539666114879
1.40828e-05;-0.006175561298747313
1.40830e-05;-0.006162716653018675
1.40833e-05;-0.006149872007289949
1.40835e-05;-0.0061250918704042956
1.40838e-05;-0.006096836319592799
1.40840e-05;-0.0060685807687811105
1.40843e-05;-0.006026595387936124
1.40845e-05;-0.005980612111916942
1.40848e-05;-0.005934628835897448
1.40850e-05;-0.005876867911877075
1.40853e-05;-0.0058156775351983865
1.40855e-05;-0.005754487158519284
1.40858e-05;-0.005682715159397577
1.40860e-05;-0.005607861970108515
1.40863e-05;-0.005533008780818945
1.40865e-05;-0.005449070533784175
1.40868e-05;-0.005362486871006623
1.40870e-05;-0.005275903208228484
1.40873e-05;-0.005184256963651404
1.40875e-05;-0.005091136580553313
1.40878e-05;-0.004995220642490093
1.40880e-05;-0.004898490685922806
1.40883e-05;-0.004800209586751232
1.40885e-05;-0.004701004373460503
1.40888e-05;-0.004601643559061783
1.40890e-05;-0.004502712073542916
1.40893e-05;-0.004404796485699927
1.40895e-05;-0.004308443962603452
1.40898e-05;-0.004214087590995913
1.40900e-05;-0.0041221133224964126
1.40903e-05;-0.004033023966713454
1.40905e-05;-0.003947433563958228
1.40908e-05;-0.00386597910916716
1.40910e-05;-0.0037914491189687295
1.40913e-05;-0.0037186543853997035
1.40915e-05;-0.003654420419047598
1.40918e-05;-0.0035926792038707177
1.40920e-05;-0.0035369099418196977
1.40923e-05;-0.0034828796118997122
1.40925e-05;-0.0034359615707607663
1.40928e-05;-0.0033911145082823036
1.40930e-05;-0.0033462674458041445
1.40933e-05;-0.0033115297986719646
1.40935e-05;-0.003279735842958454
1.40938e-05;-0.003247941887245159
1.40940e-05;-0.003224001079344784
1.40943e-05;-0.003202346975772614
1.40945e-05;-0.003180692872200591
1.40948e-05;-0.0031685321989549644
1.40950e-05;-0.0031591358526689996
1.40953e-05;-0.0031497395063830986
1.40955e-05;-0.0031403431600971338
1.40958e-05;-0.003130946813811169
1.40960e-05;-0.0031310703212529684
1.40963e-05;-0.0031339658497035847
1.40965e-05;-0.0031368613781542006
1.40968e-05;-0.003139756906604797
1.40970e-05;-0.0031426524350554133
1.40973e-05;-0.0031513077600426364
1.40975e-05;-0.0031616402407364233
1.40978e-05;-0.00317197272143028
1.40980e-05;-0.0031846167388048605
1.40983e-05;-0.003197933836714519
1.40985e-05;-0.0032125409988789343
1.40988e-05;-0.0032275238060184897
1.40990e-05;-0.003242506613158045
1.40993e-05;-0.003258492800267352
1.40995e-05;-0.0032747711547184122
1.40998e-05;-0.0032910495091694725
1.41000e-05;-0.003306973527975408
1.41003e-05;-0.0033227943702116886
1.41005e-05;-0.003337010075840127
1.41008e-05;-0.0033507583927325896
1.41010e-05;-0.0033645067096251453
1.41013e-05;-0.0033775118476357326
1.41015e-05;-0.003388552610234683
1.41018e-05;-0.0033995933728337086
1.41020e-05;-0.003410634135432734
1.41023e-05;-0.003421708077552642
1.41025e-05;-0.0034327916809901
1.41028e-05;-0.0034438752844275573
1.41030e-05;-0.00345495888786494
1.41033e-05;-0.003466042491302398
1.41035e-05;-0.003477126094739856
1.41038e-05;-0.003488209698177238
1.41040e-05;-0.0035002559198904016
1.41043e-05;-0.0035125824398267247
1.41045e-05;-0.0035249089597629646
1.41048e-05;-0.003537235479699288
1.41050e-05;-0.003549561999635611
1.41053e-05;-0.0035618885195718504
1.41055e-05;-0.0035742150395081736
1.41058e-05;-0.0035879908667345887
1.41060e-05;-0.003602188707825084
1.41063e-05;-0.003616386548915675
1.41065e-05;-0.0036305843900062665
1.41068e-05;-0.0036447822310967616
1.41070e-05;-0.003658980072187353
1.41073e-05;-0.0036731779132779443
1.41075e-05;-0.0036873757543685356
1.41078e-05;-0.0037015735954590307
1.41080e-05;-0.00371562474377358
1.41083e-05;-0.003729288152757275
1.41085e-05;-0.003742951561740877
1.41088e-05;-0.003756614970724572
1.41090e-05;-0.0037702783797082667
1.41093e-05;-0.003783941788691869
1.41095e-05;-0.003797605197675564
1.41098e-05;-0.003811268606659259
1.41100e-05;-0.003824932015642861
1.41103e-05;-0.003838595424626556
1.41105e-05;-0.003849260683387574
1.41108e-05;-0.0038590529313179064
1.41110e-05;-0.0038688451792483047
1.41113e-05;-0.003878637427178703
1.41115e-05;-0.0038884296751090348
1.41118e-05;-0.0038982219230394334
1.41120e-05;-0.003907376406844989
1.41123e-05;-0.003914845148232067
1.41125e-05;-0.003922313889619196
1.41128e-05;-0.003929782631006325
1.41130e-05;-0.0039372513723934036
1.41133e-05;-0.003944720113780532
1.41135e-05;-0.003952188855167661
1.41138e-05;-0.003959189116144763
1.41140e-05;-0.003966052963519679
1.41143e-05;-0.003972916810894595
1.41145e-05;-0.003979780658269465
1.41148e-05;-0.003986644505644381
1.41150e-05;-0.003993508353019297
1.41153e-05;-0.004000372200394166
1.41155e-05;-0.004007236047769082
1.41158e-05;-0.004014099895143998
1.41160e-05;-0.004020963742518868
1.41163e-05;-0.004027784874895864
1.41165e-05;-0.004034493102703431
1.41168e-05;-0.004041201330510998
1.41170e-05;-0.00404790955831852
1.41173e-05;-0.004054617786126087
1.41175e-05;-0.004061326013933654
1.41178e-05;-0.0040680342417411764
1.41180e-05;-0.004074742469548744
1.41183e-05;-0.004081450697356311
1.41185e-05;-0.004088158925163832
1.41188e-05;-0.0040948671529714
1.41190e-05;-0.004100559587111752
1.41193e-05;-0.004105956239250611
1.41195e-05;-0.004111352891389507
1.41198e-05;-0.004116749543528402
1.41200e-05;-0.004122146195667261
1.41203e-05;-0.0041275428478061565
1.41205e-05;-0.004132939499945052
1.41208e-05;-0.004138336152083911
1.41210e-05;-0.004143732804222806
1.41213e-05;-0.004147925536642583
1.41215e-05;-0.004151767707924133
1.41218e-05;-0.004156805423900809
1.41220e-05;-0.00416219126234981
1.41223e-05;-0.004167577100798775
1.41225e-05;-0.004176721097030477
1.41228e-05;-0.004186959405489998
1.41230e-05;-0.004197197713949449
1.41233e-05;-0.004207436022408969
1.41235e-05;-0.004217674330868489
1.41238e-05;-0.0042331037196392165
1.41240e-05;-0.004250044663535987
1.41243e-05;-0.004266985607432758
1.41245e-05;-0.004283926551329413
1.41248e-05;-0.004300867495226184
1.41250e-05;-0.004323071288180586
1.41253e-05;-0.00434680753411078
1.41255e-05;-0.004370543780040814
1.41258e-05;-0.004394280025971009
1.41260e-05;-0.004418016271901204
1.41263e-05;-0.004445967254673779
1.41265e-05;-0.004475145497804225
1.41268e-05;-0.004504323740934671
1.41270e-05;-0.004533501984064918
1.41273e-05;-0.004562680227195364
1.41275e-05;-0.004593519502060918
1.41278e-05;-0.004624842441382104
1.41280e-05;-0.004656761169492694
1.41283e-05;-0.004688853381260725
1.41285e-05;-0.004721105539958323
1.41288e-05;-0.004753404272507275
1.41290e-05;-0.004785239573703864
1.41293e-05;-0.004816939931498411
1.41295e-05;-0.004847627231963386
1.41298e-05;-0.0048780195472021
1.41300e-05;-0.004907073862193732
1.41303e-05;-0.004935738574056534
1.41305e-05;-0.004962525938133592
1.41308e-05;-0.0049887666501651365
1.41310e-05;-0.005009984189277911
1.41313e-05;-0.0050297390650679
1.41315e-05;-0.005049493940857756
1.41318e-05;-0.005069248816647744
1.41320e-05;-0.005089003692437734
1.41323e-05;-0.005106088880305628
1.41325e-05;-0.005116117531120464
1.41328e-05;-0.005126146181935301
1.41330e-05;-0.00513617483275007
1.41333e-05;-0.005146203483564906
1.41335e-05;-0.005156232134379743
1.41338e-05;-0.005157091353421018
1.41340e-05;-0.005155280588417571
1.41343e-05;-0.005153469823414111
1.41345e-05;-0.005151659058410652
1.41348e-05;-0.005149848293407204
1.41350e-05;-0.005148037528403745
1.41353e-05;-0.005146226763400285
1.41355e-05;-0.005144415998396838
1.41358e-05;-0.005139701532238632
1.41360e-05;-0.00512731198367746
1.41363e-05;-0.005114922435116371
1.41365e-05;-0.005102532886555199
1.41368e-05;-0.005090143337994027
1.41370e-05;-0.005077753789432939
1.41373e-05;-0.005065364240871767
1.41375e-05;-0.005052974692310595
1.41378e-05;-0.005040585143749506
1.41380e-05;-0.005024879753939327
1.41383e-05;-0.005008208847023066
1.41385e-05;-0.004991537940106918
1.41388e-05;-0.004974867033190658
1.41390e-05;-0.004958196126274397
1.41393e-05;-0.004941525219358249
1.41395e-05;-0.004925478892880637
1.41398e-05;-0.004909614433703778
1.41400e-05;-0.004893749974527028
1.41403e-05;-0.00487788551535017
1.41405e-05;-0.004862021056173311
1.41408e-05;-0.004846156596996561
1.41410e-05;-0.004832398376213534
1.41413e-05;-0.004819253456564768
1.41415e-05;-0.004807069120112104
1.41418e-05;-0.004795164489302082
1.41420e-05;-0.004781345424176744
1.41423e-05;-0.004766968908033263
1.41425e-05;-0.00475259239188988
1.41428e-05;-0.004735177224691893
1.41430e-05;-0.0047168772535021285
1.41433e-05;-0.004698577282312489
1.41435e-05;-0.004680277311122725
1.41438e-05;-0.004660336632802162
1.41440e-05;-0.004636059226368109
1.41443e-05;-0.0046117818199338904
1.41445e-05;-0.004587504413499673
1.41448e-05;-0.004563227007065619
1.41450e-05;-0.004534013545812935
1.41453e-05;-0.004503362788559765
1.41455e-05;-0.004472712031306802
