Time(s);Current(A)
4.75000e-06;-0.008234090412217865
4.75025e-06;-0.008212328197616825
4.75050e-06;-0.008185480426487214
4.75075e-06;-0.008155680587626384
4.75100e-06;-0.008125880748765555
4.75125e-06;-0.008093725812659365
4.75150e-06;-0.008060203787908655
4.75175e-06;-0.008025341479083343
4.75200e-06;-0.00798970116113667
4.75225e-06;-0.007953278593416912
4.75250e-06;-0.007916401944752313
4.75275e-06;-0.007879264251530791
4.75300e-06;-0.0078419726699043
4.75325e-06;-0.007804805822837126
4.75350e-06;-0.007767974988365911
4.75375e-06;-0.007731712732758082
4.75400e-06;-0.00769626944959804
4.75425e-06;-0.007661894428617815
4.75450e-06;-0.007628828235588689
4.75475e-06;-0.007597309241665135
4.75500e-06;-0.00756757456329166
4.75525e-06;-0.007539862058536915
4.75550e-06;-0.007514640719766554
4.75575e-06;-0.007492934732055762
4.75600e-06;-0.0074759169721576825
4.75625e-06;-0.007464173633406099
4.75650e-06;-0.0074577372865646035
4.75675e-06;-0.007456497740936713
4.75700e-06;-0.007460345518695398
4.75725e-06;-0.007469171065834044
4.75750e-06;-0.007484778420197068
4.75775e-06;-0.0075032698299160585
4.75800e-06;-0.007531042954833787
4.75825e-06;-0.007564203936866516
4.75850e-06;-0.007597364918899133
4.75875e-06;-0.007642783995493297
4.75900e-06;-0.007695318660164121
4.75925e-06;-0.0077478533248347674
4.75950e-06;-0.007800387989505413
4.75975e-06;-0.007855524382691173
4.76000e-06;-0.007927662352754567
4.76025e-06;-0.007999800322818206
4.76050e-06;-0.0080719382928816
4.76075e-06;-0.008144076262944994
4.76100e-06;-0.008223563223281643
4.76125e-06;-0.008307316131094238
4.76150e-06;-0.008391069038906834
4.76175e-06;-0.008478195294517323
4.76200e-06;-0.008567279713628733
4.76225e-06;-0.008656364132740143
4.76250e-06;-0.008746468766621909
4.76275e-06;-0.008837165615550837
4.76300e-06;-0.008927862464479765
4.76325e-06;-0.009017128871733424
4.76350e-06;-0.009105564935112474
4.76375e-06;-0.009191486897808167
4.76400e-06;-0.009275949473422905
4.76425e-06;-0.00935667610661791
4.76450e-06;-0.009435234097109568
4.76475e-06;-0.009508551750702485
4.76500e-06;-0.00957882748953782
4.76525e-06;-0.00964236262185344
4.76550e-06;-0.009701984961757748
4.76575e-06;-0.009751841603175621
4.76600e-06;-0.009796029444491835
4.76625e-06;-0.009840217285807898
4.76650e-06;-0.009872052160837804
4.76675e-06;-0.009896716376581429
4.76700e-06;-0.00992138059232497
4.76725e-06;-0.009933057006561472
4.76750e-06;-0.009937194251878787
4.76775e-06;-0.009941331497196088
4.76800e-06;-0.00992880506436969
4.76825e-06;-0.009906605686952051
4.76850e-06;-0.009884406309534487
4.76875e-06;-0.009862206932116847
4.76900e-06;-0.009840007554699283
4.76925e-06;-0.00979965856830692
4.76950e-06;-0.009748774083061996
4.76975e-06;-0.009697889597817245
4.77000e-06;-0.009647005112572495
4.77025e-06;-0.009596120627327571
4.77050e-06;-0.009533926057640784
4.77075e-06;-0.009465166201516065
4.77100e-06;-0.009396406345391113
4.77125e-06;-0.009322502988309462
4.77150e-06;-0.009245613927871783
4.77175e-06;-0.00916580328974982
4.77200e-06;-0.009084296731987197
4.77225e-06;-0.009001354134527928
4.77250e-06;-0.008917026391268219
4.77275e-06;-0.008832129812477017
4.77300e-06;-0.00874714191942637
4.77325e-06;-0.008662542495601888
4.77350e-06;-0.008578817748897289
4.77375e-06;-0.008496478426482502
4.77400e-06;-0.008416067966667466
4.77425e-06;-0.0083381426162371
4.77450e-06;-0.008263256359763944
4.77475e-06;-0.008191960882269894
4.77500e-06;-0.008124808115984226
4.77525e-06;-0.008062349156662749
4.77550e-06;-0.00800499240299431
4.77575e-06;-0.007952737954132465
4.77600e-06;-0.007905302469135867
4.77625e-06;-0.007862552942257588
4.77650e-06;-0.007824597970854944
4.77675e-06;-0.007791617005552048
4.77700e-06;-0.0077654962803934136
4.77725e-06;-0.0077422832980516875
4.77750e-06;-0.007725844952305488
4.77775e-06;-0.007713339152773551
4.77800e-06;-0.007708377324877694
4.77825e-06;-0.007707794627386843
4.77850e-06;-0.007707211929895992
4.77875e-06;-0.007717815178277483
4.77900e-06;-0.007734911653044215
4.77925e-06;-0.007752008127810946
4.77950e-06;-0.007769104602577735
4.77975e-06;-0.007786201077344466
4.78000e-06;-0.007814569137883448
4.78025e-06;-0.007849480137122057
4.78050e-06;-0.007884391136360549
4.78075e-06;-0.00791930213559904
4.78100e-06;-0.00795421313483765
4.78125e-06;-0.007995472447000615
4.78150e-06;-0.008040416832688127
4.78175e-06;-0.008085361218375789
4.78200e-06;-0.008132934316860678
4.78225e-06;-0.008182033332553714
4.78250e-06;-0.008231132348246583
4.78275e-06;-0.008281037086116461
4.78300e-06;-0.00833140953020986
4.78325e-06;-0.008381781974303087
4.78350e-06;-0.008431524493720137
4.78375e-06;-0.008480901353981269
4.78400e-06;-0.008528621789298597
4.78425e-06;-0.008575380701802316
4.78450e-06;-0.00861954566816535
4.78475e-06;-0.008662204898695612
4.78500e-06;-0.008700336999841185
4.78525e-06;-0.008735841189471655
4.78550e-06;-0.008771345379102005
4.78575e-06;-0.008799993269777878
4.78600e-06;-0.008824661210811801
4.78625e-06;-0.008849329151845641
4.78650e-06;-0.008866510869248822
4.78675e-06;-0.00887934697785389
4.78700e-06;-0.008892183086458956
4.78725e-06;-0.008897197875861847
4.78750e-06;-0.008897672539934042
4.78775e-06;-0.008898147204006238
4.78800e-06;-0.00888846100823592
4.78825e-06;-0.008872876628801334
4.78850e-06;-0.008857292249366749
4.78875e-06;-0.00884170786993211
4.78900e-06;-0.008826123490497524
4.78925e-06;-0.008799486614152965
4.78950e-06;-0.00876643397597975
4.78975e-06;-0.008733381337806647
4.79000e-06;-0.008700328699633544
4.79025e-06;-0.008667276061460328
4.79050e-06;-0.008627312911918823
4.79075e-06;-0.008583338343472196
4.79100e-06;-0.00853936377502572
4.79125e-06;-0.008492277787236062
4.79150e-06;-0.008443385680375021
4.79175e-06;-0.008392728429110393
4.79200e-06;-0.008341046545477257
4.79225e-06;-0.008288328438697886
4.79250e-06;-0.008235008824317288
4.79275e-06;-0.008181387211436632
4.79300e-06;-0.008127643328119298
4.79325e-06;-0.008074173596547073
4.79350e-06;-0.008021280012442103
4.79375e-06;-0.007969274094621455
4.79400e-06;-0.007918483099537441
4.79425e-06;-0.00786924692259062
4.79450e-06;-0.0078219104003416
4.79475e-06;-0.007783197230773278
4.79500e-06;-0.007749057690138511
4.79525e-06;-0.00771491814950386
4.79550e-06;-0.007680778608869209
4.79575e-06;-0.007646639068234442
4.79600e-06;-0.007612499527599791
4.79625e-06;-0.00757835998696514
4.79650e-06;-0.007544220446330373
4.79675e-06;-0.007510080905695722
4.79700e-06;-0.007477996465022488
4.79725e-06;-0.00745934153466612
4.79750e-06;-0.007440686604309815
4.79775e-06;-0.007422031673953509
4.79800e-06;-0.007403376743597141
4.79825e-06;-0.007384721813240836
4.79850e-06;-0.007366066882884531
4.79875e-06;-0.007347411952528163
4.79900e-06;-0.007328757022171858
4.79925e-06;-0.00731010209181549
4.79950e-06;-0.00729781467471975
4.79975e-06;-0.0072892234765728784
4.80000e-06;-0.007280632278425978
4.80025e-06;-0.007272041080279107
4.80050e-06;-0.007263449882132235
4.80075e-06;-0.007254858683985335
4.80100e-06;-0.007246267485838463
4.80125e-06;-0.007237676287691592
4.80150e-06;-0.007229085089544692
4.80175e-06;-0.00722049389139782
4.80200e-06;-0.007211924859981916
4.80225e-06;-0.007208267165640699
4.80250e-06;-0.007204609471299493
4.80275e-06;-0.007200951776958288
4.80300e-06;-0.00719729408261707
4.80325e-06;-0.007193636388275864
4.80350e-06;-0.007189978693934646
4.80375e-06;-0.007186320999593441
4.80400e-06;-0.0071826633052522355
4.80425e-06;-0.007179005610911018
4.80450e-06;-0.0071753479165698126
4.80475e-06;-0.007172302213447585
4.80500e-06;-0.007170014486888972
4.80525e-06;-0.00716735358252894
4.80550e-06;-0.007165150217895406
4.80575e-06;-0.007164665104350429
4.80600e-06;-0.007167552049610924
4.80625e-06;-0.007174535393609945
4.80650e-06;-0.007185532907529596
4.80675e-06;-0.007200991639437049
4.80700e-06;-0.007219816229807108
4.80725e-06;-0.007241193675491858
4.80750e-06;-0.0072668029508179905
4.80775e-06;-0.007296669992827371
4.80800e-06;-0.007333595070265726
4.80825e-06;-0.00737052014770408
4.80850e-06;-0.007413815799362614
4.80875e-06;-0.007467671855546191
4.80900e-06;-0.007521527911729767
4.80925e-06;-0.007575383967913527
4.80950e-06;-0.007629240024097103
4.80975e-06;-0.007689636541152345
4.81000e-06;-0.007760875081265558
4.81025e-06;-0.00783211362137853
4.81050e-06;-0.007903352161491503
4.81075e-06;-0.007974590701604717
4.81100e-06;-0.008049398052849658
4.81125e-06;-0.00813012136832703
4.81150e-06;-0.008210844683804674
4.81175e-06;-0.008292976245618115
4.81200e-06;-0.008377442236082293
4.81225e-06;-0.008461908226546187
4.81250e-06;-0.00854655328482969
4.81275e-06;-0.008631495181129498
4.81300e-06;-0.008716437077429019
4.81325e-06;-0.008799890479778569
4.81350e-06;-0.008880876428222256
4.81375e-06;-0.008961862376665668
4.81400e-06;-0.009040690750617189
4.81425e-06;-0.009115942545968949
4.81450e-06;-0.009187784226561272
4.81475e-06;-0.009253973011498336
4.81500e-06;-0.009320161796435624
4.81525e-06;-0.00938091219941203
4.81550e-06;-0.009432647478872777
4.81575e-06;-0.009484382758333701
4.81600e-06;-0.009527539035556544
4.81625e-06;-0.009556474030535205
4.81650e-06;-0.00958540902551377
4.81675e-06;-0.009614344020492334
4.81700e-06;-0.009643279015470995
4.81725e-06;-0.00967221401044956
4.81750e-06;-0.009701149005428124
4.81775e-06;-0.009718385570336703
4.81800e-06;-0.009716229824668632
4.81825e-06;-0.009714074079000563
4.81850e-06;-0.009711918333332485
4.81875e-06;-0.009709762587664414
4.81900e-06;-0.009707606841996343
4.81925e-06;-0.009705451096328265
4.81950e-06;-0.009694292719012903
4.81975e-06;-0.009668210815390195
4.82000e-06;-0.0096421289117674
4.82025e-06;-0.009616047008144692
4.82050e-06;-0.009589965104521897
4.82075e-06;-0.009563883200899188
4.82100e-06;-0.009537801297276481
4.82125e-06;-0.009499808281998883
4.82150e-06;-0.00946013336719869
4.82175e-06;-0.009420458452398497
4.82200e-06;-0.00938078353759817
4.82225e-06;-0.009341108622797975
4.82250e-06;-0.009301433707997782
4.82275e-06;-0.00926046710402693
4.82300e-06;-0.009217359286456561
4.82325e-06;-0.009174251468886193
4.82350e-06;-0.00913140810633437
4.82375e-06;-0.009089003126866979
4.82400e-06;-0.009047433563607045
4.82425e-06;-0.0090072488571574
4.82450e-06;-0.008968351091153327
4.82475e-06;-0.008931586666858969
4.82500e-06;-0.008896530220163403
4.82525e-06;-0.008864305062097845
4.82550e-06;-0.008834793079362052
4.82575e-06;-0.008809778686330455
4.82600e-06;-0.008784764293298858
4.82625e-06;-0.008763395151048367
4.82650e-06;-0.008748068685878779
4.82675e-06;-0.00873274222070919
4.82700e-06;-0.008723479549539701
4.82725e-06;-0.00872426873796139
4.82750e-06;-0.00872505792638308
4.82775e-06;-0.008725847114804772
4.82800e-06;-0.008726636303226462
4.82825e-06;-0.008727425491648151
4.82850e-06;-0.008728214680069844
4.82875e-06;-0.008746838269128284
4.82900e-06;-0.008767980151254498
4.82925e-06;-0.00878912203338064
4.82950e-06;-0.008810263915506782
4.82975e-06;-0.008831405797632997
4.83000e-06;-0.008852547679759138
4.83025e-06;-0.008879379409988978
4.83050e-06;-0.008915643115353396
4.83075e-06;-0.00895190682071769
4.83100e-06;-0.008988170526081987
4.83125e-06;-0.009024434231446405
4.83150e-06;-0.009060697936810701
4.83175e-06;-0.009096961642174996
4.83200e-06;-0.009135378066125044
4.83225e-06;-0.009177363019111285
4.83250e-06;-0.009219347972097525
4.83275e-06;-0.009261332925083908
4.83300e-06;-0.009303317878070148
4.83325e-06;-0.00934530283105653
4.83350e-06;-0.009387287784042771
4.83375e-06;-0.009428166908556275
4.83400e-06;-0.00946721291793802
4.83425e-06;-0.009506258927319633
4.83450e-06;-0.009543278655248122
4.83475e-06;-0.009576939447062564
4.83500e-06;-0.009610600238876891
4.83525e-06;-0.009641157188483756
4.83550e-06;-0.009666568945813941
4.83575e-06;-0.00969198070314404
4.83600e-06;-0.0097130741576528
4.83625e-06;-0.009727009226895959
4.83650e-06;-0.009740944296139073
4.83675e-06;-0.009747907810121293
4.83700e-06;-0.009743314682403704
4.83725e-06;-0.00973872155468613
4.83750e-06;-0.009734128426968539
4.83775e-06;-0.009729535299250965
4.83800e-06;-0.00972494217153339
4.83825e-06;-0.009711188784529244
4.83850e-06;-0.009682250574270362
4.83875e-06;-0.009653312364011481
4.83900e-06;-0.009624374153752502
4.83925e-06;-0.009595435943493621
4.83950e-06;-0.009566497733234739
4.83975e-06;-0.009530408400802928
4.84000e-06;-0.009482464761318594
4.84025e-06;-0.009434521121834261
4.84050e-06;-0.009386577482349764
4.84075e-06;-0.009338633842865431
4.84100e-06;-0.009290690203381097
4.84125e-06;-0.009233148929182835
4.84150e-06;-0.009174252428226925
4.84175e-06;-0.009115355927270814
4.84200e-06;-0.009056459426314905
4.84225e-06;-0.008997562925358995
4.84250e-06;-0.008937576996940954
4.84275e-06;-0.00887578514109908
4.84300e-06;-0.008814219310195937
4.84325e-06;-0.008753028157414482
4.84350e-06;-0.00869257149807756
4.84375e-06;-0.008633332397412706
4.84400e-06;-0.008574953067580509
4.84425e-06;-0.008518760793545212
4.84450e-06;-0.008465269887898298
4.84475e-06;-0.0084141635616161
4.84500e-06;-0.008365468343227099
4.84525e-06;-0.008320769981919716
4.84550e-06;-0.008278883440935384
4.84575e-06;-0.008241658011966716
4.84600e-06;-0.00820720795898994
4.84625e-06;-0.008177358604812227
4.84650e-06;-0.008151135169567858
4.84675e-06;-0.008130922365290052
4.84700e-06;-0.008110709561012314
4.84725e-06;-0.008095094466095807
4.84750e-06;-0.008087100924437856
4.84775e-06;-0.008079107382779931
4.84800e-06;-0.008076423850264408
4.84825e-06;-0.008082542639579656
4.84850e-06;-0.008088661428894882
4.84875e-06;-0.008094780218210107
4.84900e-06;-0.008100899007525354
4.84925e-06;-0.008120237689722254
4.84950e-06;-0.008141443076903952
4.84975e-06;-0.008162648464085721
4.85000e-06;-0.008183853851267419
4.85025e-06;-0.008207957575122944
4.85050e-06;-0.008239687999215043
4.85075e-06;-0.008276096694105882
4.85100e-06;-0.008312505388996845
4.85125e-06;-0.008348914083887682
4.85150e-06;-0.008385322778778521
4.85175e-06;-0.008421731473669484
4.85200e-06;-0.008458140168560321
4.85225e-06;-0.008499512810131598
4.85250e-06;-0.008541586382042955
4.85275e-06;-0.00858365995395417
4.85300e-06;-0.008625733525865383
4.85325e-06;-0.00866780709777674
4.85350e-06;-0.008709880669687954
4.85375e-06;-0.008750958159443075
4.85400e-06;-0.008790384458876123
4.85425e-06;-0.008829810758309036
4.85450e-06;-0.00886763204705932
4.85475e-06;-0.008902792733880066
4.85500e-06;-0.008936149251092672
4.85525e-06;-0.008966515023638114
4.85550e-06;-0.008993655706488643
4.85575e-06;-0.009015450206938936
4.85600e-06;-0.009037244707389303
4.85625e-06;-0.009054177510694041
4.85650e-06;-0.009063051152184977
4.85675e-06;-0.009071924793675945
4.85700e-06;-0.009075862447653809
4.85725e-06;-0.009071617789799568
4.85750e-06;-0.009067373131945316
4.85775e-06;-0.009056226501802994
4.85800e-06;-0.009033638576607298
4.85825e-06;-0.009011050651411529
4.85850e-06;-0.008988462726215835
4.85875e-06;-0.008965874801020065
4.85900e-06;-0.008935615344103772
4.85925e-06;-0.008892638905104597
4.85950e-06;-0.008849662466105275
4.85975e-06;-0.0088066860271061
4.86000e-06;-0.008763709588106922
4.86025e-06;-0.008715042709427415
4.86050e-06;-0.008656942874972052
4.86075e-06;-0.00859884304051669
4.86100e-06;-0.008540743206061132
4.86125e-06;-0.008482643371605769
4.86150e-06;-0.00841721053714071
4.86175e-06;-0.008350742251950725
4.86200e-06;-0.008284273966760965
4.86225e-06;-0.008217805681571206
4.86250e-06;-0.008150463705838332
4.86275e-06;-0.008081665717131752
4.86300e-06;-0.008012994768784469
4.86325e-06;-0.007944842947600866
4.86350e-06;-0.007877591126744247
4.86375e-06;-0.007811590727481802
4.86400e-06;-0.00774719093247747
4.86425e-06;-0.007684785812533596
4.86450e-06;-0.007624806473651742
4.86475e-06;-0.0075676937218582645
4.86500e-06;-0.007513887722304487
4.86525e-06;-0.007463831037868693
4.86550e-06;-0.007418017950954259
4.86575e-06;-0.007377049028575284
4.86600e-06;-0.0073414734758246595
4.86625e-06;-0.007311568638511753
4.86650e-06;-0.007287408006138503
4.86675e-06;-0.007269023594098659
4.86700e-06;-0.007257551403374009
4.86725e-06;-0.007251544139937075
4.86750e-06;-0.0072500462492424535
4.86775e-06;-0.007256023477526336
4.86800e-06;-0.007267680706682022
4.86825e-06;-0.007288753587357417
4.86850e-06;-0.007309826468032812
4.86875e-06;-0.0073390051870577434
4.86900e-06;-0.007381620831691514
4.86925e-06;-0.007424236476325284
4.86950e-06;-0.007466852120959198
4.86975e-06;-0.007509467765592968
4.87000e-06;-0.007560282508685396
4.87025e-06;-0.007624688773258949
4.87050e-06;-0.007689095037832285
4.87075e-06;-0.007753501302405621
4.87100e-06;-0.007817907566979174
4.87125e-06;-0.007886674641081344
4.87150e-06;-0.007962670563170226
4.87175e-06;-0.008038666485258849
4.87200e-06;-0.008116355667044162
4.87225e-06;-0.008196851739813599
4.87250e-06;-0.008277347812582764
4.87275e-06;-0.008357963847942197
4.87300e-06;-0.008438778743473012
4.87325e-06;-0.008519593639003554
4.87350e-06;-0.008599314562149324
4.87375e-06;-0.00867722202382261
4.87400e-06;-0.008753416251501975
4.87425e-06;-0.008826770477107702
4.87450e-06;-0.008891353074490675
4.87475e-06;-0.008941395076464697
4.87500e-06;-0.00899143707843872
4.87525e-06;-0.009041479080412914
4.87550e-06;-0.009091521082386936
4.87575e-06;-0.00914156308436113
4.87600e-06;-0.009191605086335153
4.87625e-06;-0.009241647088309175
4.87650e-06;-0.009291689090283368
4.87675e-06;-0.009341731092257392
4.87700e-06;-0.009391773094231413
4.87725e-06;-0.009414273695877069
4.87750e-06;-0.00943288533490557
4.87775e-06;-0.00945149697393407
4.87800e-06;-0.009470108612962635
4.87825e-06;-0.009488720251991135
4.87850e-06;-0.009507331891019636
4.87875e-06;-0.0095259435300482
4.87900e-06;-0.0095445551690767
4.87925e-06;-0.009563166808105202
4.87950e-06;-0.009581778447133765
4.87975e-06;-0.009593037075224648
4.88000e-06;-0.009592106728321299
4.88025e-06;-0.009591176381417951
4.88050e-06;-0.009590246034514605
4.88075e-06;-0.009589315687611255
4.88100e-06;-0.009588385340707908
4.88125e-06;-0.009587454993804562
4.88150e-06;-0.009586524646901212
4.88175e-06;-0.009585594299997864
4.88200e-06;-0.009584663953094518
4.88225e-06;-0.009583733606191169
4.88250e-06;-0.009576323135534961
4.88275e-06;-0.009567997643902227
4.88300e-06;-0.009559672152269463
4.88325e-06;-0.009551346660636726
4.88350e-06;-0.009543021169003992
4.88375e-06;-0.009534695677371228
4.88400e-06;-0.009526370185738493
4.88425e-06;-0.00951804469410573
4.88450e-06;-0.009509719202472995
4.88475e-06;-0.009501393710840259
4.88500e-06;-0.009493431060571133
4.88525e-06;-0.009486069886941373
4.88550e-06;-0.009478708713311612
4.88575e-06;-0.00947002409649978
4.88600e-06;-0.009459145627946555
4.88625e-06;-0.00944826715939333
4.88650e-06;-0.009433764492587659
4.88675e-06;-0.009413254047167094
4.88700e-06;-0.00939274360174653
4.88725e-06;-0.009372233156325897
4.88750e-06;-0.009351722710905333
4.88775e-06;-0.00933121226548477
4.88800e-06;-0.009310701820064136
4.88825e-06;-0.009277445844853452
4.88850e-06;-0.009242390146742835
4.88875e-06;-0.009207334448632337
4.88900e-06;-0.009172278750521838
4.88925e-06;-0.009137223052411221
4.88950e-06;-0.009102167354300724
4.88975e-06;-0.009062537694944712
4.89000e-06;-0.009015325849228711
4.89025e-06;-0.00896811400351287
4.89050e-06;-0.00892090215779703
4.89075e-06;-0.00887369031208103
4.89100e-06;-0.008826478466365188
4.89125e-06;-0.008776995975281525
4.89150e-06;-0.008723749469722854
4.89175e-06;-0.008670502964164363
4.89200e-06;-0.008617256458605872
4.89225e-06;-0.008564009953047201
4.89250e-06;-0.00851076344748871
4.89275e-06;-0.008457395519230316
4.89300e-06;-0.008403826310399721
4.89325e-06;-0.008350917304646408
4.89350e-06;-0.008299102707546214
4.89375e-06;-0.00824823321007435
4.89400e-06;-0.008198930389958068
4.89425e-06;-0.008150928877764937
4.89450e-06;-0.00810508452402949
4.89475e-06;-0.008064225178549876
4.89500e-06;-0.008031629405839654
4.89525e-06;-0.007999033633129543
4.89550e-06;-0.007966437860419432
4.89575e-06;-0.00793384208770921
4.89600e-06;-0.007901246314999099
4.89625e-06;-0.007868650542288986
4.89650e-06;-0.007836054769578766
4.89675e-06;-0.007803458996868654
4.89700e-06;-0.007777349828414579
4.89725e-06;-0.007761993405702173
