Time(s);Current(A)
1.75000e-06;0.011776618819214
1.75025e-06;0.011775590564585818
1.75050e-06;0.011774562309957637
1.75075e-06;0.011773534055329455
1.75100e-06;0.011772505800701273
1.75125e-06;0.01177147754607309
1.75150e-06;0.011770449291444909
1.75175e-06;0.011769421036816727
1.75200e-06;0.011768392782188546
1.75225e-06;0.011767364527560364
1.75250e-06;0.011766336272932183
1.75275e-06;0.011765308018304001
1.75300e-06;0.011757905865451869
1.75325e-06;0.011736105673585842
1.75350e-06;0.011714305481719816
1.75375e-06;0.011692505289853772
1.75400e-06;0.011670705097987745
1.75425e-06;0.0116489049061217
1.75450e-06;0.011627104714255675
1.75475e-06;0.011605304522389647
1.75500e-06;0.011583504330523603
1.75525e-06;0.011561704138657578
1.75550e-06;0.011539903946791531
1.75575e-06;0.011518103754925506
1.75600e-06;0.011496303563059461
1.75625e-06;0.011474503371193434
1.75650e-06;0.011449432360472904
1.75675e-06;0.011423578362893554
1.75700e-06;0.011397724365314225
1.75725e-06;0.011371870367734875
1.75750e-06;0.011346016370155547
1.75775e-06;0.01132016237257622
1.75800e-06;0.01129430837499687
1.75825e-06;0.01126845437741754
1.75850e-06;0.01124260037983819
1.75875e-06;0.011216746382258863
1.75900e-06;0.011190892384679534
1.75925e-06;0.011165038387100184
1.75950e-06;0.011139184389520856
1.75975e-06;0.01111539909397572
1.76000e-06;0.01109628680254032
1.76025e-06;0.011077174511104902
1.76050e-06;0.011058062219669502
1.76075e-06;0.0110389499282341
1.76100e-06;0.011019837636798684
1.76125e-06;0.011000725345363283
1.76150e-06;0.010981613053927867
1.76175e-06;0.010962500762492465
1.76200e-06;0.010943388471057065
1.76225e-06;0.010924276179621648
1.76250e-06;0.010905163888186247
1.76275e-06;0.010885227604541274
1.76300e-06;0.010863429999682398
1.76325e-06;0.010841632394823523
1.76350e-06;0.010819834789964629
1.76375e-06;0.010798037185105754
1.76400e-06;0.010776239580246861
1.76425e-06;0.010754441975387986
1.76450e-06;0.01073264437052911
1.76475e-06;0.010710846765670216
1.76500e-06;0.01068904916081134
1.76525e-06;0.010667251555952446
1.76550e-06;0.010645453951093571
1.76575e-06;0.010623858982997628
1.76600e-06;0.010602721752367195
1.76625e-06;0.010581584521736763
1.76650e-06;0.010560447291106313
1.76675e-06;0.010539310060475883
1.76700e-06;0.010518172829845433
1.76725e-06;0.010497035599215
1.76750e-06;0.010475898368584568
1.76775e-06;0.010454761137954119
1.76800e-06;0.010433623907323686
1.76825e-06;0.010412486676693236
1.76850e-06;0.010391349446062806
1.76875e-06;0.010370212215432374
1.76900e-06;0.010349074984801924
1.76925e-06;0.010331206111445924
1.76950e-06;0.010320720151009197
1.76975e-06;0.010310234190572478
1.77000e-06;0.01029974823013575
1.77025e-06;0.010289262269699033
1.77050e-06;0.010278776309262314
1.77075e-06;0.010268290348825586
1.77100e-06;0.010257804388388867
1.77125e-06;0.010247318427952139
1.77150e-06;0.01023683246751542
1.77175e-06;0.010226346507078701
1.77200e-06;0.010215860546641973
1.77225e-06;0.010205374586205254
1.77250e-06;0.010194888625768526
1.77275e-06;0.01018786965887449
1.77300e-06;0.010188682305622246
1.77325e-06;0.010189494952370004
1.77350e-06;0.01019030759911776
1.77375e-06;0.010191120245865519
1.77400e-06;0.010191932892613274
1.77425e-06;0.010192745539361033
1.77450e-06;0.010193558186108788
1.77475e-06;0.010194370832856545
1.77500e-06;0.010195183479604302
1.77525e-06;0.01019599612635206
1.77550e-06;0.010196808773099817
1.77575e-06;0.010197621419847574
1.77600e-06;0.010198434066595331
1.77625e-06;0.010199246713343088
1.77650e-06;0.010200059360090845
1.77675e-06;0.010200872006838602
1.77700e-06;0.01020168465358636
1.77725e-06;0.010202497300334115
1.77750e-06;0.010204045954695932
1.77775e-06;0.010205920766066773
1.77800e-06;0.010207795577437615
1.77825e-06;0.010209670388808456
1.77850e-06;0.010211545200179297
1.77875e-06;0.010213420011550138
1.77900e-06;0.01021529482292098
1.77925e-06;0.01021716963429182
1.77950e-06;0.010219044445662661
1.77975e-06;0.010220919257033504
1.78000e-06;0.010222794068404345
1.78025e-06;0.010224668879775184
1.78050e-06;0.010226543691146027
1.78075e-06;0.010228418502516868
1.78100e-06;0.010230293313887709
1.78125e-06;0.01023216812525855
1.78150e-06;0.01023404293662939
1.78175e-06;0.010235917748000234
1.78200e-06;0.010237572018113523
1.78225e-06;0.010236522856865876
1.78250e-06;0.010233926442415435
1.78275e-06;0.010231330027964988
1.78300e-06;0.010228733613514545
1.78325e-06;0.010226137199064102
1.78350e-06;0.010223540784613657
1.78375e-06;0.010220944370163213
1.78400e-06;0.010218347955712768
1.78425e-06;0.010215751541262325
1.78450e-06;0.010213155126811882
1.78475e-06;0.010210558712361437
1.78500e-06;0.010207962297910994
1.78525e-06;0.010205365883460547
1.78550e-06;0.010202769469010104
1.78575e-06;0.01020017305455966
1.78600e-06;0.010197576640109215
1.78625e-06;0.010194980225658772
1.78650e-06;0.010191958851834763
1.78675e-06;0.01018862849875173
1.78700e-06;0.010185298145668696
1.78725e-06;0.010181967792585664
1.78750e-06;0.010178637439502631
1.78775e-06;0.010175307086419595
1.78800e-06;0.010171976733336563
1.78825e-06;0.010168646380253528
1.78850e-06;0.010165316027170496
1.78875e-06;0.010161985674087463
1.78900e-06;0.010158655321004427
1.78925e-06;0.010155324967921396
1.78950e-06;0.01015199461483836
1.78975e-06;0.010148664261755327
1.79000e-06;0.010145333908672295
1.79025e-06;0.01014200355558926
1.79050e-06;0.010139438795051987
1.79075e-06;0.01014579799863755
1.79100e-06;0.010152157202223105
1.79125e-06;0.010158516405808667
1.79150e-06;0.010164875609394225
1.79175e-06;0.01017123481297978
1.79200e-06;0.010177594016565343
1.79225e-06;0.010183953220150898
1.79250e-06;0.01019031242373646
1.79275e-06;0.010196671627322018
1.79300e-06;0.010203030830907574
1.79325e-06;0.010209390034493136
1.79350e-06;0.010215749238078694
1.79375e-06;0.010222108441664254
1.79400e-06;0.010229272205927818
1.79425e-06;0.010245814157929014
1.79450e-06;0.010262356109930225
1.79475e-06;0.010278898061931423
1.79500e-06;0.010295440013932634
1.79525e-06;0.01031198196593383
1.79550e-06;0.010328523917935041
1.79575e-06;0.010345065869936238
1.79600e-06;0.010361607821937435
1.79625e-06;0.010378149773938647
1.79650e-06;0.010394691725939844
1.79675e-06;0.010411233677941055
1.79700e-06;0.010427775629942251
1.79725e-06;0.010444317581943448
1.79750e-06;0.010460619338956662
1.79775e-06;0.010474121314980683
1.79800e-06;0.010487623291004715
1.79825e-06;0.010501125267028736
1.79850e-06;0.010514627243052757
1.79875e-06;0.010528129219076789
1.79900e-06;0.01054163119510081
1.79925e-06;0.010555133171124841
1.79950e-06;0.010568635147148862
1.79975e-06;0.010582137123172896
1.80000e-06;0.010595639099196915
1.80025e-06;0.010607807279374848
1.80050e-06;0.010604428356408452
1.80075e-06;0.010601049433442058
1.80100e-06;0.010597670510475662
1.80125e-06;0.01059429158750927
1.80150e-06;0.010590912664542875
1.80175e-06;0.010587533741576479
1.80200e-06;0.010584154818610084
1.80225e-06;0.010580775895643688
1.80250e-06;0.010577396972677296
1.80275e-06;0.010574018049710901
1.80300e-06;0.010569043673726335
1.80325e-06;0.010545472244297104
1.80350e-06;0.010521900814867851
1.80375e-06;0.010498329385438621
1.80400e-06;0.01047475795600939
1.80425e-06;0.010451186526580137
1.80450e-06;0.010427615097150905
1.80475e-06;0.010404043667721654
1.80500e-06;0.010380472238292422
1.80525e-06;0.010356900808863171
1.80550e-06;0.01033332937943394
1.80575e-06;0.010309757950004708
1.80600e-06;0.010286186520575455
1.80625e-06;0.010262615091146223
1.80650e-06;0.010236919427699531
1.80675e-06;0.01020967927719489
1.80700e-06;0.010182439126690248
1.80725e-06;0.010155198976185584
1.80750e-06;0.010127958825680943
1.80775e-06;0.01010071867517628
1.80800e-06;0.010073478524671638
1.80825e-06;0.010046238374166997
1.80850e-06;0.010018998223662331
1.80875e-06;0.009991758073157692
1.80900e-06;0.009964517922653026
1.80925e-06;0.009937277772148385
1.80950e-06;0.009910037621643721
1.80975e-06;0.009884422981100795
1.81000e-06;0.009877755746269408
1.81025e-06;0.009871088511438017
1.81050e-06;0.00986442127660663
1.81075e-06;0.009857754041775238
1.81100e-06;0.009851086806943852
1.81125e-06;0.009844419572112467
1.81150e-06;0.009837752337281075
1.81175e-06;0.009831085102449687
1.81200e-06;0.009826519224138432
1.81225e-06;0.009846447354149196
1.81250e-06;0.00986637548415996
1.81275e-06;0.009886303614170741
1.81300e-06;0.009906231744181504
1.81325e-06;0.009926159874192285
1.81350e-06;0.009946088004203048
1.81375e-06;0.009966016134213829
1.81400e-06;0.009985944264224594
1.81425e-06;0.010007516485140807
1.81450e-06;0.010048252696523664
1.81475e-06;0.010088988907906488
1.81500e-06;0.010129725119289345
1.81525e-06;0.010170461330672167
1.81550e-06;0.010211197542054991
1.81575e-06;0.010251933753437848
1.81600e-06;0.01029266996482067
1.81625e-06;0.010333406176203529
1.81650e-06;0.010374142387586351
1.81675e-06;0.010414878598969175
1.81700e-06;0.010455614810352032
1.81725e-06;0.01049448536754232
1.81750e-06;0.010531999445770724
1.81775e-06;0.010569513523999097
1.81800e-06;0.010607027602227499
1.81825e-06;0.010644541680455871
1.81850e-06;0.010682055758684241
1.81875e-06;0.010719569836912645
1.81900e-06;0.010757083915141016
1.81925e-06;0.01079459799336942
1.81950e-06;0.010832112071597792
1.81975e-06;0.010869626149826162
1.82000e-06;0.010904812728666209
1.82025e-06;0.010912869313698415
1.82050e-06;0.010920925898730628
1.82075e-06;0.010928982483762834
1.82100e-06;0.01093703906879504
1.82125e-06;0.010945095653827253
1.82150e-06;0.010953152238859459
1.82175e-06;0.010961208823891674
1.82200e-06;0.01096926540892388
1.82225e-06;0.010977321993956093
1.82250e-06;0.010985378578988299
1.82275e-06;0.010993435164020505
1.82300e-06;0.011001491749052718
1.82325e-06;0.01100741142556784
1.82350e-06;0.010988422689593989
1.82375e-06;0.010969433953620154
1.82400e-06;0.010950445217646319
1.82425e-06;0.010931456481672467
1.82450e-06;0.010912467745698632
1.82475e-06;0.010893479009724781
1.82500e-06;0.010874490273750946
1.82525e-06;0.010855501537777111
1.82550e-06;0.01083651280180326
1.82575e-06;0.010817524065829425
1.82600e-06;0.010798535329855573
1.82625e-06;0.010779546593881738
1.82650e-06;0.010760040529779542
1.82675e-06;0.010734504342109093
1.82700e-06;0.010708968154438645
1.82725e-06;0.010683431966768176
1.82750e-06;0.01065789577909773
1.82775e-06;0.010632359591427259
1.82800e-06;0.010606823403756812
1.82825e-06;0.010581287216086364
1.82850e-06;0.010555751028415895
1.82875e-06;0.010530214840745447
1.82900e-06;0.010504678653074978
1.82925e-06;0.010480143666888144
1.82950e-06;0.010467278969502227
1.82975e-06;0.010454414272116299
1.83000e-06;0.010441549574730381
1.83025e-06;0.010428684877344451
1.83050e-06;0.010415820179958533
1.83075e-06;0.010402955482572604
1.83100e-06;0.010390090785186686
1.83125e-06;0.010377226087800768
1.83150e-06;0.01036436139041484
1.83175e-06;0.01035149669302892
1.83200e-06;0.01034019566096212
1.83225e-06;0.010347121155882943
1.83250e-06;0.010354046650803767
1.83275e-06;0.010360972145724595
1.83300e-06;0.010367897640645418
1.83325e-06;0.010374823135566247
1.83350e-06;0.01038174863048707
1.83375e-06;0.010388674125407893
1.83400e-06;0.010395599620328723
1.83425e-06;0.010402525115249545
1.83450e-06;0.010409450610170375
1.83475e-06;0.010416376105091198
1.83500e-06;0.010423301600012027
1.83525e-06;0.01043022709493285
1.83550e-06;0.010437152589853673
1.83575e-06;0.010444078084774502
1.83600e-06;0.010455288332551346
1.83625e-06;0.010469613936394092
1.83650e-06;0.010483939540236827
1.83675e-06;0.010498265144079562
1.83700e-06;0.01051259074792231
1.83725e-06;0.010526916351765043
1.83750e-06;0.01054124195560779
1.83775e-06;0.010555567559450526
1.83800e-06;0.010569893163293261
1.83825e-06;0.010584218767136009
1.83850e-06;0.010598544370978742
1.83875e-06;0.01061286997482149
1.83900e-06;0.010627195578664225
1.83925e-06;0.010641521182506972
1.83950e-06;0.010655846786349706
1.83975e-06;0.0106688513929201
1.84000e-06;0.01066645808016785
1.84025e-06;0.010664064767415604
1.84050e-06;0.010661671454663355
1.84075e-06;0.010659278141911107
1.84100e-06;0.010656884829158862
1.84125e-06;0.010654491516406612
1.84150e-06;0.010652098203654365
1.84175e-06;0.010649704890902117
1.84200e-06;0.01064731157814987
1.84225e-06;0.010643034152915216
1.84250e-06;0.01061679497756572
1.84275e-06;0.010590555802216246
1.84300e-06;0.01056431662686675
1.84325e-06;0.010538077451517275
1.84350e-06;0.010511838276167801
1.84375e-06;0.010485599100818305
1.84400e-06;0.010459359925468831
1.84425e-06;0.010433120750119335
1.84450e-06;0.010406881574769862
1.84475e-06;0.010379427671057477
1.84500e-06;0.010337814548609152
1.84525e-06;0.010296201426160827
1.84550e-06;0.010254588303712467
1.84575e-06;0.010212975181264142
1.84600e-06;0.010171362058815782
1.84625e-06;0.010129748936367457
1.84650e-06;0.010088135813919132
1.84675e-06;0.01004652269147077
1.84700e-06;0.010004909569022445
1.84725e-06;0.009963296446574085
1.84750e-06;0.00992168332412576
1.84775e-06;0.009880835027785024
1.84800e-06;0.009848901761736367
1.84825e-06;0.009816968495687736
1.84850e-06;0.00978503522963908
1.84875e-06;0.009753101963590449
1.84900e-06;0.009721168697541792
1.84925e-06;0.009689235431493162
1.84950e-06;0.009657302165444533
1.84975e-06;0.009625368899395874
1.85000e-06;0.009593435633347245
1.85025e-06;0.009561502367298587
1.85050e-06;0.009529569101249958
1.85075e-06;0.009500040279459058
1.85100e-06;0.009498538342706994
1.85125e-06;0.00949703640595493
1.85150e-06;0.009495534469202867
1.85175e-06;0.009494032532450803
1.85200e-06;0.009492530595698741
1.85225e-06;0.009491028658946677
1.85250e-06;0.009489526722194615
1.85275e-06;0.00948802478544255
1.85300e-06;0.009486522848690488
1.85325e-06;0.009485020911938424
1.85350e-06;0.009483518975186362
1.85375e-06;0.0094820170384343
1.85400e-06;0.009482351429255215
1.85425e-06;0.009504090575712483
1.85450e-06;0.00952582972216977
1.85475e-06;0.00954756886862704
1.85500e-06;0.009569308015084307
1.85525e-06;0.009591047161541594
1.85550e-06;0.009612786307998864
1.85575e-06;0.009634525454456151
1.85600e-06;0.00965626460091342
1.85625e-06;0.009678003747370687
1.85650e-06;0.009699742893827974
1.85675e-06;0.009721482040285244
1.85700e-06;0.009743221186742531
1.85725e-06;0.009764995840631592
1.85750e-06;0.009787184379228354
1.85775e-06;0.0098093729178251
1.85800e-06;0.009831561456421844
1.85825e-06;0.009853749995018608
1.85850e-06;0.009875938533615352
1.85875e-06;0.009898127072212116
1.85900e-06;0.009920315610808859
1.85925e-06;0.009942504149405604
1.85950e-06;0.009964692688002368
1.85975e-06;0.009986881226599112
1.86000e-06;0.009999796718491272
1.86025e-06;0.010005969968002763
1.86050e-06;0.010012143217514254
1.86075e-06;0.01001831646702575
1.86100e-06;0.010024489716537242
1.86125e-06;0.010030662966048738
1.86150e-06;0.01003683621556023
1.86175e-06;0.010043009465071728
1.86200e-06;0.01004918271458322
1.86225e-06;0.01005535596409471
1.86250e-06;0.010060003395101205
1.86275e-06;0.010046865452343106
1.86300e-06;0.010033727509584995
1.86325e-06;0.010020589566826896
1.86350e-06;0.010007451624068797
1.86375e-06;0.009994313681310686
1.86400e-06;0.009981175738552587
1.86425e-06;0.009968037795794476
1.86450e-06;0.009954899853036377
1.86475e-06;0.009941761910278278
1.86500e-06;0.009928623967520167
1.86525e-06;0.009915486024762069
1.86550e-06;0.009902348082003957
1.86575e-06;0.009889210139245857
1.86600e-06;0.009876072196487748
1.86625e-06;0.009859375037113314
1.86650e-06;0.009840090044217036
1.86675e-06;0.009820805051320741
1.86700e-06;0.009801520058424464
1.86725e-06;0.00978223506552817
1.86750e-06;0.009762950072631891
1.86775e-06;0.009743665079735614
1.86800e-06;0.00972438008683932
1.86825e-06;0.009705095093943041
1.86850e-06;0.009685810101046747
1.86875e-06;0.00966652510815047
1.86900e-06;0.009647240115254191
1.86925e-06;0.009627955122357897
1.86950e-06;0.00960867012946162
1.86975e-06;0.009590635175320833
1.87000e-06;0.009587171027872292
1.87025e-06;0.009583706880423749
1.87050e-06;0.00958024273297521
1.87075e-06;0.00957677858552667
1.87100e-06;0.009573314438078127
1.87125e-06;0.009569850290629588
1.87150e-06;0.009566386143181045
1.87175e-06;0.009562921995732504
1.87200e-06;0.009559457848283964
1.87225e-06;0.009555993700835421
1.87250e-06;0.009552529553386882
1.87275e-06;0.00954906540593834
1.87300e-06;0.009556715917140546
1.87325e-06;0.009572447669059339
1.87350e-06;0.009588179420978143
1.87375e-06;0.009603911172896936
1.87400e-06;0.00961964292481574
1.87425e-06;0.009635374676734533
1.87450e-06;0.00965110642865334
1.87475e-06;0.00966683818057213
1.87500e-06;0.009682569932490923
1.87525e-06;0.00969830168440973
1.87550e-06;0.00971403343632852
1.87575e-06;0.009729765188247327
1.87600e-06;0.009746031340558778
1.87625e-06;0.0097685266155934
1.87650e-06;0.009791021890628042
1.87675e-06;0.009813517165662665
1.87700e-06;0.009836012440697307
1.87725e-06;0.00985850771573193
1.87750e-06;0.009881002990766552
1.87775e-06;0.009903498265801195
1.87800e-06;0.009925993540835818
1.87825e-06;0.009945394235531575
1.87850e-06;0.009962544924228885
1.87875e-06;0.009979695612926196
1.87900e-06;0.009996846301623522
1.87925e-06;0.010013996990320833
1.87950e-06;0.010031147679018158
1.87975e-06;0.010048298367715468
1.88000e-06;0.010065449056412793
1.88025e-06;0.01008236471987829
1.88050e-06;0.010096540862505086
1.88075e-06;0.010110717005131893
1.88100e-06;0.01012489314775869
1.88125e-06;0.010139069290385497
1.88150e-06;0.010153245433012293
1.88175e-06;0.010167421575639088
1.88200e-06;0.010181597718265897
1.88225e-06;0.010195773860892692
1.88250e-06;0.0102099500035195
1.88275e-06;0.010224126146146295
1.88300e-06;0.010238302288773092
1.88325e-06;0.010252478431399899
1.88350e-06;0.010266654574026694
1.88375e-06;0.010280830716653502
1.88400e-06;0.010296110158787756
1.88425e-06;0.010312191787402229
1.88450e-06;0.010328273416016687
1.88475e-06;0.010344355044631144
1.88500e-06;0.010360436673245616
1.88525e-06;0.010376518301860075
1.88550e-06;0.010392599930474545
1.88575e-06;0.010408681559089004
1.88600e-06;0.010424763187703462
1.88625e-06;0.010440844816317933
1.88650e-06;0.010456926444932391
1.88675e-06;0.010473008073546864
1.88700e-06;0.010489089702161322
1.88725e-06;0.010505171330775779
1.88750e-06;0.010520825408528832
1.88775e-06;0.010531495832036523
1.88800e-06;0.010542166255544222
1.88825e-06;0.010552836679051911
1.88850e-06;0.01056350710255961
1.88875e-06;0.010574177526067301
1.88900e-06;0.010584847949574991
1.88925e-06;0.01059551837308269
1.88950e-06;0.01060618879659038
1.88975e-06;0.01061685922009808
1.89000e-06;0.01062752964360577
1.89025e-06;0.01063820006711346
1.89050e-06;0.010648870490621158
1.89075e-06;0.010649892921231514
1.89100e-06;0.010643900493763209
1.89125e-06;0.010637908066294909
1.89150e-06;0.010631915638826608
1.89175e-06;0.010625923211358303
1.89200e-06;0.010619930783890003
1.89225e-06;0.010613938356421698
1.89250e-06;0.010607945928953397
1.89275e-06;0.010601953501485092
1.89300e-06;0.010595961074016792
1.89325e-06;0.010589968646548492
1.89350e-06;0.010583976219080186
1.89375e-06;0.010576743148694724
1.89400e-06;0.010555048792183325
1.89425e-06;0.010533354435671946
1.89450e-06;0.010511660079160566
1.89475e-06;0.010489965722649168
1.89500e-06;0.010468271366137788
1.89525e-06;0.01044657700962639
1.89550e-06;0.01042488265311501
1.89575e-06;0.010403188296603631
1.89600e-06;0.010381493940092232
1.89625e-06;0.010359799583580853
1.89650e-06;0.010338105227069455
1.89675e-06;0.010316410870558075
1.89700e-06;0.010294716514046677
1.89725e-06;0.010273022157535297
1.89750e-06;0.0102530104006436
1.89775e-06;0.010234222027481577
1.89800e-06;0.010215433654319572
1.89825e-06;0.01019664528115755
1.89850e-06;0.010177856907995544
1.89875e-06;0.010159068534833539
1.89900e-06;0.010140280161671516
1.89925e-06;0.010121491788509511
1.89950e-06;0.010102703415347488
1.89975e-06;0.010083915042185483
1.90000e-06;0.010065126669023476
1.90025e-06;0.010046338295861455
1.90050e-06;0.010027549922699448
1.90075e-06;0.010008761549537427
1.90100e-06;0.009991216790500615
1.90125e-06;0.00998816795083218
1.90150e-06;0.009985119111163747
1.90175e-06;0.009982070271495315
