Time(s);Current(A)
1.17500e-05;-0.002275695275001014
1.17503e-05;-0.0022735101087949638
1.17505e-05;-0.0022713249425889287
1.17508e-05;-0.0022691397763828784
1.17510e-05;-0.002266954610176828
1.17513e-05;-0.0022647694439707927
1.17515e-05;-0.0022624737769677745
1.17518e-05;-0.00226006863641883
1.17520e-05;-0.0022576634958699016
1.17523e-05;-0.002255258355320957
1.17525e-05;-0.0022528532147720126
1.17528e-05;-0.0022504480742230847
1.17530e-05;-0.00224804293367414
1.17533e-05;-0.0022456377931251957
1.17535e-05;-0.0022432281590057876
1.17538e-05;-0.0022388985225319214
1.17540e-05;-0.002234568886058055
1.17543e-05;-0.0022302392495842185
1.17545e-05;-0.0022259096131103527
1.17548e-05;-0.0022215799766364865
1.17550e-05;-0.00221725034016265
1.17553e-05;-0.0022129207036887836
1.17555e-05;-0.0022085910672149174
1.17558e-05;-0.0022033459077753486
1.17560e-05;-0.002197193736366591
1.17563e-05;-0.0021910415649578335
1.17565e-05;-0.0021848893935491175
1.17568e-05;-0.00217873722214036
1.17570e-05;-0.0021725850507316024
1.17572e-05;-0.0021664328793228865
1.17575e-05;-0.002160280707914129
1.17578e-05;-0.0021537959052062208
1.17580e-05;-0.0021469815634469576
1.17583e-05;-0.0021401672216876484
1.17585e-05;-0.002133352879928339
1.17588e-05;-0.00212653853816903
1.17590e-05;-0.0021197241964097673
1.17593e-05;-0.002112909854650458
1.17595e-05;-0.002106095512891149
1.17598e-05;-0.00209959543175122
1.17600e-05;-0.002093406689762614
1.17603e-05;-0.0020872179477740083
1.17605e-05;-0.002081029205785444
1.17608e-05;-0.0020748434780014195
1.17610e-05;-0.0020699456525815167
1.17613e-05;-0.0020650478271616473
1.17615e-05;-0.0020601500017417445
1.17618e-05;-0.0020552521763218417
1.17620e-05;-0.0020515201978744254
1.17623e-05;-0.0020489432283104588
1.17625e-05;-0.002046366258746492
1.17628e-05;-0.002044835779530263
1.17630e-05;-0.002044342062150393
1.17633e-05;-0.0020456532780249934
1.17635e-05;-0.002048752647913098
1.17638e-05;-0.0020518520178012234
1.17640e-05;-0.002054951387689349
1.17643e-05;-0.0020580507575774535
1.17645e-05;-0.002061150127465579
1.17648e-05;-0.0020642620095319836
1.17650e-05;-0.002072720066233999
1.17653e-05;-0.0020811781229360714
1.17655e-05;-0.0020896361796381435
1.17657e-05;-0.002098094236340159
1.17660e-05;-0.0021065522930422314
1.17663e-05;-0.002115010349744304
1.17665e-05;-0.0021254785544885463
1.17668e-05;-0.002137938220291519
1.17670e-05;-0.0021503978860944917
1.17673e-05;-0.002162857551897464
1.17675e-05;-0.0021753172177003525
1.17678e-05;-0.002187776883503325
1.17680e-05;-0.002200236549306298
1.17683e-05;-0.0022133311519183744
1.17685e-05;-0.0022270547887627027
1.17688e-05;-0.0022407784256070315
1.17690e-05;-0.002254502062451267
1.17693e-05;-0.0022682256992955954
1.17695e-05;-0.0022819493361399238
1.17698e-05;-0.0022956729729841593
1.17700e-05;-0.0023088155298383885
1.17703e-05;-0.002321382408609177
1.17705e-05;-0.0023339492873798804
1.17708e-05;-0.0023442894178152614
1.17710e-05;-0.00235242350048457
1.17713e-05;-0.002360557583153824
1.17715e-05;-0.0023686916658231328
1.17718e-05;-0.002376825748492441
1.17720e-05;-0.002384959831161695
1.17723e-05;-0.0023930939138310037
1.17725e-05;-0.0024012279965003125
1.17728e-05;-0.0024093620791695663
1.17730e-05;-0.002417496161838875
1.17733e-05;-0.0024256152465066522
1.17735e-05;-0.0024273260195531703
1.17738e-05;-0.0024290367925997
1.17740e-05;-0.00243074756564623
1.17742e-05;-0.002432458338692748
1.17745e-05;-0.002434169111739278
1.17748e-05;-0.0024358798847858077
1.17750e-05;-0.002437590657832326
1.17753e-05;-0.0024393014308788557
1.17755e-05;-0.0024410122039253855
1.17758e-05;-0.0024427229769719153
1.17760e-05;-0.0024422100477014285
1.17763e-05;-0.002439494088366278
1.17765e-05;-0.0024367781290311266
1.17768e-05;-0.002434062169695994
1.17770e-05;-0.0024313462103608434
1.17773e-05;-0.002428630251025692
1.17775e-05;-0.0024259142916905597
1.17778e-05;-0.002423198332355409
1.17780e-05;-0.002420482373020258
1.17783e-05;-0.0024177664136851257
1.17785e-05;-0.0024150504543499745
1.17788e-05;-0.0024123320862460547
1.17790e-05;-0.002408584504944254
1.17793e-05;-0.002404836923642428
1.17795e-05;-0.002401089342340602
1.17798e-05;-0.0023973417610388013
1.17800e-05;-0.002393594179736975
1.17803e-05;-0.002389846598435149
1.17805e-05;-0.002386099017133348
1.17808e-05;-0.002382351435831522
1.17810e-05;-0.002378603854529696
1.17813e-05;-0.0023748562732278954
1.17815e-05;-0.002371108691926069
1.17818e-05;-0.002367842543862284
1.17820e-05;-0.00236505335347833
1.17823e-05;-0.0023622641630943572
1.17825e-05;-0.0023594749727103843
1.17827e-05;-0.00235668578232643
1.17830e-05;-0.002353896591942457
1.17833e-05;-0.0023511074015584842
1.17835e-05;-0.0023483182111745304
1.17838e-05;-0.0023455290207905575
1.17840e-05;-0.0023427398304065846
1.17843e-05;-0.0023399506400226112
1.17845e-05;-0.0023371614496386574
1.17848e-05;-0.0023343722592546845
1.17850e-05;-0.0023315826832458466
1.17853e-05;-0.0023286283383253284
1.17855e-05;-0.00232567399340479
1.17858e-05;-0.0023227196484842524
1.17860e-05;-0.002319765303563734
1.17863e-05;-0.002316810958643196
1.17865e-05;-0.002313856613722658
1.17868e-05;-0.00231090226880214
1.17870e-05;-0.0023079479238816017
1.17873e-05;-0.002304993578961064
1.17875e-05;-0.0023020392340405457
1.17878e-05;-0.0022990848891200075
1.17880e-05;-0.0022961305441994693
1.17883e-05;-0.0022931761992789515
1.17885e-05;-0.00229025048764599
1.17888e-05;-0.0022873531431163614
1.17890e-05;-0.002284455798586752
1.17893e-05;-0.0022815584540571234
1.17895e-05;-0.0022786611095274947
1.17898e-05;-0.0022757637649978854
1.17900e-05;-0.0022730864397762615
1.17903e-05;-0.002270627088492453
1.17905e-05;-0.002268167737208661
1.17908e-05;-0.0022657083859248524
1.17910e-05;-0.002263249034641044
1.17912e-05;-0.002260789683357252
1.17915e-05;-0.0022587366280277803
1.17918e-05;-0.002257086091594914
1.17920e-05;-0.002255435555162059
1.17923e-05;-0.0022547349204638267
1.17925e-05;-0.0022549753569085077
1.17928e-05;-0.002255215793353189
1.17930e-05;-0.0022571761336691934
1.17933e-05;-0.002260840389077501
1.17935e-05;-0.0022645046444858086
1.17938e-05;-0.0022681688998940916
1.17940e-05;-0.002271833155302399
1.17943e-05;-0.002275497410710707
1.17945e-05;-0.0022791616661189894
1.17948e-05;-0.002285296529305894
1.17950e-05;-0.0022938790327077015
1.17953e-05;-0.0023024615361094507
1.17955e-05;-0.002311044039511258
1.17958e-05;-0.002319626542913065
1.17960e-05;-0.0023282090463148148
1.17963e-05;-0.002336791549716622
1.17965e-05;-0.0023472553882099793
1.17968e-05;-0.0023595830722994374
1.17970e-05;-0.002371910756388979
1.17973e-05;-0.0023842384404785203
1.17975e-05;-0.002396566124567978
1.17978e-05;-0.0024088938086575195
1.17980e-05;-0.002421221492747061
1.17983e-05;-0.002433549176836519
1.17985e-05;-0.002446163512731565
1.17988e-05;-0.0024590618356248716
1.17990e-05;-0.0024719601585180906
1.17993e-05;-0.0024848584814113972
1.17995e-05;-0.002497756804304704
1.17997e-05;-0.0025106551271979233
1.18000e-05;-0.00252355345009123
1.18003e-05;-0.0025364517729845365
1.18005e-05;-0.0025483626259487292
1.18008e-05;-0.0025592951888214967
1.18010e-05;-0.002570227751694264
1.18013e-05;-0.002580279672033463
1.18015e-05;-0.0025894591365747768
1.18018e-05;-0.0025983349756407404
1.18020e-05;-0.0026069100118311906
1.18023e-05;-0.0026164431953631796
1.18025e-05;-0.00262692561899155
1.18028e-05;-0.0026374080426199197
1.18030e-05;-0.0026489666446795285
1.18033e-05;-0.0026615914206703723
1.18035e-05;-0.002674216196661216
1.18038e-05;-0.0026868409726519744
1.18040e-05;-0.0027012204840077716
1.18043e-05;-0.0027173384181453544
1.18045e-05;-0.002733456352282828
1.18048e-05;-0.0027495742864204107
1.18050e-05;-0.0027677219732352674
1.18053e-05;-0.00278788054349494
1.18055e-05;-0.0028080391137547496
1.18058e-05;-0.002828197684014559
1.18060e-05;-0.002848356254274232
1.18063e-05;-0.0028703777001587633
1.18065e-05;-0.002894244703778434
1.18068e-05;-0.0029181117073979433
1.18070e-05;-0.002941978711017614
1.18073e-05;-0.002965845714637285
1.18075e-05;-0.0029904908852429993
1.18078e-05;-0.003015906988745114
1.18080e-05;-0.003041323092247229
1.18082e-05;-0.003067003133148797
1.18085e-05;-0.003092944657803424
1.18088e-05;-0.003118886182458051
1.18090e-05;-0.0031446174733713696
1.18093e-05;-0.0031701404849440286
1.18095e-05;-0.0031951365378960084
1.18098e-05;-0.003219610531003685
1.18100e-05;-0.0032434136474830356
1.18103e-05;-0.0032665521240187135
1.18105e-05;-0.0032888004843447307
1.18108e-05;-0.003310167003266736
1.18110e-05;-0.003330310599241894
1.18113e-05;-0.003349242640953999
1.18115e-05;-0.0033665831635381095
1.18118e-05;-0.0033823469622666948
1.18120e-05;-0.0033953954416439994
1.18123e-05;-0.003405753844149446
1.18125e-05;-0.003416112246654963
1.18128e-05;-0.0034229166950377555
1.18130e-05;-0.003426200227994984
1.18133e-05;-0.0034294837609522345
1.18135e-05;-0.003427263672812219
1.18138e-05;-0.0034195911270017217
1.18140e-05;-0.0034119185811911723
1.18143e-05;-0.0034042460353806234
1.18145e-05;-0.003396573489570126
1.18148e-05;-0.003388900943759577
1.18150e-05;-0.0033744342126362952
1.18153e-05;-0.0033532364571258067
1.18155e-05;-0.0033320387016151742
1.18158e-05;-0.003310840946104542
1.18160e-05;-0.003289643190594053
1.18163e-05;-0.003268445435083421
1.18165e-05;-0.0032431778194517455
1.18167e-05;-0.0032138781784238975
1.18170e-05;-0.003184578537395851
1.18173e-05;-0.0031534518023896194
1.18175e-05;-0.0031205149586568497
1.18178e-05;-0.003087578114923857
1.18180e-05;-0.003053499634725219
1.18183e-05;-0.003018290131079521
1.18185e-05;-0.0029830806274340612
1.18188e-05;-0.002947526874565554
1.18190e-05;-0.0029116320727253678
1.18193e-05;-0.002875944756090834
1.18195e-05;-0.00284046299581249
1.18198e-05;-0.0028055849192363557
1.18200e-05;-0.002771304914325463
1.18203e-05;-0.0027377195871919665
1.18205e-05;-0.0027062014260961194
1.18208e-05;-0.0026760493920818603
1.18210e-05;-0.002645897358067397
1.18213e-05;-0.002618037251947573
1.18215e-05;-0.0025924477672263245
1.18218e-05;-0.0025683619069697466
1.18220e-05;-0.0025457656930031386
1.18223e-05;-0.0025233131046467337
1.18225e-05;-0.0025010028067105326
1.18228e-05;-0.0024786925087743315
1.18230e-05;-0.002456932619731512
1.18233e-05;-0.002435718022804346
1.18235e-05;-0.00241450342587718
1.18238e-05;-0.0023935284247079886
1.18240e-05;-0.0023727907919375586
1.18243e-05;-0.002352053159167129
1.18245e-05;-0.0023313155263968393
1.18248e-05;-0.0023105778936264093
1.18250e-05;-0.00228983857358267
1.18252e-05;-0.0022683783191601724
1.18255e-05;-0.0022469180647375292
1.18258e-05;-0.0022254578103148865
1.18260e-05;-0.0022039975558923886
1.18263e-05;-0.002182537301469746
1.18265e-05;-0.002160695022913746
1.18268e-05;-0.0021384742716430943
1.18270e-05;-0.002116253520372593
1.18273e-05;-0.002094032769101941
1.18275e-05;-0.002071812017831289
1.18278e-05;-0.0020498091494182288
1.18280e-05;-0.0020280221383536397
1.18283e-05;-0.0020062351272890507
1.18285e-05;-0.001984448116224609
1.18288e-05;-0.00196266110516002
1.18290e-05;-0.0019412812574952137
1.18293e-05;-0.0019203047881089868
1.18295e-05;-0.0018999109498108733
1.18298e-05;-0.001880094326275866
1.18300e-05;-0.001860723579558452
1.18303e-05;-0.0018420814649878782
1.18305e-05;-0.0018240641681515001
1.18308e-05;-0.0018067894354986908
1.18310e-05;-0.001790385848023995
1.18313e-05;-0.0017749819276991856
1.18315e-05;-0.0017607144431903863
1.18318e-05;-0.0017478133601975846
1.18320e-05;-0.0017366647555026324
1.18323e-05;-0.0017276253232354705
1.18325e-05;-0.0017208336880173022
1.18328e-05;-0.001716288638707561
1.18330e-05;-0.0017139664845164412
1.18333e-05;-0.0017143896458488995
1.18335e-05;-0.0017164424554263417
1.18337e-05;-0.0017207950876281775
1.18340e-05;-0.0017274261625671232
1.18343e-05;-0.0017371242232270528
1.18345e-05;-0.001749860757926764
1.18348e-05;-0.0017625972926265617
1.18350e-05;-0.0017786154424961733
1.18352e-05;-0.0017978847005903733
1.18355e-05;-0.0018171539586847038
1.18358e-05;-0.001839320680225574
1.18360e-05;-0.0018643579294653563
1.18363e-05;-0.001889395178704969
1.18365e-05;-0.0019165888686235785
1.18368e-05;-0.001945918952258283
1.18370e-05;-0.0019765770172303953
1.18373e-05;-0.0020085507182008066
1.18375e-05;-0.002041507810155792
1.18378e-05;-0.002075439151177815
1.18380e-05;-0.002110099029598121
1.18383e-05;-0.002145480672699694
1.18385e-05;-0.002181204186858096
1.18388e-05;-0.0022173513061402484
1.18390e-05;-0.002253559156467352
1.18393e-05;-0.002289611668827276
1.18395e-05;-0.0023252940651064
1.18398e-05;-0.002360406053792809
1.18400e-05;-0.002394771201448205
1.18403e-05;-0.002428208759732574
1.18405e-05;-0.002459712276569634
1.18408e-05;-0.0024898051716004056
1.18410e-05;-0.002519898066631381
1.18413e-05;-0.0025476246478661436
1.18415e-05;-0.0025730069133145417
1.18418e-05;-0.0025968628642593474
1.18420e-05;-0.0026192066898082346
1.18422e-05;-0.002641508410129281
1.18425e-05;-0.002663768416646453
1.18428e-05;-0.0026858073707182553
1.18430e-05;-0.0027076273273187734
1.18433e-05;-0.0027294472839194395
1.18435e-05;-0.0027505990539484753
1.18437e-05;-0.002771088849081808
1.18440e-05;-0.0027918881566251106
1.18443e-05;-0.002812994099251905
1.18445e-05;-0.0028341000418786993
1.18448e-05;-0.0028557118970096358
1.18450e-05;-0.0028778249615205908
1.18453e-05;-0.0028999380260315453
1.18455e-05;-0.0029220510905423503
1.18458e-05;-0.002944166068438463
1.18460e-05;-0.0029670985933347932
1.18463e-05;-0.002990031118230968
1.18465e-05;-0.0030129636431272984
1.18468e-05;-0.003035896168023629
1.18470e-05;-0.0030591330461396827
1.18473e-05;-0.0030826714481109437
1.18475e-05;-0.0031062098500822042
1.18478e-05;-0.0031295727356319717
1.18480e-05;-0.0031527617364173225
1.18483e-05;-0.0031759507372026733
1.18485e-05;-0.0031989931494174084
1.18488e-05;-0.0032218903357960466
1.18490e-05;-0.0032447875221746844
1.18493e-05;-0.003266937496707057
1.18495e-05;-0.003288347205713605
1.18498e-05;-0.003309756914720153
1.18500e-05;-0.0033301688467894156
1.18503e-05;-0.0033495922775749524
1.18505e-05;-0.003369015708360489
1.18507e-05;-0.003387075670509074
1.18510e-05;-0.0034037848392611085
1.18513e-05;-0.003420494008013143
1.18515e-05;-0.0034343238951222155
1.18518e-05;-0.0034453012673106888
1.18520e-05;-0.003456278639499162
1.18522e-05;-0.003467256011687561
1.18525e-05;-0.003478233383876034
1.18528e-05;-0.0034891911184586027
1.18530e-05;-0.0034917581398041563
1.18533e-05;-0.0034943251611496925
1.18535e-05;-0.003496892182495246
1.18538e-05;-0.0034994592038407996
1.18540e-05;-0.003502026225186336
1.18543e-05;-0.003499725031601173
1.18545e-05;-0.0034926008795666454
1.18548e-05;-0.0034854767275321664
1.18550e-05;-0.003478352575497639
1.18553e-05;-0.003471228423463111
1.18555e-05;-0.0034641042714286317
1.18558e-05;-0.0034569801193941045
1.18560e-05;-0.003449836355802569
1.18563e-05;-0.0034343130090407972
1.18565e-05;-0.003418789662278921
1.18568e-05;-0.0034032663155170446
1.18570e-05;-0.003387742968755273
1.18573e-05;-0.0033722196219933965
1.18575e-05;-0.0033566962752315205
1.18578e-05;-0.003341172928469749
1.18580e-05;-0.003323981349195389
1.18583e-05;-0.003305137045830834
1.18585e-05;-0.0032862927424664066
1.18588e-05;-0.003267200953930267
1.18590e-05;-0.0032478639809237404
1.18592e-05;-0.0032285270079173444
1.18595e-05;-0.003209435219889406
1.18598e-05;-0.003190586337522192
1.18600e-05;-0.0031717374551551063
1.18603e-05;-0.003153682295315958
1.18605e-05;-0.003136413479306794
1.18607e-05;-0.0031191446632977474
1.18610e-05;-0.003103223916328078
1.18613e-05;-0.0030886387063176687
1.18615e-05;-0.0030740534963072594
1.18618e-05;-0.003060234309043266
1.18620e-05;-0.0030471740233334677
1.18623e-05;-0.003033076253117798
1.18625e-05;-0.0030179506431835704
1.18628e-05;-0.0030028250332492404
1.18630e-05;-0.0029867311590236274
1.18633e-05;-0.002969678021800817
1.18635e-05;-0.0029526248845778915
1.18638e-05;-0.0029364064895998493
1.18640e-05;-0.0029210150768364173
1.18643e-05;-0.0029059188606520505
1.18645e-05;-0.002885537874129418
1.18648e-05;-0.002866312393793909
1.18650e-05;-0.002841008429352907
1.18653e-05;-0.0028144127899047363
1.18655e-05;-0.00278742510863612
1.18658e-05;-0.0027603833321055557
1.18660e-05;-0.002733341555574991
1.18663e-05;-0.0027051452796350095
1.18665e-05;-0.0026765581617574324
1.18668e-05;-0.0026479710438798553
1.18670e-05;-0.002617351284727555
1.18673e-05;-0.0025853279331693496
1.18675e-05;-0.002553293350216196
1.18678e-05;-0.002521255752112256
1.18680e-05;-0.002489249235550101
1.18683e-05;-0.002457583424950275
1.18685e-05;-0.0024259176143506633
1.18688e-05;-0.0023971301621751617
1.18690e-05;-0.00237245054149459
1.18692e-05;-0.0023364056794878546
1.18695e-05;-0.00230272310430088
1.18698e-05;-0.0022708873370130478
1.18700e-05;-0.002241169654366051
1.18703e-05;-0.0022128175834105275
1.18705e-05;-0.0021853674924918304
1.18708e-05;-0.0021593348585944912
1.18710e-05;-0.0021337513110546553
1.18713e-05;-0.002109501101687422
1.18715e-05;-0.0020865361540914713
1.18718e-05;-0.0020654334140296116
1.18720e-05;-0.002046812910287203
1.18723e-05;-0.002030878557292712
1.18725e-05;-0.0020156962142916478
1.18728e-05;-0.0020005138712904805
1.18730e-05;-0.0019877676035101478
1.18733e-05;-0.0019759533109899433
1.18735e-05;-0.0019655342450893157
1.18738e-05;-0.0019585763441496463
1.18740e-05;-0.0019527383818522066
1.18743e-05;-0.0019469004195547272
1.18745e-05;-0.0019420786044524246
1.18748e-05;-0.0019407914501312713
1.18750e-05;-0.0019395042958101091
1.18753e-05;-0.001938217141488947
1.18755e-05;-0.001940995371097832
1.18758e-05;-0.00194532890458777
1.18760e-05;-0.0019496624380777078
1.18763e-05;-0.0019539959715676163
1.18765e-05;-0.0019583295050575543
1.18768e-05;-0.0019626630385474924
1.18770e-05;-0.0019681050532986185
1.18773e-05;-0.0019774029122223116
1.18775e-05;-0.0019867007711460044
1.18777e-05;-0.0019959986300696346
1.18780e-05;-0.0020052964889933273
1.18783e-05;-0.0020145943479170205
1.18785e-05;-0.0020238922068407136
1.18788e-05;-0.002034354635124665
1.18790e-05;-0.00204526259555942
1.18793e-05;-0.0020561705559941743
1.18795e-05;-0.0020670813231611416
1.18798e-05;-0.002077993164106624
1.18800e-05;-0.002088905005052106
1.18803e-05;-0.002099287552422927
1.18805e-05;-0.002109467606655405
1.18808e-05;-0.002119647660887883
1.18810e-05;-0.0021269705498642563
1.18813e-05;-0.0021332003661349904
1.18815e-05;-0.0021394301824057245
1.18818e-05;-0.002145659998676416
1.18820e-05;-0.0021518898149471503
1.18823e-05;-0.0021581196312178844
1.18825e-05;-0.0021643494474885764
1.18828e-05;-0.0021705792637593106
1.18830e-05;-0.0021768090800300447
1.18833e-05;-0.0021830388963007363
1.18835e-05;-0.0021880354188327177
1.18838e-05;-0.002188741937877299
1.18840e-05;-0.0021894484569218754
1.18843e-05;-0.0021901549759664567
1.18845e-05;-0.0021908614950110383
1.18848e-05;-0.002191568014055615
1.18850e-05;-0.002192274533100196
1.18853e-05;-0.0021929810521447773
1.18855e-05;-0.002193687571189354
1.18858e-05;-0.0021943940902339355
1.18860e-05;-0.0021951006092785167
1.18862e-05;-0.0021932312301412562
1.18865e-05;-0.0021903763833312144
1.18868e-05;-0.0021875215365211725
1.18870e-05;-0.0021846666897111307
1.18873e-05;-0.0021818118429011084
1.18875e-05;-0.0021789569960910665
1.18878e-05;-0.002176102149281025
1.18880e-05;-0.0021732473024710024
1.18883e-05;-0.002170392455660961
1.18885e-05;-0.002167305580924354
1.18888e-05;-0.0021634115986974693
1.18890e-05;-0.002159517616470558
1.18893e-05;-0.0021556236342436465
1.18895e-05;-0.0021517296520167616
1.18898e-05;-0.00214783566978985
1.18900e-05;-0.0021439416875629388
1.18903e-05;-0.002140047705336054
1.18905e-05;-0.0021361537231091425
1.18908e-05;-0.002132259740882231
1.18910e-05;-0.0021287681642949063
1.18913e-05;-0.002125430537018128
1.18915e-05;-0.00212247030296455
1.18918e-05;-0.00211965444916021
1.18920e-05;-0.0021184002050652715
1.18923e-05;-0.002117743389819522
1.18925e-05;-0.0021170865745737777
1.18928e-05;-0.002118821993390242
1.18930e-05;-0.0021214726150478244
1.18933e-05;-0.0021241232367053883
1.18935e-05;-0.0021304089134815446
1.18938e-05;-0.002138085262192598
1.18940e-05;-0.0021457616109035993
1.18943e-05;-0.002153437959614653
