Time(s);Current(A)
3.50000e-06;-0.0013819723778103394
3.50025e-06;-0.0013828551490686295
3.50050e-06;-0.0013837379203269211
3.50075e-06;-0.001384620691585213
3.50100e-06;-0.001385503462843503
3.50125e-06;-0.0013863862341017947
3.50150e-06;-0.0013872690053600865
3.50175e-06;-0.0013881517766183781
3.50200e-06;-0.0013881937198441587
3.50225e-06;-0.001387635894384697
3.50250e-06;-0.0013870780689252354
3.50275e-06;-0.001386520243465775
3.50300e-06;-0.0013859624180063133
3.50325e-06;-0.0013854045925468517
3.50350e-06;-0.00138484676708739
3.50375e-06;-0.0013842889416279293
3.50400e-06;-0.0013837311161684677
3.50425e-06;-0.0013831530015199376
3.50450e-06;-0.0013823526752862092
3.50475e-06;-0.0013815523490524795
3.50500e-06;-0.0013807520228187498
3.50525e-06;-0.0013799516965850214
3.50550e-06;-0.0013791513703512916
3.50575e-06;-0.001378351044117562
3.50600e-06;-0.0013775507178838322
3.50625e-06;-0.001376680436092812
3.50650e-06;-0.0013750439859138907
3.50675e-06;-0.0013734075357349695
3.50700e-06;-0.001371771085556051
3.50725e-06;-0.0013701346353771299
3.50750e-06;-0.0013684981851982087
3.50775e-06;-0.0013668617350192874
3.50800e-06;-0.0013652252848403688
3.50825e-06;-0.001363504418359398
3.50850e-06;-0.0013608590062874797
3.50875e-06;-0.0013582135942155657
3.50900e-06;-0.0013555681821436473
3.50925e-06;-0.0013529227700717287
3.50950e-06;-0.001350277357999815
3.50975e-06;-0.0013476319459278963
3.51000e-06;-0.001344986533855978
3.51025e-06;-0.0013423411217840595
3.51050e-06;-0.0013396957097121455
3.51075e-06;-0.0013370502976402271
3.51100e-06;-0.0013344048855683085
3.51125e-06;-0.0013317489217630162
3.51150e-06;-0.0013289773930924519
3.51175e-06;-0.0013262058644218876
3.51200e-06;-0.0013234343357513233
3.51225e-06;-0.0013206628070807638
3.51250e-06;-0.0013178912784101995
3.51275e-06;-0.0013151197497396352
3.51300e-06;-0.0013123482210690757
3.51325e-06;-0.0013095766923985114
3.51350e-06;-0.001306805163727947
3.51375e-06;-0.0013040336350573873
3.51400e-06;-0.001301262106386823
3.51425e-06;-0.0012985502217950126
3.51450e-06;-0.0012964915720489324
3.51475e-06;-0.0012944329223028555
3.51500e-06;-0.0012923454540336246
3.51525e-06;-0.0012899423590681921
3.51550e-06;-0.0012875392641027638
3.51575e-06;-0.0012851361691373314
3.51600e-06;-0.0012827330741718992
3.51625e-06;-0.0012803299792064668
3.51650e-06;-0.0012779268842410384
3.51675e-06;-0.001275452074593638
3.51700e-06;-0.0012721918302443542
3.51725e-06;-0.001268931585895076
3.51750e-06;-0.001265671341545792
3.51775e-06;-0.0012624110971965082
3.51800e-06;-0.00125915085284723
3.51825e-06;-0.001255890608497946
3.51850e-06;-0.0012525473441845464
3.51875e-06;-0.0012482948272748973
3.51900e-06;-0.0012440423103652553
3.51925e-06;-0.0012397897934556062
3.51950e-06;-0.001235537276545957
3.51975e-06;-0.0012312847596363152
3.52000e-06;-0.001227032242726666
3.52025e-06;-0.001222779725817017
3.52050e-06;-0.0012185272089073678
3.52075e-06;-0.0012142746919977258
3.52100e-06;-0.0012098801214337185
3.52125e-06;-0.001205384222975984
3.52150e-06;-0.0012008883245182569
3.52175e-06;-0.0011963924260605223
3.52200e-06;-0.0011918965276027876
3.52225e-06;-0.0011874006291450606
3.52250e-06;-0.0011829047306873262
3.52275e-06;-0.0011784088322295916
3.52300e-06;-0.001173912933771857
3.52325e-06;-0.0011694611185765114
3.52350e-06;-0.0011654921128018047
3.52375e-06;-0.0011615450367757395
3.52400e-06;-0.0011578558475300797
3.52425e-06;-0.0011543806194741504
3.52450e-06;-0.0011511534294548237
3.52475e-06;-0.0011482984766678628
3.52500e-06;-0.0011461694569243452
3.52525e-06;-0.0011452201440897152
3.52550e-06;-0.0011459939567338995
3.52575e-06;-0.0011470108326147445
3.52600e-06;-0.0011506897896151212
3.52625e-06;-0.0011543687466154982
3.52650e-06;-0.0011582816111946478
3.52675e-06;-0.0011647562821486964
3.52700e-06;-0.0011715224211987592
3.52725e-06;-0.0011814807818533715
3.52750e-06;-0.001191439142507967
3.52775e-06;-0.0012016216544463408
3.52800e-06;-0.0012143579034117789
3.52825e-06;-0.0012282668205004824
3.52850e-06;-0.0012432551185785853
3.52875e-06;-0.0012592650970348618
3.52900e-06;-0.0012763287803219602
3.52925e-06;-0.0012944973943046733
3.52950e-06;-0.0013137176633480666
3.52975e-06;-0.0013338664483309982
3.53000e-06;-0.0013548183504717
3.53025e-06;-0.001376447767378055
3.53050e-06;-0.0013986307617429507
3.53075e-06;-0.001421265490172684
3.53100e-06;-0.0014443067413379954
3.53125e-06;-0.0014677210524812764
3.53150e-06;-0.0014914092706244584
3.53175e-06;-0.0015152290578583178
3.53200e-06;-0.0015390360012089185
3.53225e-06;-0.0015626862790534557
3.53250e-06;-0.0015860365590992904
3.53275e-06;-0.0016089578072958095
3.53300e-06;-0.001631355954511629
3.53325e-06;-0.001653144781005679
3.53350e-06;-0.0016741965888763533
3.53375e-06;-0.0016943568750460098
3.53400e-06;-0.0017133549212914746
3.53425e-06;-0.001730005649551924
3.53450e-06;-0.0017466563778124012
3.53475e-06;-0.0017630868767872813
3.53500e-06;-0.001777029443490972
3.53525e-06;-0.0017900732608415108
3.53550e-06;-0.0018022691009346424
3.53575e-06;-0.0018132275080088554
3.53600e-06;-0.001823966036439678
3.53625e-06;-0.0018322964064287554
3.53650e-06;-0.0018406267764178327
3.53675e-06;-0.0018487460711558486
3.53700e-06;-0.001854553624108168
3.53725e-06;-0.0018602403077663731
3.53750e-06;-0.0018646032047824738
3.53775e-06;-0.0018688068160782757
3.53800e-06;-0.0018712658957263347
3.53825e-06;-0.0018737249753743937
3.53850e-06;-0.0018760193570745937
3.53875e-06;-0.0018765099312407728
3.53900e-06;-0.0018768851376242837
3.53925e-06;-0.0018759968111085308
3.53950e-06;-0.0018751084845927762
3.53975e-06;-0.0018741008520627902
3.54000e-06;-0.0018717865542699779
3.54025e-06;-0.0018694722564771696
3.54050e-06;-0.0018670520387614193
3.54075e-06;-0.0018634717631488464
3.54100e-06;-0.0018598914875362796
3.54125e-06;-0.001856256930560552
3.54150e-06;-0.0018520278723594375
3.54175e-06;-0.0018477988141583303
3.54200e-06;-0.001843536587800868
3.54225e-06;-0.0018389110966238258
3.54250e-06;-0.0018342856054467834
3.54275e-06;-0.001829659435712126
3.54300e-06;-0.001825025834267663
3.54325e-06;-0.0018203922328232
3.54350e-06;-0.0018158003837760255
3.54375e-06;-0.0018116658160111272
3.54400e-06;-0.0018075312482462292
3.54425e-06;-0.001803447062573166
3.54450e-06;-0.0017999146724629771
3.54475e-06;-0.0017963899380411795
3.54500e-06;-0.0017929490503739408
3.54525e-06;-0.0017894596247331996
3.54550e-06;-0.00178543860071219
3.54575e-06;-0.0017814175766911805
3.54600e-06;-0.0017773487078643856
3.54625e-06;-0.0017727558323800084
3.54650e-06;-0.0017681629568956313
3.54675e-06;-0.0017635700814112542
3.54700e-06;-0.0017588888927886008
3.54725e-06;-0.0017532404795812188
3.54750e-06;-0.0017475920663738368
3.54775e-06;-0.0017419436531664646
3.54800e-06;-0.0017361998759902277
3.54825e-06;-0.0017294116520083704
3.54850e-06;-0.001722623428026513
3.54875e-06;-0.0017158352040446672
3.54900e-06;-0.00170904698006281
3.54925e-06;-0.0017021701468448005
3.54950e-06;-0.0016943228461141682
3.54975e-06;-0.0016864755453835224
3.55000e-06;-0.0016786282446528769
3.55025e-06;-0.0016707809439222444
3.55050e-06;-0.0016628991843434123
3.55075e-06;-0.00165464002400884
3.55100e-06;-0.0016463808636742678
3.55125e-06;-0.0016381217033397096
3.55150e-06;-0.0016298625430051373
3.55175e-06;-0.001621603382670565
3.55200e-06;-0.0016133442223360067
3.55225e-06;-0.0016050850620014344
3.55250e-06;-0.0015968259016668623
3.55275e-06;-0.0015894215636504034
3.55300e-06;-0.001582626976544025
3.55325e-06;-0.0015758323894376352
3.55350e-06;-0.0015690378023312454
3.55375e-06;-0.001562243215224867
3.55400e-06;-0.0015554486281184772
3.55425e-06;-0.0015486540410120874
3.55450e-06;-0.001541859453905709
3.55475e-06;-0.001535321140915144
3.55500e-06;-0.001531589597450823
3.55525e-06;-0.0015278580539865021
3.55550e-06;-0.0015241265105221875
3.55575e-06;-0.0015203949670578665
3.55600e-06;-0.0015166634235935456
3.55625e-06;-0.001512931880129231
3.55650e-06;-0.0015094370827757717
3.55675e-06;-0.0015085351800160577
3.55700e-06;-0.0015076332772563437
3.55725e-06;-0.0015067313744966313
3.55750e-06;-0.0015058294717369173
3.55775e-06;-0.0015049275689772031
3.55800e-06;-0.0015040256662174907
3.55825e-06;-0.0015033415312905689
3.55850e-06;-0.0015050424367526753
3.55875e-06;-0.0015067433422147787
3.55900e-06;-0.0015084442476768851
3.55925e-06;-0.0015101451531389916
3.55950e-06;-0.0015118460586010978
3.55975e-06;-0.0015135469640632014
3.56000e-06;-0.0015152478695253078
3.56025e-06;-0.0015169487749874143
3.56050e-06;-0.001518772570806354
3.56075e-06;-0.0015219422883839511
3.56100e-06;-0.0015251120059615482
3.56125e-06;-0.0015282817235391453
3.56150e-06;-0.0015314514411167372
3.56175e-06;-0.0015346211586943343
3.56200e-06;-0.0015377908762719314
3.56225e-06;-0.001540960593849523
3.56250e-06;-0.00154413031142712
3.56275e-06;-0.0015473003926336824
3.56300e-06;-0.0015504744563832886
3.56325e-06;-0.0015536485201329
3.56350e-06;-0.001556802373254753
3.56375e-06;-0.0015597212488654367
3.56400e-06;-0.0015624751945478275
3.56425e-06;-0.00156503954973383
3.56450e-06;-0.001567407798659206
3.56475e-06;-0.0015698278557407463
3.56500e-06;-0.0015732043810243001
3.56525e-06;-0.0015786111672542128
3.56550e-06;-0.0015864028519928255
3.56575e-06;-0.0015964457547146375
3.56600e-06;-0.0016085879534247023
3.56625e-06;-0.0016226775358680805
3.56650e-06;-0.001638573936496131
3.56675e-06;-0.0016562960234402908
3.56700e-06;-0.0016762737710761613
3.56725e-06;-0.001699043215308299
3.56750e-06;-0.0017246899075642802
3.56775e-06;-0.0017529934986712794
3.56800e-06;-0.0017837223995939369
3.56825e-06;-0.001816721331670864
3.56850e-06;-0.0018523756776638166
3.56875e-06;-0.0018883618139840877
3.56900e-06;-0.0019279817897073467
3.56925e-06;-0.0019678700749067098
3.56950e-06;-0.0020108510117942983
3.56975e-06;-0.002055649893733918
3.57000e-06;-0.002101985616218106
3.57025e-06;-0.0021496083538006714
3.57050e-06;-0.00219849615329464
3.57075e-06;-0.0022475052360351757
3.57100e-06;-0.002297842639116533
3.57125e-06;-0.0023482546218493204
3.57150e-06;-0.002399502410169878
3.57175e-06;-0.0024509510076024662
3.57200e-06;-0.0025022873153716534
3.57225e-06;-0.0025531987968331637
3.57250e-06;-0.00260337488655841
3.57275e-06;-0.002652544876840929
3.57300e-06;-0.0027005390082128424
3.57325e-06;-0.0027472134700528405
3.57350e-06;-0.002792313886903408
3.57375e-06;-0.002835510356291699
3.57400e-06;-0.002876470648369341
3.57425e-06;-0.002914862707678177
3.57450e-06;-0.0029503689543533954
3.57475e-06;-0.0029828859232399396
3.57500e-06;-0.0030128934842162877
3.57525e-06;-0.003041111474829047
3.57550e-06;-0.0030677530710062416
3.57575e-06;-0.003092656682696132
3.57600e-06;-0.0031155512403946988
3.57625e-06;-0.003135511695059823
3.57650e-06;-0.0031551840679239725
3.57675e-06;-0.0031715338749570563
3.57700e-06;-0.0031859251835577493
3.57725e-06;-0.003198841067775237
3.57750e-06;-0.0032104468491303867
3.57775e-06;-0.0032206725977171466
3.57800e-06;-0.0032294398496085846
3.57825e-06;-0.0032366701213976667
3.57850e-06;-0.0032422905408836474
3.57875e-06;-0.0032463120727181456
3.57900e-06;-0.003248975251501783
3.57925e-06;-0.003250613637046747
3.57950e-06;-0.003251362819160138
3.57975e-06;-0.003251210902137337
3.58000e-06;-0.003250140598070349
3.58025e-06;-0.0032481340569201003
3.58050e-06;-0.0032451778469121334
3.58075e-06;-0.0032413102025370512
3.58100e-06;-0.0032367138430621505
3.58125e-06;-0.003231629240654781
3.58150e-06;-0.003226173242788043
3.58175e-06;-0.003220357312246628
3.58200e-06;-0.0032140996394524647
3.58225e-06;-0.0032077951461823516
3.58250e-06;-0.0032009778649361663
3.58275e-06;-0.0031941425256158487
3.58300e-06;-0.0031871171439718797
3.58325e-06;-0.0031801934101916836
3.58350e-06;-0.0031734761545762265
3.58375e-06;-0.0031670120397239987
3.58400e-06;-0.0031608461568593885
3.58425e-06;-0.0031550228022450685
3.58450e-06;-0.003149595425009053
3.58475e-06;-0.003144737941668992
3.58500e-06;-0.0031409310650641438
3.58525e-06;-0.0031387180795666068
3.58550e-06;-0.003138282447076507
3.58575e-06;-0.003139569623990362
3.58600e-06;-0.0031425167070741372
3.58625e-06;-0.0031470603274325135
3.58650e-06;-0.0031531421244234943
3.58675e-06;-0.0031607802488676485
3.58700e-06;-0.0031702699822952173
3.58725e-06;-0.0031825420198609254
3.58750e-06;-0.003195060753705979
3.58775e-06;-0.0032104313554910087
3.58800e-06;-0.003227647895008102
3.58825e-06;-0.0032470892537532
3.58850e-06;-0.003266776948395323
3.58875e-06;-0.003289162567044746
3.58900e-06;-0.0033118021090991867
3.58925e-06;-0.003337222675188638
3.58950e-06;-0.0033628155137469546
3.58975e-06;-0.003390390726077886
3.59000e-06;-0.0034191274500465683
3.59025e-06;-0.0034491169682717105
3.59050e-06;-0.003479218234223242
3.59075e-06;-0.0035105433854357554
3.59100e-06;-0.0035419544926915828
3.59125e-06;-0.003574307009119164
3.59150e-06;-0.003606693498881539
3.59175e-06;-0.0036394525005144164
3.59200e-06;-0.0036721999104757535
3.59225e-06;-0.0037047359405932827
3.59250e-06;-0.003736861933472546
3.59275e-06;-0.0037683981411314777
3.59300e-06;-0.0037992119716382094
3.59325e-06;-0.00382918020000527
3.59350e-06;-0.0038581246393182204
3.59375e-06;-0.0038858304249223363
3.59400e-06;-0.003912080675538563
3.59425e-06;-0.003936573648886352
3.59450e-06;-0.003958410834954612
3.59475e-06;-0.00397989585935699
3.59500e-06;-0.003997523933049312
3.59525e-06;-0.00401479770226217
3.59550e-06;-0.004028191052207693
3.59575e-06;-0.004041214260333679
3.59600e-06;-0.004050183595219157
3.59625e-06;-0.004058667556863393
3.59650e-06;-0.004061835605821381
3.59675e-06;-0.004065003654779368
3.59700e-06;-0.004067790347860243
3.59725e-06;-0.004066220859063125
3.59750e-06;-0.004062510120580984
3.59775e-06;-0.004056706366386479
3.59800e-06;-0.004048773919390158
3.59825e-06;-0.004038108878926949
3.59850e-06;-0.00402712790982684
3.59875e-06;-0.004012686821984877
3.59900e-06;-0.003997968570951021
3.59925e-06;-0.003980214768711126
3.59950e-06;-0.00396222463361744
3.59975e-06;-0.003941646130008771
3.60000e-06;-0.003920868149939239
3.60025e-06;-0.00389790546053952
3.60050e-06;-0.003874782517906932
3.60075e-06;-0.003849904447217194
3.60100e-06;-0.0038249174339388663
3.60125e-06;-0.0037987372578745385
3.60150e-06;-0.003772508556823457
3.60175e-06;-0.0037457327960471183
3.60200e-06;-0.0037187830246841374
3.60225e-06;-0.0036918085845777577
3.60250e-06;-0.0036649601375652882
3.60275e-06;-0.0036383927164110393
3.60300e-06;-0.003612280036909512
3.60325e-06;-0.0035868084980747368
3.60350e-06;-0.0035621602096378388
3.60375e-06;-0.003538510007932118
3.60400e-06;-0.0035160955146584243
3.60425e-06;-0.003495592215347621
3.60450e-06;-0.0034753596994883283
3.60475e-06;-0.0034580928625396645
3.60500e-06;-0.0034411626908188876
3.60525e-06;-0.0034279197494691428
3.60550e-06;-0.00341467680811942
3.60575e-06;-0.0034017814506065954
3.60600e-06;-0.0033926929064315666
3.60625e-06;-0.003383975627429804
3.60650e-06;-0.0033793245248819647
3.60675e-06;-0.0033746734223341177
3.60700e-06;-0.003370309833416848
3.60725e-06;-0.0033692281467494808
3.60750e-06;-0.00336973363779144
3.60775e-06;-0.0033717982119553422
3.60800e-06;-0.0033753946280558633
3.60825e-06;-0.003380495683867968
3.60850e-06;-0.003387073493500596
3.60875e-06;-0.003395083997177681
3.60900e-06;-0.003404436146016697
3.60925e-06;-0.0034150075175060335
3.60950e-06;-0.003426739434275793
3.60975e-06;-0.0034398794644810203
3.61000e-06;-0.0034531698033163
3.61025e-06;-0.003468106354767983
3.61050e-06;-0.0034831652900931967
3.61075e-06;-0.0034995646000636075
3.61100e-06;-0.003516046252514492
3.61125e-06;-0.0035334297376156554
3.61150e-06;-0.0035508566926115404
3.61175e-06;-0.0035687597392940174
3.61200e-06;-0.0035866731883622428
3.61225e-06;-0.003604695657617373
3.61250e-06;-0.0036226501615316035
3.61275e-06;-0.0036404240619979074
3.61300e-06;-0.0036578862707097384
3.61325e-06;-0.003674893599613723
3.61350e-06;-0.003691311398400729
3.61375e-06;-0.003707014404184442
3.61400e-06;-0.0037218773930387983
3.61425e-06;-0.003735725309021193
3.61450e-06;-0.0037480339009979546
3.61475e-06;-0.003760127520075996
3.61500e-06;-0.003769866709484699
3.61525e-06;-0.003779376315902361
3.61550e-06;-0.0037863714797602976
3.61575e-06;-0.003793068337999483
3.61600e-06;-0.0037964980886009353
3.61625e-06;-0.003799927839202388
3.61650e-06;-0.003802987577851883
3.61675e-06;-0.0038019948655975563
3.61700e-06;-0.0038010021533432295
3.61725e-06;-0.0037997088952559915
3.61750e-06;-0.0037951239942211634
3.61775e-06;-0.0037903141854248147
3.61800e-06;-0.003783041138193677
3.61825e-06;-0.00377555701408846
3.61850e-06;-0.003765761130418011
3.61875e-06;-0.003755770796158555
3.61900e-06;-0.003743650797003153
3.61925e-06;-0.0037313607850732247
3.61950e-06;-0.0037172087564753334
3.61975e-06;-0.0037029138411743432
3.62000e-06;-0.0036870539998052777
3.62025e-06;-0.003671078456244905
3.62050e-06;-0.0036538357172678304
3.62075e-06;-0.0036365062333025265
3.62100e-06;-0.003618226699469261
3.62125e-06;-0.003599903082117373
3.62150e-06;-0.003581079081466464
3.62175e-06;-0.0035620539310310313
3.62200e-06;-0.0035429336077141193
3.62225e-06;-0.003523824534600033
3.62250e-06;-0.003504833289683229
3.62275e-06;-0.0034860662784294595
3.62300e-06;-0.0034676354942400223
3.62325e-06;-0.0034496584210510148
3.62350e-06;-0.0034322566159385756
3.62375e-06;-0.0034155518688094005
3.62400e-06;-0.003399666143960547
3.62425e-06;-0.0033847210374283966
3.62450e-06;-0.003370807441782718
3.62475e-06;-0.0033575713797637484
3.62500e-06;-0.003343507310381023
3.62525e-06;-0.0033267885339791593
3.62550e-06;-0.0033068185330114826
3.62575e-06;-0.003283842606196504
3.62600e-06;-0.003258046128129865
3.62625e-06;-0.00322897535962453
3.62650e-06;-0.0031996324343191032
3.62675e-06;-0.003167068482092547
3.62700e-06;-0.0031313762843075544
3.62725e-06;-0.0030902479152593166
3.62750e-06;-0.003048634296344201
3.62775e-06;-0.003001423810018399
3.62800e-06;-0.0029506572301216368
3.62825e-06;-0.002894806436203663
3.62850e-06;-0.002838955642285784
3.62875e-06;-0.0027824209402053986
3.62900e-06;-0.0027183959280500246
3.62925e-06;-0.0026543709158947594
3.62950e-06;-0.0025898751730576335
3.62975e-06;-0.0025200435195486368
3.63000e-06;-0.0024480388082408436
3.63025e-06;-0.002373869442551811
3.63050e-06;-0.0022995301809688898
3.63075e-06;-0.002223330182821104
3.63100e-06;-0.002147012008506562
3.63125e-06;-0.002069338940596035
3.63150e-06;-0.0019909804967993337
3.63175e-06;-0.0019124030007279516
3.63200e-06;-0.0018340800591313971
3.63225e-06;-0.0017564855695643776
3.63250e-06;-0.0016800883174459315
3.63275e-06;-0.0016052889224679272
3.63300e-06;-0.0015323102962351521
3.63325e-06;-0.0014613262628158574
3.63350e-06;-0.0013926998521907148
3.63375e-06;-0.0013269238133182095
3.63400e-06;-0.001264495588868625
3.63425e-06;-0.001205912621512127
3.63450e-06;-0.0011516575685055234
3.63475e-06;-0.001101999171351737
3.63500e-06;-0.0010566068463003066
3.63525e-06;-0.0010148598061615265
3.63550e-06;-0.0009765897512352007
3.63575e-06;-0.000941984522762754
3.63600e-06;-0.0009112460431198949
3.63625e-06;-0.0008845762298123401
3.63650e-06;-0.0008621676988196045
3.63675e-06;-0.0008440792023258296
3.63700e-06;-0.0008299939285284135
3.63725e-06;-0.0008194133275195542
3.63750e-06;-0.000812122407612052
3.63775e-06;-0.0008081291367733268
3.63800e-06;-0.0008074503467574278
3.63825e-06;-0.0008101029565135632
3.63850e-06;-0.0008160978957839231
3.63875e-06;-0.0008253624109722195
3.63900e-06;-0.0008375883088172779
3.63925e-06;-0.0008523538279465303
3.63950e-06;-0.0008694145420445334
3.63975e-06;-0.0008886659897017992
3.64000e-06;-0.0009100090676219174
3.64025e-06;-0.000933344914846503
3.64050e-06;-0.0009585707804260757
3.64075e-06;-0.0009855314561237366
3.64100e-06;-0.0010139244656120752
3.64125e-06;-0.0010433760949663715
3.64150e-06;-0.0010736236556738944
3.64175e-06;-0.001104492167162077
3.64200e-06;-0.001135810353272274
3.64225e-06;-0.001167406637300342
3.64250e-06;-0.0011991073572379717
3.64275e-06;-0.001230705698605068
3.64300e-06;-0.0012619028630941448
3.64325e-06;-0.0012923553810617462
3.64350e-06;-0.0013217893277883616
3.64375e-06;-0.00134998581417956
3.64400e-06;-0.0013766499640171285
