Time(s);Current(A)
6.75000e-06;0.0013115162748826938
6.75025e-06;0.0013511997072864362
6.75050e-06;0.0013878592276369483
6.75075e-06;0.0014214019976388683
6.75100e-06;0.0014521896341794145
6.75125e-06;0.001480644098676993
6.75150e-06;0.0015068575872191107
6.75175e-06;0.0015307141727182593
6.75200e-06;0.0015520635899190915
6.75225e-06;0.001570755994092283
6.75250e-06;0.0015866449862736956
6.75275e-06;0.0015988062404958502
6.75300e-06;0.0016100433458505169
6.75325e-06;0.0016179494447153095
6.75350e-06;0.0016248533389609573
6.75375e-06;0.0016277629547332543
6.75400e-06;0.0016294708063095628
6.75425e-06;0.001631178657885877
6.75450e-06;0.001627165148501053
6.75475e-06;0.0016214302451770736
6.75500e-06;0.0016156953418530748
6.75525e-06;0.0016099604385290955
6.75550e-06;0.0016024799522244089
6.75575e-06;0.001590249022202337
6.75600e-06;0.0015780180921802648
6.75625e-06;0.0015657871621581512
6.75650e-06;0.0015535562321360792
6.75675e-06;0.0015382523755930377
6.75700e-06;0.0015220239633149863
6.75725e-06;0.0015057955510369898
6.75750e-06;0.0014884123862628626
6.75775e-06;0.0014706817894770585
6.75800e-06;0.0014529511926913144
6.75825e-06;0.0014347913707843671
6.75850e-06;0.0014165024073099718
6.75875e-06;0.001398313404457027
6.75900e-06;0.0013801544768971745
6.75925e-06;0.0013632729556934467
6.75950e-06;0.0013467757695411822
6.75975e-06;0.001330278583388862
6.76000e-06;0.0013137813972365975
6.76025e-06;0.0012989507658399085
6.76050e-06;0.00128546285106457
6.76075e-06;0.0012725597991843913
6.76100e-06;0.0012587399491417245
6.76125e-06;0.0012425866495660185
6.76150e-06;0.0012227188022444354
6.76175e-06;0.001201916897633146
6.76200e-06;0.0011776292578706785
6.76225e-06;0.001152292860058908
6.76250e-06;0.001124051832104983
6.76275e-06;0.0010949368839849162
6.76300e-06;0.0010614268006828708
6.76325e-06;0.0010265943468620164
6.76350e-06;0.0009865021924486844
6.76375e-06;0.0009448275445027737
6.76400e-06;0.0008988367365298236
6.76425e-06;0.000851547319404539
6.76450e-06;0.0008008527978531449
6.76475e-06;0.00074913377773217
6.76500e-06;0.0006936231671211113
6.76525e-06;0.0006369717753336568
6.76550e-06;0.0005765344309421694
6.76575e-06;0.0005149580016533351
6.76600e-06;0.00045073379045726424
6.76625e-06;0.0003857129373855704
6.76650e-06;0.0003191619798337187
6.76675e-06;0.00025215065758964824
6.76700e-06;0.00018391401232092968
6.76725e-06;0.00011530870238657436
6.76750e-06;4.604444937853026e-05
6.76775e-06;-2.344986905372336e-05
6.76800e-06;-9.26613132653771e-05
6.76825e-06;-0.00016116816297552617
6.76850e-06;-0.00022855101910471235
6.76875e-06;-0.0002944819896385245
6.76900e-06;-0.00035878959446944577
6.76925e-06;-0.0004212892885384242
6.76950e-06;-0.00048164176408234096
6.76975e-06;-0.000539419111945157
6.77000e-06;-0.0005941795627102455
6.77025e-06;-0.0006454813404252716
6.77050e-06;-0.0006928881078499728
6.77075e-06;-0.0007361948916719802
6.77100e-06;-0.0007743177753871969
6.77125e-06;-0.0008111684634350288
6.77150e-06;-0.0008426286161287234
6.77175e-06;-0.0008724669108508633
6.77200e-06;-0.0008964731700170438
6.77225e-06;-0.0009187247364233832
6.77250e-06;-0.0009347300839738176
6.77275e-06;-0.0009488561228511111
6.77300e-06;-0.0009572264166197142
6.77325e-06;-0.0009638649712430872
6.77350e-06;-0.0009653724004060663
6.77375e-06;-0.0009653360206179954
6.77400e-06;-0.0009602497054087098
6.77425e-06;-0.0009536440090099449
6.77450e-06;-0.0009420867717317983
6.77475e-06;-0.000929039757368644
6.77500e-06;-0.0009117062937449614
6.77525e-06;-0.0008930831600893239
6.77550e-06;-0.0008709224540486112
6.77575e-06;-0.0008476973936173245
6.77600e-06;-0.0008206423812036989
6.77625e-06;-0.0007924350457377053
6.77650e-06;-0.0007642277102718072
6.77675e-06;-0.0007325186208976864
6.77700e-06;-0.0006997559538887004
6.77725e-06;-0.0006669932868797143
6.77750e-06;-0.0006326785157009986
6.77775e-06;-0.0005978967607527998
6.77800e-06;-0.0005626190060336867
6.77825e-06;-0.0005271920191641421
6.77850e-06;-0.0004918887749529467
6.77875e-06;-0.00045662276136977827
6.77900e-06;-0.00042232258261330356
6.77925e-06;-0.00038831299594286754
6.77950e-06;-0.00035614391072278804
6.77975e-06;-0.0003245285797685986
6.78000e-06;-0.00029475774376777256
6.78025e-06;-0.0002670158352781505
6.78050e-06;-0.00024136394523224642
6.78075e-06;-0.00021783569448629404
6.78100e-06;-0.00019479733512730923
6.78125e-06;-0.00017179723285492852
6.78150e-06;-0.0001485475532099865
6.78175e-06;-0.00012515166506242635
6.78200e-06;-0.00010173542156886937
6.78225e-06;-7.857546140304885e-05
6.78250e-06;-5.5872713853201414e-05
6.78275e-06;-3.354764551991488e-05
6.78300e-06;-1.1049889366431322e-05
6.78325e-06;1.2161861186041825e-05
6.78350e-06;3.619157625072264e-05
6.78375e-06;6.08868377825598e-05
6.78400e-06;8.605418491174652e-05
6.78425e-06;0.00011150017803921564
6.78450e-06;0.00013706624144708333
6.78475e-06;0.00016265215367340365
6.78500e-06;0.0001888712150885159
6.78525e-06;0.00021528077299272217
6.78550e-06;0.0002427819865446419
6.78575e-06;0.00027061164807021037
6.78600e-06;0.0002984413095958732
6.78625e-06;0.00032627097112144165
6.78650e-06;0.00035414681879898625
6.78675e-06;0.0003821483578460713
6.78700e-06;0.00041014989689306145
6.78725e-06;0.0004381514359400516
6.78750e-06;0.00046615297498713666
6.78775e-06;0.000493727260184416
6.78800e-06;0.0005211729969136455
6.78825e-06;0.0005486187336429681
6.78850e-06;0.0005748746451510983
6.78875e-06;0.000600772572267701
6.78900e-06;0.0006255160302738578
6.78925e-06;0.000649912141531232
6.78950e-06;0.0006729553613972045
6.78975e-06;0.0006955915349230297
6.79000e-06;0.0007168958920138086
6.79025e-06;0.0007367359071206999
6.79050e-06;0.0007543494262703687
6.79075e-06;0.0007713893406529903
6.79100e-06;0.0007850116667175965
6.79125e-06;0.0007976057381673084
6.79150e-06;0.0008062378296694174
6.79175e-06;0.0008136778746797411
6.79200e-06;0.0008171539038389842
6.79225e-06;0.0008194372739612977
6.79250e-06;0.0008177505428948057
6.79275e-06;0.00081486932188725
6.79300e-06;0.0008077585003068772
6.79325e-06;0.0007993751128399562
6.79350e-06;0.0007867751903783171
6.79375e-06;0.0007729066330890275
6.79400e-06;0.0007551742442957395
6.79425e-06;0.000736279339071297
6.79450e-06;0.0007138707553610144
6.79475e-06;0.0006904050062518505
6.79500e-06;0.0006636170654426437
6.79525e-06;0.0006358295721335435
6.79550e-06;0.0006050819423474655
6.79575e-06;0.0005734436921268985
6.79600e-06;0.0005394201908650833
6.79625e-06;0.0005046790357603716
6.79650e-06;0.0004677712170342594
6.79675e-06;0.0004302115111701149
6.79700e-06;0.00039265180530609773
6.79725e-06;0.00035351137330383656
6.79750e-06;0.0003138953460000414
6.79775e-06;0.00027427931869638053
6.79800e-06;0.00023459682995883175
6.79825e-06;0.0001948943448761607
6.79850e-06;0.00015519185979348966
6.79875e-06;0.00011627084841390151
6.79900e-06;7.82402245987409e-05
6.79925e-06;4.1229284081754995e-05
6.79950e-06;5.4815794200327535e-06
6.79975e-06;-2.874369134226132e-05
6.80000e-06;-6.11849930892603e-05
6.80025e-06;-9.158082253738856e-05
6.80050e-06;-0.00011968464296802691
6.80075e-06;-0.0001458144664833233
6.80100e-06;-0.0001715137599571458
6.80125e-06;-0.00019806748406930012
6.80150e-06;-0.00022625211404463702
6.80175e-06;-0.00025485009082429913
6.80200e-06;-0.00028438749161756826
6.80225e-06;-0.00031460872307768916
6.80250e-06;-0.0003449506595858828
6.80275e-06;-0.00037616757593366
6.80300e-06;-0.0004076477486992079
6.80325e-06;-0.00044194406811208953
6.80350e-06;-0.0004770876855362721
6.80375e-06;-0.0005148032866174648
6.80400e-06;-0.0005532927240466992
6.80425e-06;-0.0005934475752311382
6.80450e-06;-0.0006341035017997097
6.80475e-06;-0.0006767556503302667
6.80500e-06;-0.0007200084049763097
6.80525e-06;-0.0007632611596224991
6.80550e-06;-0.0008101241412208046
6.80575e-06;-0.0008580733368909527
6.80600e-06;-0.0009060225325612632
6.80625e-06;-0.0009539717282314112
6.80650e-06;-0.0010019209239017217
6.80675e-06;-0.001050314369461931
6.80700e-06;-0.0010999168002837356
6.80725e-06;-0.001149519231105708
6.80750e-06;-0.0011991216619275124
6.80775e-06;-0.001248724092749317
6.80800e-06;-0.0012983265235712894
6.80825e-06;-0.0013462667948291622
6.80850e-06;-0.0013937069697962127
6.80875e-06;-0.0014411471447634242
6.80900e-06;-0.0014856180328739782
6.80925e-06;-0.001529195547462811
6.80950e-06;-0.0015727730620517916
6.80975e-06;-0.001611967194511533
6.81000e-06;-0.0016498424926117462
6.81025e-06;-0.0016877177907120876
6.81050e-06;-0.0017194898231891206
6.81075e-06;-0.001749425557535731
6.81100e-06;-0.00177936129188224
6.81125e-06;-0.0018041446542877379
6.81150e-06;-0.0018273778152852471
6.81175e-06;-0.0018506109762826777
6.81200e-06;-0.00186848772754423
6.81225e-06;-0.0018847528882588718
6.81250e-06;-0.0019010180489734583
6.81275e-06;-0.0019072625078940188
6.81300e-06;-0.001910492024141938
6.81325e-06;-0.0019137215403898463
6.81350e-06;-0.0019169510566377545
6.81375e-06;-0.0019201805728856736
6.81400e-06;-0.001923410089133582
6.81425e-06;-0.0019266396053814903
6.81450e-06;-0.0019298691216294095
6.81475e-06;-0.0019330986378773177
6.81500e-06;-0.0019254567579109325
6.81525e-06;-0.0019145439856428756
6.81550e-06;-0.0019036312133748187
6.81575e-06;-0.001892718441106725
6.81600e-06;-0.0018818056688386681
6.81625e-06;-0.0018708928965706112
6.81650e-06;-0.0018599801243025173
6.81675e-06;-0.0018490673520344604
6.81700e-06;-0.0018381545797664036
6.81725e-06;-0.0018229025014532194
6.81750e-06;-0.001806344850014336
6.81775e-06;-0.0017897871985754525
6.81800e-06;-0.001773229547136513
6.81825e-06;-0.0017566718956976298
6.81850e-06;-0.0017401142442587463
6.81875e-06;-0.001723556592819807
6.81900e-06;-0.0017083760686529528
6.81925e-06;-0.0016936098827093334
6.81950e-06;-0.0016788436967657638
6.81975e-06;-0.0016640775108221944
6.82000e-06;-0.0016493113248785749
6.82025e-06;-0.0016345451389350055
6.82050e-06;-0.0016197789529914359
6.82075e-06;-0.0016104093328159945
6.82100e-06;-0.0016026633849892038
6.82125e-06;-0.0015949174371624132
6.82150e-06;-0.0015871714893355962
6.82175e-06;-0.0015794255415088054
6.82200e-06;-0.0015716795936820147
6.82225e-06;-0.0015639336458551977
6.82250e-06;-0.001556187698028407
6.82275e-06;-0.0015484417502016163
6.82300e-06;-0.0015406958023747993
6.82325e-06;-0.0015329498545480086
6.82350e-06;-0.0015252039067211916
6.82375e-06;-0.001517457958894401
6.82400e-06;-0.001511233323298009
6.82425e-06;-0.0015091487991687259
6.82450e-06;-0.0015070642750394496
6.82475e-06;-0.0015049797509101735
6.82500e-06;-0.0015028952267808903
6.82525e-06;-0.001500810702651614
6.82550e-06;-0.0014987261785223377
6.82575e-06;-0.0014966416543930544
6.82600e-06;-0.0014945571302637784
6.82625e-06;-0.001492472606134502
6.82650e-06;-0.0014903880820052188
6.82675e-06;-0.0014883035578759428
6.82700e-06;-0.0014862190337466665
6.82725e-06;-0.0014841345096173832
6.82750e-06;-0.0014835265518931794
6.82775e-06;-0.001483362850784268
6.82800e-06;-0.0014831991496753571
6.82825e-06;-0.001483035448566446
6.82850e-06;-0.0014828717474575349
6.82875e-06;-0.0014827951200437675
6.82900e-06;-0.0014829554556915563
6.82925e-06;-0.0014831157913393457
6.82950e-06;-0.0014832761269871345
6.82975e-06;-0.0014834364626349235
6.83000e-06;-0.001483596798282713
6.83025e-06;-0.0014836919606141267
6.83050e-06;-0.0014837675141579924
6.83075e-06;-0.0014825945890719417
6.83100e-06;-0.0014810460324609998
6.83125e-06;-0.0014741394254587591
6.83150e-06;-0.001465620734284044
6.83175e-06;-0.0014571020431093581
6.83200e-06;-0.0014422592243467083
6.83225e-06;-0.0014255136564040492
6.83250e-06;-0.0014087680884613903
6.83275e-06;-0.0013868773077978318
6.83300e-06;-0.0013634384797318404
6.83325e-06;-0.0013344929579511106
6.83350e-06;-0.001303890629471717
6.83375e-06;-0.0012681499491915649
6.83400e-06;-0.001230863285763616
6.83425e-06;-0.0011892948713120787
6.83450e-06;-0.0011464382003959982
6.83475e-06;-0.0010996916115638467
6.83500e-06;-0.0010517746576460918
6.83525e-06;-0.000999665957534928
6.83550e-06;-0.0009462960808391312
6.83575e-06;-0.000889495908207082
6.83600e-06;-0.000831663657602676
6.83625e-06;-0.0007714682153056483
6.83650e-06;-0.000710561756193928
6.83675e-06;-0.00064806800832444
6.83700e-06;-0.000585096690649262
6.83725e-06;-0.0005208793776990713
6.83750e-06;-0.0004562871803944797
6.83775e-06;-0.0003913659945179946
6.83800e-06;-0.0003265263719879251
6.83825e-06;-0.00026222143211625915
6.83850e-06;-0.00019883953976490654
6.83875e-06;-0.00013670275278217903
6.83900e-06;-7.602164063362241e-05
6.83925e-06;-1.7020888838662058e-05
6.83950e-06;3.995866031289371e-05
6.83975e-06;9.451065868083049e-05
6.84000e-06;0.00014621848765830609
6.84025e-06;0.00019466559957853489
6.84050e-06;0.00023944298962995923
6.84075e-06;0.0002804590012521105
6.84100e-06;0.0003182090635841207
6.84125e-06;0.0003532575440168231
6.84150e-06;0.0003857318338309797
6.84175e-06;0.0004154861062385848
6.84200e-06;0.00044232977589536585
6.84225e-06;0.0004660722932918695
6.84250e-06;0.00048652790337915306
6.84275e-06;0.0005037095505066083
6.84300e-06;0.0005179980462634685
6.84325e-06;0.0005298172698015851
6.84350e-06;0.0005393173688494728
6.84375e-06;0.0005455546543897576
6.84400e-06;0.0005509704697841294
6.84425e-06;0.0005526219220982719
6.84450e-06;0.0005531407851876545
6.84475e-06;0.0005500988531677915
6.84500e-06;0.0005459855797055108
6.84525e-06;0.0005392000599346089
6.84550e-06;0.0005316105376510589
6.84575e-06;0.0005216683835257614
6.84600e-06;0.0005110183897428983
6.84625e-06;0.0004981385000110618
6.84650e-06;0.0004845876983427457
6.84675e-06;0.00046884980690029693
6.84700e-06;0.0004524538826754127
6.84725e-06;0.000436057958450584
6.84750e-06;0.00041817512371054394
6.84775e-06;0.00039984492010839134
6.84800e-06;0.00038151471650630086
6.84825e-06;0.00036318451290421043
6.84850e-06;0.0003445629401987944
6.84875e-06;0.00032585370286075064
6.84900e-06;0.00030714446552264346
6.84925e-06;0.0002884352281845997
6.84950e-06;0.00027089440925194254
6.84975e-06;0.0002537051340113587
6.85000e-06;0.00023791808166915543
6.85025e-06;0.00022255291810633607
6.85050e-06;0.00020887501510910046
6.85075e-06;0.00019570476057592136
6.85100e-06;0.0001833115891302848
6.85125e-06;0.0001711522197681911
6.85150e-06;0.0001590780339482505
6.85175e-06;0.000147029477420662
6.85200e-06;0.00013533109908057963
6.85225e-06;0.00012373807934527872
6.85250e-06;0.00011276768865964195
6.85275e-06;0.00010198462925351846
6.85300e-06;9.118909982100029e-05
6.85325e-06;8.035963435719874e-05
6.85350e-06;6.953016889343389e-05
6.85375e-06;5.847369124754275e-05
6.85400e-06;4.734891212648611e-05
6.85425e-06;3.625956555565028e-05
6.85450e-06;2.5290919088201247e-05
6.85475e-06;1.4426695696974337e-05
6.85500e-06;3.583929055102333e-06
6.85525e-06;-7.424237847829413e-06
6.85550e-06;-1.8607991130562008e-05
6.85575e-06;-2.988691762833451e-05
6.85600e-06;-4.118308920691316e-05
6.85625e-06;-5.247926078553008e-05
6.85650e-06;-6.353874984384183e-05
6.85675e-06;-7.452702553249668e-05
6.85700e-06;-8.551530122118876e-05
6.85725e-06;-9.650357690984361e-05
6.85750e-06;-0.00010735819855896241
6.85775e-06;-0.00011784909301887871
6.85800e-06;-0.00012833998747879501
6.85825e-06;-0.00013883088193874686
6.85850e-06;-0.00014932177639866314
6.85875e-06;-0.00015899902789210854
6.85900e-06;-0.0001684314774797613
6.85925e-06;-0.0001778639270673821
6.85950e-06;-0.00018666691893909435
6.85975e-06;-0.00019528052498088652
6.86000e-06;-0.00020318610085764743
6.86025e-06;-0.00021087865070098854
6.86050e-06;-0.00021791145596826024
6.86075e-06;-0.00022409592942556456
6.86100e-06;-0.0002290578627599114
6.86125e-06;-0.00023241281606772466
6.86150e-06;-0.0002340393095943264
6.86175e-06;-0.0002339601777566677
6.86200e-06;-0.00023222074195003252
6.86225e-06;-0.00022886631683844615
6.86250e-06;-0.00022394003576080176
6.86275e-06;-0.00021739757020458443
6.86300e-06;-0.00020905259564654575
6.86325e-06;-0.0001987504701704584
6.86350e-06;-0.0001865012909468095
6.86375e-06;-0.00017240552211413024
6.86400e-06;-0.0001565777499078912
6.86425e-06;-0.0001391325259154899
6.86450e-06;-0.00012018302353516046
6.86475e-06;-9.978764022442488e-05
6.86500e-06;-7.791582867861991e-05
6.86525e-06;-5.455688768502573e-05
6.86550e-06;-2.9803307500296015e-05
6.86575e-06;-3.8041882320752746e-06
6.86600e-06;2.3282556225372085e-05
6.86625e-06;5.129902135690459e-05
6.86650e-06;8.008818385193893e-05
6.86675e-06;0.00010974668788286542
6.86700e-06;0.00013961550524719675
6.86725e-06;0.000170275630921876
6.86750e-06;0.00020117383864297065
6.86775e-06;0.00023207204636396063
6.86800e-06;0.00026286041224718356
6.86825e-06;0.000293615729862012
6.86850e-06;0.00032437104747673625
6.86875e-06;0.00035414595080910137
6.86900e-06;0.0003836258755150121
6.86925e-06;0.0004118064911224016
6.86950e-06;0.0004395961817706072
6.86975e-06;0.00046605397767921907
6.87000e-06;0.0004910161983159894
6.87025e-06;0.0005143989439441953
6.87050e-06;0.0005359970481660072
6.87075e-06;0.0005544044383867126
6.87100e-06;0.0005719793393808494
6.87125e-06;0.0005860403381618257
6.87150e-06;0.0005965409273992815
6.87175e-06;0.0006038009110030704
6.87200e-06;0.0006078408540975095
6.87225e-06;0.0006086812279592037
6.87250e-06;0.0006063404946913827
6.87275e-06;0.0006007552668890323
6.87300e-06;0.0005917404332782029
6.87325e-06;0.0005791693602445471
6.87350e-06;0.0005630946635617203
6.87375e-06;0.0005436620188845263
6.87400e-06;0.0005210313091948848
6.87425e-06;0.0004953625204277341
6.87450e-06;0.0004668141441083221
6.87475e-06;0.00043549347305826944
6.87500e-06;0.00040143163546682694
6.87525e-06;0.0003646963392943507
6.87550e-06;0.0003254674984879284
6.87575e-06;0.0002839833931468859
6.87600e-06;0.00024049121328942585
6.87625e-06;0.0001952380851821289
6.87650e-06;0.0001484702647398668
6.87675e-06;0.00010040193830164972
6.87700e-06;5.119950800640954e-05
6.87725e-06;1.0522852003506773e-06
6.87750e-06;-4.978008607843973e-05
6.87775e-06;-0.00010093763083874558
6.87800e-06;-0.00015214980290150269
6.87825e-06;-0.00020336197496443332
6.87850e-06;-0.00025365274784309576
6.87875e-06;-0.00030366629805121534
6.87900e-06;-0.0003519720273057826
6.87925e-06;-0.0003997639220639028
6.87950e-06;-0.0004449419629082463
6.87975e-06;-0.0004893335698426149
6.88000e-06;-0.0005300849366878225
6.88025e-06;-0.0005697410593687103
6.88050e-06;-0.0006049935005442515
6.88075e-06;-0.0006389209998608843
6.88100e-06;-0.0006705175687236171
6.88125e-06;-0.0007014128272564541
6.88150e-06;-0.0007312682014997019
6.88175e-06;-0.0007608107042917332
6.88200e-06;-0.0007903532070836644
6.88225e-06;-0.0008173821223414791
6.88250e-06;-0.000843654770976578
6.88275e-06;-0.0008699274196115879
6.88300e-06;-0.0008944903468681342
6.88325e-06;-0.0009185388678446049
6.88350e-06;-0.0009425873888210754
6.88375e-06;-0.0009666359097976274
6.88400e-06;-0.000990684430774098
6.88425e-06;-0.0010147329517505685
6.88450e-06;-0.0010387814727271206
6.88475e-06;-0.0010628299937035911
6.88500e-06;-0.001086878514680062
6.88525e-06;-0.0011094026883818897
6.88550e-06;-0.0011314682295714676
6.88575e-06;-0.0011535337707610455
6.88600e-06;-0.001175599311950698
6.88625e-06;-0.0011976648531402758
6.88650e-06;-0.0012197303943298537
6.88675e-06;-0.0012417959355195062
6.88700e-06;-0.0012638614767090841
6.88725e-06;-0.0012859270178987368
6.88750e-06;-0.001305432009315511
6.88775e-06;-0.001324166604514679
6.88800e-06;-0.0013429011997139104
6.88825e-06;-0.0013616357949130784
6.88850e-06;-0.0013803703901122464
6.88875e-06;-0.0013991049853114778
6.88900e-06;-0.0014178395805106458
6.88925e-06;-0.0014365741757098136
6.88950e-06;-0.0014553087709090451
6.88975e-06;-0.0014718957497582732
6.89000e-06;-0.0014826381880291288
6.89025e-06;-0.0014933806263000206
6.89050e-06;-0.0015041230645708762
6.89075e-06;-0.0015148655028417318
6.89100e-06;-0.0015256079411126238
6.89125e-06;-0.0015363503793834792
6.89150e-06;-0.0015470928176543712
6.89175e-06;-0.0015578352559252268
6.89200e-06;-0.0015685776941960824
6.89225e-06;-0.0015706795337721536
6.89250e-06;-0.001570181664245807
6.89275e-06;-0.0015696837947194603
6.89300e-06;-0.001569185925193112
6.89325e-06;-0.0015686880556667654
6.89350e-06;-0.0015681901861404187
6.89375e-06;-0.0015676923166140706
