Time(s);Current(A)
4.25000e-06;0.0035737024419244083
4.25025e-06;0.003545789842335955
4.25050e-06;0.0035181594819312092
4.25075e-06;0.003490992385761802
4.25100e-06;0.0034644514108763515
4.25125e-06;0.003438700747178791
4.25150e-06;0.0034139323473122846
4.25175e-06;0.0033903557918252493
4.25200e-06;0.003368181575330601
4.25225e-06;0.0033476203938498047
4.25250e-06;0.0033288827419957574
4.25275e-06;0.003312026246362994
4.25300e-06;0.003296673872438929
4.25325e-06;0.003282276371686618
4.25350e-06;0.0032686533431608733
4.25375e-06;0.0032563768885493314
4.25400e-06;0.0032441941415354645
4.25425e-06;0.00323471782844959
4.25450e-06;0.0032254373542139445
4.25475e-06;0.00321615687997833
4.25500e-06;0.0032093167955980534
4.25525e-06;0.003202653298991979
4.25550e-06;0.0031971046037660433
4.25575e-06;0.003191636576099832
4.25600e-06;0.003187857450631576
4.25625e-06;0.0031842005349321336
4.25650e-06;0.003180543619232679
4.25675e-06;0.0031789392089469626
4.25700e-06;0.003177483318932195
4.25725e-06;0.0031760274289174225
4.25750e-06;0.003175790955817887
4.25775e-06;0.003175642720308094
4.25800e-06;0.0031754944847983005
4.25825e-06;0.0031770091839638465
4.25850e-06;0.003178644213875841
4.25875e-06;0.0031802792437878417
4.25900e-06;0.0031819142736998368
4.25925e-06;0.003183549303611832
4.25950e-06;0.003186479018620682
4.25975e-06;0.003189502417660785
4.26000e-06;0.0031925258167008882
4.26025e-06;0.0031955492157410012
4.26050e-06;0.0031985726147811043
4.26075e-06;0.00320231159710853
4.26100e-06;0.00320610235938399
4.26125e-06;0.0032099496772689104
4.26150e-06;0.0032138711972338543
4.26175e-06;0.003217792717198785
4.26200e-06;0.003221733170006322
4.26225e-06;0.003225691711024502
4.26250e-06;0.0032296703511997763
4.26275e-06;0.003233964313387593
4.26300e-06;0.003239654493088756
4.26325e-06;0.003248023659678642
4.26350e-06;0.003259526453770618
4.26375e-06;0.0032753526772744063
4.26400e-06;0.0032914763157627586
4.26425e-06;0.0033125425769054613
4.26450e-06;0.0033339664885813445
4.26475e-06;0.00336029350711618
4.26500e-06;0.0033869753168023946
4.26525e-06;0.00342190626588624
4.26550e-06;0.0034574341266320275
4.26575e-06;0.0034929619873779356
4.26600e-06;0.0035373997914947075
4.26625e-06;0.003582482323364119
4.26650e-06;0.0036275648552336836
4.26675e-06;0.00367998661379582
4.26700e-06;0.003732939442302449
4.26725e-06;0.003785892270809257
4.26750e-06;0.0038450663040187584
4.26775e-06;0.003904690506568216
4.26800e-06;0.003968075006148452
4.26825e-06;0.004031731602615351
4.26850e-06;0.004097872700434573
4.26875e-06;0.004164193577957028
4.26900e-06;0.004232332616304604
4.26925e-06;0.004300603217637022
4.26950e-06;0.00437006993169752
4.26975e-06;0.004439623197045597
4.27000e-06;0.0045089678103096996
4.27025e-06;0.004578297325409225
4.27050e-06;0.004645968696942561
4.27075e-06;0.004713520084416731
4.27100e-06;0.004778346184730416
4.27125e-06;0.0048429750819652135
4.27150e-06;0.004903838688415228
4.27175e-06;0.00496442983662778
4.27200e-06;0.0050197256511443685
4.27225e-06;0.005074638292789033
4.27250e-06;0.005122670626528636
4.27275e-06;0.005170205097906366
4.27300e-06;0.005209207197166274
4.27325e-06;0.005247591889909695
4.27350e-06;0.0052765108127100155
4.27375e-06;0.005304744787882058
4.27400e-06;0.0053208099245388
4.27425e-06;0.0053359945182362405
4.27450e-06;0.005351179111933629
4.27475e-06;0.005351327583635829
4.27500e-06;0.005350388034378468
4.27525e-06;0.0053494484851211105
4.27550e-06;0.005338430092106585
4.27575e-06;0.0053218666729922814
4.27600e-06;0.005300307120891871
4.27625e-06;0.005273931212483993
4.27650e-06;0.005242918693025443
4.27675e-06;0.005207439320264603
4.27700e-06;0.005167653444458492
4.27725e-06;0.005123765079858453
4.27750e-06;0.005076058306130771
4.27775e-06;0.0050248557667985465
4.27800e-06;0.00497048205920115
4.27825e-06;0.004913261749255673
4.27850e-06;0.0048535207055976914
4.27875e-06;0.004791576206338535
4.27900e-06;0.004727741427237305
4.27925e-06;0.004662356215528425
4.27950e-06;0.004595810567182753
4.27975e-06;0.004528518809484292
4.28000e-06;0.00446089634372287
4.28025e-06;0.004393358539767225
4.28050e-06;0.004326320767485406
4.28075e-06;0.004260194922829394
4.28100e-06;0.004195388307982528
4.28125e-06;0.00413232571472957
4.28150e-06;0.004071464054153361
4.28175e-06;0.004013274192750358
4.28200e-06;0.003958227845404206
4.28225e-06;0.003906797595478348
4.28250e-06;0.003859455220700188
4.28275e-06;0.0038165753834232936
4.28300e-06;0.003778217847422199
4.28325e-06;0.0037442264276092217
4.28350e-06;0.003714578131977406
4.28375e-06;0.003689394149151966
4.28400e-06;0.0036710177802544586
4.28425e-06;0.0036531121724348407
4.28450e-06;0.003646526103024284
4.28475e-06;0.0036407591208116215
4.28500e-06;0.0036349921385989393
4.28525e-06;0.003640008843240825
4.28550e-06;0.003645805860606519
4.28575e-06;0.00365959201646462
4.28600e-06;0.003673956270194202
4.28625e-06;0.0036960151394690543
4.28650e-06;0.0037186307947944075
4.28675e-06;0.003748510625751372
4.28700e-06;0.0037789160959215556
4.28725e-06;0.003815593070204972
4.28750e-06;0.0038527238535169947
4.28775e-06;0.0038952002337487527
4.28800e-06;0.0039380634239228555
4.28825e-06;0.003985482655028747
4.28850e-06;0.0040332315634294446
4.28875e-06;0.004084661520150501
4.28900e-06;0.004136357839283544
4.28925e-06;0.004190508914362968
4.28950e-06;0.004244837616753162
4.28975e-06;0.004300436035468618
4.29000e-06;0.004356126331463088
4.29025e-06;0.00441198750070429
4.29050e-06;0.004467861034415316
4.29075e-06;0.004522752969715321
4.29100e-06;0.004577573876086199
4.29125e-06;0.0046300405529574405
4.29150e-06;0.00468233687665918
4.29175e-06;0.004730932828382179
4.29200e-06;0.004779261019424289
4.29225e-06;0.004822596541707717
4.29250e-06;0.004865570792098843
4.29275e-06;0.004902146523320117
4.29300e-06;0.004938259254642763
4.29325e-06;0.004966567399264197
4.29350e-06;0.004994310800270156
4.29375e-06;0.005011735295442491
4.29400e-06;0.005028413109667846
4.29425e-06;0.005045090923893258
4.29450e-06;0.00504908532578347
4.29475e-06;0.005052161949908722
4.29500e-06;0.0050552385740339646
4.29525e-06;0.005045362412581725
4.29550e-06;0.005034548981388257
4.29575e-06;0.005023735550194826
4.29600e-06;0.005004696609469018
4.29625e-06;0.004981214670658653
4.29650e-06;0.0049537602279678275
4.29675e-06;0.004922483795588372
4.29700e-06;0.004887507493704306
4.29725e-06;0.004848985333609709
4.29750e-06;0.004807157585722314
4.29775e-06;0.004762309666418794
4.29800e-06;0.004714729820036287
4.29825e-06;0.004664707593630023
4.29850e-06;0.004612531325802004
4.29875e-06;0.004558479707620214
4.29900e-06;0.004502815540489991
4.29925e-06;0.0044458196325935844
4.29950e-06;0.0043878280203700805
4.29975e-06;0.004329204085492519
4.30000e-06;0.004270313774889564
4.30025e-06;0.004211523098332844
4.30050e-06;0.004153198499833493
4.30075e-06;0.004095699072753362
4.30100e-06;0.004039373823014274
4.30125e-06;0.003984584526683738
4.30150e-06;0.003931726067628636
4.30175e-06;0.0038812110704294347
4.30200e-06;0.0038334537093792534
4.30225e-06;0.003788868190193486
4.30250e-06;0.0037478682843475127
4.30275e-06;0.003710506010383691
4.30300e-06;0.0036758154094643667
4.30325e-06;0.0036424502282391288
4.30350e-06;0.0036099611732261084
4.30375e-06;0.0035785747088786474
4.30400e-06;0.003548570720554021
4.30425e-06;0.003520229769178041
4.30450e-06;0.003493832632795958
4.30475e-06;0.003469432997900544
4.30500e-06;0.003446447154896572
4.30525e-06;0.003424053007344669
4.30550e-06;0.0034019904791125623
4.30575e-06;0.0033804230887051366
4.30600e-06;0.003359967979039438
4.30625e-06;0.0033395908739374254
4.30650e-06;0.0033211930325191515
4.30675e-06;0.003302938411564757
4.30700e-06;0.0032860623924926505
4.30725e-06;0.0032692861297101364
4.30750e-06;0.003252916532228085
4.30775e-06;0.003236576361241135
4.30800e-06;0.003222024931353134
4.30825e-06;0.0032076029356238774
4.30850e-06;0.0031931809398946694
4.30875e-06;0.0031787589441654614
4.30900e-06;0.0031643369484362044
4.30925e-06;0.00315165299634324
4.30950e-06;0.0031390948099164814
4.30975e-06;0.00312653662348968
4.31000e-06;0.0031156867111683663
4.31025e-06;0.0031049604103758088
4.31050e-06;0.003094234109583215
4.31075e-06;0.003083507808790657
4.31100e-06;0.0030738865489292294
4.31125e-06;0.0030657151246595224
4.31150e-06;0.003057543700389843
4.31175e-06;0.003049372276120136
4.31200e-06;0.003041200851850457
4.31225e-06;0.003035320185739231
4.31250e-06;0.0030296052799805126
4.31275e-06;0.003023890374221814
4.31300e-06;0.003019394885378693
4.31325e-06;0.003014987634124954
4.31350e-06;0.0030106476899951834
4.31375e-06;0.003006312616240992
4.31400e-06;0.003001977542486786
4.31425e-06;0.0029981477064017566
4.31450e-06;0.0029943544295553477
4.31475e-06;0.0029905611527089263
4.31500e-06;0.002986814539908257
4.31525e-06;0.0029830713037401852
4.31550e-06;0.0029793280675721005
4.31575e-06;0.002975584831404029
4.31600e-06;0.0029718415952359445
4.31625e-06;0.0029680983590678724
4.31650e-06;0.0029642118902102874
4.31675e-06;0.0029601374972267258
4.31700e-06;0.0029560631042431784
4.31725e-06;0.0029519887112596306
4.31750e-06;0.002947914318276069
4.31775e-06;0.0029438399252925216
4.31800e-06;0.002939765532308974
4.31825e-06;0.0029356769074038525
4.31850e-06;0.002931587252670116
4.31875e-06;0.00292749759793638
4.31900e-06;0.0029234079432026295
4.31925e-06;0.002919318288468893
4.31950e-06;0.002915228633735157
4.31975e-06;0.0029111389790014066
4.32000e-06;0.0029074854550255355
4.32025e-06;0.002904404143243323
4.32050e-06;0.0029013228314611213
4.32075e-06;0.0028982415196789194
4.32100e-06;0.002895160207896707
4.32125e-06;0.0028920788961145057
4.32150e-06;0.002888997584332304
4.32175e-06;0.0028859162725500915
4.32200e-06;0.0028838895403657592
4.32225e-06;0.0028823001882159333
4.32250e-06;0.002881144279934251
4.32275e-06;0.002880674849657972
4.32300e-06;0.0028816833454756267
4.32325e-06;0.0028850863922813114
4.32350e-06;0.0028924404861906707
4.32375e-06;0.0029000684837380587
4.32400e-06;0.0029134925655104503
4.32425e-06;0.002927336054700393
4.32450e-06;0.002941179543890336
4.32475e-06;0.002962021598880111
4.32500e-06;0.002983370073427378
4.32525e-06;0.0030047185479747172
4.32550e-06;0.00303450328296418
4.32575e-06;0.0030648984697808327
4.32600e-06;0.003095293656597588
4.32625e-06;0.003132798719274988
4.32650e-06;0.0031708182559589447
4.32675e-06;0.0032088377926430306
4.32700e-06;0.0032532780670863314
4.32725e-06;0.003298182949174635
4.32750e-06;0.0033430878312630907
4.32775e-06;0.0033935774676818985
4.32800e-06;0.003444471219586267
4.32825e-06;0.003495364971490808
4.32850e-06;0.0035496764054539893
4.32875e-06;0.0036042351445201132
4.32900e-06;0.003658793883586422
4.32925e-06;0.003715224520617743
4.32950e-06;0.0037717906090783205
4.32975e-06;0.0038288693172795684
4.33000e-06;0.003885985118889621
4.33025e-06;0.003942431648855982
4.33050e-06;0.003998829750006971
4.33075e-06;0.0040534791686535464
4.33100e-06;0.0041080020518007325
4.33125e-06;0.0041599824626201
4.33150e-06;0.004211778898929914
4.33175e-06;0.004259918604331094
4.33200e-06;0.00430779370694049
4.33225e-06;0.0043507380199204445
4.33250e-06;0.004393325538612605
4.33275e-06;0.0044317908216417005
4.33300e-06;0.004468294246172718
4.33325e-06;0.004504412842011533
4.33350e-06;0.004540512301987491
4.33375e-06;0.0045759800882238634
4.33400e-06;0.004611402166247218
4.33425e-06;0.004646824244270572
4.33450e-06;0.004680238471175719
4.33475e-06;0.004713507409016777
4.33500e-06;0.004746171451221207
4.33525e-06;0.004778791722889155
4.33550e-06;0.004812610712722764
4.33575e-06;0.004846516442374215
4.33600e-06;0.0048804221720257805
4.33625e-06;0.0049142956438850876
4.33650e-06;0.0049481667815551795
4.33675e-06;0.004982037919225386
4.33700e-06;0.005016154142712444
4.33725e-06;0.005050591923646182
4.33750e-06;0.005085029704580036
4.33775e-06;0.005119467485513773
4.33800e-06;0.00515421714967013
4.33825e-06;0.005188989381845002
4.33850e-06;0.005223761614019876
4.33875e-06;0.005258533846194867
4.33900e-06;0.005293306078369741
4.33925e-06;0.005327112909267241
4.33950e-06;0.005360849883268286
4.33975e-06;0.005394586857269216
4.34000e-06;0.005428323831270147
4.34025e-06;0.005462060805271192
4.34050e-06;0.005493530643742653
4.34075e-06;0.005524836431206636
4.34100e-06;0.005556142218670725
4.34125e-06;0.005585022344234984
4.34150e-06;0.005613726947748066
4.34175e-06;0.005642431551261245
4.34200e-06;0.005668417525952225
4.34225e-06;0.0056942067793659895
4.34250e-06;0.005717856968956157
4.34275e-06;0.005739994073683022
4.34300e-06;0.0057615834531965235
4.34325e-06;0.005784297125223018
4.34350e-06;0.005807094504865743
4.34375e-06;0.005831746955692893
4.34400e-06;0.005856533640354997
4.34425e-06;0.005881320325017101
4.34450e-06;0.005906956599279521
4.34475e-06;0.005932654350250242
4.34500e-06;0.005960578953798657
4.34525e-06;0.005988664693461002
4.34550e-06;0.006016750433123251
4.34575e-06;0.00604848031074879
4.34600e-06;0.006080473879934234
4.34625e-06;0.00611246744911957
4.34650e-06;0.006146962878899698
4.34675e-06;0.006181639344504702
4.34700e-06;0.006216315810109705
4.34725e-06;0.006252463538706782
4.34750e-06;0.006290541593492492
4.34775e-06;0.0063286196482782026
4.34800e-06;0.006366697703064041
4.34825e-06;0.006406467265485596
4.34850e-06;0.0064463592262058176
4.34875e-06;0.006486251186926174
4.34900e-06;0.006526733568632752
4.34925e-06;0.0065672586734832825
4.34950e-06;0.006607783778333951
4.34975e-06;0.006648210021322828
4.35000e-06;0.006688629110620282
4.35025e-06;0.006729048199917873
4.35050e-06;0.006767591374534462
4.35075e-06;0.006805998807070877
4.35100e-06;0.006844406239607161
4.35125e-06;0.006879963613496351
4.35150e-06;0.006915314755783725
4.35175e-06;0.0069506658980709795
4.35200e-06;0.006983385548930893
4.35225e-06;0.007014237750831623
4.35250e-06;0.007043076186043966
4.35275e-06;0.007069474044550761
4.35300e-06;0.007090459814371594
4.35325e-06;0.007111066024826892
4.35350e-06;0.007123045633187151
4.35375e-06;0.007134401016508832
4.35400e-06;0.007135153211861561
4.35425e-06;0.007135138155479938
4.35450e-06;0.007135123099098316
4.35475e-06;0.0071221516384726785
4.35500e-06;0.0071082426462616075
4.35525e-06;0.007094333654050583
4.35550e-06;0.007068492339105332
4.35575e-06;0.007041787595600717
4.35600e-06;0.0070084155386677645
4.35625e-06;0.0069704539944773335
4.35650e-06;0.006928341387465424
4.35675e-06;0.006882272772009144
4.35700e-06;0.006832249646544696
4.35725e-06;0.0067782503506092166
4.35750e-06;0.006720495272347068
4.35775e-06;0.006659364795234999
4.35800e-06;0.006595250043332354
4.35825e-06;0.006528545211797465
4.35850e-06;0.006459642544542926
4.35875e-06;0.006388887230505387
4.35900e-06;0.006316502951923628
4.35925e-06;0.0062426991991982785
4.35950e-06;0.0061678357353576255
4.35975e-06;0.006092373548604093
4.36000e-06;0.0060167818998279185
4.36025e-06;0.005941528438649184
4.36050e-06;0.00586708242595813
4.36075e-06;0.00579388241732694
4.36100e-06;0.005722290916665711
4.36125e-06;0.0056526611780259705
4.36150e-06;0.005585442139594867
4.36175e-06;0.005521143963711825
4.36200e-06;0.005460283780114362
4.36225e-06;0.0054033763330554275
4.36250e-06;0.005350937915215935
4.36275e-06;0.005303229177892216
4.36300e-06;0.00525976925617023
4.36325e-06;0.005221210658856969
4.36350e-06;0.0051829861535962534
4.36375e-06;0.005151078747599959
4.36400e-06;0.005119628449916482
4.36425e-06;0.005097288062902502
4.36450e-06;0.005075606873365454
4.36475e-06;0.005053925683828405
4.36500e-06;0.005041016349502782
4.36525e-06;0.005028741750799994
4.36550e-06;0.0050219770001133975
4.36575e-06;0.005015610944654592
4.36600e-06;0.005016270739712915
4.36625e-06;0.0050174389286623405
4.36650e-06;0.005018607117611771
4.36675e-06;0.005027880531752431
4.36700e-06;0.005037740443849885
4.36725e-06;0.005047600355947373
4.36750e-06;0.005062454456643552
4.36775e-06;0.005077669939206384
4.36800e-06;0.005097244607458517
4.36825e-06;0.005117134708464151
4.36850e-06;0.005137024809469852
4.36875e-06;0.00516127525413688
4.36900e-06;0.0051858412153488
4.36925e-06;0.005210407176560803
4.36950e-06;0.0052371905094547415
4.36975e-06;0.005264134292420083
4.37000e-06;0.005291078075385517
4.37025e-06;0.005319006279318903
4.37050e-06;0.005347005716422572
4.37075e-06;0.005375005153526335
4.37100e-06;0.005402661830910502
4.37125e-06;0.005430293706038056
4.37150e-06;0.005456001321152577
4.37175e-06;0.005481569695895642
4.37200e-06;0.0055071380706387925
4.37225e-06;0.005527729731633563
4.37250e-06;0.0055479612752503725
4.37275e-06;0.00556819281886725
4.37300e-06;0.005588424362484058
4.37325e-06;0.005608655906100867
4.37350e-06;0.005626265948539554
4.37375e-06;0.005640436529506465
4.37400e-06;0.005654607110473375
4.37425e-06;0.005668777691440334
4.37450e-06;0.0056829482724072445
4.37475e-06;0.0056971188533741545
4.37500e-06;0.005704014693641769
4.37525e-06;0.0057103841302064235
4.37550e-06;0.005716753566771077
4.37575e-06;0.005723123003335752
4.37600e-06;0.005729492439900406
4.37625e-06;0.005735861876465081
4.37650e-06;0.005742231313029735
4.37675e-06;0.005748600749594389
4.37700e-06;0.005754970186159065
4.37725e-06;0.005761339622723718
4.37750e-06;0.005767709059288372
4.37775e-06;0.005771364222407543
4.37800e-06;0.005771458205003008
4.37825e-06;0.0057715521875984725
4.37850e-06;0.005771646170193937
4.37875e-06;0.005771740152789401
4.37900e-06;0.005771834135384866
4.37925e-06;0.00577192811798033
4.37950e-06;0.005772022100575795
4.37975e-06;0.00577211608317126
4.38000e-06;0.005772210065766724
4.38025e-06;0.005772304048362189
4.38050e-06;0.005772398030957654
4.38075e-06;0.0057713578554741485
4.38100e-06;0.005770235611771738
4.38125e-06;0.005769113368069323
4.38150e-06;0.005768237706364131
4.38175e-06;0.005767685565123466
4.38200e-06;0.005767133423882799
4.38225e-06;0.0057665812826421334
4.38250e-06;0.00576681694492308
4.38275e-06;0.005767109613042154
4.38300e-06;0.005769368734780141
4.38325e-06;0.005771770150038787
4.38350e-06;0.005778316960401949
4.38375e-06;0.0057851637335296635
4.38400e-06;0.005792010506657379
4.38425e-06;0.005804284151868903
4.38450e-06;0.005816950488129639
4.38475e-06;0.005829616824390417
4.38500e-06;0.005842283160651153
4.38525e-06;0.0058620898057270745
4.38550e-06;0.005882413126950402
4.38575e-06;0.005902736448173661
4.38600e-06;0.00592305976939692
4.38625e-06;0.005951404869453224
4.38650e-06;0.005980330429247133
4.38675e-06;0.0060092559890410424
4.38700e-06;0.00603818154883505
4.38725e-06;0.0060671071086289595
4.38750e-06;0.006096032668422869
4.38775e-06;0.006131987914517109
4.38800e-06;0.006168451832060599
4.38825e-06;0.00620491574960409
4.38850e-06;0.006241379667147704
4.38875e-06;0.006277843584691196
4.38900e-06;0.006314307502234809
4.38925e-06;0.006353355000113595
4.38950e-06;0.006392589447096138
4.38975e-06;0.006431823894078813
4.39000e-06;0.006470978296245096
4.39025e-06;0.006510126906330345
4.39050e-06;0.006549275516415726
4.39075e-06;0.006586690352885849
4.39100e-06;0.006623979732671308
4.39125e-06;0.006661269112456892
4.39150e-06;0.006696110105141001
4.39175e-06;0.006730773931368189
4.39200e-06;0.006762531175438307
4.39225e-06;0.0067940780978389004
4.39250e-06;0.006821805015273964
4.39275e-06;0.006849255515330204
4.39300e-06;0.006871203115201532
4.39325e-06;0.006892752522594345
4.39350e-06;0.006905737568886628
4.39375e-06;0.006918102893930227
4.39400e-06;0.006930468218973867
4.39425e-06;0.006933608409097945
4.39450e-06;0.00693608106406508
4.39475e-06;0.0069370652679087924
4.39500e-06;0.006932444008303975
4.39525e-06;0.006921940782039704
4.39550e-06;0.006910925012172162
4.39575e-06;0.0068890628484400245
4.39600e-06;0.006865129885186325
4.39625e-06;0.006841005563915929
4.39650e-06;0.0068131423753936835
4.39675e-06;0.006781839905502609
4.39700e-06;0.006748321565903061
4.39725e-06;0.006710234228031912
4.39750e-06;0.006671386657386532
4.39775e-06;0.006628933599879704
4.39800e-06;0.006607813687405083
4.39825e-06;0.006542641799567944
4.39850e-06;0.006497228696086535
4.39875e-06;0.006442368398045957
4.39900e-06;0.006385896527470762
4.39925e-06;0.006332881898144415
4.39950e-06;0.006279105230402437
4.39975e-06;0.006224556207356729
4.40000e-06;0.006170155656501351
