Time(s);Current(A)
1.20000e-05;0.0016694304462995767
1.20003e-05;0.0016724178380806416
1.20005e-05;0.0016754052298617063
1.20008e-05;0.0016783926216427509
1.20010e-05;0.0016813800134238156
1.20013e-05;0.0016843674052048805
1.20015e-05;0.001687354796985925
1.20018e-05;0.0016903421887669897
1.20020e-05;0.0016933295805480544
1.20023e-05;0.001696316972329099
1.20025e-05;0.001699304364110164
1.20028e-05;0.0016995763576560824
1.20030e-05;0.0016961744025986345
1.20033e-05;0.0016927724475411636
1.20035e-05;0.0016893704924836924
1.20038e-05;0.0016859685374262445
1.20040e-05;0.0016825665823687734
1.20043e-05;0.0016791646273113024
1.20045e-05;0.0016757626722538545
1.20048e-05;0.0016723607171963834
1.20050e-05;0.0016689587621389124
1.20052e-05;0.0016655568070814645
1.20055e-05;0.0016621548520239933
1.20058e-05;0.0016587528969665224
1.20060e-05;0.0016553509419090745
1.20063e-05;0.0016513531230984003
1.20065e-05;0.0016465490973838043
1.20068e-05;0.0016417450716692081
1.20070e-05;0.0016369410459546447
1.20073e-05;0.0016321370202400484
1.20075e-05;0.0016273329945254524
1.20078e-05;0.0016225289688108888
1.20080e-05;0.0016177249430962928
1.20083e-05;0.001612683943386356
1.20085e-05;0.0016076237263535603
1.20088e-05;0.0016025635093207303
1.20090e-05;0.0015975032922879004
1.20093e-05;0.001592443075255105
1.20095e-05;0.001587382858222275
1.20098e-05;0.001582322641189445
1.20100e-05;0.0015723913274539533
1.20103e-05;0.001555869393344524
1.20105e-05;0.0015393474592350943
1.20108e-05;0.0015228255251257769
1.20110e-05;0.0015063035910163473
1.20113e-05;0.0014897816569069177
1.20115e-05;0.0014732597227976002
1.20118e-05;0.0014567377886881708
1.20120e-05;0.0014402158545787412
1.20123e-05;0.0014169650237996288
1.20125e-05;0.0013846099591699483
1.20128e-05;0.0013522548945402676
1.20130e-05;0.0013198998299108063
1.20133e-05;0.0012875447652811259
1.20135e-05;0.0012551897006514452
1.20137e-05;0.001222834636021984
1.20140e-05;0.0011904795713923032
1.20143e-05;0.0011581245067626227
1.20145e-05;0.0011222128801016175
1.20148e-05;0.0010814892056366467
1.20150e-05;0.001040765531171676
1.20153e-05;0.001000041856706705
1.20155e-05;0.0009593181822420102
1.20158e-05;0.0009180732176975459
1.20160e-05;0.0008761229448356778
1.20163e-05;0.0008341726719740939
1.20165e-05;0.0007922223991122258
1.20168e-05;0.0007502721262503576
1.20170e-05;0.0007094077803848791
1.20173e-05;0.0006700126996607689
1.20175e-05;0.0006306176189366587
1.20178e-05;0.0005925457225157562
1.20180e-05;0.0005562641016649696
1.20183e-05;0.0005215382148624697
1.20185e-05;0.0004889172447029217
1.20188e-05;0.00045774938474006855
1.20190e-05;0.00042961201175847224
1.20193e-05;0.0004038899368190235
1.20195e-05;0.00038032281734398085
1.20198e-05;0.0003586943447851622
1.20200e-05;0.000339012924513286
1.20203e-05;0.00032138638257012527
1.20205e-05;0.00030592315546185063
1.20208e-05;0.0002927316513207042
1.20210e-05;0.0002818845230128617
1.20213e-05;0.00027331420996284494
1.20215e-05;0.0002667972399966342
1.20218e-05;0.00026213770967603654
1.20220e-05;0.00025928052565314365
1.20222e-05;0.00025823286201540047
1.20225e-05;0.00025900226465741945
1.20228e-05;0.00026159629257259523
1.20230e-05;0.0002660000670390991
1.20233e-05;0.00027211085456305524
1.20235e-05;0.0002799944910994913
1.20238e-05;0.00028902955698605586
1.20240e-05;0.00029908176414086043
1.20243e-05;0.00031051016897311925
1.20245e-05;0.0003228611000139189
1.20248e-05;0.00033646021404070103
1.20250e-05;0.0003509756657581287
1.20253e-05;0.0003667309273631133
1.20255e-05;0.0003824861889679911
1.20258e-05;0.0003988991972675453
1.20260e-05;0.00041620214042830273
1.20263e-05;0.0004335050835889429
1.20265e-05;0.00045080802674970035
1.20268e-05;0.00046811096991045776
1.20270e-05;0.00048514852336352035
1.20273e-05;0.000501827003096466
1.20275e-05;0.0005185054828294115
1.20278e-05;0.000535183962562244
1.20280e-05;0.0005518624422951896
1.20283e-05;0.0005673161042391698
1.20285e-05;0.0005811125810415546
1.20288e-05;0.0005949090578440329
1.20290e-05;0.0006074564064129472
1.20293e-05;0.0006183136776762495
1.20295e-05;0.0006278068445563878
1.20298e-05;0.0006354543707740123
1.20300e-05;0.0006416528808644479
1.20303e-05;0.00064589086424025
1.20305e-05;0.0006486788048793038
1.20307e-05;0.000649504829795324
1.20310e-05;0.0006488498899993946
1.20313e-05;0.000646191196879511
1.20315e-05;0.0006419769799810789
1.20318e-05;0.0006356581309352742
1.20320e-05;0.0006278571916176268
1.20323e-05;0.0006180509760873654
1.20325e-05;0.0006068887453626696
1.20328e-05;0.0005938918186917755
1.20330e-05;0.0005796461513427802
1.20333e-05;0.0005637109310529128
1.20335e-05;0.0005463493006611605
1.20338e-05;0.0005270577296301464
1.20340e-05;0.000507766158599263
1.20343e-05;0.00048713456109643945
1.20345e-05;0.00046468990047629646
1.20348e-05;0.00044224523985630557
1.20350e-05;0.00041890077449516694
1.20353e-05;0.0003943388684169574
1.20355e-05;0.0003697769623389144
1.20358e-05;0.0003447549985245659
1.20360e-05;0.0003191105740866215
1.20363e-05;0.0002934661496488509
1.20365e-05;0.00026782172521090653
1.20368e-05;0.00024267559918246274
1.20370e-05;0.00021756988248875257
1.20373e-05;0.0001924641657948723
1.20375e-05;0.0001678691113857806
1.20378e-05;0.00014430754565626031
1.20380e-05;0.00012162359088241117
1.20383e-05;9.998565728840541e-05
1.20385e-05;7.956215746400193e-05
1.20388e-05;6.0521478895989195e-05
1.20390e-05;4.297542185694684e-05
1.20392e-05;2.6819003474835713e-05
1.20395e-05;1.1721819487641376e-05
1.20398e-05;-2.571373638186713e-06
1.20400e-05;-1.607275552179622e-05
1.20403e-05;-2.8691162475293406e-05
1.20405e-05;-4.03347675476654e-05
1.20408e-05;-5.091177064068704e-05
1.20410e-05;-6.036582836259866e-05
1.20413e-05;-6.877638431340492e-05
1.20415e-05;-7.636408056957592e-05
1.20418e-05;-8.330245428898178e-05
1.20420e-05;-8.961278058098691e-05
1.20423e-05;-9.525160379713836e-05
1.20425e-05;-0.00010017505609738716
1.20428e-05;-0.00010433929347028891
1.20430e-05;-0.00010772268552470168
1.20433e-05;-0.00011038865127837441
1.20435e-05;-0.00011248905395438976
1.20438e-05;-0.00011414623573818207
1.20440e-05;-0.00011529411946562644
1.20443e-05;-0.00011607234497810572
1.20445e-05;-0.00011646668499112522
1.20448e-05;-0.00011634162583165306
1.20450e-05;-0.00011585422760504206
1.20453e-05;-0.00011487658264627257
1.20455e-05;-0.00011369169706359729
1.20458e-05;-0.00011222641378754476
1.20460e-05;-0.00011058055339143137
1.20463e-05;-0.00010869037116796274
1.20465e-05;-0.0001068001889444813
1.20468e-05;-0.0001047273256182103
1.20470e-05;-0.00010240729376448405
1.20473e-05;-0.00010008726191074208
1.20475e-05;-9.776723005700012e-05
1.20477e-05;-9.552733327506021e-05
1.20480e-05;-9.339585968187921e-05
1.20483e-05;-9.126438608869822e-05
1.20485e-05;-8.913291249553166e-05
1.20488e-05;-8.717974274185855e-05
1.20490e-05;-8.54678190546054e-05
1.20493e-05;-8.397062220145043e-05
1.20495e-05;-8.276395192487078e-05
1.20498e-05;-8.184524254234516e-05
1.20500e-05;-8.131614581857638e-05
1.20503e-05;-8.107078295486508e-05
1.20505e-05;-8.12093135498608e-05
1.20508e-05;-8.162383050402808e-05
1.20510e-05;-8.241175850598057e-05
1.20513e-05;-8.350246985082001e-05
1.20515e-05;-8.500284870842466e-05
1.20518e-05;-8.6823995129675e-05
1.20520e-05;-8.907914181240308e-05
1.20523e-05;-9.162451906217855e-05
1.20525e-05;-9.456257985059636e-05
1.20528e-05;-9.775813256483237e-05
1.20530e-05;-0.00010130207325773957
1.20533e-05;-0.00010509240643341858
1.20535e-05;-0.00010921610998093914
1.20538e-05;-0.00011361732949466147
1.20540e-05;-0.00011839402962280939
1.20543e-05;-0.00012317072975098967
1.20545e-05;-0.0001282504935344264
1.20548e-05;-0.00013374030409479582
1.20550e-05;-0.00013923011465520244
1.20553e-05;-0.00014471992521560904
1.20555e-05;-0.00015020973577597845
1.20558e-05;-0.00015569954633638507
1.20560e-05;-0.00016142931337988732
1.20562e-05;-0.00016717853961012967
1.20565e-05;-0.000172927765840411
1.20568e-05;-0.00017867699207069231
1.20570e-05;-0.0001844262183009347
1.20573e-05;-0.00018962971608416435
1.20575e-05;-0.00019409484030475166
1.20578e-05;-0.00019855996452533897
1.20580e-05;-0.00020302508874589604
1.20583e-05;-0.00020749021296648335
1.20585e-05;-0.00021195533718707066
1.20588e-05;-0.00021642046140762773
1.20590e-05;-0.000220885585628215
1.20593e-05;-0.00022535070984880233
1.20595e-05;-0.0002298158340693594
1.20598e-05;-0.00023330847515723202
1.20600e-05;-0.00023548534126718062
1.20603e-05;-0.00023766220737711448
1.20605e-05;-0.00023983907348706308
1.20608e-05;-0.00024201593959701168
1.20610e-05;-0.00024419280570694556
1.20613e-05;-0.00024636967181689413
1.20615e-05;-0.00024854653792684276
1.20618e-05;-0.0002507234040367766
1.20620e-05;-0.0002529002701467252
1.20623e-05;-0.00025439314885574116
1.20625e-05;-0.00025496058888395574
1.20628e-05;-0.0002555280289121741
1.20630e-05;-0.0002560954689403925
1.20633e-05;-0.0002566629089686071
1.20635e-05;-0.0002572303489968255
1.20638e-05;-0.0002577977890250439
1.20640e-05;-0.00025836522905325844
1.20643e-05;-0.0002589326690814769
1.20645e-05;-0.00025950010910969526
1.20647e-05;-0.00026006754913790984
1.20650e-05;-0.0002602752316623605
1.20653e-05;-0.000259996160323716
1.20655e-05;-0.0002597170889850735
1.20658e-05;-0.0002594380176464291
1.20660e-05;-0.00025915894630778463
1.20663e-05;-0.0002588798749691402
1.20665e-05;-0.0002586008036304977
1.20668e-05;-0.0002583217322918533
1.20670e-05;-0.0002580426609532088
1.20673e-05;-0.0002577635896145663
1.20675e-05;-0.0002574845182759219
1.20678e-05;-0.000257158315475281
1.20680e-05;-0.00025676834354971704
1.20683e-05;-0.00025637837162415043
1.20685e-05;-0.0002560089174598573
1.20688e-05;-0.00025566722393838227
1.20690e-05;-0.0002551359601557867
1.20693e-05;-0.0002543482067768143
1.20695e-05;-0.0002529105847984112
1.20698e-05;-0.00025001768487831536
1.20700e-05;-0.0002455461085274569
1.20703e-05;-0.00023999301764081598
1.20705e-05;-0.00023370614519063315
1.20708e-05;-0.0002259809941271399
1.20710e-05;-0.00021719856918158442
1.20713e-05;-0.00020724039858827485
1.20715e-05;-0.00019584790196452268
1.20718e-05;-0.00018285728222331902
1.20720e-05;-0.0001683095701086087
1.20723e-05;-0.00015232813783920776
1.20725e-05;-0.000135036838948872
1.20728e-05;-0.00011655952878914345
1.20730e-05;-9.699384433413062e-05
1.20732e-05;-7.634110382963564e-05
1.20735e-05;-5.4514869867100083e-05
1.20738e-05;-3.1488088839031496e-05
1.20740e-05;-7.3620112535416454e-06
1.20743e-05;1.7710558782222602e-05
1.20745e-05;4.357650046806565e-05
1.20748e-05;7.008271151193736e-05
1.20750e-05;9.71803020445581e-05
1.20753e-05;0.00012464839172823797
1.20755e-05;0.00015242884025965645
1.20758e-05;0.00018063191201420154
1.20760e-05;0.00020883498376893776
1.20763e-05;0.00023703805552367395
1.20765e-05;0.00026524112727821904
1.20768e-05;0.0002934441990329553
1.20770e-05;0.00032094147258109344
1.20773e-05;0.0003474837973089356
1.20775e-05;0.00037402612203695765
1.20778e-05;0.0003996742842543402
1.20780e-05;0.00042411263972145683
1.20783e-05;0.0004474962899058725
1.20785e-05;0.00046945291809436337
1.20788e-05;0.0004899819240405703
1.20790e-05;0.0005085793493126377
1.20793e-05;0.000527176774584705
1.20795e-05;0.0005459907278956897
1.20798e-05;0.0005650976448237327
1.20800e-05;0.0005842045617517756
1.20803e-05;0.0006040156091610358
1.20805e-05;0.0006247793489493197
1.20808e-05;0.0006455430887376036
1.20810e-05;0.0006668314631255277
1.20813e-05;0.0006888296709864644
1.20815e-05;0.0007108278788474011
1.20817e-05;0.0007343527994504446
1.20820e-05;0.0007599433707148705
1.20823e-05;0.0007855339419792964
1.20825e-05;0.0008128323156742787
1.20828e-05;0.0008424413553662208
1.20830e-05;0.0008720503950581628
1.20833e-05;0.0009016594347501049
1.20835e-05;0.0009312684744418463
1.20838e-05;0.0009608775141337884
1.20840e-05;0.0009904865538257306
1.20843e-05;0.001021735999000028
1.20845e-05;0.0010552049217332244
1.20848e-05;0.0010886738444664205
1.20850e-05;0.00112214276719939
1.20853e-05;0.001155611689932586
1.20855e-05;0.0011890806126657822
1.20858e-05;0.0012225495353987517
1.20860e-05;0.0012557211029947562
1.20863e-05;0.0012884903474694254
1.20865e-05;0.0013212595919438726
1.20868e-05;0.0013540288364185418
1.20870e-05;0.0013867980808932113
1.20873e-05;0.0014195673253676584
1.20875e-05;0.0014497709694386153
1.20878e-05;0.0014765033421795198
1.20880e-05;0.0015032357149202431
1.20883e-05;0.0015299680876611477
1.20885e-05;0.001556700460402052
1.20888e-05;0.0015834328331427755
1.20890e-05;0.0016062437881875086
1.20893e-05;0.001623749043715303
1.20895e-05;0.0016412542992429787
1.20898e-05;0.0016555658100336455
1.20900e-05;0.0016635573157828972
1.20902e-05;0.0016678795297662542
1.20905e-05;0.0016728583703727955
1.20908e-05;0.0016668274756711746
1.20910e-05;0.0016607965809695947
1.20913e-05;0.0016516052393819756
1.20915e-05;0.0016387289984193204
1.20918e-05;0.0016258527574566654
1.20920e-05;0.0016041086782513801
1.20923e-05;0.0015814396626560217
1.20925e-05;0.0015552693216238588
1.20928e-05;0.0015225794958897843
1.20930e-05;0.0014898896701554885
1.20933e-05;0.001451749533735707
1.20935e-05;0.0014121889485566065
1.20938e-05;0.0013718412619652643
1.20940e-05;0.0013289612276367808
1.20943e-05;0.0012879947652167454
1.20945e-05;0.0012327235717501358
1.20948e-05;0.0011774523782835259
1.20950e-05;0.0011221811848172907
1.20953e-05;0.001066909991350681
1.20955e-05;0.0010113676667243387
1.20958e-05;0.0009542556526715906
1.20960e-05;0.0008971436386184555
1.20963e-05;0.0008400316245653204
1.20965e-05;0.0007829196105125723
1.20968e-05;0.0007258736071976043
1.20970e-05;0.0006700596199238814
1.20973e-05;0.0006142456326505367
1.20975e-05;0.0005586449828332386
1.20978e-05;0.0005070260362334645
1.20980e-05;0.0004555695246598194
1.20983e-05;0.0004072798690273454
1.20985e-05;0.0003616610416256822
1.20987e-05;0.00031896386594287694
1.20990e-05;0.0002795400925517967
1.20993e-05;0.00024375483533520592
1.20995e-05;0.00021171627914630463
1.20998e-05;0.00018318034489527992
1.21000e-05;0.00015800813141103611
1.21003e-05;0.0001363584929545555
1.21005e-05;0.00011833813874368134
1.21008e-05;0.00010397917077762964
1.21010e-05;9.337690644537154e-05
1.21013e-05;8.663502133656439e-05
1.21015e-05;8.369624616633012e-05
1.21018e-05;8.428264088875098e-05
1.21020e-05;8.818218762730099e-05
1.21023e-05;9.536940217315825e-05
1.21025e-05;0.00010578610276144244
1.21028e-05;0.0001193273888785131
1.21030e-05;0.00013592796073265827
1.21033e-05;0.0001555277418817271
1.21035e-05;0.00017796587586794862
1.21038e-05;0.00020294324908084175
1.21040e-05;0.00023020211494810124
1.21043e-05;0.00025960153432771877
1.21045e-05;0.0002909801178616438
1.21048e-05;0.0003241846233514546
1.21050e-05;0.0003596352861867155
1.21053e-05;0.0003952296794668735
1.21055e-05;0.0004335066395312201
1.21058e-05;0.0004717835995953073
1.21060e-05;0.0005101246378846224
1.21063e-05;0.0005496616240354013
1.21065e-05;0.0005891986101859122
1.21068e-05;0.000628735596336691
1.21070e-05;0.0006681648558821832
1.21072e-05;0.0007055835197329151
1.21075e-05;0.0007430021835839006
1.21078e-05;0.000780420847434886
1.21080e-05;0.0008175656692239395
1.21083e-05;0.0008495995375131817
1.21085e-05;0.0008816334058024238
1.21088e-05;0.0009133439230815892
1.21090e-05;0.0009390194581282212
1.21093e-05;0.000964694993175027
1.21095e-05;0.0009902198249395755
1.21098e-05;0.0010129319497614619
1.21100e-05;0.0010356440745835024
1.21103e-05;0.0010580603389860018
1.21105e-05;0.0010749547020488337
1.21108e-05;0.00109184906511178
1.21110e-05;0.0011087434281747265
1.21113e-05;0.0011256377912375584
1.21115e-05;0.0011425321543005048
1.21118e-05;0.0011594265173634514
1.21120e-05;0.0011763208804262833
1.21123e-05;0.0011932152434892297
1.21125e-05;0.0012101096065521761
1.21128e-05;0.0012241440396685347
1.21130e-05;0.0012358465979883542
1.21133e-05;0.0012475491563081738
1.21135e-05;0.0012592517146279142
1.21138e-05;0.0012709542729477338
1.21140e-05;0.0012826568312675533
1.21143e-05;0.0012943593895872938
1.21145e-05;0.0013060619479071133
1.21148e-05;0.001317764506226933
1.21150e-05;0.0013292879989931657
1.21153e-05;0.001337469434980519
1.21155e-05;0.0013456508709678724
1.21158e-05;0.0013538323069551702
1.21160e-05;0.0013620137429425235
1.21163e-05;0.0013701951789298768
1.21165e-05;0.0013783766149171749
1.21168e-05;0.0013865580509045282
1.21170e-05;0.0013947394868918815
1.21173e-05;0.0014029209228792348
1.21175e-05;0.0014111023588665326
1.21178e-05;0.0014178527893690097
1.21180e-05;0.001423436434080555
1.21183e-05;0.0014290200787920627
1.21185e-05;0.0014346037235036084
1.21188e-05;0.0014401873682151538
1.21190e-05;0.0014457710129266617
1.21193e-05;0.001451354657638207
1.21195e-05;0.0014569383023497527
1.21198e-05;0.0014625219470612604
1.21200e-05;0.0014681055917728058
1.21203e-05;0.0014738662276163582
1.21205e-05;0.0014829302035018071
1.21208e-05;0.0014919941793873175
1.21210e-05;0.001501058155272828
1.21213e-05;0.001510122131158277
1.21215e-05;0.0015191861070437875
1.21218e-05;0.0015282500829292979
1.21220e-05;0.001537314058814747
1.21223e-05;0.0015463780347002574
1.21225e-05;0.001555442010585768
1.21228e-05;0.0015645059864712169
1.21230e-05;0.0015735699623567272
1.21233e-05;0.0015826339382422378
1.21235e-05;0.001594247204354893
1.21238e-05;0.001607939061812054
1.21240e-05;0.001621630919269215
1.21243e-05;0.0016353227767262832
1.21245e-05;0.001649014634183444
1.21248e-05;0.0016627064916406049
1.21250e-05;0.001676398349097673
1.21253e-05;0.001690090206554834
1.21255e-05;0.001703782064011995
1.21258e-05;0.001717473921469156
1.21260e-05;0.001731165778926224
1.21263e-05;0.001744857636383385
1.21265e-05;0.001758518708365937
1.21268e-05;0.0017716052041538307
1.21270e-05;0.001784691699941813
1.21273e-05;0.0017977781957297953
1.21275e-05;0.001810864691517689
1.21278e-05;0.0018239511873056713
1.21280e-05;0.0018370376830936536
1.21283e-05;0.001849813980725867
1.21285e-05;0.0018568007793113993
1.21288e-05;0.0018637875778969315
1.21290e-05;0.0018707743764824166
1.21293e-05;0.0018777611750679488
1.21295e-05;0.0018847479736534812
1.21298e-05;0.0018917347722389663
1.21300e-05;0.0018981932396938508
1.21303e-05;0.001894791001913451
1.21305e-05;0.0018913887641330742
1.21308e-05;0.001887635454693971
1.21310e-05;0.0018773297883292182
1.21313e-05;0.0018670241219645354
1.21315e-05;0.0018563125800566866
1.21318e-05;0.001838025828473468
1.21320e-05;0.0018197390768903733
1.21323e-05;0.0018010889079245161
1.21325e-05;0.0017756559630058438
1.21328e-05;0.0017502230180873439
1.21330e-05;0.001724311398567394
1.21333e-05;0.0016894658569778587
1.21335e-05;0.0016546203153885595
1.21338e-05;0.0016197747737990245
1.21340e-05;0.0015849292322094892
1.21343e-05;0.001550083690619954
1.21345e-05;0.001515238149030655
1.21348e-05;0.001476113785104636
1.21350e-05;0.001433500637131768
1.21353e-05;0.0013908874891591888
1.21355e-05;0.0013482743411863207
1.21358e-05;0.0013056611932134527
1.21360e-05;0.0012630480452408735
1.21363e-05;0.0012204306947913367
1.21365e-05;0.001177734909850021
1.21368e-05;0.0011350391249089946
1.21370e-05;0.001092343339967679
1.21373e-05;0.0010496475550263633
1.21375e-05;0.0010072731320825694
1.21378e-05;0.0009708965687160669
1.21380e-05;0.0009345200053495644
1.21383e-05;0.0008981434419833084
1.21385e-05;0.0008617668786168059
1.21388e-05;0.0008257879737624229
1.21390e-05;0.0007972309169686734
1.21393e-05;0.0007688536304727104
1.21395e-05;0.0007438315540298727
1.21398e-05;0.0007189403361436423
1.21400e-05;0.0006964914457668062
1.21403e-05;0.0006742021597885045
1.21405e-05;0.0006548917100729317
1.21408e-05;0.0006357649631905549
1.21410e-05;0.0006200668227034801
1.21413e-05;0.0006045039128879145
1.21415e-05;0.0005914649311820105
1.21418e-05;0.0005785547250862749
1.21420e-05;0.0005680479706557144
1.21423e-05;0.0005575412162250825
1.21425e-05;0.0005472156416085336
1.21427e-05;0.0005402715840769259
1.21430e-05;0.000533327526545271
1.21433e-05;0.0005265236135041422
1.21435e-05;0.0005223353394707746
1.21438e-05;0.0005181470654374354
1.21440e-05;0.0005140620990249673
1.21443e-05;0.0005119052529549211
1.21445e-05;0.0005097484068848896
1.21448e-05;0.0005077318342608463
1.21450e-05;0.0005083333074536035
1.21453e-05;0.0005089347806463566
