Time(s);Current(A)
1.03000e-05;0.003089569448278953
1.03003e-05;0.0031032987211030544
1.03005e-05;0.0031166777857519253
1.03008e-05;0.0031298477734999918
1.03010e-05;0.003143017761247969
1.03013e-05;0.0031561877489960357
1.03015e-05;0.003169357736744102
1.03018e-05;0.0031825277244920797
1.03020e-05;0.003195697712240146
1.03023e-05;0.0032088676999882126
1.03025e-05;0.00322203768773619
1.03028e-05;0.003239055568979059
1.03030e-05;0.0032583706714271253
1.03032e-05;0.00327768577387506
1.03035e-05;0.0032970008763231265
1.03038e-05;0.0033163159787711924
1.03040e-05;0.0033356310812191277
1.03043e-05;0.0033549461836671936
1.03045e-05;0.0033774741909224494
1.03047e-05;0.0034222539498225497
1.03050e-05;0.003467033708722954
1.03053e-05;0.003511813467623358
1.03055e-05;0.0035565932265234582
1.03058e-05;0.0036013729854238626
1.03060e-05;0.0036461527443242664
1.03063e-05;0.0036909325032246703
1.03065e-05;0.0037513979273830784
1.03068e-05;0.003821227811057859
1.03070e-05;0.0038910576947326393
1.03073e-05;0.003960887578406947
1.03075e-05;0.0040307174620817275
1.03078e-05;0.004100547345756508
1.03080e-05;0.004170377229430815
1.03083e-05;0.004241925388167183
1.03085e-05;0.004325373877674222
1.03088e-05;0.004408822367180696
1.03090e-05;0.004492270856687735
1.03093e-05;0.004575719346194775
1.03095e-05;0.004659167835701248
1.03098e-05;0.004742616325208288
1.03100e-05;0.004826064814715328
1.03103e-05;0.004905688270886393
1.03105e-05;0.004983028153538359
1.03108e-05;0.005060368036190323
1.03110e-05;0.005137707918841764
1.03113e-05;0.005215047801493729
1.03115e-05;0.005292387684145693
1.03117e-05;0.005369727566797135
1.03120e-05;0.005443306480835688
1.03123e-05;0.0054908378943709655
1.03125e-05;0.00553836930790592
1.03128e-05;0.005585900721441197
1.03130e-05;0.005633432134976474
1.03132e-05;0.00568096354851143
1.03135e-05;0.005728494962046707
1.03138e-05;0.005776026375581984
1.03140e-05;0.005791795554386854
1.03143e-05;0.005788602441414313
1.03145e-05;0.005785409328441773
1.03148e-05;0.005782216215469233
1.03150e-05;0.0057790231024967146
1.03153e-05;0.005775829989524174
1.03155e-05;0.0057726368765516345
1.03158e-05;0.005769443763579116
1.03160e-05;0.005766250650606576
1.03163e-05;0.0057568573688819465
1.03165e-05;0.00570452331436197
1.03168e-05;0.00565218925984164
1.03170e-05;0.005599855205321309
1.03173e-05;0.005547521150801334
1.03175e-05;0.0054951870962810035
1.03178e-05;0.005442853041760673
1.03180e-05;0.005390518987240698
1.03183e-05;0.005338184932720367
1.03185e-05;0.005285850878200037
1.03188e-05;0.005219564865613669
1.03190e-05;0.00514494942967279
1.03193e-05;0.005070333993731912
1.03195e-05;0.004995718557791538
1.03198e-05;0.004921103121850659
1.03200e-05;0.00484648768590978
1.03202e-05;0.004771872249969408
1.03205e-05;0.004699786677175834
1.03208e-05;0.0046292114516097195
1.03210e-05;0.004558636226044082
1.03213e-05;0.004488061000477968
1.03215e-05;0.004417485774911853
1.03217e-05;0.004346910549346217
1.03220e-05;0.004276335323780103
1.03223e-05;0.004222092834126544
1.03225e-05;0.004177601110015705
1.03228e-05;0.0041331093859045655
1.03230e-05;0.004088617661793426
1.03232e-05;0.004044125937682588
1.03235e-05;0.003999634213571448
1.03238e-05;0.003955142489460308
1.03240e-05;0.0039106507653491685
1.03243e-05;0.0038661590412383297
1.03245e-05;0.00382166731712719
1.03248e-05;0.0037907590469937235
1.03250e-05;0.003767960200518098
1.03253e-05;0.003745161354042318
1.03255e-05;0.003722362507566538
1.03258e-05;0.0036995636610909124
1.03260e-05;0.0036767648146151326
1.03263e-05;0.0036539659681393524
1.03265e-05;0.003631167121663727
1.03268e-05;0.003608368275187947
1.03270e-05;0.003585569428712167
1.03273e-05;0.003571346852814477
1.03275e-05;0.003562244374620928
1.03278e-05;0.003553141896427379
1.03280e-05;0.0035440394182338917
1.03283e-05;0.0035349369400403427
1.03285e-05;0.0035258344618467937
1.03287e-05;0.0035167319836533063
1.03290e-05;0.0035076295054597573
1.03293e-05;0.0034985270272662084
1.03295e-05;0.003489424549072721
1.03298e-05;0.003480322070879172
1.03300e-05;0.003471219592685623
1.03302e-05;0.0034621171144921356
1.03305e-05;0.003456754107024726
1.03308e-05;0.0034536235915605027
1.03310e-05;0.0034504930760963005
1.03313e-05;0.0034473625606320775
1.03315e-05;0.003444232045167854
1.03317e-05;0.003441101529703652
1.03320e-05;0.0034379710142394284
1.03323e-05;0.003434840498775205
1.03325e-05;0.003431709983310982
1.03328e-05;0.0034285794678467797
1.03330e-05;0.0034254489523825563
1.03333e-05;0.003422318436918333
1.03335e-05;0.0034191879214541306
1.03338e-05;0.0034145905244591986
1.03340e-05;0.0034091173882147474
1.03343e-05;0.003403644251970333
1.03345e-05;0.0033981711157258817
1.03348e-05;0.0033926979794814305
1.03350e-05;0.0033872248432370165
1.03353e-05;0.003381751706992565
1.03355e-05;0.0033762785707481136
1.03358e-05;0.0033708054345036997
1.03360e-05;0.0033653322982592484
1.03363e-05;0.0033598591620147967
1.03365e-05;0.003354386025770383
1.03368e-05;0.0033489128895259315
1.03370e-05;0.0033434397532814803
1.03373e-05;0.003337966617037066
1.03375e-05;0.0033324934807926147
1.03378e-05;0.0033270203445481634
1.03380e-05;0.003320153987270713
1.03383e-05;0.0033124558666118246
1.03385e-05;0.003304757745952936
1.03387e-05;0.0032970596252940997
1.03390e-05;0.003289361504635211
1.03393e-05;0.0032816633839763227
1.03395e-05;0.003273965263317486
1.03398e-05;0.0032662671426585974
1.03400e-05;0.003258569021999709
1.03402e-05;0.003250870901340873
1.03405e-05;0.0032431727806819842
1.03408e-05;0.0032354746600230955
1.03410e-05;0.0032277765393642073
1.03413e-05;0.0032200784187053706
1.03415e-05;0.0032123802980464824
1.03418e-05;0.0032046821773875937
1.03420e-05;0.003196984056728757
1.03423e-05;0.0031949347958500933
1.03425e-05;0.003196257946527909
1.03428e-05;0.0031975810972057154
1.03430e-05;0.003198904247883531
1.03433e-05;0.003200227398561346
1.03435e-05;0.0032015505492391525
1.03438e-05;0.003202873699916968
1.03440e-05;0.0032041968505947833
1.03443e-05;0.00320552000127259
1.03445e-05;0.0032235175417555644
1.03448e-05;0.0032514698177189
1.03450e-05;0.0032794220936820458
1.03453e-05;0.003307374369645381
1.03455e-05;0.0033353266456087162
1.03458e-05;0.003363278921571862
1.03460e-05;0.003391231197535197
1.03463e-05;0.0034191834734985326
1.03465e-05;0.0034471357494616785
1.03468e-05;0.003490083500812503
1.03470e-05;0.0035419836631740654
1.03472e-05;0.003593883825535276
1.03475e-05;0.003645783987896838
1.03478e-05;0.0036976841502584005
1.03480e-05;0.003749584312619611
1.03483e-05;0.0038014844749811733
1.03485e-05;0.0038533846373427355
1.03487e-05;0.003911428376306625
1.03490e-05;0.003973139876472609
1.03493e-05;0.0040348513766385935
1.03495e-05;0.0040965628768045775
1.03498e-05;0.0041582743769701435
1.03500e-05;0.0042199858771361275
1.03503e-05;0.0042816973773021115
1.03505e-05;0.0043434088774676775
1.03508e-05;0.004399649363042227
1.03510e-05;0.004452623611968071
1.03513e-05;0.004505597860893557
1.03515e-05;0.004558572109819402
1.03518e-05;0.004611546358745246
1.03520e-05;0.0046645206076707324
1.03523e-05;0.0047174948565965776
1.03525e-05;0.004768452999673426
1.03528e-05;0.004805448112569141
1.03530e-05;0.004842443225465107
1.03533e-05;0.004879438338361072
1.03535e-05;0.004916433451256787
1.03538e-05;0.0049534285641527525
1.03540e-05;0.004990423677048718
1.03543e-05;0.005027418789944433
1.03545e-05;0.005059475318406086
1.03548e-05;0.005088583475006392
1.03550e-05;0.005117691631606501
1.03553e-05;0.005146799788206807
1.03555e-05;0.005175907944807113
1.03557e-05;0.005205016101407222
1.03560e-05;0.005234124258007528
1.03563e-05;0.005263232414607834
1.03565e-05;0.005292340571207943
1.03568e-05;0.005321448727808249
1.03570e-05;0.005350556884408555
1.03572e-05;0.005379665041008664
1.03575e-05;0.00540877319760897
1.03578e-05;0.005437881354209277
1.03580e-05;0.005466989510809582
1.03583e-05;0.005495404419718857
1.03585e-05;0.005519018073555568
1.03588e-05;0.00554263172739228
1.03590e-05;0.0055662453812288315
1.03593e-05;0.005589859035065543
1.03595e-05;0.005613472688902255
1.03598e-05;0.005637086342738807
1.03600e-05;0.005660699996575519
1.03603e-05;0.005684313650412231
1.03605e-05;0.005707927304248782
1.03608e-05;0.005731540958085494
1.03610e-05;0.005755154611922206
1.03613e-05;0.005778768265758758
1.03615e-05;0.00580238191959547
1.03618e-05;0.005825995573432181
1.03620e-05;0.005849609227268733
1.03623e-05;0.005862199459577732
1.03625e-05;0.005868208626747565
1.03628e-05;0.005874217793917357
1.03630e-05;0.00588022696108719
1.03633e-05;0.0058862361282570235
1.03635e-05;0.005892245295426816
1.03638e-05;0.005898254462596648
1.03640e-05;0.005904263629766481
1.03642e-05;0.005905780161121078
1.03645e-05;0.005876181853160857
1.03648e-05;0.005846583545200636
1.03650e-05;0.005816985237240616
1.03653e-05;0.005787386929280395
1.03655e-05;0.005757788621320174
1.03657e-05;0.005728190313360154
1.03660e-05;0.005698592005399933
1.03663e-05;0.0056689936974397125
1.03665e-05;0.005618656795372204
1.03668e-05;0.00555593879743796
1.03670e-05;0.005493220799503291
1.03673e-05;0.005430502801568622
1.03675e-05;0.005367784803634377
1.03678e-05;0.005305066805699708
1.03680e-05;0.005242348807765039
1.03683e-05;0.005179630809830795
1.03685e-05;0.005106627817896571
1.03688e-05;0.005027484607582356
1.03690e-05;0.004948341397268678
1.03693e-05;0.004869198186954464
1.03695e-05;0.00479005497664025
1.03698e-05;0.0047109117663265716
1.03700e-05;0.004631768556012357
1.03703e-05;0.004552625345698143
1.03705e-05;0.004476944259581546
1.03708e-05;0.004403330087517205
1.03710e-05;0.004329715915452864
1.03713e-05;0.004256101743389022
1.03715e-05;0.004182487571324681
1.03718e-05;0.00410887339926034
1.03720e-05;0.004037920512873823
1.03723e-05;0.003985399006119571
1.03725e-05;0.0039328774993653195
1.03727e-05;0.003880355992611424
1.03730e-05;0.003827834485857172
1.03733e-05;0.0037753129791029206
1.03735e-05;0.0037227914723490245
1.03738e-05;0.003683868797344671
1.03740e-05;0.003653064726656242
1.03742e-05;0.003622260655968021
1.03745e-05;0.003591456585279592
1.03748e-05;0.0035606525145911623
1.03750e-05;0.003529848443902733
1.03753e-05;0.0034990443732145124
1.03755e-05;0.003468240302526083
1.03758e-05;0.003437436231837654
1.03760e-05;0.0034066321611494334
1.03763e-05;0.003377999406109333
1.03765e-05;0.0033644046243955067
1.03768e-05;0.0033508098426817726
1.03770e-05;0.003337215060967946
1.03773e-05;0.0033236202792541196
1.03775e-05;0.0033100254975403855
1.03778e-05;0.0032964307158265594
1.03780e-05;0.003282835934112733
1.03783e-05;0.003269241152398999
1.03785e-05;0.0032556463706851723
1.03788e-05;0.0032420515889713462
1.03790e-05;0.003233958096180144
1.03793e-05;0.0032291489140428876
1.03795e-05;0.0032243397319056317
1.03798e-05;0.0032195305497684083
1.03800e-05;0.003214721367631152
1.03803e-05;0.003209912185493896
1.03805e-05;0.0032051030033566725
1.03808e-05;0.003200293821219416
1.03810e-05;0.00319548463908216
1.03812e-05;0.0031906754569449368
1.03815e-05;0.0031858662748076804
1.03818e-05;0.0031810570926704244
1.03820e-05;0.00317707913176025
1.03823e-05;0.0031788579951306704
1.03825e-05;0.003180636858501091
1.03827e-05;0.0031824157218714993
1.03830e-05;0.0031841945852419196
1.03833e-05;0.0031859734486123403
1.03835e-05;0.0031877523119827607
1.03838e-05;0.0031895311753531693
1.03840e-05;0.0031913100387235896
1.03843e-05;0.00319308890209401
1.03845e-05;0.0031948677654644185
1.03848e-05;0.003196646628834839
1.03850e-05;0.0031984254922052596
1.03853e-05;0.003208370576366564
1.03855e-05;0.003223190955450135
1.03858e-05;0.0032380113345337066
1.03860e-05;0.0032528317136171774
1.03863e-05;0.0032676520927007488
1.03865e-05;0.0032824724717843198
1.03868e-05;0.0032972928508677906
1.03870e-05;0.003312113229951362
1.03873e-05;0.003326933609034933
1.03875e-05;0.0033417539881184038
1.03878e-05;0.003356574367201975
1.03880e-05;0.0033723088793605623
1.03883e-05;0.003394374441920919
1.03885e-05;0.003416440004481426
1.03888e-05;0.003438505567041932
1.03890e-05;0.003460571129602289
1.03893e-05;0.0034826366921627957
1.03895e-05;0.003504702254723302
1.03897e-05;0.0035267678172836592
1.03900e-05;0.0035488333798441656
1.03903e-05;0.003570898942404672
1.03905e-05;0.003592964504965029
1.03908e-05;0.0036150300675255355
1.03910e-05;0.0036348162132780193
1.03912e-05;0.003653241530138206
1.03915e-05;0.003671666846998518
1.03918e-05;0.0036900921638588296
1.03920e-05;0.0037085174807191413
1.03923e-05;0.003726942797579328
1.03925e-05;0.00374536811443964
1.03928e-05;0.0037616207290821786
1.03930e-05;0.0037628257673614665
1.03933e-05;0.0037640308056407622
1.03935e-05;0.0037652358439200584
1.03938e-05;0.0037664408821993464
1.03940e-05;0.0037676459204786425
1.03943e-05;0.0037688509587579383
1.03945e-05;0.0037700559970372262
1.03948e-05;0.0037530247482962143
1.03950e-05;0.003725106299734061
1.03953e-05;0.0036971878511720966
1.03955e-05;0.003669269402609943
1.03958e-05;0.00364135095404779
1.03960e-05;0.0036134325054858253
1.03963e-05;0.003585514056923672
1.03965e-05;0.0035575956083615185
1.03968e-05;0.003526398057179529
1.03970e-05;0.0034724902852012207
1.03973e-05;0.0034185825132229124
1.03975e-05;0.0033646747412449697
1.03978e-05;0.0033107669692666614
1.03980e-05;0.003256859197288353
1.03982e-05;0.0032029514253104105
1.03985e-05;0.003149043653332102
1.03988e-05;0.003095135881353794
1.03990e-05;0.003034876492370568
1.03993e-05;0.0029708251405023787
1.03995e-05;0.0029067737886341897
1.03997e-05;0.0028427224367664344
1.04000e-05;0.002778671084898245
1.04003e-05;0.0027146197330300556
1.04005e-05;0.0026512996392828057
1.04008e-05;0.0025930440510772393
1.04010e-05;0.0025347884628712783
1.04013e-05;0.002476532874665317
1.04015e-05;0.002418277286459751
1.04018e-05;0.0023600216982537898
1.04020e-05;0.0023017661100478287
1.04023e-05;0.0022518669469309277
1.04025e-05;0.0022069566321276054
1.04028e-05;0.002162046317324283
1.04030e-05;0.0021232970680650364
1.04033e-05;0.0020882260210420976
1.04035e-05;0.002053154974019159
1.04038e-05;0.0020235375133861666
1.04040e-05;0.0019971758846401735
1.04043e-05;0.001970814255894181
1.04045e-05;0.0019506411015560547
1.04048e-05;0.001934162512751452
1.04050e-05;0.0019176839239468495
1.04053e-05;0.0019063499157481358
1.04055e-05;0.001898087260671236
1.04058e-05;0.0018898246055943362
1.04060e-05;0.0018863339358029482
1.04063e-05;0.0018856921769388221
1.04065e-05;0.001885050418074696
1.04067e-05;0.0018913877335542248
1.04070e-05;0.0019018916086459062
1.04073e-05;0.0019123954837375876
1.04075e-05;0.001922899358829198
1.04078e-05;0.0019334032339208794
1.04080e-05;0.0019439071090125608
1.04082e-05;0.001954410984104171
1.04085e-05;0.0019660737487363516
1.04088e-05;0.001985762684065886
1.04090e-05;0.0020054516193954205
1.04093e-05;0.0020251405547248216
1.04095e-05;0.002044829490054356
1.04098e-05;0.0020645184253838904
1.04100e-05;0.0020842073607132915
1.04103e-05;0.002103896296042826
1.04105e-05;0.002122454737223489
1.04108e-05;0.0021403382649368852
1.04110e-05;0.002158221792650403
1.04113e-05;0.00217610532036392
1.04115e-05;0.0021939888480773163
1.04118e-05;0.0022118723757908335
1.04120e-05;0.002229755903504351
1.04123e-05;0.0022476394312177473
1.04125e-05;0.0022655229589312645
1.04128e-05;0.0022834064866447817
1.04130e-05;0.002301290014358178
1.04133e-05;0.002319173542071695
1.04135e-05;0.0023322233781080106
1.04138e-05;0.0023423874640387757
1.04140e-05;0.00235255154996961
1.04143e-05;0.0023627156359004443
1.04145e-05;0.0023728797218312094
1.04148e-05;0.002383043807762044
1.04150e-05;0.002393207893692878
1.04152e-05;0.002403371979623643
1.04155e-05;0.0024135360655544776
1.04158e-05;0.0024237001514853117
1.04160e-05;0.0024338642374160772
1.04163e-05;0.0024440283233469113
1.04165e-05;0.0024521614143417293
1.04167e-05;0.002459081986160078
1.04170e-05;0.002466002557978474
1.04173e-05;0.00247292312979687
1.04175e-05;0.0024798437016152657
1.04178e-05;0.002486764273433615
1.04180e-05;0.0024936848452520107
1.04183e-05;0.002500605417070407
1.04185e-05;0.0025075259888887556
1.04188e-05;0.0025144465607071518
1.04190e-05;0.0025213671325255474
1.04193e-05;0.0025282877043438963
1.04195e-05;0.0025352082761622924
1.04198e-05;0.002541789314298844
1.04200e-05;0.0025460188295378617
1.04203e-05;0.002550248344776908
1.04205e-05;0.002554477860015955
1.04208e-05;0.002558707375254973
1.04210e-05;0.0025629368904940197
1.04213e-05;0.002567166405733066
1.04215e-05;0.002571395920972084
1.04218e-05;0.002575625436211131
1.04220e-05;0.0025798549514501772
1.04223e-05;0.002584084466689195
1.04225e-05;0.002588313981928242
1.04228e-05;0.0025925434971672883
1.04230e-05;0.002596773012406306
1.04233e-05;0.0025928483685236318
1.04235e-05;0.002584055630619824
1.04237e-05;0.0025752628927160764
1.04240e-05;0.002566470154812269
1.04243e-05;0.0025576774169084617
1.04245e-05;0.0025488846790047135
1.04248e-05;0.0025400919411009064
1.04250e-05;0.0025312992031970988
1.04252e-05;0.002522506465293351
1.04255e-05;0.0025137137273895434
1.04258e-05;0.002504920989485736
1.04260e-05;0.0024938818529904507
1.04263e-05;0.0024672847379818875
1.04265e-05;0.002440687622973145
1.04268e-05;0.0024140905079644017
1.04270e-05;0.002387493392955839
1.04273e-05;0.002360896277947096
1.04275e-05;0.0023342991629383527
1.04278e-05;0.00230770204792979
1.04280e-05;0.0022811049329210468
1.04283e-05;0.002254507817912304
1.04285e-05;0.002227910702903741
1.04288e-05;0.002201313587894998
1.04290e-05;0.0021704935184233406
1.04293e-05;0.0021371523135327287
1.04295e-05;0.0021038111086418908
1.04298e-05;0.0020704699037510524
1.04300e-05;0.0020371286988604405
1.04303e-05;0.0020037874939696026
1.04305e-05;0.001970848444436941
1.04308e-05;0.0019406946194177308
1.04310e-05;0.001910540794398316
1.04313e-05;0.0018803869693789015
1.04315e-05;0.0018502331443596913
1.04318e-05;0.0018200793193402767
1.04320e-05;0.001789925494320862
1.04322e-05;0.001764195191551539
1.04325e-05;0.0017411057646714574
1.04328e-05;0.001718016337791376
1.04330e-05;0.0017001096403777799
1.04333e-05;0.0016852970712437924
1.04335e-05;0.0016764866424074983
1.04337e-05;0.0016712595362498258
1.04340e-05;0.0016718861543068596
1.04343e-05;0.0016760074895301909
1.04345e-05;0.0016858014390674937
1.04348e-05;0.0016989819818046946
1.04350e-05;0.0017185086606626094
1.04353e-05;0.0017418240302798033
1.04355e-05;0.0017718232992396004
1.04358e-05;0.0018058129061304278
1.04360e-05;0.0018471505548963117
1.04363e-05;0.0018928750396550744
1.04365e-05;0.001938599524414147
1.04368e-05;0.001992124139363736
1.04370e-05;0.002050305490414076
1.04373e-05;0.0021084868414648107
1.04375e-05;0.002173695747500128
1.04378e-05;0.002243100156456225
1.04380e-05;0.002312504565412793
1.04383e-05;0.0023882826043990133
1.04385e-05;0.002467865748213872
1.04388e-05;0.0025474488920292702
1.04390e-05;0.0026270320358446684
1.04393e-05;0.0027066151796595276
1.04395e-05;0.002786198323474926
1.04398e-05;0.0028671945060053505
1.04400e-05;0.002949034283223595
1.04403e-05;0.0030308740604423935
1.04405e-05;0.0031127138376611926
1.04407e-05;0.0031945536148794366
1.04410e-05;0.0032763933920982357
1.04413e-05;0.0033487394614177142
1.04415e-05;0.0034154177160674514
1.04418e-05;0.003482095970717641
1.04420e-05;0.00354877422536783
1.04422e-05;0.0036154524800175677
1.04425e-05;0.0036821307346677572
1.04428e-05;0.00374667060097687
1.04430e-05;0.0037964005399539094
1.04433e-05;0.0038461304789306123
1.04435e-05;0.003895860417907652
1.04438e-05;0.003945590356884692
1.04440e-05;0.0039953202958613945
1.04443e-05;0.004045050234838435
1.04445e-05;0.004091207668383802
1.04448e-05;0.00413523228944835
1.04450e-05;0.004179256910513196
1.04453e-05;0.004223281531578043
1.04455e-05;0.004267306152642591
1.04458e-05;0.004311330773707437
1.04460e-05;0.004355355394772283
1.04463e-05;0.0043993800158368315
1.04465e-05;0.004443404636901678
1.04468e-05;0.004487429257966524
1.04470e-05;0.004531453879031072
1.04473e-05;0.004575478500095919
1.04475e-05;0.004619503121160765
1.04478e-05;0.0046623038534568525
1.04480e-05;0.004704373914998373
1.04483e-05;0.004746443976539894
1.04485e-05;0.004788514038081129
1.04488e-05;0.004830584099622649
1.04490e-05;0.00487265416116417
1.04492e-05;0.004914724222705406
