Time(s);Current(A)
3.25000e-06;0.0029958139998812736
3.25025e-06;0.002981962399844403
3.25050e-06;0.0029681107998075565
3.25075e-06;0.0029542591997706864
3.25100e-06;0.0029404075997338163
3.25125e-06;0.0029265559996969693
3.25150e-06;0.002912704399660099
3.25175e-06;0.002898852799623229
3.25200e-06;0.0028834867316264606
3.25225e-06;0.0028663038322624436
3.25250e-06;0.002849120932898397
3.25275e-06;0.002831938033534351
3.25300e-06;0.002814755134170334
3.25325e-06;0.002797572234806288
3.25350e-06;0.002780389335442242
3.25375e-06;0.0027632064360781955
3.25400e-06;0.0027460235367141785
3.25425e-06;0.0027288406373501325
3.25450e-06;0.0027116577379860864
3.25475e-06;0.0026944748386220694
3.25500e-06;0.0026789699547345586
3.25525e-06;0.002663874509171553
3.25550e-06;0.0026487790636085732
3.25575e-06;0.002633683618045568
3.25600e-06;0.002618588172482562
3.25625e-06;0.0026034927269195565
3.25650e-06;0.0025883972813565766
3.25675e-06;0.002573301835793571
3.25700e-06;0.0025582063902305657
3.25725e-06;0.002543110944667586
3.25750e-06;0.0025280154991045804
3.25775e-06;0.002512920053541575
3.25800e-06;0.0024978246079785695
3.25825e-06;0.0024827291624155896
3.25850e-06;0.0024676337168525837
3.25875e-06;0.0024525382712895782
3.25900e-06;0.0024374428257265984
3.25925e-06;0.002422347380163593
3.25950e-06;0.002414408851493706
3.25975e-06;0.0024098317835904897
3.26000e-06;0.0024052547156872654
3.26025e-06;0.0024006776477840408
3.26050e-06;0.0023961005798808165
3.26075e-06;0.0023915235119776
3.26100e-06;0.0023869464440743754
3.26125e-06;0.002382369376171151
3.26150e-06;0.0023777923082679347
3.26175e-06;0.00237321524036471
3.26200e-06;0.002368638172461486
3.26225e-06;0.0023640611045582616
3.26250e-06;0.0023594840366550447
3.26275e-06;0.0023549069687518204
3.26300e-06;0.002350329900848596
3.26325e-06;0.0023457528329453793
3.26350e-06;0.002341175765042155
3.26375e-06;0.002336598697138931
3.26400e-06;0.0023344793880277956
3.26425e-06;0.002334314948854947
3.26450e-06;0.0023341505096820987
3.26475e-06;0.00233398607050925
3.26500e-06;0.002333821631336402
3.26525e-06;0.0023336571921635536
3.26550e-06;0.002333492752990705
3.26575e-06;0.0023333283138178566
3.26600e-06;0.0023331638746450084
3.26625e-06;0.0023329994354721597
3.26650e-06;0.002332834996299311
3.26675e-06;0.002332632933179119
3.26700e-06;0.002331808226793153
3.26725e-06;0.002330983520407188
3.26750e-06;0.002330158814021224
3.26775e-06;0.002329334107635258
3.26800e-06;0.0023285094012492928
3.26825e-06;0.0023276846948633288
3.26850e-06;0.002326859988477363
3.26875e-06;0.0023260352820913977
3.26900e-06;0.0023252105757054324
3.26925e-06;0.0023243858693194684
3.26950e-06;0.0023235611629335027
3.26975e-06;0.0023185895180071
3.27000e-06;0.0023103194511547433
3.27025e-06;0.0023020493843023725
3.27050e-06;0.0022937793174500013
3.27075e-06;0.0022855092505976306
3.27100e-06;0.0022772391837452737
3.27125e-06;0.002268969116892903
3.27150e-06;0.0022606990500405317
3.27175e-06;0.002252428983188175
3.27200e-06;0.002244158916335804
3.27225e-06;0.0022358888494834334
3.27250e-06;0.0022276187826310765
3.27275e-06;0.00221555638327599
3.27300e-06;0.0022004776111061415
3.27325e-06;0.0021853988389362936
3.27350e-06;0.0021703200667664707
3.27375e-06;0.0021552412945966223
3.27400e-06;0.0021401625224267743
3.27425e-06;0.0021250837502569515
3.27450e-06;0.002110004978087103
3.27475e-06;0.0020949262059172546
3.27500e-06;0.0020798474337474066
3.27525e-06;0.0020647686615775838
3.27550e-06;0.0020496898894077353
3.27575e-06;0.002036487947418803
3.27600e-06;0.0020247788121739462
3.27625e-06;0.0020130696769290694
3.27650e-06;0.0020013605416841925
3.27675e-06;0.0019896514064393356
3.27700e-06;0.001977942271194459
3.27725e-06;0.0019662331359495823
3.27750e-06;0.0019545240007047054
3.27775e-06;0.0019428148654598487
3.27800e-06;0.001931105730214972
3.27825e-06;0.0019193965949700952
3.27850e-06;0.0019076874597252383
3.27875e-06;0.0018959783244803616
3.27900e-06;0.001884269189235485
3.27925e-06;0.001872560053990608
3.27950e-06;0.0018608509187457512
3.27975e-06;0.0018491417835008745
3.28000e-06;0.0018431881376545836
3.28025e-06;0.001841812334533275
3.28050e-06;0.001840436531411964
3.28075e-06;0.0018390607282906528
3.28100e-06;0.001837684925169344
3.28125e-06;0.0018363091220480329
3.28150e-06;0.0018349333189267218
3.28175e-06;0.0018335575158054107
3.28200e-06;0.0018321817126841018
3.28225e-06;0.0018308059095627908
3.28250e-06;0.0018294301064414797
3.28275e-06;0.001828054303320171
3.28300e-06;0.00182667850019886
3.28325e-06;0.001825302697077549
3.28350e-06;0.0018239268939562376
3.28375e-06;0.001822551090834929
3.28400e-06;0.0018211752877136179
3.28425e-06;0.001821996564165261
3.28450e-06;0.001824565369635358
3.28475e-06;0.0018271341751054592
3.28500e-06;0.0018297029805755605
3.28525e-06;0.0018322717860456575
3.28550e-06;0.0018348405915157588
3.28575e-06;0.0018374093969858601
3.28600e-06;0.0018399782024559614
3.28625e-06;0.0018425470079260582
3.28650e-06;0.0018451158133961595
3.28675e-06;0.0018476846188662608
3.28700e-06;0.0018502534243363578
3.28725e-06;0.001852822229806459
3.28750e-06;0.0018553910352765604
3.28775e-06;0.0018579598407466617
3.28800e-06;0.0018605286462167587
3.28825e-06;0.00186309745168686
3.28850e-06;0.0018656662571569613
3.28875e-06;0.0018682350626270583
3.28900e-06;0.0018708038680971596
3.28925e-06;0.0018733726735672607
3.28950e-06;0.0018759414790373576
3.28975e-06;0.001878510284507459
3.29000e-06;0.0018810790899775603
3.29025e-06;0.0018836478954476616
3.29050e-06;0.0018862167009177585
3.29075e-06;0.0018887855063878598
3.29100e-06;0.0018913543118579612
3.29125e-06;0.0018939231173280581
3.29150e-06;0.0018964919227981594
3.29175e-06;0.0018990607282682607
3.29200e-06;0.0019014867468222657
3.29225e-06;0.0019037991944877014
3.29250e-06;0.0019061116421531408
3.29275e-06;0.0019084240898185802
3.29300e-06;0.001910736537484016
3.29325e-06;0.0019130489851494554
3.29350e-06;0.0019153614328148948
3.29375e-06;0.0019176738804803305
3.29400e-06;0.00191998632814577
3.29425e-06;0.0019222987758112096
3.29450e-06;0.001924611223476649
3.29475e-06;0.0019269236711420845
3.29500e-06;0.0019292361188075241
3.29525e-06;0.0019315485664729635
3.29550e-06;0.001933861014138399
3.29575e-06;0.0019361734618038387
3.29600e-06;0.001938485909469278
3.29625e-06;0.0019407983571347175
3.29650e-06;0.0019431108048001532
3.29675e-06;0.0019454232524655926
3.29700e-06;0.0019477357001310323
3.29725e-06;0.0019500481477964678
3.29750e-06;0.0019523605954619072
3.29775e-06;0.001954673043127347
3.29800e-06;0.0019569854907927823
3.29825e-06;0.0019592979384582218
3.29850e-06;0.001961610386123661
3.29875e-06;0.001963922833789101
3.29900e-06;0.0019662352814545365
3.29925e-06;0.001968547729119976
3.29950e-06;0.0019708601767854154
3.29975e-06;0.0019758672159413395
3.30000e-06;0.0019830174987380982
3.30025e-06;0.0019901677815348574
3.30050e-06;0.001997318064331604
3.30075e-06;0.002004468347128363
3.30100e-06;0.002011618629925122
3.30125e-06;0.0020187689127218805
3.30150e-06;0.0020259191955186275
3.30175e-06;0.002033069478315386
3.30200e-06;0.0020402197611121453
3.30225e-06;0.002047370043908892
3.30250e-06;0.002054520326705651
3.30275e-06;0.0020616706095024097
3.30300e-06;0.0020714085208315804
3.30325e-06;0.0020832045988314913
3.30350e-06;0.0020950006768314226
3.30375e-06;0.002106796754831354
3.30400e-06;0.0021185928328312648
3.30425e-06;0.002130388910831196
3.30450e-06;0.0021421849888311273
3.30475e-06;0.0021539810668310382
3.30500e-06;0.0021657771448309695
3.30525e-06;0.0021775732228309004
3.30550e-06;0.0021893693008308316
3.30575e-06;0.0022011653788307425
3.30600e-06;0.002212961456830674
3.30625e-06;0.002223418277588642
3.30650e-06;0.0022328098702489242
3.30675e-06;0.002242201462909222
3.30700e-06;0.00225159305556952
3.30725e-06;0.002260984648229818
3.30750e-06;0.0022703762408901
3.30775e-06;0.002279767833550398
3.30800e-06;0.002289159426210696
3.30825e-06;0.002298551018870978
3.30850e-06;0.002307942611531276
3.30875e-06;0.0023173342041915737
3.30900e-06;0.0023267257968518557
3.30925e-06;0.002335051732818237
3.30950e-06;0.0023425300590668627
3.30975e-06;0.002350008385315489
3.31000e-06;0.002357486711564102
3.31025e-06;0.002364965037812728
3.31050e-06;0.0023724433640613537
3.31075e-06;0.0023799216903099673
3.31100e-06;0.002387400016558593
3.31125e-06;0.002394878342807219
3.31150e-06;0.002402356669055845
3.31175e-06;0.0024098349953044582
3.31200e-06;0.002417313321553084
3.31225e-06;0.0024252903080020528
3.31250e-06;0.0024336639224026638
3.31275e-06;0.002442037536803289
3.31300e-06;0.0024504111512039144
3.31325e-06;0.0024587847656045254
3.31350e-06;0.0024670837471701744
3.31375e-06;0.0024753233667325126
3.31400e-06;0.0024835629862948513
3.31425e-06;0.002491802605857176
3.31450e-06;0.0025000422254195147
3.31475e-06;0.0025082818449818534
3.31500e-06;0.002516521464544178
3.31525e-06;0.002524761084106517
3.31550e-06;0.002533000703668855
3.31575e-06;0.0025412403232311937
3.31600e-06;0.0025494799427935185
3.31625e-06;0.002557719562355857
3.31650e-06;0.002565959181918196
3.31675e-06;0.0025741988014805206
3.31700e-06;0.0025823418163065464
3.31725e-06;0.002588886107637369
3.31750e-06;0.00259543039896818
3.31775e-06;0.002601974690299002
3.31800e-06;0.002608518981629824
3.31825e-06;0.0026150632729606466
3.31850e-06;0.0026216075642914575
3.31875e-06;0.0026281518556222796
3.31900e-06;0.002634696146953102
3.31925e-06;0.002641240438283913
3.31950e-06;0.002647784729614735
3.31975e-06;0.0026543290209455573
3.32000e-06;0.00266087331227638
3.32025e-06;0.0026674176036071908
3.32050e-06;0.002673961894938013
3.32075e-06;0.0026830330761763374
3.32100e-06;0.002694114113359539
3.32125e-06;0.0027051951505427598
3.32150e-06;0.0027162761877259803
3.32175e-06;0.002727357224909182
3.32200e-06;0.0027384382620924026
3.32225e-06;0.002749519299275623
3.32250e-06;0.0027606003364588436
3.32275e-06;0.0027716813736420455
3.32300e-06;0.002782762410825266
3.32325e-06;0.0027938434480084865
3.32350e-06;0.0028049244851916883
3.32375e-06;0.002816005522374909
3.32400e-06;0.002828244735706639
3.32425e-06;0.002841405147548233
3.32450e-06;0.002854565559389805
3.32475e-06;0.0028677259712313993
3.32500e-06;0.0028808863830729935
3.32525e-06;0.0028940467949145655
3.32550e-06;0.0029072072067561597
3.32575e-06;0.002920367618597754
3.32600e-06;0.002933528030439326
3.32625e-06;0.00294668844228092
3.32650e-06;0.0029598488541225146
3.32675e-06;0.002973009265964109
3.32700e-06;0.002986169677805681
3.32725e-06;0.0029940506461752256
3.32750e-06;0.002997732412665368
3.32775e-06;0.0030014141791555042
3.32800e-06;0.0030050959456456466
3.32825e-06;0.003008777712135789
3.32850e-06;0.0030124594786259313
3.32875e-06;0.003016141245116067
3.32900e-06;0.0030198230116062095
3.32925e-06;0.0030235047780963523
3.32950e-06;0.003027186544586488
3.32975e-06;0.0030308683110766305
3.33000e-06;0.003034550077566773
3.33025e-06;0.003038231844056909
3.33050e-06;0.0030419136105470515
3.33075e-06;0.003045595377037194
3.33100e-06;0.0030391400897656906
3.33125e-06;0.003024621919458632
3.33150e-06;0.0030101037491515486
3.33175e-06;0.0029955855788444657
3.33200e-06;0.002981067408537407
3.33225e-06;0.0029665492382303237
3.33250e-06;0.0029520310679232403
3.33275e-06;0.0029375128976161574
3.33300e-06;0.0029229947273090987
3.33325e-06;0.0029084765570020154
3.33350e-06;0.002893958386694932
3.33375e-06;0.0028794402163878734
3.33400e-06;0.0028649220460807904
3.33425e-06;0.002850403875773707
3.33450e-06;0.0028358857054666484
3.33475e-06;0.0028181680063150997
3.33500e-06;0.0027979054428026624
3.33525e-06;0.002777642879290225
3.33550e-06;0.0027573803157778225
3.33575e-06;0.0027371177522653852
3.33600e-06;0.002716855188752948
3.33625e-06;0.0026965926252405454
3.33650e-06;0.002676330061728108
3.33675e-06;0.0026560674982156708
3.33700e-06;0.0026358049347032335
3.33725e-06;0.0026157949325919428
3.33750e-06;0.0025999645997351385
3.33775e-06;0.0025841342668783346
3.33800e-06;0.0025683039340215577
3.33825e-06;0.0025524736011647534
3.33850e-06;0.0025366432683079495
3.33875e-06;0.002520812935451172
3.33900e-06;0.0025049826025943683
3.33925e-06;0.0024891522697375644
3.33950e-06;0.00247332193688076
3.33975e-06;0.002457491604023983
3.34000e-06;0.0024393375125615494
3.34025e-06;0.0024193351331959615
3.34050e-06;0.0023993327538304075
3.34075e-06;0.0023793303744648196
3.34100e-06;0.002359327995099232
3.34125e-06;0.0023393256157336444
3.34150e-06;0.0023193232363680903
3.34175e-06;0.0022993208570025025
3.34200e-06;0.0022793184776369146
3.34225e-06;0.0022593160982713606
3.34250e-06;0.0022393137189057727
3.34275e-06;0.002218978459555577
3.34300e-06;0.0021931343289715395
3.34325e-06;0.0021672901983874585
3.34350e-06;0.002141446067803377
3.34375e-06;0.002115601937219296
3.34400e-06;0.0020897578066352584
3.34425e-06;0.0020639136760511774
3.34450e-06;0.002038069545467096
3.34475e-06;0.0020122254148830588
3.34500e-06;0.0019863812842989778
3.34525e-06;0.0019605371537148963
3.34550e-06;0.001934693023130815
3.34575e-06;0.0019102393795301241
3.34600e-06;0.0018868917115090855
3.34625e-06;0.0018635440434880471
3.34650e-06;0.0018401963754670482
3.34675e-06;0.0018168487074460098
3.34700e-06;0.0017935010394249712
3.34725e-06;0.0017701533714039723
3.34750e-06;0.0017468057033829339
3.34775e-06;0.0017240759981291094
3.34800e-06;0.001711573033652656
3.34825e-06;0.0016990700691762238
3.34850e-06;0.0016865671046997703
3.34875e-06;0.001674064140223317
3.34900e-06;0.0016615611757468847
3.34925e-06;0.0016490582112704314
3.34950e-06;0.0016365552467939779
3.34975e-06;0.0016240522823175246
3.35000e-06;0.0016202712202676502
3.35025e-06;0.0016234274479645342
3.35050e-06;0.001626583675661418
3.35075e-06;0.0016297399033582964
3.35100e-06;0.0016328961310551804
3.35125e-06;0.0016360523587520643
3.35150e-06;0.0016392085864489429
3.35175e-06;0.0016423648141458268
3.35200e-06;0.0016455210418427106
3.35225e-06;0.0016494130533088113
3.35250e-06;0.001665481639604164
3.35275e-06;0.0016815502258995436
3.35300e-06;0.0016976188121949234
3.35325e-06;0.001713687398490276
3.35350e-06;0.0017297559847856555
3.35375e-06;0.0017458245710810353
3.35400e-06;0.0017618931573764151
3.35425e-06;0.0017779617436717676
3.35450e-06;0.0017940303299671472
3.35475e-06;0.0018123197384624402
3.35500e-06;0.0018323755605591714
3.35525e-06;0.0018524313826559363
3.35550e-06;0.0018724872047527015
3.35575e-06;0.0018925430268494324
3.35600e-06;0.0019125988489461976
3.35625e-06;0.0019326546710429625
3.35650e-06;0.0019527104931397277
3.35675e-06;0.001972766315236459
3.35700e-06;0.0019928221373332238
3.35725e-06;0.0020104799968191514
3.35750e-06;0.002026230547484086
3.35775e-06;0.002041981098149047
3.35800e-06;0.0020577316488140087
3.35825e-06;0.00207348219947897
3.35850e-06;0.0020892327501439044
3.35875e-06;0.002104983300808866
3.35900e-06;0.0021207338514738273
3.35925e-06;0.002136484402138762
3.35950e-06;0.0021522349528037233
3.35975e-06;0.0021709023567793263
3.36000e-06;0.002191889788608465
3.36025e-06;0.0022128772204376393
3.36050e-06;0.002233864652266814
3.36075e-06;0.002254852084095988
3.36100e-06;0.002275839515925127
3.36125e-06;0.0022968269477543013
3.36150e-06;0.0023178143795834754
3.36175e-06;0.0023388018114126143
3.36200e-06;0.002359789243241789
3.36225e-06;0.002380776675070963
3.36250e-06;0.0024017641069001374
3.36275e-06;0.0024270713987978453
3.36300e-06;0.0024558146521977734
3.36325e-06;0.002484557905597702
3.36350e-06;0.002513301158997582
3.36375e-06;0.00254204441239751
3.36400e-06;0.0025707876657974386
3.36425e-06;0.002599530919197318
3.36450e-06;0.0026282741725972467
3.36475e-06;0.0026570174259971753
3.36500e-06;0.0026857606793971034
3.36525e-06;0.0027145039327969834
3.36550e-06;0.0027432471861969115
3.36575e-06;0.0027680374518567895
3.36600e-06;0.0027896835615768287
3.36625e-06;0.0028113296712969048
3.36650e-06;0.002832975781016981
3.36675e-06;0.002854621890737057
3.36700e-06;0.002876268000457096
3.36725e-06;0.002897914110177172
3.36750e-06;0.0029195602198972483
3.36775e-06;0.002941206329617288
3.36800e-06;0.002962852439337364
3.36825e-06;0.00298449854905744
3.36850e-06;0.0030061446587774793
3.36875e-06;0.0030277907684975553
3.36900e-06;0.0030494368782176314
3.36925e-06;0.0030710829879377075
3.36950e-06;0.0030803739165947554
3.36975e-06;0.0030798376921003776
3.37000e-06;0.0030793014676059995
3.37025e-06;0.0030787652431116226
3.37050e-06;0.003078229018617245
3.37075e-06;0.003077692794122867
3.37100e-06;0.003077156569628489
3.37125e-06;0.003076620345134112
3.37150e-06;0.003076084120639734
3.37175e-06;0.0030755478961453564
3.37200e-06;0.003075011671650979
3.37225e-06;0.0030744754471566014
3.37250e-06;0.0030739392226622232
3.37275e-06;0.0030734029981678464
3.37300e-06;0.0030728667736734687
3.37325e-06;0.0030648461029584243
3.37350e-06;0.0030508723993505076
3.37375e-06;0.0030368986957426142
3.37400e-06;0.0030229249921346975
3.37425e-06;0.0030089512885267808
3.37450e-06;0.0029949775849188874
3.37475e-06;0.0029810038813109707
3.37500e-06;0.002967030177703054
3.37525e-06;0.002953056474095137
3.37550e-06;0.002939082770487244
3.37575e-06;0.0029248720069230036
3.37600e-06;0.0029104726888984876
3.37625e-06;0.002896073370873996
3.37650e-06;0.00288167405284948
3.37675e-06;0.002867274734824964
3.37700e-06;0.002852875416800472
3.37725e-06;0.002838476098775956
3.37750e-06;0.00282407678075144
3.37775e-06;0.0028096774627269236
3.37800e-06;0.002795278144702432
3.37825e-06;0.0027865455908349587
3.37850e-06;0.0027823203087722135
3.37875e-06;0.0027780950267094757
3.37900e-06;0.0027738697446467305
3.37925e-06;0.002769644462583986
3.37950e-06;0.002765419180521248
3.37975e-06;0.002761193898458503
3.38000e-06;0.002756968616395758
3.38025e-06;0.002752743334333013
3.38050e-06;0.002748518052270275
3.38075e-06;0.00274429277020753
3.38100e-06;0.002740067488144785
3.38125e-06;0.0027358422060820473
3.38150e-06;0.002731616924019302
3.38175e-06;0.002728012598680995
3.38200e-06;0.002734684561490971
3.38225e-06;0.0027413565243009355
3.38250e-06;0.002748028487110911
3.38275e-06;0.0027547004499208867
3.38300e-06;0.002761372412730851
3.38325e-06;0.002768044375540827
3.38350e-06;0.0027747163383508027
3.38375e-06;0.002781388301160767
3.38400e-06;0.0027880602639707426
3.38425e-06;0.002794732226780718
3.38450e-06;0.0028014041895906942
3.38475e-06;0.0028080761524006586
3.38500e-06;0.002814748115210634
3.38525e-06;0.0028214200780206098
3.38550e-06;0.002828856584857927
3.38575e-06;0.0028369012002458466
3.38600e-06;0.0028449458156337656
3.38625e-06;0.002852990431021685
3.38650e-06;0.0028610350464095906
3.38675e-06;0.00286907966179751
3.38700e-06;0.002877124277185429
3.38725e-06;0.0028851688925733347
3.38750e-06;0.002893213507961254
3.38775e-06;0.0029012581233491736
3.38800e-06;0.002909302738737079
3.38825e-06;0.0029173473541249982
3.38850e-06;0.0029248995209139404
3.38875e-06;0.002924302096108776
3.38900e-06;0.0029237046713036126
3.38925e-06;0.0029231072464984483
3.38950e-06;0.0029225098216932835
3.38975e-06;0.00292191239688812
3.39000e-06;0.0029213149720829557
3.39025e-06;0.0029207175472777914
3.39050e-06;0.002920120122472627
3.39075e-06;0.0029195226976674636
3.39100e-06;0.002918925272862299
3.39125e-06;0.0029183278480571346
3.39150e-06;0.002917730423251971
3.39175e-06;0.0029116070959071564
3.39200e-06;0.0029010885362880192
3.39225e-06;0.0028905699766689
3.39250e-06;0.0028800514170497626
3.39275e-06;0.0028695328574306254
3.39300e-06;0.002859014297811488
3.39325e-06;0.0028484957381923687
3.39350e-06;0.0028379771785732315
3.39375e-06;0.0028274586189540943
3.39400e-06;0.002816940059334975
3.39425e-06;0.0028064214997158376
3.39450e-06;0.0027957373495045633
3.39475e-06;0.002782312820498912
3.39500e-06;0.002768888291493284
3.39525e-06;0.002755463762487633
3.39550e-06;0.0027420392334819824
3.39575e-06;0.002728614704476354
3.39600e-06;0.002715190175470703
3.39625e-06;0.002701765646465052
3.39650e-06;0.002688341117459424
3.39675e-06;0.0026749165884537734
3.39700e-06;0.0026614920594481223
3.39725e-06;0.0026480675304424712
3.39750e-06;0.0026387354273168235
3.39775e-06;0.0026326583874463887
3.39800e-06;0.002626581347575954
3.39825e-06;0.0026205043077055295
3.39850e-06;0.0026144272678350947
