Time(s);Current(A)
5.00000e-06;-0.0009774176445329615
5.00025e-06;-0.0009695048718253203
5.00050e-06;-0.0009615920991176524
5.00075e-06;-0.0009540749248511576
5.00100e-06;-0.0009475177154339337
5.00125e-06;-0.0009409605060166876
5.00150e-06;-0.0009344032965994636
5.00175e-06;-0.0009278460871822397
5.00200e-06;-0.0009205881838530363
5.00225e-06;-0.0009116299666307927
5.00250e-06;-0.0009010296058132422
5.00275e-06;-0.0008864443958027835
5.00300e-06;-0.0008704026074300066
5.00325e-06;-0.0008508262651192502
5.00350e-06;-0.0008299772449597773
5.00375e-06;-0.0008060399264857229
5.00400e-06;-0.0007803702723067015
5.00425e-06;-0.0007504969074688613
5.00450e-06;-0.0007186026669181609
5.00475e-06;-0.000681804540388134
5.00500e-06;-0.0006436849325571255
5.00525e-06;-0.0006015951386325189
5.00550e-06;-0.0005569765384465371
5.00575e-06;-0.0005100596522016812
5.00600e-06;-0.00046080240059128574
5.00625e-06;-0.0004089383668700132
5.00650e-06;-0.00035439822997398
5.00675e-06;-0.00029743750046050345
5.00700e-06;-0.00023841795892902293
5.00725e-06;-0.00017770128473947774
5.00750e-06;-0.00011564858668895297
5.00775e-06;-5.2576698215474166e-05
5.00800e-06;1.1368295610821026e-05
5.00825e-06;7.625706982411777e-05
5.00850e-06;0.0001419168974932689
5.00875e-06;0.0002075698187575079
5.00900e-06;0.0002732059559088896
5.00925e-06;0.00033884209306004893
5.00950e-06;0.0004038063673676128
5.00975e-06;0.00046714028966645245
5.01000e-06;0.0005295687066273587
5.01025e-06;0.0005897998113533306
5.01050e-06;0.0006487901311934442
5.01075e-06;0.0007047695446394832
5.01100e-06;0.0007590239862149935
5.01125e-06;0.0008090925863184223
5.01150e-06;0.000856970390438947
5.01175e-06;0.0008995319776180266
5.01200e-06;0.0009397973564148845
5.01225e-06;0.0009744907230299862
5.01250e-06;0.0010069360646922684
5.01275e-06;0.0010339263167735732
5.01300e-06;0.0010585368187463924
5.01325e-06;0.0010773725849874106
5.01350e-06;0.001093700621582562
5.01375e-06;0.001103943365465844
5.01400e-06;0.0011117761734644363
5.01425e-06;0.0011137609964939246
5.01450e-06;0.0011135299083632627
5.01475e-06;0.001107921658441892
5.01500e-06;0.0011001787968115831
5.01525e-06;0.0010872560558045233
5.01550e-06;0.001072282329749189
5.01575e-06;0.001052331653971098
5.01600e-06;0.0010305550869659454
5.01625e-06;0.0010043477861314987
5.01650e-06;0.0009765999065612205
5.01675e-06;0.000945113636543192
5.01700e-06;0.0009120136364026251
5.01725e-06;0.000874997735610692
5.01750e-06;0.0008379818348186334
5.01775e-06;0.0007995249836403932
5.01800e-06;0.0007575715015961534
5.01825e-06;0.0007156180195517714
5.01850e-06;0.0006729433144849662
5.01875e-06;0.0006285184792916177
5.01900e-06;0.0005840936440981185
5.01925e-06;0.00053966880890477
5.01950e-06;0.0004955550995192451
5.01975e-06;0.00045152318266763076
5.02000e-06;0.0004074912658161655
5.02025e-06;0.00036426361765457053
5.02050e-06;0.0003229876194262011
5.02075e-06;0.0002824500218499773
5.02100e-06;0.00024431253138356324
5.02125e-06;0.00020834643521076688
5.02150e-06;0.00017485057368155478
5.02175e-06;0.0001441765672022207
5.02200e-06;0.00011686477294558701
5.02225e-06;9.355416237779432e-05
5.02250e-06;7.463089928623877e-05
5.02275e-06;6.0175063191377036e-05
5.02300e-06;5.0175344069958587e-05
5.02325e-06;4.462041779980729e-05
5.02350e-06;4.3499369474285014e-05
5.02375e-06;4.683432020610911e-05
5.02400e-06;5.4765624092027835e-05
5.02425e-06;6.749536505649678e-05
5.02450e-06;8.506724903019323e-05
5.02475e-06;0.00010733325410918105
5.02500e-06;0.00013408811825304853
5.02525e-06;0.00016512657729836163
5.02550e-06;0.0002002436294728536
5.02575e-06;0.00023925497530298765
5.02600e-06;0.00028205038883568354
5.02625e-06;0.00032855831427183805
5.02650e-06;0.00037860799164109274
5.02675e-06;0.0004319085548845842
5.02700e-06;0.0004884785528883223
5.02725e-06;0.0005477933671681095
5.02750e-06;0.0006083052207407332
5.02775e-06;0.0006717218270216858
5.02800e-06;0.0007362779718342139
5.02825e-06;0.000803599337184368
5.02850e-06;0.000870920702534294
5.02875e-06;0.0009382420678842201
5.02900e-06;0.001005650487008451
5.02925e-06;0.0010732701520686434
5.02950e-06;0.0011408898171290647
5.02975e-06;0.001208509482189257
5.03000e-06;0.0012747625656462937
5.03025e-06;0.0013376994825938717
5.03050e-06;0.0014006363995412365
5.03075e-06;0.001461209460484428
5.03100e-06;0.0015160463545596894
5.03125e-06;0.0015708832486347653
5.03150e-06;0.0016228945422878717
5.03175e-06;0.001668049193449308
5.03200e-06;0.0017106177712387647
5.03225e-06;0.0017469109463102426
5.03250e-06;0.0017805755806827603
5.03275e-06;0.0018078617605121491
5.03300e-06;0.0018323992850541272
5.03325e-06;0.0018502668832711684
5.03350e-06;0.0018652695846326207
5.03375e-06;0.0018733202862135897
5.03400e-06;0.0018778908299644074
5.03425e-06;0.001874016372833578
5.03450e-06;0.0018701419157027355
5.03475e-06;0.0018624026939771236
5.03500e-06;0.0018452851790812274
5.03525e-06;0.0018281676641852733
5.03550e-06;0.0018074902095070859
5.03575e-06;0.0017781741539186617
5.03600e-06;0.0017488580983301381
5.03625e-06;0.0017165484472353074
5.03650e-06;0.0016769744943692102
5.03675e-06;0.0016374005415029788
5.03700e-06;0.0015954856310153032
5.03725e-06;0.0015478901192038281
5.03750e-06;0.001500294607392192
5.03775e-06;0.0014508005795611303
5.03800e-06;0.0013966995855402668
5.03825e-06;0.0013425985915195868
5.03850e-06;0.0012884975974989067
5.03875e-06;0.0012343966034780434
5.03900e-06;0.0011787443992781505
5.03925e-06;0.0011226843940917966
5.03950e-06;0.001066624388905253
5.03975e-06;0.0010105643837188994
5.04000e-06;0.0009555133946778246
5.04025e-06;0.0009029108986795022
5.04050e-06;0.000850308402681358
5.04075e-06;0.0007992469950276692
5.04100e-06;0.0007519252144427563
5.04125e-06;0.0007063451803236504
5.04150e-06;0.0006649916931468297
5.04175e-06;0.0006251624857462413
5.04200e-06;0.0005900232539591628
5.04225e-06;0.0005582244794822491
5.04250e-06;0.0005296372144982023
5.04275e-06;0.0005043116937818815
5.04300e-06;0.0004823666184941569
5.04325e-06;0.000463920586744284
5.04350e-06;0.0004490918059418856
5.04375e-06;0.00043796427500915347
5.04400e-06;0.00043047941627668423
5.04425e-06;0.00042642088205732914
5.04450e-06;0.00042559267540722345
5.04475e-06;0.0004279109122231658
5.04500e-06;0.0004333346846364278
5.04525e-06;0.0004418230350641273
5.04550e-06;0.0004533347220154905
5.04575e-06;0.0004678070391012396
5.04600e-06;0.0004854341473120627
5.04625e-06;0.0005057668399687287
5.04650e-06;0.0005273851799967531
5.04675e-06;0.0005521232903658244
5.04700e-06;0.0005779770683821888
5.04725e-06;0.0006065381415048316
5.04750e-06;0.0006362279480556968
5.04775e-06;0.0006686567553242369
5.04800e-06;0.0007010855625928868
5.04825e-06;0.0007344188310696944
5.04850e-06;0.0007699468780799969
5.04875e-06;0.0008054749250904199
5.04900e-06;0.0008410029721007224
5.04925e-06;0.0008765310191110249
5.04950e-06;0.000911773991447162
5.04975e-06;0.0009463251974920149
5.05000e-06;0.0009808764035368677
5.05025e-06;0.0010154276095818374
5.05050e-06;0.0010499788156266901
5.05075e-06;0.0010830438939756183
5.05100e-06;0.0011125027135537096
5.05125e-06;0.001141961533131801
5.05150e-06;0.001169431556814557
5.05175e-06;0.0011920755398682214
5.05200e-06;0.0012147195229218857
5.05225e-06;0.0012349034133447656
5.05250e-06;0.0012491176077245125
5.05275e-06;0.0012611788275216902
5.05300e-06;0.0012680156083343045
5.05325e-06;0.001272714431011214
5.05350e-06;0.0012722252538288972
5.05375e-06;0.001269537695997673
5.05400e-06;0.0012615155161705789
5.05425e-06;0.0012511613874569398
5.05450e-06;0.0012351485181472514
5.05475e-06;0.0012169346522013281
5.05500e-06;0.0011933798162670564
5.05525e-06;0.0011678258224094669
5.05550e-06;0.0011374206432776908
5.05575e-06;0.0011051709382543474
5.05600e-06;0.0010684452802622825
5.05625e-06;0.0010299838297234255
5.05650e-06;0.0009873102801084344
5.05675e-06;0.0009428765220647659
5.05700e-06;0.0008941714170158511
5.05725e-06;0.0008454663119667714
5.05750e-06;0.0007952667760098371
5.05775e-06;0.0007414408325895065
5.05800e-06;0.0006876148891689933
5.05825e-06;0.0006328955464296488
5.05850e-06;0.0005760082680963425
5.05875e-06;0.0005191209897628434
5.05900e-06;0.00046223371142953707
5.05925e-06;0.00040534643309603804
5.05950e-06;0.00034845915476273173
5.05975e-06;0.00029214104902956296
5.06000e-06;0.00023720410568646764
5.06025e-06;0.0001828856904714276
5.06050e-06;0.00013061481418687803
5.06075e-06;8.032636926550191e-05
5.06100e-06;3.239524486532686e-05
5.06125e-06;-1.2803730258707268e-05
5.06150e-06;-5.4897991592017765e-05
5.06175e-06;-9.369980307467279e-05
5.06200e-06;-0.00012974950320605427
5.06225e-06;-0.0001642442740648725
5.06250e-06;-0.00019797307156624633
5.06275e-06;-0.0002309394905688427
5.06300e-06;-0.0002628813601445785
5.06325e-06;-0.00029353658818307576
5.06350e-06;-0.0003224108105281271
5.06375e-06;-0.000349493147128997
5.06400e-06;-0.0003760652302995139
5.06425e-06;-0.0004013991251819509
5.06450e-06;-0.0004265347939053256
5.06475e-06;-0.0004511894441899239
5.06500e-06;-0.00047584409447460566
5.06525e-06;-0.000499879452219394
5.06550e-06;-0.00052241202581007
5.06575e-06;-0.0005449445994008223
5.06600e-06;-0.0005667266580282835
5.06625e-06;-0.0005866875062880706
5.06650e-06;-0.0006066483545479254
5.06675e-06;-0.0006266092028077125
5.06700e-06;-0.0006465700510674997
5.06725e-06;-0.0006665308993273545
5.06750e-06;-0.0006864917475871416
5.06775e-06;-0.0007064525958469963
5.06800e-06;-0.0007264134441067835
5.06825e-06;-0.0007463742923665707
5.06850e-06;-0.0007663351406264255
5.06875e-06;-0.0007825647881184467
5.06900e-06;-0.0007978135322017466
5.06925e-06;-0.0008130622762850981
5.06950e-06;-0.000828311020368398
5.06975e-06;-0.0008435597644516979
5.07000e-06;-0.0008588085085350495
5.07025e-06;-0.0008740572526183494
5.07050e-06;-0.0008893059967016493
5.07075e-06;-0.000904554740785001
5.07100e-06;-0.0009198034848683007
5.07125e-06;-0.0009322607378981792
5.07150e-06;-0.000937944118725183
5.07175e-06;-0.0009436274995521676
5.07200e-06;-0.0009493108803791714
5.07225e-06;-0.000954994261206156
5.07250e-06;-0.0009606776420331407
5.07275e-06;-0.0009663610228601445
5.07300e-06;-0.0009720444036871291
5.07325e-06;-0.0009777277845141137
5.07350e-06;-0.0009834111653411175
5.07375e-06;-0.000989094546168102
5.07400e-06;-0.0009947779269950867
5.07425e-06;-0.0009898079814230746
5.07450e-06;-0.0009820373599218426
5.07475e-06;-0.0009742667384206105
5.07500e-06;-0.0009664961169193521
5.07525e-06;-0.00095872549541812
5.07550e-06;-0.0009509548739168878
5.07575e-06;-0.0009431842524156293
5.07600e-06;-0.0009354136309143972
5.07625e-06;-0.0009276430094131388
5.07650e-06;-0.0009198723879119067
5.07675e-06;-0.0009121017664106745
5.07700e-06;-0.0009021840221816353
5.07725e-06;-0.0008870560391657411
5.07750e-06;-0.0008719280561498468
5.07775e-06;-0.0008568000731339013
5.07800e-06;-0.0008416720901180071
5.07825e-06;-0.0008265441071021128
5.07850e-06;-0.0008114161240861674
5.07875e-06;-0.0007953419190122123
5.07900e-06;-0.0007790189595828471
5.07925e-06;-0.0007626960001534265
5.07950e-06;-0.0007463730407240613
5.07975e-06;-0.000730050081294696
5.08000e-06;-0.0007137271218652754
5.08025e-06;-0.0006979035300437303
5.08050e-06;-0.0006832917108168468
5.08075e-06;-0.0006686798915900128
5.08100e-06;-0.0006540680723631788
5.08125e-06;-0.0006415067257589472
5.08150e-06;-0.0006294844323200842
5.08175e-06;-0.0006174621388812211
5.08200e-06;-0.0006049255139350394
5.08225e-06;-0.0005911408047813425
5.08250e-06;-0.0005757910642030248
5.08275e-06;-0.0005566435959378139
5.08300e-06;-0.0005364521788469936
5.08325e-06;-0.0005131260952710024
5.08350e-06;-0.0004878085683198933
5.08375e-06;-0.0004606123562170051
5.08400e-06;-0.00043115247629353344
5.08425e-06;-0.00039862915923015386
5.08450e-06;-0.00036259183437578304
5.08475e-06;-0.0003231756627147589
5.08500e-06;-0.0002807081460276264
5.08525e-06;-0.00023551680970587438
5.08550e-06;-0.000187928105398489
5.08575e-06;-0.0001381878964280441
5.08600e-06;-8.623026892295765e-05
5.08625e-06;-3.172953337001801e-05
5.08650e-06;2.5421265546760385e-05
5.08675e-06;8.496218317819092e-05
5.08700e-06;0.00014651279533059488
5.08725e-06;0.00020969271448655264
5.08750e-06;0.00027423477662928
5.08775e-06;0.0003397452579926643
5.08800e-06;0.00040584134802522284
5.08825e-06;0.00047335848444837346
5.08850e-06;0.0005408756208717529
5.08875e-06;0.0006083927572949036
5.08900e-06;0.0006755195773977019
5.08925e-06;0.0007425437864023891
5.08950e-06;0.0008095679954068493
5.08975e-06;0.0008753265510614549
5.09000e-06;0.0009380138541562692
5.09025e-06;0.0010007011572510834
5.09050e-06;0.0010618672693587866
5.09075e-06;0.0011193420376136925
5.09100e-06;0.0011750433363080677
5.09125e-06;0.0012264411083484602
5.09150e-06;0.0012756221198791783
5.09175e-06;0.0013194239085855108
5.09200e-06;0.0013613311448879136
5.09225e-06;0.001398641033172567
5.09250e-06;0.0014339944516899856
5.09275e-06;0.001464600272629034
5.09300e-06;0.001495206093567979
5.09325e-06;0.0015230558415903043
5.09350e-06;0.0015442176635716471
5.09375e-06;0.0015653794855529184
5.09400e-06;0.0015840609778046933
5.09425e-06;0.0015967236663853455
5.09450e-06;0.0016093863549659975
5.09475e-06;0.0016199917450198074
5.09500e-06;0.0016256048649821223
5.09525e-06;0.001631217984944437
5.09550e-06;0.0016335681125277104
5.09575e-06;0.001628000216037416
5.09600e-06;0.0016224323195471214
5.09625e-06;0.001616864423056808
5.09650e-06;0.0016112965265665136
5.09675e-06;0.0016057286300762191
5.09700e-06;0.0016001607335859058
5.09725e-06;0.0015945928370956115
5.09750e-06;0.0015813549462793564
5.09775e-06;0.001566100674131288
5.09800e-06;0.0015508464019832716
5.09825e-06;0.0015355921298352033
5.09850e-06;0.0015203378576871868
5.09875e-06;0.00150508358553917
5.09900e-06;0.001489829313391102
5.09925e-06;0.0014739569354360596
5.09950e-06;0.0014565846530708705
5.09975e-06;0.0014392123707056223
5.10000e-06;0.0014218400883404332
5.10025e-06;0.001404467805975244
5.10050e-06;0.001387095523609996
5.10075e-06;0.0013697232412448067
5.10100e-06;0.0013562477271174176
5.10125e-06;0.0013437966427866943
5.10150e-06;0.001331345558456013
5.10175e-06;0.0013188944741253318
5.10200e-06;0.0013064433897946083
5.10225e-06;0.001293992305463927
5.10250e-06;0.0012836249739740899
5.10275e-06;0.0012783141069923451
5.10300e-06;0.0012730032400106004
5.10325e-06;0.0012691702246934165
5.10350e-06;0.001268923385406036
5.10375e-06;0.0012686765461186556
5.10400e-06;0.001269975664764201
5.10425e-06;0.0012750262270863407
5.10450e-06;0.0012800767894084804
5.10475e-06;0.0012876797570084914
5.10500e-06;0.001301476427836506
5.10525e-06;0.0013152730986645206
5.10550e-06;0.0013290697694925818
5.10575e-06;0.0013428664403205965
5.10600e-06;0.001356663111148611
5.10625e-06;0.0013704597819766725
5.10650e-06;0.0013842564528046871
5.10675e-06;0.001400579288349166
5.10700e-06;0.0014230321513988595
5.10725e-06;0.0014454850144485529
5.10750e-06;0.0014679378774983224
5.10775e-06;0.0014903907405480158
5.10800e-06;0.0015128436035977092
5.10825e-06;0.0015352964666474787
5.10850e-06;0.001557749329697172
5.10875e-06;0.0015807561245958339
5.10900e-06;0.0016051070984580624
5.10925e-06;0.0016294580723202087
5.10950e-06;0.0016538090461823548
5.10975e-06;0.0016781600200445836
5.11000e-06;0.0017025109939067297
5.11025e-06;0.001724207089633183
5.11050e-06;0.001745205238727504
5.11075e-06;0.0017662033878217541
5.11100e-06;0.0017872015369160752
5.11125e-06;0.0018081996860103253
5.11150e-06;0.0018280338319163272
5.11175e-06;0.0018421564945919637
5.11200e-06;0.0018492737730609623
5.11225e-06;0.0018563910515299608
5.11250e-06;0.0018635083299989837
5.11275e-06;0.0018706256084679823
5.11300e-06;0.0018777428869369808
5.11325e-06;0.0018848601654060037
5.11350e-06;0.0018919774438750023
5.11375e-06;0.0018990947223440008
5.11400e-06;0.0019062120008130237
5.11425e-06;0.0019133292792820223
5.11450e-06;0.0019204465577510208
5.11475e-06;0.0019144105429138108
5.11500e-06;0.0019049166304651104
5.11525e-06;0.001895422718016378
5.11550e-06;0.0018859288055676777
5.11575e-06;0.0018764348931189776
5.11600e-06;0.0018669409806702452
5.11625e-06;0.0018574470682215449
5.11650e-06;0.0018479531557728445
5.11675e-06;0.0018384592433241121
5.11700e-06;0.001828965330875412
5.11725e-06;0.0018194714184267117
5.11750e-06;0.0018076613111749362
5.11775e-06;0.0017902306924203481
5.11800e-06;0.00177280007366576
5.11825e-06;0.001755369454911113
5.11850e-06;0.0017379388361565247
5.11875e-06;0.0017205082174019367
5.11900e-06;0.0017030775986472896
5.11925e-06;0.0016856469798927015
5.11950e-06;0.0016685033468423957
5.11975e-06;0.0016520561174151102
5.12000e-06;0.0016356088879878247
5.12025e-06;0.0016191616585604835
5.12050e-06;0.001602714429133198
5.12075e-06;0.0015862671997059125
5.12100e-06;0.0015698199702785713
5.12125e-06;0.0015533727408512858
5.12150e-06;0.0015378458312005176
5.12175e-06;0.0015245521827084764
5.12200e-06;0.0015112585342164802
5.12225e-06;0.0014974327417672376
5.12250e-06;0.0014795803438329978
5.12275e-06;0.0014617279458988184
5.12300e-06;0.001443875547964639
5.12325e-06;0.0014276784398757983
5.12350e-06;0.0014008298839258042
5.12375e-06;0.0013739813279757193
5.12400e-06;0.0013417836618711202
5.12425e-06;0.0013081511228876916
5.12450e-06;0.0012735908377240867
5.12475e-06;0.0012341155844327546
5.12500e-06;0.0011946403311414225
5.12525e-06;0.0011516519664509213
5.12550e-06;0.001105536707690948
5.12575e-06;0.0010594214489309747
5.12600e-06;0.0010072558974485405
5.12625e-06;0.0009544134447168124
5.12650e-06;0.0009004088163131062
5.12675e-06;0.0008432568078587478
5.12700e-06;0.000786104799404583
5.12725e-06;0.0007270196411399093
5.12750e-06;0.0006879995232591992
5.12775e-06;0.0006179601457006107
5.12800e-06;0.0005498893501497978
5.12825e-06;0.0004833978368695999
5.12850e-06;0.0004174283137157034
5.12875e-06;0.0003536080082022691
5.12900e-06;0.000289871706689407
5.12925e-06;0.00022648127930395014
5.12950e-06;0.00016334810474981205
5.12975e-06;0.0001014842653375942
5.13000e-06;4.045700010094809e-05
5.13025e-06;-2.0274729180981464e-05
5.13050e-06;-7.8510511651758e-05
5.13075e-06;-0.00013299600918987068
5.13100e-06;-0.00018496514105681896
5.13125e-06;-0.00023409537573186449
5.13150e-06;-0.00027987970367301723
5.13175e-06;-0.0003219656007243331
5.13200e-06;-0.00035998606761770404
5.13225e-06;-0.00039369106609261364
5.13250e-06;-0.0004214547617812358
5.13275e-06;-0.0004426326221576495
5.13300e-06;-0.0004582386801377068
5.13325e-06;-0.0004683120509339951
5.13350e-06;-0.00047277627706711854
5.13375e-06;-0.00047165162402525477
5.13400e-06;-0.00046494938061208296
5.13425e-06;-0.00045275406326061916
5.13450e-06;-0.00043428847848647875
5.13475e-06;-0.00040939010725583945
5.13500e-06;-0.0003789354038752747
5.13525e-06;-0.00034319004156999674
5.13550e-06;-0.00030234728350721695
5.13575e-06;-0.0002566610227556178
5.13600e-06;-0.0002063794940418834
5.13625e-06;-0.00015179675148342862
5.13650e-06;-9.266713568821775e-05
5.13675e-06;-2.9130009974366545e-05
5.13700e-06;3.802448706551629e-05
5.13725e-06;0.00010838884313146698
5.13750e-06;0.00018160091845419705
5.13775e-06;0.0002572606244663039
5.13800e-06;0.00033512594311030716
5.13825e-06;0.000414944260427711
5.13850e-06;0.0004952636309549394
5.13875e-06;0.0005776460144455058
5.13900e-06;0.000660028397935793
5.13925e-06;0.0007424107814260803
5.13950e-06;0.0008232132353462249
5.13975e-06;0.0009033236906771795
5.14000e-06;0.0009834341460081342
5.14025e-06;0.0010624612634693308
5.14050e-06;0.0011370278964442236
5.14075e-06;0.0012103179620773393
5.14100e-06;0.0012783519492679137
5.14125e-06;0.0013446686388767573
5.14150e-06;0.0014039146080458
5.14175e-06;0.0014614467867901813
5.14200e-06;0.0015119226852994057
5.14225e-06;0.001562398583808801
5.14250e-06;0.0016115734479966626
5.14275e-06;0.001655391494550428
5.14300e-06;0.0016992095411043418
5.14325e-06;0.0017430275876581071
5.14350e-06;0.0017868456342118725
5.14375e-06;0.0018306636807657864
5.14400e-06;0.0018744817273195517
5.14425e-06;0.001913599323044658
5.14450e-06;0.0019506581527329021
5.14475e-06;0.0019877169824210205
5.14500e-06;0.0020247758121092647
5.14525e-06;0.0020618346417973833
5.14550e-06;0.002098893471485502
