Time(s);Current(A)
8.75000e-06;0.011890714479071501
8.75025e-06;0.011852836404642506
8.75050e-06;0.011814958330213255
8.75075e-06;0.011777080255784002
8.75100e-06;0.011739202181355008
8.75125e-06;0.011701324106925756
8.75150e-06;0.011663446032496503
8.75175e-06;0.011625567958067252
8.75200e-06;0.011587689883638256
8.75225e-06;0.011549811809209004
8.75250e-06;0.011511933734779753
8.75275e-06;0.01149648049089615
8.75300e-06;0.011483831534290067
8.75325e-06;0.011471182577683986
8.75350e-06;0.011458533621077988
8.75375e-06;0.011445884664471906
8.75400e-06;0.011433235707865823
8.75425e-06;0.011420586751259827
8.75450e-06;0.011407937794653744
8.75475e-06;0.011395288838047662
8.75500e-06;0.011382639881441664
8.75525e-06;0.011369990924835583
8.75550e-06;0.0113573419682295
8.75575e-06;0.011344693011623504
8.75600e-06;0.01133204405501742
8.75625e-06;0.011319395098411338
8.75650e-06;0.011306746141805341
8.75675e-06;0.011294097185199258
8.75700e-06;0.011281448228593177
8.75725e-06;0.011282123253199836
8.75750e-06;0.011285984094540959
8.75775e-06;0.011289844935882082
8.75800e-06;0.011293705777223178
8.75825e-06;0.0112975666185643
8.75850e-06;0.011301427459905424
8.75875e-06;0.011305288301246521
8.75900e-06;0.011309149142587644
8.75925e-06;0.011313009983928767
8.75950e-06;0.011316870825269864
8.75975e-06;0.011320731666610987
8.76000e-06;0.01132459250795211
8.76025e-06;0.011328453349293234
8.76050e-06;0.01133231419063433
8.76075e-06;0.011336175031975454
8.76100e-06;0.011340035873316577
8.76125e-06;0.011343896714657674
8.76150e-06;0.011347757555998797
8.76175e-06;0.011350919700051719
8.76200e-06;0.011353817116500492
8.76225e-06;0.011356714532949284
8.76250e-06;0.011359611949398076
8.76275e-06;0.01136250936584685
8.76300e-06;0.011365406782295641
8.76325e-06;0.011368304198744433
8.76350e-06;0.011371201615193206
8.76375e-06;0.011374099031641998
8.76400e-06;0.011376996448090792
8.76425e-06;0.011379893864539565
8.76450e-06;0.011382791280988357
8.76475e-06;0.01138568869743715
8.76500e-06;0.011388586113885922
8.76525e-06;0.011391483530334715
8.76550e-06;0.011394380946783507
8.76575e-06;0.01139727836323228
8.76600e-06;0.011400175779681072
8.76625e-06;0.011403073196129864
8.76650e-06;0.011405970612578637
8.76675e-06;0.011408868029027429
8.76700e-06;0.01141127335911967
8.76725e-06;0.011413148694391176
8.76750e-06;0.011415024029662695
8.76775e-06;0.011416899364934216
8.76800e-06;0.011418774700205721
8.76825e-06;0.011420650035477242
8.76850e-06;0.011422525370748761
8.76875e-06;0.01142440070602028
8.76900e-06;0.011426276041291787
8.76925e-06;0.011428151376563306
8.76950e-06;0.011430026711834827
8.76975e-06;0.011431902047106333
8.77000e-06;0.011433777382377852
8.77025e-06;0.011435652717649371
8.77050e-06;0.011437528052920878
8.77075e-06;0.011439403388192397
8.77100e-06;0.011441278723463918
8.77125e-06;0.011443154058735423
8.77150e-06;0.011445029394006944
8.77175e-06;0.011446904729278463
8.77200e-06;0.01144878006454997
8.77225e-06;0.011449106738711249
8.77250e-06;0.011444466557029307
8.77275e-06;0.011439826375347396
8.77300e-06;0.011435186193665455
8.77325e-06;0.011430546011983513
8.77350e-06;0.011425905830301602
8.77375e-06;0.011421265648619661
8.77400e-06;0.011416625466937719
8.77425e-06;0.011411985285255808
8.77450e-06;0.011407345103573866
8.77475e-06;0.011402704921891925
8.77500e-06;0.011398064740210014
8.77525e-06;0.011393424558528072
8.77550e-06;0.011388784376846131
8.77575e-06;0.011381884334143142
8.77600e-06;0.011367736479866069
8.77625e-06;0.011353588625588997
8.77650e-06;0.01133944077131202
8.77675e-06;0.011325292917034947
8.77700e-06;0.011311145062757875
8.77725e-06;0.011296997208480802
8.77750e-06;0.011282849354203825
8.77775e-06;0.011268701499926752
8.77800e-06;0.01125455364564968
8.77825e-06;0.011240405791372704
8.77850e-06;0.01122625793709563
8.77875e-06;0.011212110082818558
8.77900e-06;0.01119796222854158
8.77925e-06;0.01118362191632024
8.77950e-06;0.011168664354231257
8.77975e-06;0.011153706792142375
8.78000e-06;0.011138749230053393
8.78025e-06;0.01112379166796441
8.78050e-06;0.011108834105875529
8.78075e-06;0.011093876543786546
8.78100e-06;0.011078918981697564
8.78125e-06;0.011063961419608682
8.78150e-06;0.0110490038575197
8.78175e-06;0.011034046295430717
8.78200e-06;0.011019088733341837
8.78225e-06;0.011004131171252854
8.78250e-06;0.010999736765451677
8.78275e-06;0.010999098474211943
8.78300e-06;0.010998460182972203
8.78325e-06;0.010997821891732464
8.78350e-06;0.010997183600492729
8.78375e-06;0.010996545309252991
8.78400e-06;0.010995907018013252
8.78425e-06;0.010995268726773517
8.78450e-06;0.010994630435533777
8.78475e-06;0.010993992144294038
8.78500e-06;0.010993353853054303
8.78525e-06;0.010992715561814564
8.78550e-06;0.010997110037799731
8.78575e-06;0.011017645572111715
8.78600e-06;0.011038181106423562
8.78625e-06;0.011058716640735548
8.78650e-06;0.011079252175047532
8.78675e-06;0.011099787709359378
8.78700e-06;0.011120323243671364
8.78725e-06;0.011140858777983348
8.78750e-06;0.011161394312295195
8.78775e-06;0.01118192984660718
8.78800e-06;0.011202465380919164
8.78825e-06;0.011223000915231011
8.78850e-06;0.011243536449542997
8.78875e-06;0.01126407198385498
8.78900e-06;0.011284607518166827
8.78925e-06;0.011306841616712736
8.78950e-06;0.011329679701574887
8.78975e-06;0.011352517786436882
8.79000e-06;0.011375355871299031
8.79025e-06;0.011398193956161182
8.79050e-06;0.011421032041023177
8.79075e-06;0.011443870125885327
8.79100e-06;0.011466708210747478
8.79125e-06;0.011489546295609472
8.79150e-06;0.011512384380471622
8.79175e-06;0.011535222465333773
8.79200e-06;0.011558060550195768
8.79225e-06;0.011580898635057917
8.79250e-06;0.011603736719920068
8.79275e-06;0.011623726470118367
8.79300e-06;0.011634581059896391
8.79325e-06;0.011645435649674416
8.79350e-06;0.011656290239452366
8.79375e-06;0.011667144829230388
8.79400e-06;0.011677999419008413
8.79425e-06;0.011688854008786437
8.79450e-06;0.011699708598564387
8.79475e-06;0.011710563188342411
8.79500e-06;0.011721417778120434
8.79525e-06;0.011732272367898386
8.79550e-06;0.011743126957676408
8.79575e-06;0.011753981547454433
8.79600e-06;0.011764836137232382
8.79625e-06;0.011775690727010407
8.79650e-06;0.01178654531678843
8.79675e-06;0.011797399906566381
8.79700e-06;0.011808254496344404
8.79725e-06;0.011819109086122428
8.79750e-06;0.01182621875495996
8.79775e-06;0.011831996780896395
8.79800e-06;0.011837774806832832
8.79825e-06;0.011843552832769229
8.79850e-06;0.011849330858705666
8.79875e-06;0.0118551088846421
8.79900e-06;0.011860886910578497
8.79925e-06;0.011866664936514934
8.79950e-06;0.011872442962451369
8.79975e-06;0.011878220988387766
8.80000e-06;0.011883999014324203
8.80025e-06;0.01188977704026064
8.80050e-06;0.011895555066197036
8.80075e-06;0.011901333092133471
8.80100e-06;0.011907111118069908
8.80125e-06;0.011912889144006305
8.80150e-06;0.01191866716994274
8.80175e-06;0.011924445195879176
8.80200e-06;0.011929717992395396
8.80225e-06;0.011933370420398316
8.80250e-06;0.011937022848401233
8.80275e-06;0.011940675276404127
8.80300e-06;0.011944327704407046
8.80325e-06;0.011947980132409964
8.80350e-06;0.011951632560412883
8.80375e-06;0.011955284988415776
8.80400e-06;0.011958937416418694
8.80425e-06;0.011962589844421613
8.80450e-06;0.011966242272424507
8.80475e-06;0.011969894700427424
8.80500e-06;0.011973547128430344
8.80525e-06;0.011977199556433237
8.80550e-06;0.011980851984436157
8.80575e-06;0.011984504412439074
8.80600e-06;0.011988156840441968
8.80625e-06;0.01199239549327882
8.80650e-06;0.011998514282594044
8.80675e-06;0.012004633071909226
8.80700e-06;0.01201075186122445
8.80725e-06;0.012016870650539673
8.80750e-06;0.012022989439854855
8.80775e-06;0.012029108229170079
8.80800e-06;0.012035227018485303
8.80825e-06;0.012041345807800485
8.80850e-06;0.012047464597115708
8.80875e-06;0.012053583386430932
8.80900e-06;0.012059702175746114
8.80925e-06;0.012065820965061338
8.80950e-06;0.012071939754376561
8.80975e-06;0.012078058543691744
8.81000e-06;0.012084177333006967
8.81025e-06;0.012090296122322191
8.81050e-06;0.012095688836632165
8.81075e-06;0.012098752887902652
8.81100e-06;0.012101816939173138
8.81125e-06;0.012104880990443604
8.81150e-06;0.01210794504171409
8.81175e-06;0.012111009092984577
8.81200e-06;0.012114073144255064
8.81225e-06;0.01211713719552553
8.81250e-06;0.012120201246796017
8.81275e-06;0.012123265298066503
8.81300e-06;0.012126329349336969
8.81325e-06;0.012129393400607456
8.81350e-06;0.012122807848493525
8.81375e-06;0.012112791028788447
8.81400e-06;0.012102774209083301
8.81425e-06;0.012092757389378156
8.81450e-06;0.012082740569673078
8.81475e-06;0.012072723749967932
8.81500e-06;0.012062706930262786
8.81525e-06;0.012052690110557708
8.81550e-06;0.012042673290852563
8.81575e-06;0.012032656471147417
8.81600e-06;0.01202263965144234
8.81625e-06;0.012009389118333116
8.81650e-06;0.011985767440601643
8.81675e-06;0.011962145762870328
8.81700e-06;0.011938524085138855
8.81725e-06;0.01191490240740738
8.81750e-06;0.011891280729676067
8.81775e-06;0.011867659051944592
8.81800e-06;0.011844037374213117
8.81825e-06;0.011820415696481804
8.81850e-06;0.011796794018750329
8.81875e-06;0.011773172341018856
8.81900e-06;0.01174955066328754
8.81925e-06;0.011725753296065516
8.81950e-06;0.011701392458650655
8.81975e-06;0.011677031621235961
8.82000e-06;0.0116526707838211
8.82025e-06;0.01162830994640624
8.82050e-06;0.011603949108991379
8.82075e-06;0.011579588271576683
8.82100e-06;0.011555227434161822
8.82125e-06;0.011530866596746962
8.82150e-06;0.011506505759332266
8.82175e-06;0.011482144921917405
8.82200e-06;0.011457784084502544
8.82225e-06;0.011434738166305709
8.82250e-06;0.01141590944848333
8.82275e-06;0.011397080730660952
8.82300e-06;0.0113782520128387
8.82325e-06;0.011359423295016323
8.82350e-06;0.011340594577193944
8.82375e-06;0.011321765859371695
8.82400e-06;0.011302937141549316
8.82425e-06;0.011284108423726937
8.82450e-06;0.011265279705904687
8.82475e-06;0.011246450988082309
8.82500e-06;0.011226627619949726
8.82525e-06;0.01120361421580269
8.82550e-06;0.0111806008116555
8.82575e-06;0.011157587407508308
8.82600e-06;0.011134574003361273
8.82625e-06;0.01111156059921408
8.82650e-06;0.01108854719506689
8.82675e-06;0.011065533790919855
8.82700e-06;0.011042520386772663
8.82725e-06;0.01101950698262547
8.82750e-06;0.010996493578478435
8.82775e-06;0.010973091253856508
8.82800e-06;0.01094844158601386
8.82825e-06;0.010923791918171381
8.82850e-06;0.010899142250328736
8.82875e-06;0.010874492582486088
8.82900e-06;0.010849842914643443
8.82925e-06;0.010825193246800964
8.82950e-06;0.010800543578958316
8.82975e-06;0.01077589391111567
8.83000e-06;0.010751244243273192
8.83025e-06;0.010726594575430544
8.83050e-06;0.010701944907587899
8.83075e-06;0.01067729523974542
8.83100e-06;0.010652645571902774
8.83125e-06;0.010627995904060127
8.83150e-06;0.010613575952907803
8.83175e-06;0.010602793549742901
8.83200e-06;0.010592011146578
8.83225e-06;0.010581228743413171
8.83250e-06;0.01057044634024827
8.83275e-06;0.010559663937083368
8.83300e-06;0.010548881533918539
8.83325e-06;0.010538099130753638
8.83350e-06;0.010527316727588736
8.83375e-06;0.010516534324423909
8.83400e-06;0.010505751921259007
8.83425e-06;0.010494969518094106
8.83450e-06;0.010484187114929277
8.83475e-06;0.010473404711764375
8.83500e-06;0.010467927286464713
8.83525e-06;0.010479463951725432
8.83550e-06;0.01049100061698623
8.83575e-06;0.010502537282247027
8.83600e-06;0.010514073947507745
8.83625e-06;0.010525610612768542
8.83650e-06;0.01053714727802934
8.83675e-06;0.010548683943290059
8.83700e-06;0.010560220608550854
8.83725e-06;0.010571757273811652
8.83750e-06;0.010583293939072449
8.83775e-06;0.010594830604333168
8.83800e-06;0.010606367269593965
8.83825e-06;0.010617903934854761
8.83850e-06;0.01062944060011548
8.83875e-06;0.010642330760682087
8.83900e-06;0.010659561842604944
8.83925e-06;0.010676792924527684
8.83950e-06;0.010694024006450541
8.83975e-06;0.010711255088373398
8.84000e-06;0.010728486170296137
8.84025e-06;0.010745717252218994
8.84050e-06;0.010762948334141851
8.84075e-06;0.010780179416064592
8.84100e-06;0.010797410497987448
8.84125e-06;0.010814641579910305
8.84150e-06;0.010831872661833046
8.84175e-06;0.010849103743755903
8.84200e-06;0.01086633482567876
8.84225e-06;0.010883565907601499
8.84250e-06;0.010897981559906273
8.84275e-06;0.010903367584619792
8.84300e-06;0.010908753609333273
8.84325e-06;0.010914139634046792
8.84350e-06;0.01091952565876031
8.84375e-06;0.01092491168347379
8.84400e-06;0.01093029770818731
8.84425e-06;0.010935683732900827
8.84450e-06;0.01094106975761431
8.84475e-06;0.010946455782327827
8.84500e-06;0.010951841807041346
8.84525e-06;0.010957227831754826
8.84550e-06;0.010962613856468344
8.84575e-06;0.010967999881181863
8.84600e-06;0.01097338590589538
8.84625e-06;0.010978771930608863
8.84650e-06;0.01098415795532238
8.84675e-06;0.010989543980035899
8.84700e-06;0.01099493000474938
8.84725e-06;0.011000316029462899
8.84750e-06;0.011004176588301313
8.84775e-06;0.011003144682888646
8.84800e-06;0.011002112777475972
8.84825e-06;0.011001080872063296
8.84850e-06;0.01100004896665063
8.84875e-06;0.010999017061237956
8.84900e-06;0.010997985155825282
8.84925e-06;0.010996953250412615
8.84950e-06;0.010995921344999939
8.84975e-06;0.010994889439587265
8.85000e-06;0.010993857534174598
8.85025e-06;0.010992825628761924
8.85050e-06;0.01099179372334925
8.85075e-06;0.010990761817936583
8.85100e-06;0.010989729912523907
8.85125e-06;0.010988698007111233
8.85150e-06;0.010987666101698566
8.85175e-06;0.010986634196285892
8.85200e-06;0.010985602290873218
8.85225e-06;0.01098457038546055
8.85250e-06;0.010981794536433333
8.85275e-06;0.010973425522766226
8.85300e-06;0.010965056509099177
8.85325e-06;0.01095668749543207
8.85350e-06;0.010948318481764963
8.85375e-06;0.010939949468097914
8.85400e-06;0.010931580454430807
8.85425e-06;0.0109232114407637
8.85450e-06;0.010914842427096593
8.85475e-06;0.010906473413429544
8.85500e-06;0.010898104399762437
8.85525e-06;0.01088973538609533
8.85550e-06;0.010881366372428281
8.85575e-06;0.01086444465928757
8.85600e-06;0.010844481722647785
8.85625e-06;0.010824518786008134
8.85650e-06;0.010804555849368349
8.85675e-06;0.010784592912728562
8.85700e-06;0.010764629976088912
8.85725e-06;0.010744667039449126
8.85750e-06;0.01072470410280934
8.85775e-06;0.01070474116616969
8.85800e-06;0.010684778229529904
8.85825e-06;0.01066481529289012
8.85850e-06;0.010644852356250468
8.85875e-06;0.010624292196356074
8.85900e-06;0.010601816625915758
8.85925e-06;0.010579341055475594
8.85950e-06;0.010556865485035276
8.85975e-06;0.01053438991459496
8.86000e-06;0.010511914344154796
8.86025e-06;0.010489438773714478
8.86050e-06;0.010466963203274162
8.86075e-06;0.010444487632833998
8.86100e-06;0.010422012062393682
8.86125e-06;0.010399536491953364
8.86150e-06;0.0103770609215132
8.86175e-06;0.010354585351072884
8.86200e-06;0.010345092860985793
8.86225e-06;0.010340216977525775
8.86250e-06;0.010335341094065725
8.86275e-06;0.010330465210605676
8.86300e-06;0.010325589327145624
8.86325e-06;0.010320713443685608
8.86350e-06;0.010315837560225558
8.86375e-06;0.010310961676765507
8.86400e-06;0.01030608579330549
8.86425e-06;0.01030120990984544
8.86450e-06;0.01029633402638539
8.86475e-06;0.010291458142925373
8.86500e-06;0.010293844780420263
8.86525e-06;0.010319523727988203
8.86550e-06;0.010345202675555968
8.86575e-06;0.010370881623123909
8.86600e-06;0.010396560570691849
8.86625e-06;0.010422239518259614
8.86650e-06;0.010447918465827554
8.86675e-06;0.010473597413395493
8.86700e-06;0.01049927636096326
8.86725e-06;0.0105249553085312
8.86750e-06;0.010550634256099138
8.86775e-06;0.010576313203666905
8.86800e-06;0.010601992151234843
8.86825e-06;0.010637131826293951
8.86850e-06;0.010675635607254727
8.86875e-06;0.010714139388215763
8.86900e-06;0.0107526431691768
8.86925e-06;0.010791146950137576
8.86950e-06;0.010829650731098612
8.86975e-06;0.01086815451205965
8.87000e-06;0.010906658293020425
8.87025e-06;0.010945162073981461
8.87050e-06;0.010983665854942499
8.87075e-06;0.011022169635903275
8.87100e-06;0.01106067341686431
8.87125e-06;0.011095162671381774
8.87150e-06;0.01111677656273976
8.87175e-06;0.0111383904540976
8.87200e-06;0.011160004345455585
8.87225e-06;0.011181618236813573
8.87250e-06;0.011203232128171411
8.87275e-06;0.011224846019529399
8.87300e-06;0.011246459910887385
8.87325e-06;0.011268073802245225
8.87350e-06;0.011289687693603211
8.87375e-06;0.011311301584961197
8.87400e-06;0.011332915476319037
8.87425e-06;0.011334996870916464
8.87450e-06;0.01133013277557067
8.87475e-06;0.01132526868022491
8.87500e-06;0.011320404584879117
8.87525e-06;0.011315540489533324
8.87550e-06;0.011310676394187565
8.87575e-06;0.011305812298841771
8.87600e-06;0.011300948203495979
8.87625e-06;0.011296084108150218
8.87650e-06;0.011291220012804425
8.87675e-06;0.011286355917458631
8.87700e-06;0.011277282566665528
8.87725e-06;0.01125470931911361
8.87750e-06;0.011232136071561693
8.87775e-06;0.011209562824009927
8.87800e-06;0.01118698957645801
8.87825e-06;0.011164416328906092
8.87850e-06;0.011141843081354326
8.87875e-06;0.011119269833802408
8.87900e-06;0.01109669658625049
8.87925e-06;0.011074123338698725
8.87950e-06;0.011051550091146807
8.87975e-06;0.01102897684359489
8.88000e-06;0.011006403596042972
8.88025e-06;0.01098534306897729
8.88050e-06;0.010964820444723064
8.88075e-06;0.010944297820468837
8.88100e-06;0.01092377519621475
8.88125e-06;0.010903252571960523
8.88150e-06;0.010882729947706296
8.88175e-06;0.010862207323452208
8.88200e-06;0.010841684699197982
8.88225e-06;0.010821162074943755
8.88250e-06;0.010800639450689667
8.88275e-06;0.01078011682643544
8.88300e-06;0.010759594202181214
8.88325e-06;0.01074316040445622
8.88350e-06;0.010739840264648593
8.88375e-06;0.010736520124840969
8.88400e-06;0.010733199985033364
8.88425e-06;0.010729879845225738
8.88450e-06;0.010726559705418111
8.88475e-06;0.010723239565610509
8.88500e-06;0.010719919425802882
8.88525e-06;0.010716599285995256
8.88550e-06;0.010713279146187651
8.88575e-06;0.010709959006380027
8.88600e-06;0.0107066388665724
8.88625e-06;0.010703318726764796
8.88650e-06;0.010699998586957169
8.88675e-06;0.010696678447149544
8.88700e-06;0.01069335830734194
8.88725e-06;0.010690038167534313
8.88750e-06;0.010686718027726687
8.88775e-06;0.010683397887919083
8.88800e-06;0.010686826753550607
8.88825e-06;0.010692655473640162
8.88850e-06;0.01069848419372972
8.88875e-06;0.010704312913819236
8.88900e-06;0.010710141633908791
8.88925e-06;0.010715970353998346
8.88950e-06;0.010721799074087863
8.88975e-06;0.010727627794177418
8.89000e-06;0.010733456514266975
8.89025e-06;0.010739285234356492
8.89050e-06;0.010745113954446047
8.89075e-06;0.010750942674535602
8.89100e-06;0.010756771394625119
8.89125e-06;0.010762600114714676
8.89150e-06;0.010768428834804231
8.89175e-06;0.010774257554893748
8.89200e-06;0.010780086274983303
8.89225e-06;0.01078591499507286
8.89250e-06;0.010789051731461176
8.89275e-06;0.010783554755184934
8.89300e-06;0.010778057778908693
8.89325e-06;0.010772560802632489
8.89350e-06;0.010767063826356246
8.89375e-06;0.010761566850080005
8.89400e-06;0.0107560698738038
8.89425e-06;0.010750572897527557
8.89450e-06;0.010745075921251316
8.89475e-06;0.010739578944975112
8.89500e-06;0.010734081968698869
8.89525e-06;0.010728584992422628
8.89550e-06;0.010719271750433109
8.89575e-06;0.010697719005801118
8.89600e-06;0.010676166261169129
8.89625e-06;0.010654613516537284
8.89650e-06;0.010633060771905293
8.89675e-06;0.010611508027273304
8.89700e-06;0.010589955282641313
8.89725e-06;0.010568402538009468
8.89750e-06;0.010546849793377479
8.89775e-06;0.010525297048745488
8.89800e-06;0.010503744304113643
8.89825e-06;0.010482191559481654
8.89850e-06;0.010459325257360727
8.89875e-06;0.010432246122181391
8.89900e-06;0.010405166987001871
8.89925e-06;0.010378087851822352
8.89950e-06;0.010351008716643016
8.89975e-06;0.010323929581463496
8.90000e-06;0.010296850446283977
8.90025e-06;0.010269771311104639
8.90050e-06;0.01024269217592512
8.90075e-06;0.0102156130407456
8.90100e-06;0.010188533905566264
8.90125e-06;0.010167593311564293
8.90150e-06;0.010148835499240267
8.90175e-06;0.01013007768691637
