Time(s);Current(A)
8.00000e-06;-0.004339833282855889
8.00025e-06;-0.0043250988284029976
8.00050e-06;-0.004310364373950006
8.00075e-06;-0.004295343343671225
8.00100e-06;-0.00427943657584037
8.00125e-06;-0.004263529808009408
8.00150e-06;-0.004247623040178446
8.00175e-06;-0.0042317162723475915
8.00200e-06;-0.004215809504516629
8.00225e-06;-0.0041999027366856675
8.00250e-06;-0.004183995968854813
8.00275e-06;-0.00416808920102385
8.00300e-06;-0.004152182433192889
8.00325e-06;-0.004136275665362034
8.00350e-06;-0.004130958757475105
8.00375e-06;-0.004129277006213948
8.00400e-06;-0.004127595254952803
8.00425e-06;-0.004125913503691647
8.00450e-06;-0.004124231752430491
8.00475e-06;-0.004122550001169346
8.00500e-06;-0.004120868249908189
8.00525e-06;-0.004119186498647033
8.00550e-06;-0.0041175047473858885
8.00575e-06;-0.004115822996124732
8.00600e-06;-0.004114141244863576
8.00625e-06;-0.00411245949360243
8.00650e-06;-0.004110777742341275
8.00675e-06;-0.004109095991080118
8.00700e-06;-0.004107414239818973
8.00725e-06;-0.004117306066021265
8.00750e-06;-0.00413117072727775
8.00775e-06;-0.004145035388534141
8.00800e-06;-0.004158900049790626
8.00825e-06;-0.004172764711047111
8.00850e-06;-0.004186629372303595
8.00875e-06;-0.004200494033559986
8.00900e-06;-0.0042143586948164705
8.00925e-06;-0.0042282233560729555
8.00950e-06;-0.004242088017329346
8.00975e-06;-0.004255952678585831
8.01000e-06;-0.004269817339842316
8.01025e-06;-0.004283682001098707
8.01050e-06;-0.004297546662355192
8.01075e-06;-0.004311411323611677
8.01100e-06;-0.004325359444134813
8.01125e-06;-0.004339336213526694
8.01150e-06;-0.0043533129829185745
8.01175e-06;-0.00436728975231036
8.01200e-06;-0.00438126652170224
8.01225e-06;-0.004395243291094121
8.01250e-06;-0.004409220060485906
8.01275e-06;-0.004423196829877787
8.01300e-06;-0.004437173599269668
8.01325e-06;-0.004451150368661453
8.01350e-06;-0.004465127138053334
8.01375e-06;-0.004479103907445214
8.01400e-06;-0.004493080676837
8.01425e-06;-0.00450705744622888
8.01450e-06;-0.004521034215620761
8.01475e-06;-0.004535010985012547
8.01500e-06;-0.004548987754404427
8.01525e-06;-0.004562964523796308
8.01550e-06;-0.004576941293188094
8.01575e-06;-0.004590918062579974
8.01600e-06;-0.004604894831971854
8.01625e-06;-0.004617516519067252
8.01650e-06;-0.004625949969860363
8.01675e-06;-0.0046343834206534745
8.01700e-06;-0.004642816871446585
8.01725e-06;-0.0046512503222396395
8.01750e-06;-0.00465968377303275
8.01775e-06;-0.004668117223825861
8.01800e-06;-0.004676550674618915
8.01825e-06;-0.004684984125412026
8.01850e-06;-0.0046934175762051375
8.01875e-06;-0.004701851026998191
8.01900e-06;-0.0047102844777913025
8.01925e-06;-0.004718717928584413
8.01950e-06;-0.0047271513793774676
8.01975e-06;-0.004735584830170578
8.02000e-06;-0.004744018280963689
8.02025e-06;-0.004752451731756743
8.02050e-06;-0.004760885182549854
8.02075e-06;-0.004769318633342966
8.02100e-06;-0.004777752084136019
8.02125e-06;-0.004786185534929131
8.02150e-06;-0.004794618985722241
8.02175e-06;-0.004800285838488184
8.02200e-06;-0.004805003007574757
8.02225e-06;-0.0048097201766613305
8.02250e-06;-0.004814437345747872
8.02275e-06;-0.004819154514834445
8.02300e-06;-0.0048238716839210175
8.02325e-06;-0.004828588853007559
8.02350e-06;-0.004833306022094132
8.02375e-06;-0.004838023191180705
8.02400e-06;-0.0048427403602672465
8.02425e-06;-0.00484745752935382
8.02450e-06;-0.004852174698440392
8.02475e-06;-0.0048568918675269334
8.02500e-06;-0.004861609036613507
8.02525e-06;-0.00486632620570008
8.02550e-06;-0.004871043374786653
8.02575e-06;-0.004875760543873194
8.02600e-06;-0.004880477712959767
8.02625e-06;-0.00488519488204634
8.02650e-06;-0.0048899120511328815
8.02675e-06;-0.004894629220219455
8.02700e-06;-0.004899346389306027
8.02725e-06;-0.0049040635583925685
8.02750e-06;-0.00490515427010662
8.02775e-06;-0.0049050001362205215
8.02800e-06;-0.0049048460023344235
8.02825e-06;-0.004904691868448325
8.02850e-06;-0.004904537734562226
8.02875e-06;-0.004904383600676128
8.02900e-06;-0.004904229466790029
8.02925e-06;-0.00490407533290393
8.02950e-06;-0.004903921199017832
8.02975e-06;-0.004903767065131733
8.03000e-06;-0.004903612931245634
8.03025e-06;-0.004903458797359536
8.03050e-06;-0.0049033046634734375
8.03075e-06;-0.004903150529587339
8.03100e-06;-0.004902996395701241
8.03125e-06;-0.004902842261815142
8.03150e-06;-0.004902688127929043
8.03175e-06;-0.004902533994042945
8.03200e-06;-0.004902379860156846
8.03225e-06;-0.004902225726270747
8.03250e-06;-0.004902071592384649
8.03275e-06;-0.00490191745849855
8.03300e-06;-0.004901763324612451
8.03325e-06;-0.004903037998818401
8.03350e-06;-0.004904803136659937
8.03375e-06;-0.004906568274501473
8.03400e-06;-0.004908333412343009
8.03425e-06;-0.004910098550184532
8.03450e-06;-0.004911863688026068
8.03475e-06;-0.004913628825867603
8.03500e-06;-0.004915393963709128
8.03525e-06;-0.004917159101550663
8.03550e-06;-0.004918924239392199
8.03575e-06;-0.004920689377233722
8.03600e-06;-0.004922454515075258
8.03625e-06;-0.004924219652916794
8.03650e-06;-0.004925984790758318
8.03675e-06;-0.004927749928599854
8.03700e-06;-0.0049295150664413895
8.03725e-06;-0.004931280204282913
8.03750e-06;-0.004933045342124449
8.03775e-06;-0.004934810479965985
8.03800e-06;-0.004936575617807509
8.03825e-06;-0.004938340755649044
8.03850e-06;-0.004940423883029805
8.03875e-06;-0.004943489840262748
8.03900e-06;-0.004946555797495712
8.03925e-06;-0.004949621754728677
8.03950e-06;-0.00495268771196162
8.03975e-06;-0.004955753669194584
8.04000e-06;-0.0049588196264275484
8.04025e-06;-0.0049618855836604915
8.04050e-06;-0.0049649515408934555
8.04075e-06;-0.004968017498126419
8.04100e-06;-0.004971083455359363
8.04125e-06;-0.004974149412592327
8.04150e-06;-0.004977215369825291
8.04175e-06;-0.004980281327058235
8.04200e-06;-0.004983347284291199
8.04225e-06;-0.004986413241524163
8.04250e-06;-0.004989479198757107
8.04275e-06;-0.004992545155990071
8.04300e-06;-0.004995611113223035
8.04325e-06;-0.0049986770704559995
8.04350e-06;-0.005001743027688943
8.04375e-06;-0.0050048089849219065
8.04400e-06;-0.00501428926989038
8.04425e-06;-0.005025971386245188
8.04450e-06;-0.005037653502600076
8.04475e-06;-0.005049335618954963
8.04500e-06;-0.0050610177353097715
8.04525e-06;-0.005072699851664659
8.04550e-06;-0.005084381968019545
8.04575e-06;-0.005096064084374354
8.04600e-06;-0.005107746200729241
8.04625e-06;-0.005119428317084129
8.04650e-06;-0.005131110433438937
8.04675e-06;-0.005142792549793824
8.04700e-06;-0.005154474666148711
8.04725e-06;-0.005176180518296707
8.04750e-06;-0.005201327194953999
8.04775e-06;-0.00522647387161129
8.04800e-06;-0.005251620548268411
8.04825e-06;-0.005276767224925703
8.04850e-06;-0.005301913901582994
8.04875e-06;-0.005327060578240115
8.04900e-06;-0.005352207254897407
8.04925e-06;-0.0053773539315546985
8.04950e-06;-0.00540250060821182
8.04975e-06;-0.005427647284869112
8.05000e-06;-0.005452793961526403
8.05025e-06;-0.005477940638183524
8.05050e-06;-0.00550464831194597
8.05075e-06;-0.005531891825559926
8.05100e-06;-0.005559135339173698
8.05125e-06;-0.005586378852787653
8.05150e-06;-0.00561362236640161
8.05175e-06;-0.005640865880015566
8.05200e-06;-0.005668109393629338
8.05225e-06;-0.005695352907243293
8.05250e-06;-0.005722596420857249
8.05275e-06;-0.005749839934471021
8.05300e-06;-0.005777083448084977
8.05325e-06;-0.00579269039661275
8.05350e-06;-0.0058043028884641815
8.05375e-06;-0.005815915380315692
8.05400e-06;-0.005827527872167202
8.05425e-06;-0.005839140364018634
8.05450e-06;-0.005850752855870145
8.05475e-06;-0.005862365347721655
8.05500e-06;-0.005873977839573086
8.05525e-06;-0.0058855903314245965
8.05550e-06;-0.005897202823276107
8.05575e-06;-0.005908815315127539
8.05600e-06;-0.005902209670838427
8.05625e-06;-0.005889350329259369
8.05650e-06;-0.005876490987680398
8.05675e-06;-0.005863631646101339
8.05700e-06;-0.005850772304522281
8.05725e-06;-0.00583791296294331
8.05750e-06;-0.005825053621364252
8.05775e-06;-0.005812194279785194
8.05800e-06;-0.0057993349382062225
8.05825e-06;-0.0057817262235530555
8.05850e-06;-0.005751431334858126
8.05875e-06;-0.005721136446163401
8.05900e-06;-0.005690841557468471
8.05925e-06;-0.005660546668773541
8.05950e-06;-0.005630251780078816
8.05975e-06;-0.005599956891383886
8.06000e-06;-0.005569662002688956
8.06025e-06;-0.005539367113994026
8.06050e-06;-0.005509072225299301
8.06075e-06;-0.005479347582819341
8.06100e-06;-0.005449765200221243
8.06125e-06;-0.005420182817623346
8.06150e-06;-0.005390600435025247
8.06175e-06;-0.005361018052427149
8.06200e-06;-0.005331435669829251
8.06225e-06;-0.0053018532872311525
8.06250e-06;-0.005272270904633054
8.06275e-06;-0.005242688522035156
8.06300e-06;-0.005213106139437058
8.06325e-06;-0.005183523756838959
8.06350e-06;-0.005155521980964088
8.06375e-06;-0.005144119768882961
8.06400e-06;-0.005132717556801834
8.06425e-06;-0.0051213153447207845
8.06450e-06;-0.005109913132639657
8.06475e-06;-0.00509851092055853
8.06500e-06;-0.005087108708477481
8.06525e-06;-0.005075706496396353
8.06550e-06;-0.005064304284315226
8.06575e-06;-0.005052902072234177
8.06600e-06;-0.005041499860153049
8.06625e-06;-0.005030097648071922
8.06650e-06;-0.0050251912580176255
8.06675e-06;-0.005031178766669937
8.06700e-06;-0.005037166275322248
8.06725e-06;-0.005043153783974519
8.06750e-06;-0.00504914129262683
8.06775e-06;-0.005055128801279141
8.06800e-06;-0.005061116309931412
8.06825e-06;-0.005067103818583723
8.06850e-06;-0.005073091327236034
8.06875e-06;-0.005079078835888346
8.06900e-06;-0.005085066344540617
8.06925e-06;-0.005091053853192928
8.06950e-06;-0.00509704136184524
8.06975e-06;-0.005105903657492048
8.07000e-06;-0.005119587150239699
8.07025e-06;-0.0051332706429873505
8.07050e-06;-0.005146954135734909
8.07075e-06;-0.00516063762848256
8.07100e-06;-0.005174321121230212
8.07125e-06;-0.00518800461397777
8.07150e-06;-0.005201688106725421
8.07175e-06;-0.005215371599473073
8.07200e-06;-0.005229055092220631
8.07225e-06;-0.005242738584968282
8.07250e-06;-0.005256422077715934
8.07275e-06;-0.005270105570463492
8.07300e-06;-0.005284619736019051
8.07325e-06;-0.0053005269916856475
8.07350e-06;-0.005316434247352136
8.07375e-06;-0.0053323415030187326
8.07400e-06;-0.005348248758685329
8.07425e-06;-0.005364156014351818
8.07450e-06;-0.005380063270018415
8.07475e-06;-0.005395970525685011
8.07500e-06;-0.0054118777813515
8.07525e-06;-0.005427785037018096
8.07550e-06;-0.005443692292684693
8.07575e-06;-0.005475571298644327
8.07600e-06;-0.005509762412141858
8.07625e-06;-0.005543953525639387
8.07650e-06;-0.005578144639136685
8.07675e-06;-0.005612335752634215
8.07700e-06;-0.005646526866131744
8.07725e-06;-0.0056807179796292745
8.07750e-06;-0.005714909093126572
8.07775e-06;-0.0057491002066241016
8.07800e-06;-0.005783291320121632
8.07825e-06;-0.005823312255833936
8.07850e-06;-0.005873110167030883
8.07875e-06;-0.005922908078227831
8.07900e-06;-0.00597270598942444
8.07925e-06;-0.006022503900621388
8.07950e-06;-0.006072301811818334
8.07975e-06;-0.006122099723014944
8.08000e-06;-0.006171897634211891
8.08025e-06;-0.006221695545408838
8.08050e-06;-0.006271493456605448
8.08075e-06;-0.006320522079186235
8.08100e-06;-0.006368260556773936
8.08125e-06;-0.006415999034361312
8.08150e-06;-0.006463737511949012
8.08175e-06;-0.006511475989536711
8.08200e-06;-0.0065592144671240875
8.08225e-06;-0.006606952944711788
8.08250e-06;-0.006654691422299488
8.08275e-06;-0.006702429899886864
8.08300e-06;-0.006750168377474564
8.08325e-06;-0.006790276003783706
8.08350e-06;-0.006817586216528906
8.08375e-06;-0.006844896429274293
8.08400e-06;-0.006872206642019678
8.08425e-06;-0.006899516854764879
8.08450e-06;-0.006926827067510266
8.08475e-06;-0.006954137280255651
8.08500e-06;-0.006981447493000853
8.08525e-06;-0.007008757705746238
8.08550e-06;-0.007036067918491625
8.08575e-06;-0.00706337813123701
8.08600e-06;-0.007090688343982211
8.08625e-06;-0.0071179985567275976
8.08650e-06;-0.007145308769472983
8.08675e-06;-0.007172618982218185
8.08700e-06;-0.00719992919496357
8.08725e-06;-0.007227239407708957
8.08750e-06;-0.007250380775659231
8.08775e-06;-0.007266530730858276
8.08800e-06;-0.007282680686057322
8.08825e-06;-0.007298830641256257
8.08850e-06;-0.007314980596455302
8.08875e-06;-0.007331130551654348
8.08900e-06;-0.007347280506853284
8.08925e-06;-0.007363430462052329
8.08950e-06;-0.007379580417251374
8.08975e-06;-0.00739573037245031
8.09000e-06;-0.007411880327649356
8.09025e-06;-0.0074280302828484005
8.09050e-06;-0.007444180238047337
8.09075e-06;-0.007460330193246382
8.09100e-06;-0.007476480148445427
8.09125e-06;-0.007492630103644363
8.09150e-06;-0.007508780058843408
8.09175e-06;-0.007522255710458178
8.09200e-06;-0.007531246388152601
8.09225e-06;-0.007540237065847086
8.09250e-06;-0.00754922774354157
8.09275e-06;-0.0075582184212359925
8.09300e-06;-0.007567209098930477
8.09325e-06;-0.007576199776624961
8.09350e-06;-0.0075851904543193845
8.09375e-06;-0.007594181132013868
8.09400e-06;-0.007603171809708352
8.09425e-06;-0.007612162487402836
8.09450e-06;-0.00762115316509726
8.09475e-06;-0.007630143842791744
8.09500e-06;-0.0076391345204862285
8.09525e-06;-0.007634485713636019
8.09550e-06;-0.007627862423432777
8.09575e-06;-0.007621239133229534
8.09600e-06;-0.007614615843026337
8.09625e-06;-0.007607992552823095
8.09650e-06;-0.007601369262619852
8.09675e-06;-0.007594745972416655
8.09700e-06;-0.007588122682213413
8.09725e-06;-0.00758149939201017
8.09750e-06;-0.007574876101806972
8.09775e-06;-0.00756825281160373
8.09800e-06;-0.007561629521400487
8.09825e-06;-0.00755500623119729
8.09850e-06;-0.007543985793033735
8.09875e-06;-0.007525591063467728
8.09900e-06;-0.007507196333901846
8.09925e-06;-0.00748880160433584
8.09950e-06;-0.007470406874769834
8.09975e-06;-0.007452012145203951
8.10000e-06;-0.007433617415637945
8.10025e-06;-0.007415222686071939
8.10050e-06;-0.007396827956506057
8.10075e-06;-0.00737843322694005
8.10100e-06;-0.007360038497374044
8.10125e-06;-0.007343223761413897
8.10150e-06;-0.007326637748985182
8.10175e-06;-0.0073100517365564666
8.10200e-06;-0.007293465724127863
8.10225e-06;-0.007276879711699148
8.10250e-06;-0.007260293699270433
8.10275e-06;-0.007243707686841718
8.10300e-06;-0.007227121674413115
8.10325e-06;-0.0072105356619844
8.10350e-06;-0.007193949649555685
8.10375e-06;-0.007177270119541619
8.10400e-06;-0.00716043375470341
8.10425e-06;-0.0071435973898652
8.10450e-06;-0.007126761025027103
8.10475e-06;-0.007109924660188893
8.10500e-06;-0.007093088295350683
8.10525e-06;-0.0070762519305125875
8.10550e-06;-0.0070594155656743774
8.10575e-06;-0.007042579200836167
8.10600e-06;-0.007025742835998072
8.10625e-06;-0.007008906471159862
8.10650e-06;-0.006987035856926395
8.10675e-06;-0.006956722492442508
8.10700e-06;-0.006926409127958414
8.10725e-06;-0.006896095763474321
8.10750e-06;-0.006865782398990433
8.10775e-06;-0.006835469034506339
8.10800e-06;-0.006805155670022246
8.10825e-06;-0.006774842305538358
8.10850e-06;-0.0067445289410542645
8.10875e-06;-0.006714215576570171
8.10900e-06;-0.006683902212086283
8.10925e-06;-0.006651106045768233
8.10950e-06;-0.006614146065907678
8.10975e-06;-0.006577186086047373
8.11000e-06;-0.006540226106186818
8.11025e-06;-0.006503266126326262
8.11050e-06;-0.006466306146465957
8.11075e-06;-0.006429346166605401
8.11100e-06;-0.006392386186744846
8.11125e-06;-0.00635542620688429
8.11150e-06;-0.006318466227023985
8.11175e-06;-0.0062815062471634295
8.11200e-06;-0.006254370167324669
8.11225e-06;-0.0062286562179936274
8.11250e-06;-0.006202942268662412
8.11275e-06;-0.006177228319331197
8.11300e-06;-0.006151514370000156
8.11325e-06;-0.0061258004206689405
8.11350e-06;-0.006100086471337725
8.11375e-06;-0.006074372522006683
8.11400e-06;-0.006048658572675468
8.11425e-06;-0.006022944623344253
8.11450e-06;-0.0060074156349376896
8.11475e-06;-0.006008967461300716
8.11500e-06;-0.006010519287663742
8.11525e-06;-0.006012071114026758
8.11550e-06;-0.006013622940389785
8.11575e-06;-0.006015174766752811
8.11600e-06;-0.0060167265931158264
8.11625e-06;-0.006018278419478853
8.11650e-06;-0.006019830245841879
8.11675e-06;-0.006021382072204895
8.11700e-06;-0.006022933898567922
8.11725e-06;-0.006024485724930948
8.11750e-06;-0.0060473530484395355
8.11775e-06;-0.006073306052657232
8.11800e-06;-0.006099259056874929
8.11825e-06;-0.00612521206109245
8.11850e-06;-0.006151165065310147
8.11875e-06;-0.006177118069527843
8.11900e-06;-0.006203071073745364
8.11925e-06;-0.006229024077963061
8.11950e-06;-0.006254977082180758
8.11975e-06;-0.006280930086398455
8.12000e-06;-0.006306883090615976
8.12025e-06;-0.006335610842166827
8.12050e-06;-0.006368992018074045
8.12075e-06;-0.006402373193981039
8.12100e-06;-0.006435754369888258
8.12125e-06;-0.0064691355457954765
8.12150e-06;-0.00650251672170247
8.12175e-06;-0.006535897897609689
8.12200e-06;-0.006569279073516909
8.12225e-06;-0.0066026602494239015
8.12250e-06;-0.006629626001090229
8.12275e-06;-0.006655663041092435
8.12300e-06;-0.006681700081094464
8.12325e-06;-0.00670773712109667
8.12350e-06;-0.006733774161098876
8.12375e-06;-0.006759811201100905
8.12400e-06;-0.006785848241103111
8.12425e-06;-0.006811885281105317
8.12450e-06;-0.00683450411565263
8.12475e-06;-0.006851390406436313
8.12500e-06;-0.0068682766972199966
8.12525e-06;-0.0068851629880035655
8.12550e-06;-0.006902049278787249
8.12575e-06;-0.006918935569570932
8.12600e-06;-0.006935821860354501
8.12625e-06;-0.0069527081511381855
8.12650e-06;-0.006969594441921869
8.12675e-06;-0.006986480732705438
8.12700e-06;-0.007003367023489121
8.12725e-06;-0.0070202533142728046
8.12750e-06;-0.0070371396050563735
8.12775e-06;-0.007054025895840057
8.12800e-06;-0.00707091218662374
8.12825e-06;-0.007087798477407424
8.12850e-06;-0.007104684768190993
8.12875e-06;-0.007121571058974676
8.12900e-06;-0.00713845734975836
8.12925e-06;-0.007155343640541929
8.12950e-06;-0.007172229931325613
8.12975e-06;-0.007189116222109296
8.13000e-06;-0.007206002512892865
8.13025e-06;-0.007222888803676548
8.13050e-06;-0.007239775094460232
8.13075e-06;-0.007256661385243801
8.13100e-06;-0.007273547676027484
8.13125e-06;-0.007290433966811167
8.13150e-06;-0.007307320257594736
8.13175e-06;-0.007324206548378421
8.13200e-06;-0.007338349125434646
8.13225e-06;-0.00734789032342496
8.13250e-06;-0.007357431521415337
8.13275e-06;-0.007366972719405715
8.13300e-06;-0.007376513917396028
8.13325e-06;-0.007386055115386406
8.13350e-06;-0.007395596313376784
8.13375e-06;-0.007405137511367097
8.13400e-06;-0.007414678709357475
8.13425e-06;-0.007424219907347852
8.13450e-06;-0.007433761105338165
8.13475e-06;-0.0074433023033285434
8.13500e-06;-0.007452843501318921
8.13525e-06;-0.007462384699309234
8.13550e-06;-0.007471925897299611
8.13575e-06;-0.00748146709528999
8.13600e-06;-0.007491008293280302
8.13625e-06;-0.00750054949127068
8.13650e-06;-0.007510090689261058
8.13675e-06;-0.007519631887251436
8.13700e-06;-0.007529173085241749
8.13725e-06;-0.007538714283232126
8.13750e-06;-0.007548255481222504
8.13775e-06;-0.007557796679212817
8.13800e-06;-0.007567337877203195
8.13825e-06;-0.007576879075193573
8.13850e-06;-0.007586420273183886
8.13875e-06;-0.007595961471174264
8.13900e-06;-0.007605502669164641
8.13925e-06;-0.007615043867154955
8.13950e-06;-0.007623015959466715
8.13975e-06;-0.007628356563678411
8.14000e-06;-0.007633697167890071
8.14025e-06;-0.007639037772101767
8.14050e-06;-0.0076443783763134624
8.14075e-06;-0.007649718980525123
8.14100e-06;-0.0076550595847368185
8.14125e-06;-0.007660400188948514
8.14150e-06;-0.007665740793160174
8.14175e-06;-0.00767108139737187
8.14200e-06;-0.007676422001583566
8.14225e-06;-0.007681762605795226
8.14250e-06;-0.007687103210006922
8.14275e-06;-0.007692443814218618
8.14300e-06;-0.0076977844184302775
8.14325e-06;-0.007703125022641974
8.14350e-06;-0.00770846562685367
8.14375e-06;-0.007713806231065329
8.14400e-06;-0.007719146835277026
8.14425e-06;-0.007724487439488722
8.14450e-06;-0.007729828043700381
8.14475e-06;-0.007735168647912078
8.14500e-06;-0.007740509252123774
8.14525e-06;-0.0077458498563354695
8.14550e-06;-0.007751190460547129
8.14575e-06;-0.007756531064758826
8.14600e-06;-0.007761871668970521
8.14625e-06;-0.007767212273182181
8.14650e-06;-0.0077725528773938775
