Time(s);Current(A)
5.00000e-07;-0.011402209265360893
5.00250e-07;-0.011417345448214836
5.00500e-07;-0.011435036995122628
5.00750e-07;-0.01145272854203042
5.01000e-07;-0.011470420088938213
5.01250e-07;-0.011488111635846005
5.01500e-07;-0.01150580318275379
5.01750e-07;-0.011523494729661582
5.02000e-07;-0.011540494402043343
5.02250e-07;-0.011557330421706053
5.02500e-07;-0.011574166441368763
5.02750e-07;-0.011591002461031473
5.03000e-07;-0.011607838480694176
5.03250e-07;-0.011624674500356884
5.03500e-07;-0.011640658282067076
5.03750e-07;-0.011654733670578099
5.04000e-07;-0.01166880905908912
5.04250e-07;-0.011680940498167805
5.04500e-07;-0.011688718904310993
5.04750e-07;-0.011696497310454182
5.05000e-07;-0.011701618715538601
5.05250e-07;-0.011700790370631521
5.05500e-07;-0.011699962025724443
5.05750e-07;-0.011699133680817363
5.06000e-07;-0.011690614168203214
5.06250e-07;-0.011680275423256326
5.06500e-07;-0.011669936678309437
5.06750e-07;-0.011657420950411277
5.07000e-07;-0.011636619405494623
5.07250e-07;-0.011608179794298115
5.07500e-07;-0.011579740183101596
5.07750e-07;-0.011551300571905078
5.08000e-07;-0.011522860960708559
5.08250e-07;-0.01149442134951204
5.08500e-07;-0.011465981738315534
5.08750e-07;-0.011437542127119015
5.09000e-07;-0.01139781760324631
5.09250e-07;-0.011355423799649815
5.09500e-07;-0.01131302999605332
5.09750e-07;-0.011270636192456824
5.10000e-07;-0.011228242388860346
5.10250e-07;-0.011185848585263851
5.10500e-07;-0.011143454781667356
5.10750e-07;-0.011100221582221676
5.11000e-07;-0.011055108746548489
5.11250e-07;-0.011009995910875302
5.11500e-07;-0.010964883075202134
5.11750e-07;-0.010919770239528948
5.12000e-07;-0.01087465740385576
5.12250e-07;-0.010829544568182574
5.12500e-07;-0.010792199127749338
5.12750e-07;-0.010756690950147979
5.13000e-07;-0.010721182772546606
5.13250e-07;-0.010685674594945233
5.13500e-07;-0.01065016641734386
5.13750e-07;-0.010614658239742487
5.14000e-07;-0.010586088747557251
5.14250e-07;-0.010573056864346586
5.14500e-07;-0.010560024981135915
5.14750e-07;-0.010546993097925245
5.15000e-07;-0.010533961214714574
5.15250e-07;-0.010520929331503904
5.15500e-07;-0.010507897448293233
5.15750e-07;-0.010494865565082568
5.16000e-07;-0.010481833681871899
5.16250e-07;-0.010468801798661227
5.16500e-07;-0.010455769915450558
5.16750e-07;-0.010442738032239886
5.17000e-07;-0.010429706149029222
5.17250e-07;-0.01041667426581855
5.17500e-07;-0.01040364238260788
5.17750e-07;-0.010390610499397209
5.18000e-07;-0.01037757861618654
5.18250e-07;-0.010364546732975868
5.18500e-07;-0.010351514849765204
5.18750e-07;-0.010338482966554534
5.19000e-07;-0.010325451083343862
5.19250e-07;-0.010324168007400263
5.19500e-07;-0.010325663938606943
5.19750e-07;-0.010327159869813623
5.20000e-07;-0.010328655801020303
5.20250e-07;-0.010330151732226983
5.20500e-07;-0.010331647663433662
5.20750e-07;-0.010333143594640342
5.21000e-07;-0.010334639525847022
5.21250e-07;-0.010336135457053702
5.21500e-07;-0.010337631388260382
5.21750e-07;-0.010339127319467062
5.22000e-07;-0.01034062325067374
5.22250e-07;-0.01034211918188042
5.22500e-07;-0.010343615113087101
5.22750e-07;-0.010345111044293781
5.23000e-07;-0.010346606975500461
5.23250e-07;-0.01034810290670714
5.23500e-07;-0.01034959883791382
5.23750e-07;-0.0103510947691205
5.24000e-07;-0.01035259070032718
5.24250e-07;-0.010355494022780113
5.24500e-07;-0.010361548878059132
5.24750e-07;-0.010367603733338154
5.25000e-07;-0.010373658588617173
5.25250e-07;-0.010379713443896195
5.25500e-07;-0.01038576829917521
5.25750e-07;-0.010391823154454232
5.26000e-07;-0.010397878009733252
5.26250e-07;-0.010403932865012273
5.26500e-07;-0.010409987720291293
5.26750e-07;-0.010416042575570314
5.27000e-07;-0.010422097430849332
5.27250e-07;-0.010428152286128351
5.27500e-07;-0.010434207141407371
5.27750e-07;-0.010440261996686392
5.28000e-07;-0.010446316851965412
5.28250e-07;-0.01045237170724443
5.28500e-07;-0.010458426562523451
5.28750e-07;-0.010464481417802471
5.29000e-07;-0.010470536273081492
5.29250e-07;-0.010476591128360512
5.29500e-07;-0.010482645983639531
5.29750e-07;-0.01048870083891855
5.30000e-07;-0.01049475569419757
5.30250e-07;-0.01050081054947659
5.30500e-07;-0.010506865404755612
5.30750e-07;-0.010512920260034631
5.31000e-07;-0.010518975115313653
5.31250e-07;-0.01052502997059267
5.31500e-07;-0.01053108482587169
5.31750e-07;-0.01053713968115071
5.32000e-07;-0.010543194536429731
5.32250e-07;-0.01054924939170875
5.32500e-07;-0.010555304246987769
5.32750e-07;-0.01056135910226679
5.33000e-07;-0.01056741395754581
5.33250e-07;-0.010573468812824829
5.33500e-07;-0.010579906242598787
5.33750e-07;-0.010587200361003175
5.34000e-07;-0.010594494479407562
5.34250e-07;-0.010603700633659086
5.34500e-07;-0.010617188357625526
5.34750e-07;-0.010630676081591966
5.35000e-07;-0.010648372100894126
5.35250e-07;-0.010675491641145344
5.35500e-07;-0.01070261118139655
5.35750e-07;-0.010729730721647767
5.36000e-07;-0.010756850261898985
5.36250e-07;-0.010783969802150203
5.36500e-07;-0.01081108934240142
5.36750e-07;-0.010854438328597702
5.37000e-07;-0.010901626150967132
5.37250e-07;-0.010948813973336562
5.37500e-07;-0.010996001795705992
5.37750e-07;-0.011043189618075423
5.38000e-07;-0.011090377440444853
5.38250e-07;-0.011142457870957868
5.38500e-07;-0.011205494185423649
5.38750e-07;-0.011268530499889429
5.39000e-07;-0.01133156681435521
5.39250e-07;-0.011394603128820988
5.39500e-07;-0.011457639443286769
5.39750e-07;-0.011527122080413453
5.40000e-07;-0.011598129500129683
5.40250e-07;-0.011669136919845915
5.40500e-07;-0.011740144339562145
5.40750e-07;-0.011811151759278377
5.41000e-07;-0.011882596442158024
5.41250e-07;-0.01195502027651171
5.41500e-07;-0.012026975038665818
5.41750e-07;-0.012097879420239018
5.42000e-07;-0.012167928316473672
5.42250e-07;-0.012236061547726104
5.42500e-07;-0.012303023176641227
5.42750e-07;-0.012367361268402101
5.43000e-07;-0.012429510021136883
5.43250e-07;-0.012486756246712489
5.43500e-07;-0.012544002472288096
5.43750e-07;-0.012598388933958208
5.44000e-07;-0.012646371604324972
5.44250e-07;-0.012694354274691736
5.44500e-07;-0.012742045985165169
5.44750e-07;-0.012789086157086422
5.45000e-07;-0.012836126329007675
5.45250e-07;-0.012882691438942334
5.45500e-07;-0.012928192755529465
5.45750e-07;-0.012973694072116595
5.46000e-07;-0.013019222337953397
5.46250e-07;-0.013064810950509854
5.46500e-07;-0.013110399563066312
5.46750e-07;-0.013155988175622751
5.47000e-07;-0.013201576788179207
5.47250e-07;-0.013247858299295869
5.47500e-07;-0.01329569139925715
5.47750e-07;-0.013343524499218431
5.48000e-07;-0.013391357599179692
5.48250e-07;-0.013439190699140973
5.48500e-07;-0.01348772527982927
5.48750e-07;-0.013537830667174226
5.49000e-07;-0.013587936054519183
5.49250e-07;-0.013638041441864139
5.49500e-07;-0.013688180467852869
5.49750e-07;-0.013738394819939055
5.50000e-07;-0.013788609172025242
5.50250e-07;-0.013838823524111428
5.50500e-07;-0.013888988352638696
5.50750e-07;-0.013939002033042762
5.51000e-07;-0.013988800800412211
5.51250e-07;-0.014038110558400376
5.51500e-07;-0.014086656854357494
5.51750e-07;-0.014134173929720361
5.52000e-07;-0.014180474142227317
5.52250e-07;-0.014225555870741495
5.52500e-07;-0.01426948270991601
5.52750e-07;-0.014312148154002207
5.53000e-07;-0.014353307596792406
5.53250e-07;-0.014392697542791237
5.53500e-07;-0.014430053140084487
5.53750e-07;-0.014465130087538518
5.54000e-07;-0.014497869536816371
5.54250e-07;-0.014528660131296004
5.54500e-07;-0.014558075726479571
5.54750e-07;-0.014586327082087342
5.55000e-07;-0.014613310759629584
5.55250e-07;-0.014638880897765095
5.55500e-07;-0.014662890060017331
5.55750e-07;-0.01468520367905639
5.56000e-07;-0.01470562831872335
5.56250e-07;-0.014724559312697559
5.56500e-07;-0.014742886536142126
5.56750e-07;-0.014759861752709642
5.57000e-07;-0.014776032421087276
5.57250e-07;-0.01479040148665016
5.57500e-07;-0.014804770552213044
5.57750e-07;-0.014818001678041606
5.58000e-07;-0.014828684646464373
5.58250e-07;-0.014839367614887144
5.58500e-07;-0.014850050583309914
5.58750e-07;-0.014859872316198631
5.59000e-07;-0.014867765507849141
5.59250e-07;-0.01487565869949965
5.59500e-07;-0.014883551891150157
5.59750e-07;-0.014890820827199495
5.60000e-07;-0.014896691884709871
5.60250e-07;-0.014902342997241596
5.60500e-07;-0.014907413327481155
5.60750e-07;-0.014912203491885824
5.61000e-07;-0.014916726654221358
5.61250e-07;-0.01492098432082988
5.61500e-07;-0.014924978710659561
5.61750e-07;-0.014928714492660065
5.62000e-07;-0.014932225693561086
5.62250e-07;-0.014935613751620709
5.62500e-07;-0.014939010002768047
5.62750e-07;-0.014942489385014635
5.63000e-07;-0.01494607782546928
5.63250e-07;-0.01494979645704142
5.63500e-07;-0.014953664618788592
5.63750e-07;-0.014957711724947286
5.64000e-07;-0.014962066244922028
5.64250e-07;-0.014967072240511225
5.64500e-07;-0.014973128577267325
5.64750e-07;-0.014980392033329827
5.65000e-07;-0.014988834563217878
5.65250e-07;-0.014998404369170328
5.65500e-07;-0.015009204627363682
5.65750e-07;-0.01502107200527072
5.66000e-07;-0.015033651113628277
5.66250e-07;-0.015047823980568776
5.66500e-07;-0.015063060154497555
5.66750e-07;-0.01508067736275984
5.67000e-07;-0.015098294571022125
5.67250e-07;-0.015117317433746653
5.67500e-07;-0.015139487940164405
5.67750e-07;-0.015161658446582148
5.68000e-07;-0.015183828952999898
5.68250e-07;-0.01520599945941765
5.68500e-07;-0.015229623557760964
5.68750e-07;-0.015256502644851457
5.69000e-07;-0.015283381731941948
5.69250e-07;-0.01531026081903243
5.69500e-07;-0.015337139906122921
5.69750e-07;-0.015364718734506271
5.70000e-07;-0.015393864474478863
5.70250e-07;-0.015423010214451454
5.70500e-07;-0.015452407525478057
5.70750e-07;-0.015482368172703423
5.71000e-07;-0.015512328819928803
5.71250e-07;-0.015542183376046835
5.71500e-07;-0.015571800365242182
5.71750e-07;-0.015601417354437529
5.72000e-07;-0.015630584007487038
5.72250e-07;-0.015658742235089677
5.72500e-07;-0.01568690046269232
5.72750e-07;-0.01571428203055336
5.73000e-07;-0.015739924445441106
5.73250e-07;-0.015765566860328855
5.73500e-07;-0.015789004969709447
5.73750e-07;-0.015807507037897902
5.74000e-07;-0.015826009106086357
5.74250e-07;-0.015844511174274812
5.74500e-07;-0.015863013242463267
5.74750e-07;-0.015881515310651722
5.75000e-07;-0.01590001737884017
5.75250e-07;-0.015918519447028625
5.75500e-07;-0.01593702151521708
5.75750e-07;-0.015952628104396866
5.76000e-07;-0.015961750926416655
5.76250e-07;-0.01597087374843644
5.76500e-07;-0.01597999657045623
5.76750e-07;-0.01598911939247602
5.77000e-07;-0.01599824221449581
5.77250e-07;-0.0160073650365156
5.77500e-07;-0.016016487858535385
5.77750e-07;-0.01602561068055517
5.78000e-07;-0.01603260113840289
5.78250e-07;-0.016034816651327614
5.78500e-07;-0.016037032164252337
5.78750e-07;-0.01603924767717706
5.79000e-07;-0.016041463190101784
5.79250e-07;-0.01604367870302651
5.79500e-07;-0.016045894215951234
5.79750e-07;-0.016048109728875957
5.80000e-07;-0.01605032524180068
5.80250e-07;-0.01605161855114609
5.80500e-07;-0.016050846795172595
5.80750e-07;-0.016050075039199096
5.81000e-07;-0.016049303283225597
5.81250e-07;-0.0160485315272521
5.81500e-07;-0.0160477597712786
5.81750e-07;-0.016046988015305103
5.82000e-07;-0.016046216259331607
5.82250e-07;-0.016045444503358108
5.82500e-07;-0.01604477855098218
5.82750e-07;-0.016044349521716142
5.83000e-07;-0.0160439204924501
5.83250e-07;-0.01604380772393767
5.83500e-07;-0.016044403149503707
5.83750e-07;-0.016044998575069747
5.84000e-07;-0.016045477463339907
5.84250e-07;-0.016045695392822367
5.84500e-07;-0.016044978053003475
5.84750e-07;-0.01604216639015071
5.85000e-07;-0.01603825691913656
5.85250e-07;-0.016031889156253053
5.85500e-07;-0.01602552139336955
5.85750e-07;-0.0160179462811
5.86000e-07;-0.016007667584284825
5.86250e-07;-0.015997388887469658
5.86500e-07;-0.01598497923208578
5.86750e-07;-0.01596779777930813
5.87000e-07;-0.01595061632653048
5.87250e-07;-0.01593343487375283
5.87500e-07;-0.015916253420975187
5.87750e-07;-0.01589364679334281
5.88000e-07;-0.015869756920579917
5.88250e-07;-0.015845867047817024
5.88500e-07;-0.015821977175054132
5.88750e-07;-0.015796540563587383
5.89000e-07;-0.015767640382333643
5.89250e-07;-0.015738740201079893
5.89500e-07;-0.01570921966956611
5.89750e-07;-0.015678310004637198
5.90000e-07;-0.015647096873139713
5.90250e-07;-0.015615204197233291
5.90500e-07;-0.015583104083023496
5.90750e-07;-0.015550476205728771
5.91000e-07;-0.015517716177440959
5.91250e-07;-0.015485059047751886
5.91500e-07;-0.015452739153647334
5.91750e-07;-0.015420988382111606
5.92000e-07;-0.01539000523721207
5.92250e-07;-0.015359911798108557
5.92500e-07;-0.015330807434034267
5.92750e-07;-0.015302869470145683
5.93000e-07;-0.015276338200003844
5.93250e-07;-0.015251461424206851
5.93500e-07;-0.015228485874443715
5.93750e-07;-0.015207656188705001
5.94000e-07;-0.015189178665604935
5.94250e-07;-0.015173155121032525
5.94500e-07;-0.015159596718521875
5.94750e-07;-0.015148520627529515
5.95000e-07;-0.015139979370759423
5.95250e-07;-0.01513444800448271
5.95500e-07;-0.015131668937920057
5.95750e-07;-0.015130575397419233
5.96000e-07;-0.015133256209450262
5.96250e-07;-0.01513795922149082
5.96500e-07;-0.015147190490850409
5.96750e-07;-0.015156421760209997
5.97000e-07;-0.015170124985376536
5.97250e-07;-0.01519384213919395
5.97500e-07;-0.015217559293011357
5.97750e-07;-0.015241276446828772
5.98000e-07;-0.015264993600646187
5.98250e-07;-0.015288710754463603
5.98500e-07;-0.015312427908281018
5.98750e-07;-0.015336145062098423
5.99000e-07;-0.015359862215915837
5.99250e-07;-0.015383579369733254
5.99500e-07;-0.015410908623870512
5.99750e-07;-0.015446326355721851
6.00000e-07;-0.01548174408757319
6.00250e-07;-0.015517161819424516
6.00500e-07;-0.015552579551275855
6.00750e-07;-0.015587997283127195
6.01000e-07;-0.015623895395895938
6.01250e-07;-0.01566086921254903
6.01500e-07;-0.015697843029202123
6.01750e-07;-0.0157348168458552
6.02000e-07;-0.015771790662508296
6.02250e-07;-0.015808764479161387
6.02500e-07;-0.01584476181677858
6.02750e-07;-0.01587857255152742
6.03000e-07;-0.015912383286276248
6.03250e-07;-0.015942348324085958
6.03500e-07;-0.015963701797644104
6.03750e-07;-0.01598505527120225
6.04000e-07;-0.016006408744760395
6.04250e-07;-0.01602776221831854
6.04500e-07;-0.016049115691876677
6.04750e-07;-0.016070469165434823
6.05000e-07;-0.01609182263899297
6.05250e-07;-0.016113176112551114
6.05500e-07;-0.01613452958610926
6.05750e-07;-0.016155883059667406
6.06000e-07;-0.01617723653322554
6.06250e-07;-0.016198590006783687
6.06500e-07;-0.016219943480341833
6.06750e-07;-0.01624129695389998
6.07000e-07;-0.01626265042745812
6.07250e-07;-0.01628400390101626
6.07500e-07;-0.016301779704395884
6.07750e-07;-0.016311544128537598
6.08000e-07;-0.016321308552679315
6.08250e-07;-0.01633107297682103
6.08500e-07;-0.016340837400962746
6.08750e-07;-0.016350601825104456
6.09000e-07;-0.016360366249246173
6.09250e-07;-0.016370130673387887
6.09500e-07;-0.016379895097529604
6.09750e-07;-0.016389659521671318
6.10000e-07;-0.016399423945813035
6.10250e-07;-0.016409188369954746
6.10500e-07;-0.016418952794096463
6.10750e-07;-0.016428717218238176
6.11000e-07;-0.016438481642379894
6.11250e-07;-0.016448246066521607
6.11500e-07;-0.01645801049066332
6.11750e-07;-0.016466741977796365
6.12000e-07;-0.016473160437262668
6.12250e-07;-0.016479578896728974
6.12500e-07;-0.016485997356195277
6.12750e-07;-0.01649236114235338
6.13000e-07;-0.016498709417234542
6.13250e-07;-0.01650505769211571
6.13500e-07;-0.016510901380523555
6.13750e-07;-0.0165152254388572
6.14000e-07;-0.01651954949719084
6.14250e-07;-0.01652387355552448
6.14500e-07;-0.01652819761385812
6.14750e-07;-0.016522823002292016
6.15000e-07;-0.016514769250737634
6.15250e-07;-0.016506715499183255
6.15500e-07;-0.016498661747628873
6.15750e-07;-0.016486954818175928
6.16000e-07;-0.016467406978216467
6.16250e-07;-0.016447859138257005
6.16500e-07;-0.016424478648754633
6.16750e-07;-0.01639287204409905
6.17000e-07;-0.016361265439443468
6.17250e-07;-0.01632604503028377
6.17500e-07;-0.016283068218755564
6.17750e-07;-0.016240091407227358
6.18000e-07;-0.016197114595699152
6.18250e-07;-0.01615036004322321
6.18500e-07;-0.016095497227336497
6.18750e-07;-0.01604063441144976
6.19000e-07;-0.015985771595563025
6.19250e-07;-0.015928774448541825
6.19500e-07;-0.015867196331230824
6.19750e-07;-0.015804955462736123
6.20000e-07;-0.01574091500609303
6.20250e-07;-0.015675741325067372
6.20500e-07;-0.015609578377465927
6.20750e-07;-0.015542586784277683
6.21000e-07;-0.015475168220349857
6.21250e-07;-0.015407902423015664
6.21500e-07;-0.01534126817851605
6.21750e-07;-0.015275636600740024
6.22000e-07;-0.015211317581789575
6.22250e-07;-0.015148597326510882
6.22500e-07;-0.015087761259928705
6.22750e-07;-0.015029104986929224
6.23000e-07;-0.014973075773664484
6.23250e-07;-0.014920230442657589
6.23500e-07;-0.014871064442955032
6.23750e-07;-0.014825991397155592
6.24000e-07;-0.01478524710255745
6.24250e-07;-0.014748696646761162
6.24500e-07;-0.014715989051283247
6.24750e-07;-0.014686960577167372
6.25000e-07;-0.014661736642771359
6.25250e-07;-0.01464054069326209
6.25500e-07;-0.014623556639503694
6.25750e-07;-0.014610917891563966
6.26000e-07;-0.014602646670869178
6.26250e-07;-0.014599106509737683
6.26500e-07;-0.014599461809299899
6.26750e-07;-0.014602640831469022
6.27000e-07;-0.014611880482731777
6.27250e-07;-0.014621120133994537
6.27500e-07;-0.014634398025473047
6.27750e-07;-0.014656343296700144
6.28000e-07;-0.01467828856792724
6.28250e-07;-0.014700233839154336
6.28500e-07;-0.014722179110381423
6.28750e-07;-0.014753677854749275
6.29000e-07;-0.014787304601549483
6.29250e-07;-0.014820931348349692
6.29500e-07;-0.014854558095149902
6.29750e-07;-0.014890415982578339
6.30000e-07;-0.01493106262502484
6.30250e-07;-0.014971709267471357
6.30500e-07;-0.015013277367905743
6.30750e-07;-0.015056823217527038
6.31000e-07;-0.015100369067148334
6.31250e-07;-0.015144179346302484
6.31500e-07;-0.015188557177423768
6.31750e-07;-0.015232935008545055
6.32000e-07;-0.015277017625799793
6.32250e-07;-0.015320466617873328
6.32500e-07;-0.015363213342334845
6.32750e-07;-0.015404452771600088
6.33000e-07;-0.01544432057133132
6.33250e-07;-0.015481244407006241
6.33500e-07;-0.015518168242681162
6.33750e-07;-0.015552873040970167
6.34000e-07;-0.015582815061744054
6.34250e-07;-0.01561275708251793
6.34500e-07;-0.015640309173386897
6.34750e-07;-0.01566273169569334
6.35000e-07;-0.01568515421799978
6.35250e-07;-0.015703753266862845
6.35500e-07;-0.015714145895472976
6.35750e-07;-0.01572453852408311
6.36000e-07;-0.015734931152693244
6.36250e-07;-0.015745323781303378
6.36500e-07;-0.015755716409913512
6.36750e-07;-0.01576133588811987
6.37000e-07;-0.015756710629773473
6.37250e-07;-0.015752085371427076
6.37500e-07;-0.015747460113080678
6.37750e-07;-0.015742834854734277
6.38000e-07;-0.01573820959638788
6.38250e-07;-0.0157299506475037
6.38500e-07;-0.0157138926143408
6.38750e-07;-0.0156978345811779
6.39000e-07;-0.015681776548015003
6.39250e-07;-0.015665718514852107
6.39500e-07;-0.01564966048168921
6.39750e-07;-0.015628167210684694
6.40000e-07;-0.015605463259629342
6.40250e-07;-0.015582759308573989
6.40500e-07;-0.015560055357518638
6.40750e-07;-0.015537351406463284
6.41000e-07;-0.015514066158925331
6.41250e-07;-0.01548953325966482
6.41500e-07;-0.015465049940941712
6.41750e-07;-0.015440673038212439
6.42000e-07;-0.015416585034614598
6.42250e-07;-0.01539311710271815
6.42500e-07;-0.0153702102449033
6.42750e-07;-0.015348507634947035
6.43000e-07;-0.015327628209913426
6.43250e-07;-0.015308515608037167
6.43500e-07;-0.015290466101684002
6.43750e-07;-0.015274698344834475
6.44000e-07;-0.015259442081529129
6.44250e-07;-0.015245283650088537
6.44500e-07;-0.0152304182149846
6.44750e-07;-0.01521403531957454
6.45000e-07;-0.015197022381335325
6.45250e-07;-0.015178657165825196
6.45500e-07;-0.015159950806617355
6.45750e-07;-0.01514051224183998
6.46000e-07;-0.015120231153263667
6.46250e-07;-0.015098141733998078
6.46500e-07;-0.015076052314732491
6.46750e-07;-0.015052333792475432
6.47000e-07;-0.015025118684200018
6.47250e-07;-0.014997903575924605
6.47500e-07;-0.014969542343226137
