Time(s);Current(A)
2.00000e-06;0.006847430092493889
2.00025e-06;0.006856844510019772
2.00050e-06;0.006866258927545671
2.00075e-06;0.00687567334507157
2.00100e-06;0.006885087762597454
2.00125e-06;0.006894502180123352
2.00150e-06;0.006903916597649252
2.00175e-06;0.006913331015175135
2.00200e-06;0.006922745432701034
2.00225e-06;0.006932159850226933
2.00250e-06;0.006941574267752832
2.00275e-06;0.006950988685278716
2.00300e-06;0.006963629470848725
2.00325e-06;0.006983994056826062
2.00350e-06;0.007004358642803365
2.00375e-06;0.007024723228780701
2.00400e-06;0.007045087814758038
2.00425e-06;0.007065452400735375
2.00450e-06;0.007085816986712678
2.00475e-06;0.007106181572690015
2.00500e-06;0.007126546158667351
2.00525e-06;0.0071469107446446535
2.00550e-06;0.007167275330621991
2.00575e-06;0.007187639916599328
2.00600e-06;0.00720800450257663
2.00625e-06;0.007225365649122383
2.00650e-06;0.007235536677743443
2.00675e-06;0.007245707706364502
2.00700e-06;0.007255878734985544
2.00725e-06;0.007266049763606603
2.00750e-06;0.007276220792227664
2.00775e-06;0.0072863918208487055
2.00800e-06;0.007296562849469765
2.00825e-06;0.007306733878090825
2.00850e-06;0.007293380003396177
2.00875e-06;0.007273946588284827
2.00900e-06;0.007254513173173443
2.00925e-06;0.00723507975806206
2.00950e-06;0.00721564634295071
2.00975e-06;0.007196212927839327
2.01000e-06;0.007176779512727944
2.01025e-06;0.007157346097616594
2.01050e-06;0.007128414774269102
2.01075e-06;0.007076745825671724
2.01100e-06;0.007025076877074346
2.01125e-06;0.006973407928477055
2.01150e-06;0.006921738979879677
2.01175e-06;0.006870070031282299
2.01200e-06;0.006818401082685008
2.01225e-06;0.00676673213408763
2.01250e-06;0.006715063185490252
2.01275e-06;0.006658308186945669
2.01300e-06;0.006589377381388365
2.01325e-06;0.006520446575831061
2.01350e-06;0.006451515770273757
2.01375e-06;0.00638258496471657
2.01400e-06;0.006313654159159266
2.01425e-06;0.006244723353601962
2.01450e-06;0.006175792548044775
2.01475e-06;0.006106861742487471
2.01500e-06;0.006040400881190921
2.01525e-06;0.005979852970998482
2.01550e-06;0.0059193050608061445
2.01575e-06;0.0058587571506137056
2.01600e-06;0.005798209240421266
2.01625e-06;0.005737661330228929
2.01650e-06;0.005677113420036489
2.01675e-06;0.005616565509844049
2.01700e-06;0.005556017599651713
2.01725e-06;0.0055225243208323884
2.01750e-06;0.005496022770000171
2.01775e-06;0.005469521219167953
2.01800e-06;0.005443019668335779
2.01825e-06;0.005416518117503561
2.01850e-06;0.005390016566671343
2.01875e-06;0.0053635150158391695
2.01900e-06;0.005337013465006952
2.01925e-06;0.005323955553179119
2.01950e-06;0.0053430811935714275
2.01975e-06;0.005362206833963704
2.02000e-06;0.005381332474356013
2.02025e-06;0.0054004581147483206
2.02050e-06;0.005419583755140597
2.02075e-06;0.005438709395532906
2.02100e-06;0.0054578350359252145
2.02125e-06;0.00547696067631749
2.02150e-06;0.005496086316709799
2.02175e-06;0.005542868730402505
2.02200e-06;0.005596798483611935
2.02225e-06;0.005650728236821273
2.02250e-06;0.005704657990030703
2.02275e-06;0.0057585877432401325
2.02300e-06;0.005812517496449471
2.02325e-06;0.005866447249658901
2.02350e-06;0.005920377002868331
2.02375e-06;0.00597430675607776
2.02400e-06;0.006030761246359765
2.02425e-06;0.006093259859620451
2.02450e-06;0.006155758472881138
2.02475e-06;0.006218257086141718
2.02500e-06;0.006280755699402405
2.02525e-06;0.006343254312663091
2.02550e-06;0.006405752925923672
2.02575e-06;0.006468251539184358
2.02600e-06;0.006525221373562743
2.02625e-06;0.006568955524967094
2.02650e-06;0.006612689676371371
2.02675e-06;0.006656423827775722
2.02700e-06;0.006700157979180073
2.02725e-06;0.00674389213058435
2.02750e-06;0.006787626281988701
2.02775e-06;0.006831360433393052
2.02800e-06;0.006862326775928096
2.02825e-06;0.006862727477465824
2.02850e-06;0.006863128179003553
2.02875e-06;0.006863528880541281
2.02900e-06;0.006863929582079009
2.02925e-06;0.006864330283616737
2.02950e-06;0.006864730985154465
2.02975e-06;0.006865131686692194
2.03000e-06;0.006865532388229922
2.03025e-06;0.00686593308976765
2.03050e-06;0.0068530330144014875
2.03075e-06;0.006808291393160575
2.03100e-06;0.006763549771919586
2.03125e-06;0.006718808150678598
2.03150e-06;0.006674066529437685
2.03175e-06;0.0066293249081966965
2.03200e-06;0.006584583286955707
2.03225e-06;0.006539841665714719
2.03250e-06;0.006495100044473806
2.03275e-06;0.0064503584232328175
2.03300e-06;0.006399342483216086
2.03325e-06;0.006333306066532852
2.03350e-06;0.006267269649849506
2.03375e-06;0.0062012332331661596
2.03400e-06;0.006135196816482925
2.03425e-06;0.006069160399799579
2.03450e-06;0.006003123983116233
2.03475e-06;0.005937087566432887
2.03500e-06;0.005872846586695306
2.03525e-06;0.005812903813617669
2.03550e-06;0.005752961040540032
2.03575e-06;0.005693018267462497
2.03600e-06;0.00563307549438486
2.03625e-06;0.005573132721307223
2.03650e-06;0.005513189948229586
2.03675e-06;0.0054532471751520505
2.03700e-06;0.005402558520534574
2.03725e-06;0.005374023867869307
2.03750e-06;0.005345489215204088
2.03775e-06;0.005316954562538821
2.03800e-06;0.005288419909873554
2.03825e-06;0.005259885257208335
2.03850e-06;0.0052313506045430684
2.03875e-06;0.005202815951877801
2.03900e-06;0.005174281299212534
2.03925e-06;0.005145746646547315
2.03950e-06;0.005128015842932278
2.03975e-06;0.005136149036410269
2.04000e-06;0.0051442822298882465
2.04025e-06;0.0051524154233662375
2.04050e-06;0.0051605486168442285
2.04075e-06;0.0051686818103222195
2.04100e-06;0.005176815003800197
2.04125e-06;0.005184948197278188
2.04150e-06;0.005193081390756179
2.04175e-06;0.005201214584234156
2.04200e-06;0.005214137681330665
2.04225e-06;0.005241059381668019
2.04250e-06;0.005274042015427542
2.04275e-06;0.0053070246491871195
2.04300e-06;0.005340007282946697
2.04325e-06;0.005372989916706276
2.04350e-06;0.005405972550465798
2.04375e-06;0.005438955184225376
2.04400e-06;0.005471937817984954
2.04425e-06;0.005504920451744476
2.04450e-06;0.005538429654929711
2.04475e-06;0.005573199444969833
2.04500e-06;0.005607969235009955
2.04525e-06;0.005642739025050018
2.04550e-06;0.005677508815090141
2.04575e-06;0.005712278605130263
2.04600e-06;0.0057470483951703255
2.04625e-06;0.005781818185210448
2.04650e-06;0.00581658797525057
2.04675e-06;0.005844700284974578
2.04700e-06;0.005856874844110814
2.04725e-06;0.00586904940324705
2.04750e-06;0.005881223962383286
2.04775e-06;0.0058933985215195005
2.04800e-06;0.0059055730806557355
2.04825e-06;0.005917747639791971
2.04850e-06;0.005929922198928186
2.04875e-06;0.005942096758064422
2.04900e-06;0.005954271317200657
2.04925e-06;0.005966445876336893
2.04950e-06;0.005978620435473108
2.04975e-06;0.0059907949946093435
2.05000e-06;0.006002969553745579
2.05025e-06;0.005992028200612619
2.05050e-06;0.00597511300261102
2.05075e-06;0.00595819780460942
2.05100e-06;0.005941282606607849
2.05125e-06;0.005924367408606249
2.05150e-06;0.005907452210604649
2.05175e-06;0.005890537012603049
2.05200e-06;0.005873621814601478
2.05225e-06;0.0058567066165998785
2.05250e-06;0.005839791418598278
2.05275e-06;0.005822876220596707
2.05300e-06;0.005805961022595107
2.05325e-06;0.005789045824593508
2.05350e-06;0.005768967779965967
2.05375e-06;0.00574131800274897
2.05400e-06;0.005713668225531926
2.05425e-06;0.005686018448314882
2.05450e-06;0.005658368671097885
2.05475e-06;0.005630718893880842
2.05500e-06;0.005603069116663798
2.05525e-06;0.0055754193394468
2.05550e-06;0.005547769562229757
2.05575e-06;0.005522434290959481
2.05600e-06;0.005502639857478314
2.05625e-06;0.00548284542399718
2.05650e-06;0.0054630509905160135
2.05675e-06;0.005443256557034846
2.05700e-06;0.005423462123553712
2.05725e-06;0.005403667690072545
2.05750e-06;0.005383873256591378
2.05775e-06;0.005364078823110211
2.05800e-06;0.005353422380492597
2.05825e-06;0.005364641934851604
2.05850e-06;0.005375861489210611
2.05875e-06;0.0053870810435695995
2.05900e-06;0.005398300597928607
2.05925e-06;0.005409520152287614
2.05950e-06;0.005420739706646602
2.05975e-06;0.00543195926100561
2.06000e-06;0.005443178815364618
2.06025e-06;0.005454398369723625
2.06050e-06;0.005465617924082613
2.06075e-06;0.005504532373540261
2.06100e-06;0.005550604014332619
2.06125e-06;0.005596675655124899
2.06150e-06;0.005642747295917258
2.06175e-06;0.005688818936709615
2.06200e-06;0.005734890577501974
2.06225e-06;0.005780962218294254
2.06250e-06;0.005827033859086612
2.06275e-06;0.005873105499878971
2.06300e-06;0.005919177140671251
2.06325e-06;0.0059693949427145464
2.06350e-06;0.006029538494558548
2.06375e-06;0.006089682046402448
2.06400e-06;0.00614982559824645
2.06425e-06;0.006209969150090451
2.06450e-06;0.006270112701934454
2.06475e-06;0.006330256253778354
2.06500e-06;0.006390399805622355
2.06525e-06;0.006450543357466357
2.06550e-06;0.006501392755419187
2.06575e-06;0.006549840265318051
2.06600e-06;0.0065982877752169145
2.06625e-06;0.006646735285115778
2.06650e-06;0.0066951827950145594
2.06675e-06;0.006743630304913423
2.06700e-06;0.006792077814812288
2.06725e-06;0.006840525324711069
2.06750e-06;0.006879322500249065
2.06775e-06;0.006895017148276489
2.06800e-06;0.0069107117963038865
2.06825e-06;0.006926406444331311
2.06850e-06;0.006942101092358735
2.06875e-06;0.006957795740386159
2.06900e-06;0.006973490388413556
2.06925e-06;0.006989185036440981
2.06950e-06;0.007004879684468405
2.06975e-06;0.0070205743324958025
2.07000e-06;0.007036268980523227
2.07025e-06;0.00705196362855065
2.07050e-06;0.007067658276578075
2.07075e-06;0.0070743248692707395
2.07100e-06;0.007059378646392316
2.07125e-06;0.007044432423513893
2.07150e-06;0.007029486200635495
2.07175e-06;0.007014539977757072
2.07200e-06;0.0069995937548786484
2.07225e-06;0.00698464753200025
2.07250e-06;0.006969701309121827
2.07275e-06;0.006954755086243404
2.07300e-06;0.006939808863364981
2.07325e-06;0.0069248626404865826
2.07350e-06;0.006909916417608159
2.07375e-06;0.006894970194729736
2.07400e-06;0.006877345822207252
2.07425e-06;0.006853310062937063
2.07450e-06;0.006829274303666875
2.07475e-06;0.0068052385443966865
2.07500e-06;0.0067812027851265385
2.07525e-06;0.006757167025856351
2.07550e-06;0.006733131266586162
2.07575e-06;0.006709095507316014
2.07600e-06;0.006688569639403965
2.07625e-06;0.006668950832664314
2.07650e-06;0.006649332025924697
2.07675e-06;0.006629713219185047
2.07700e-06;0.006610094412445396
2.07725e-06;0.006590475605705746
2.07750e-06;0.006570856798966128
2.07775e-06;0.006549452150733916
2.07800e-06;0.006523772266984325
2.07825e-06;0.006498092383234778
2.07850e-06;0.006472412499485187
2.07875e-06;0.006446732615735596
2.07900e-06;0.006421052731986006
2.07925e-06;0.006395372848236459
2.07950e-06;0.0063696929644868686
2.07975e-06;0.006344013080737278
2.08000e-06;0.006318333196987731
2.08025e-06;0.00629265331323814
2.08050e-06;0.006266973429488549
2.08075e-06;0.0062295301798821565
2.08100e-06;0.006189046923809057
2.08125e-06;0.006148563667735959
2.08150e-06;0.00610808041166286
2.08175e-06;0.00606759715558983
2.08200e-06;0.006027113899516731
2.08225e-06;0.005986630643443632
2.08250e-06;0.005946147387370602
2.08275e-06;0.005905664131297504
2.08300e-06;0.0058651808752244045
2.08325e-06;0.005824697619151306
2.08350e-06;0.005783008956785772
2.08375e-06;0.005738434598340012
2.08400e-06;0.0056938602398942505
2.08425e-06;0.005649285881448565
2.08450e-06;0.005604711523002804
2.08475e-06;0.005560137164557043
2.08500e-06;0.005515562806111357
2.08525e-06;0.005470988447665597
2.08550e-06;0.005426414089219836
2.08575e-06;0.005390344929649643
2.08600e-06;0.005356473768500875
2.08625e-06;0.00532260260735205
2.08650e-06;0.005288731446203224
2.08675e-06;0.005254860285054457
2.08700e-06;0.005220989123905631
2.08725e-06;0.005187117962756806
2.08750e-06;0.005153246801608038
2.08775e-06;0.005122582476918659
2.08800e-06;0.0050995951947822036
2.08825e-06;0.005076607912645748
2.08850e-06;0.005053620630509332
2.08875e-06;0.005030633348372877
2.08900e-06;0.005007646066236422
2.08925e-06;0.004984658784100006
2.08950e-06;0.0049616715019635505
2.08975e-06;0.004938684219827095
2.09000e-06;0.00491569693769064
2.09025e-06;0.004892709655554224
2.09050e-06;0.004869722373417769
2.09075e-06;0.004846735091281314
2.09100e-06;0.0048237478091448975
2.09125e-06;0.004800760527008442
2.09150e-06;0.004777773244871987
2.09175e-06;0.00475602233222753
2.09200e-06;0.004737231240366326
2.09225e-06;0.004718440148505123
2.09250e-06;0.004699649056643919
2.09275e-06;0.004680857964782748
2.09300e-06;0.004662066872921544
2.09325e-06;0.004643275781060341
2.09350e-06;0.00462448468919917
2.09375e-06;0.0046056935973379665
2.09400e-06;0.004586902505476763
2.09425e-06;0.00456811141361556
2.09450e-06;0.004549320321754389
2.09475e-06;0.004530529229893185
2.09500e-06;0.004511738138031982
2.09525e-06;0.00449294704617081
2.09550e-06;0.004474155954309607
2.09575e-06;0.004458473474815093
2.09600e-06;0.004450232893191959
2.09625e-06;0.004441992311568812
2.09650e-06;0.004433751729945664
2.09675e-06;0.004425511148322517
2.09700e-06;0.004417270566699383
2.09725e-06;0.004409029985076236
2.09750e-06;0.004400789403453088
2.09775e-06;0.004392548821829954
2.09800e-06;0.0043843082402068075
2.09825e-06;0.00437606765858366
2.09850e-06;0.004367827076960512
2.09875e-06;0.004359586495337378
2.09900e-06;0.004351345913714231
2.09925e-06;0.004343105332091084
2.09950e-06;0.00433486475046795
2.09975e-06;0.004326624168844802
2.10000e-06;0.004318383587221655
2.10025e-06;0.004321606031098719
2.10050e-06;0.004327790864489092
2.10075e-06;0.004333975697879465
2.10100e-06;0.004340160531269838
2.10125e-06;0.0043463453646602
2.10150e-06;0.004352530198050574
2.10175e-06;0.004358715031440946
2.10200e-06;0.004364899864831309
2.10225e-06;0.004371084698221682
2.10250e-06;0.004377269531612055
2.10275e-06;0.004383454365002429
2.10300e-06;0.004389639198392791
2.10325e-06;0.004395824031783164
2.10350e-06;0.004402008865173537
2.10375e-06;0.0044081936985639
2.10400e-06;0.004414378531954272
2.10425e-06;0.004420563365344646
2.10450e-06;0.004427635454507559
2.10475e-06;0.004436831599701477
2.10500e-06;0.0044460277448953945
2.10525e-06;0.004455223890089312
2.10550e-06;0.004464420035283214
2.10575e-06;0.004473616180477131
2.10600e-06;0.004482812325671048
2.10625e-06;0.004491854411626204
2.10650e-06;0.004500527685717516
2.10675e-06;0.004509200959808828
2.10700e-06;0.0045178742339001396
2.10725e-06;0.004526547507991437
2.10750e-06;0.004535220782082749
2.10775e-06;0.004543894056174061
2.10800e-06;0.004558740785808197
2.10825e-06;0.004588366529435744
2.10850e-06;0.004617992273063293
2.10875e-06;0.004647618016690791
2.10900e-06;0.004677243760318339
2.10925e-06;0.0047068695039458874
2.10950e-06;0.004736495247573435
2.10975e-06;0.004766120991200933
2.11000e-06;0.004795746734828482
2.11025e-06;0.00482537247845603
2.11050e-06;0.004863948816889238
2.11075e-06;0.004923952533387852
2.11100e-06;0.004983956249886465
2.11125e-06;0.0050439599663850785
2.11150e-06;0.00510396368288359
2.11175e-06;0.005163967399382204
2.11200e-06;0.005223971115880817
2.11225e-06;0.005283974832379329
2.11250e-06;0.005343978548877942
2.11275e-06;0.005403982265376556
2.11300e-06;0.005468008153031914
2.11325e-06;0.005541662962998598
2.11350e-06;0.005615317772965281
2.11375e-06;0.0056889725829319645
2.11400e-06;0.005762627392898523
2.11425e-06;0.005836282202865206
2.11450e-06;0.00590993701283189
2.11475e-06;0.005983591822798448
2.11500e-06;0.006054337485707076
2.11525e-06;0.006118118762983652
2.11550e-06;0.006181900040260227
2.11575e-06;0.006245681317536694
2.11600e-06;0.00630946259481327
2.11625e-06;0.0063732438720898454
2.11650e-06;0.0064370251493663135
2.11675e-06;0.006500806426642889
2.11700e-06;0.006554921731496454
2.11725e-06;0.006585897071913545
2.11750e-06;0.006616872412330689
2.11775e-06;0.006647847752747832
2.11800e-06;0.006678823093164976
2.11825e-06;0.006709798433582067
2.11850e-06;0.0067407737739992105
2.11875e-06;0.0067717491144163545
2.11900e-06;0.006802724454833446
2.11925e-06;0.00683369979525059
2.11950e-06;0.006864675135667733
2.11975e-06;0.006895650476084877
2.12000e-06;0.006926625816501968
2.12025e-06;0.006957601156919111
2.12050e-06;0.006966819211135827
2.12075e-06;0.006970414530194981
2.12100e-06;0.006974009849254142
2.12125e-06;0.006977605168313303
2.12150e-06;0.006981200487372457
2.12175e-06;0.006984795806431618
2.12200e-06;0.006988391125490778
2.12225e-06;0.00699198644454994
2.12250e-06;0.006995581763609094
2.12275e-06;0.006999177082668255
2.12300e-06;0.007002772401727415
2.12325e-06;0.00700636772078657
2.12350e-06;0.007009963039845731
2.12375e-06;0.007010611069989555
2.12400e-06;0.007004203404368597
2.12425e-06;0.006997795738747651
2.12450e-06;0.006991388073126694
2.12475e-06;0.0069849804075057375
2.12500e-06;0.006978572741884791
2.12525e-06;0.006972165076263834
2.12550e-06;0.006965757410642877
2.12575e-06;0.0069593497450219305
2.12600e-06;0.006952942079400973
2.12625e-06;0.006946534413780016
2.12650e-06;0.0069401267481590595
2.12675e-06;0.006933719082538113
2.12700e-06;0.0069273114169171555
2.12725e-06;0.006918934350813922
2.12750e-06;0.0069058426160638385
2.12775e-06;0.0068927508813137325
2.12800e-06;0.0068796591465636265
2.12825e-06;0.006866567411813521
2.12850e-06;0.006850560508846188
2.12875e-06;0.00682874433038634
2.12900e-06;0.0068069281519264925
2.12925e-06;0.006785111973466682
2.12950e-06;0.006763295795006835
2.12975e-06;0.006732648609880311
2.13000e-06;0.006687197051287176
2.13025e-06;0.006641745492693964
2.13050e-06;0.006594877738903619
2.13075e-06;0.0065415009030107265
2.13100e-06;0.0064881240671179246
2.13125e-06;0.0064347472312250315
2.13150e-06;0.006371590518252213
2.13175e-06;0.006308272275855292
2.13200e-06;0.0062449540334582635
2.13225e-06;0.006181635791061236
2.13250e-06;0.006118317548664208
2.13275e-06;0.006054531994186122
2.13300e-06;0.005979327725720153
2.13325e-06;0.005904123457254184
2.13350e-06;0.005828919188788343
2.13375e-06;0.005753714920322374
2.13400e-06;0.005678510651856405
2.13425e-06;0.005603542206951103
2.13450e-06;0.005530823422738028
2.13475e-06;0.005458104638524954
2.13500e-06;0.00538538585431188
2.13525e-06;0.0053126670700989285
2.13550e-06;0.005239948285885854
2.13575e-06;0.00516722950167278
2.13600e-06;0.005094510717459829
2.13625e-06;0.005035682460041923
2.13650e-06;0.004986313795419622
2.13675e-06;0.004936945130797321
2.13700e-06;0.004887576466175103
2.13725e-06;0.004838207801552801
2.13750e-06;0.0047888391369305
2.13775e-06;0.004739470472308283
2.13800e-06;0.004694339632442376
2.13825e-06;0.004689635914253813
2.13850e-06;0.004684932196065257
2.13875e-06;0.004680228477876695
2.13900e-06;0.004675524759688131
2.13925e-06;0.004670821041499568
2.13950e-06;0.0046661173233110125
2.13975e-06;0.004661413605122449
2.14000e-06;0.004656709886933887
2.14025e-06;0.004652006168745331
2.14050e-06;0.004675200957548209
2.14075e-06;0.004717394918927003
2.14100e-06;0.004759588880305797
2.14125e-06;0.004801782841684519
2.14150e-06;0.004843976803063314
2.14175e-06;0.004886170764442107
2.14200e-06;0.00492836472582083
2.14225e-06;0.0049705586871996235
2.14250e-06;0.005012752648578418
2.14275e-06;0.0050572260625527015
2.14300e-06;0.0051234445256358166
2.14325e-06;0.0051896629887189325
2.14350e-06;0.0052558814518020485
2.14375e-06;0.005322099914885052
2.14400e-06;0.005388318377968168
2.14425e-06;0.005454536841051284
2.14450e-06;0.005520755304134287
2.14475e-06;0.005585935892821156
2.14500e-06;0.005650409678281143
2.14525e-06;0.005714883463741132
2.14550e-06;0.00577935724920101
2.14575e-06;0.005843831034660999
2.14600e-06;0.005908304820120986
2.14625e-06;0.005972778605580865
2.14650e-06;0.0060342749251173795
2.14675e-06;0.006067367432766428
2.14700e-06;0.006100459940415422
2.14725e-06;0.0061335524480644705
2.14750e-06;0.006166644955713519
2.14775e-06;0.006199737463362568
2.14800e-06;0.006232829971011562
2.14825e-06;0.0062659224786606104
2.14850e-06;0.006299014986309659
2.14875e-06;0.006332107493958653
2.14900e-06;0.0063652000016077015
2.14925e-06;0.006371354022891139
2.14950e-06;0.006359162655599867
2.14975e-06;0.0063469712883086156
2.15000e-06;0.006334779921017344
2.15025e-06;0.006322588553726072
2.15050e-06;0.00631039718643482
2.15075e-06;0.006298205819143549
