Time(s);Current(A)
1.45000e-05;0.004080348021294783
1.45003e-05;0.0040775425835981715
1.45005e-05;0.00407473714590156
1.45008e-05;0.004071931708204949
1.45010e-05;0.004069126270508356
1.45013e-05;0.004066320832811745
1.45015e-05;0.0040635153951151335
1.45018e-05;0.00406070995741854
1.45020e-05;0.004042792051084605
1.45023e-05;0.004018626092918483
1.45025e-05;0.003994460134752524
1.45028e-05;0.003970294176586402
1.45030e-05;0.003946128218420279
1.45033e-05;0.003921962260254321
1.45035e-05;0.0038977963020881985
1.45038e-05;0.003873630343922076
1.45040e-05;0.0038494643857561175
1.45043e-05;0.0038223020912451456
1.45045e-05;0.003783695633440767
1.45048e-05;0.00374508917563665
1.45050e-05;0.003706482717832271
1.45053e-05;0.0036678762600278925
1.45055e-05;0.0036292698022237753
1.45058e-05;0.0035906633444193967
1.45060e-05;0.003552056886615018
1.45063e-05;0.003513450428810901
1.45065e-05;0.003474843971006522
1.45068e-05;0.003436320177393317
1.45070e-05;0.003397830560205391
1.45073e-05;0.0033593409430172035
1.45075e-05;0.003320851325829016
1.45078e-05;0.00328236170864109
1.45080e-05;0.0032438720914529026
1.45083e-05;0.0032053824742647153
1.45085e-05;0.003166892857076789
1.45088e-05;0.003131644312466567
1.45090e-05;0.0031087746731487884
1.45093e-05;0.0030859050338310095
1.45095e-05;0.0030630353945133855
1.45098e-05;0.0030401657551956066
1.45100e-05;0.0030172961158778273
1.45103e-05;0.0029944264765602033
1.45105e-05;0.0029715568372424245
1.45108e-05;0.0029486871979246456
1.45110e-05;0.002943292159845692
1.45113e-05;0.002945121766326591
1.45115e-05;0.00294695137280749
1.45118e-05;0.0029487809792883763
1.45120e-05;0.0029506105857692753
1.45123e-05;0.0029524401922501743
1.45125e-05;0.002954269798731061
1.45128e-05;0.0029560994052119597
1.45130e-05;0.0029579290116928587
1.45133e-05;0.0029597586181737455
1.45135e-05;0.0029765258464135393
1.45138e-05;0.0029994688383408363
1.45140e-05;0.003022411830267978
1.45143e-05;0.0030453548221952755
1.45145e-05;0.0030682978141225725
1.45148e-05;0.0030912408060497143
1.45150e-05;0.0031141837979770117
1.45153e-05;0.003137126789904309
1.45155e-05;0.003160069781831451
1.45158e-05;0.003183012773758748
1.45160e-05;0.003211236691660809
1.45163e-05;0.0032416439391045973
1.45165e-05;0.003272051186548591
1.45168e-05;0.003302458433992585
1.45170e-05;0.0033328656814363726
1.45173e-05;0.0033632729288803663
1.45175e-05;0.0033936801763243605
1.45178e-05;0.003422863325617493
1.45180e-05;0.0034473711723005908
1.45183e-05;0.0034718790189838546
1.45185e-05;0.0034963868656671185
1.45188e-05;0.0035208947123502162
1.45190e-05;0.0035454025590334797
1.45193e-05;0.0035699104057167435
1.45195e-05;0.0035944182523998413
1.45198e-05;0.003606469671600204
1.45200e-05;0.00362937733903272
1.45203e-05;0.003650518457230156
1.45205e-05;0.0036681819726626236
1.45208e-05;0.0036858454880950913
1.45210e-05;0.00370350900352744
1.45213e-05;0.0037211725189599076
1.45215e-05;0.0037388360343923754
1.45218e-05;0.0037564995498247235
1.45220e-05;0.0037741630652571917
1.45223e-05;0.0037918265806896594
1.45225e-05;0.0038094900961220075
1.45228e-05;0.0038271536115544753
1.45230e-05;0.0038448171269869435
1.45233e-05;0.0038624806424192915
1.45235e-05;0.0038801441578517593
1.45238e-05;0.003897807673284227
1.45240e-05;0.003915471188716576
1.45243e-05;0.003933134704149043
1.45245e-05;0.003950038783310035
1.45248e-05;0.00396662441650187
1.45250e-05;0.003983210049693817
1.45253e-05;0.003999795682885764
1.45255e-05;0.004016381316077599
1.45258e-05;0.0040329669492695465
1.45260e-05;0.004049552582461494
1.45263e-05;0.004066138215653441
1.45265e-05;0.004082723848845276
1.45268e-05;0.004099309482037223
1.45270e-05;0.0041158951152291704
1.45273e-05;0.004132480748421005
1.45275e-05;0.004149066381612952
1.45278e-05;0.004165652014804899
1.45280e-05;0.0041822376479967345
1.45283e-05;0.004198823281188682
1.45285e-05;0.004215408914380629
1.45288e-05;0.004228856722482276
1.45290e-05;0.004241132761285712
1.45293e-05;0.004253408800089148
1.45295e-05;0.004265684838892501
1.45298e-05;0.0042779608776959376
1.45300e-05;0.004290236916499373
1.45303e-05;0.004302512955302726
1.45305e-05;0.004314788994106163
1.45308e-05;0.004327065032909598
1.45310e-05;0.004339341071712952
1.45313e-05;0.004351617110516388
1.45315e-05;0.004363893149319824
1.45318e-05;0.004376169188123177
1.45320e-05;0.0043901836044258355
1.45323e-05;0.004410080690350779
1.45325e-05;0.004429977776275588
1.45328e-05;0.004449874862200531
1.45330e-05;0.004469771948125474
1.45333e-05;0.0044896690340502825
1.45335e-05;0.0045095661199752255
1.45338e-05;0.004529463205900169
1.45340e-05;0.004549360291824978
1.45343e-05;0.004569257377749921
1.45345e-05;0.004589154463674864
1.45348e-05;0.004609051549599808
1.45350e-05;0.004628948635524616
1.45353e-05;0.004648845721449559
1.45355e-05;0.00467065644514084
1.45358e-05;0.004693181785459367
1.45360e-05;0.004715707125778046
1.45363e-05;0.0047382324660967265
1.45365e-05;0.004760757806415253
1.45368e-05;0.004783283146733933
1.45370e-05;0.0048058084870526135
1.45373e-05;0.00482833382737114
1.45375e-05;0.00485085916768982
1.45378e-05;0.0048733845080084996
1.45380e-05;0.004895909848327027
1.45383e-05;0.004918435188645707
1.45385e-05;0.004939142886449401
1.45388e-05;0.0049536996818079606
1.45390e-05;0.004968256477166619
1.45393e-05;0.004982813272525277
1.45395e-05;0.004997370067883836
1.45398e-05;0.005011926863242494
1.45400e-05;0.005026483658601151
1.45403e-05;0.00504104045395971
1.45405e-05;0.005055597249318368
1.45408e-05;0.005070154044677026
1.45410e-05;0.0050847108400355855
1.45413e-05;0.0050992676353942435
1.45415e-05;0.005113824430752901
1.45418e-05;0.00512625662471102
1.45420e-05;0.0051378954211336505
1.45423e-05;0.005149534217556281
1.45425e-05;0.005161173013978833
1.45428e-05;0.005172811810401463
1.45430e-05;0.005184450606824094
1.45433e-05;0.005196089403246724
1.45435e-05;0.005207728199669277
1.45438e-05;0.005219366996091907
1.45440e-05;0.005231005792514538
1.45443e-05;0.0052426445889370895
1.45445e-05;0.00525428338535972
1.45448e-05;0.005265922181782351
1.45450e-05;0.005277560978204902
1.45453e-05;0.005289199774627533
1.45455e-05;0.005300838571050163
1.45458e-05;0.005310729802970659
1.45460e-05;0.005319968435599357
1.45463e-05;0.005329207068228055
1.45465e-05;0.005338445700856691
1.45468e-05;0.005347684333485389
1.45470e-05;0.005356922966114087
1.45473e-05;0.0053661615987427224
1.45475e-05;0.005375400231371421
1.45478e-05;0.005384638864000119
1.45480e-05;0.005393877496628754
1.45483e-05;0.005403116129257452
1.45485e-05;0.005412354761886151
1.45488e-05;0.005421593394514786
1.45490e-05;0.005430832027143484
1.45493e-05;0.005440070659772182
1.45495e-05;0.005449309292400817
1.45498e-05;0.005445579392581676
1.45500e-05;0.005437006607087443
1.45503e-05;0.005428433821593268
1.45505e-05;0.005419861036099035
1.45508e-05;0.005411288250604802
1.45510e-05;0.005402715465110627
1.45513e-05;0.005394142679616394
1.45515e-05;0.005385569894122161
1.45518e-05;0.0053769971086279275
1.45520e-05;0.0053684243231337525
1.45523e-05;0.005359851537639519
1.45525e-05;0.005351278752145286
1.45528e-05;0.005324334766077663
1.45530e-05;0.00529053035656127
1.45533e-05;0.005256725947044878
1.45535e-05;0.005222921537528714
1.45538e-05;0.005189117128012321
1.45540e-05;0.005155312718495929
1.45543e-05;0.005121508308979766
1.45545e-05;0.0050877038994633726
1.45548e-05;0.00505389948994698
1.45550e-05;0.005020095080430817
1.45553e-05;0.004986290670914424
1.45555e-05;0.0049524862613980316
1.45558e-05;0.004911903526091703
1.45560e-05;0.004868789536226624
1.45563e-05;0.004825675546361545
1.45565e-05;0.004782561556496759
1.45568e-05;0.00473944756663168
1.45570e-05;0.004696333576766601
1.45573e-05;0.004653219586901815
1.45575e-05;0.004610105597036736
1.45578e-05;0.004569135880880199
1.45580e-05;0.004535422387165113
1.45583e-05;0.004501708893449799
1.45585e-05;0.004467995399734485
1.45588e-05;0.004434281906019398
1.45590e-05;0.004400568412304085
1.45593e-05;0.00436685491858877
1.45595e-05;0.004333141424873684
1.45598e-05;0.00429942793115837
1.45600e-05;0.004287168707262933
1.45603e-05;0.004282921228446108
1.45605e-05;0.004278673749629311
1.45608e-05;0.004274426270812487
1.45610e-05;0.004270178791995661
1.45613e-05;0.0042659313131788645
1.45615e-05;0.004261683834362039
1.45618e-05;0.004257436355545214
1.45620e-05;0.004253188876728418
1.45623e-05;0.004248941397911593
1.45625e-05;0.004244693919094767
1.45628e-05;0.0042479328855652785
1.45630e-05;0.004276505983631372
1.45633e-05;0.004305079081697466
1.45635e-05;0.004333652179763367
1.45638e-05;0.004362225277829461
1.45640e-05;0.004390798375895555
1.45643e-05;0.004419371473961455
1.45645e-05;0.00444794457202755
1.45648e-05;0.004476517670093644
1.45650e-05;0.0045050907681595444
1.45653e-05;0.004533663866225638
1.45655e-05;0.004562236964291732
1.45658e-05;0.004600090332740658
1.45660e-05;0.004641409265909706
1.45663e-05;0.004682728199078752
1.45665e-05;0.00472404713224752
1.45668e-05;0.004765366065416566
1.45670e-05;0.004806684998585614
1.45673e-05;0.004848003931754381
1.45675e-05;0.004888027185080911
1.45678e-05;0.004923665857691035
1.45680e-05;0.004959304530300917
1.45683e-05;0.004994943202911041
1.45685e-05;0.005030581875521165
1.45688e-05;0.005066220548131048
1.45690e-05;0.005101859220741171
1.45693e-05;0.005137497893351295
1.45695e-05;0.005166158779307021
1.45698e-05;0.005175270593921367
1.45700e-05;0.005178055199402494
1.45703e-05;0.00518083980488362
1.45705e-05;0.005183624410364728
1.45708e-05;0.0051864090158458545
1.45710e-05;0.005189193621326981
1.45713e-05;0.005191978226808089
1.45715e-05;0.005194762832289215
1.45718e-05;0.005197547437770342
1.45720e-05;0.005190618777024587
1.45723e-05;0.0051508204223925545
1.45725e-05;0.005111022067760522
1.45728e-05;0.005071223713128759
1.45730e-05;0.005031425358496725
1.45733e-05;0.004991627003864693
1.45735e-05;0.00495182864923293
1.45738e-05;0.004912030294600897
1.45740e-05;0.004872231939968864
1.45743e-05;0.0048324335853371005
1.45745e-05;0.004773296854622082
1.45748e-05;0.004706938524627744
1.45750e-05;0.004640580194633856
1.45753e-05;0.004574221864639518
1.45755e-05;0.00450786353464518
1.45758e-05;0.004441505204651292
1.45760e-05;0.0043751468746569535
1.45763e-05;0.004304855309860656
1.45765e-05;0.004233094943057309
1.45768e-05;0.0041613345762534755
1.45770e-05;0.004089574209449642
1.45773e-05;0.004017813842646295
1.45775e-05;0.0039460534758424615
1.45778e-05;0.003874293109038628
1.45780e-05;0.0038136234467447574
1.45783e-05;0.0037570954260949924
1.45785e-05;0.0037005674054448436
1.45788e-05;0.0036440393847946956
1.45790e-05;0.00358751136414493
1.45793e-05;0.003530983343494782
1.45795e-05;0.0034744553228446334
1.45798e-05;0.003417927302194868
1.45800e-05;0.0033753010110455246
1.45803e-05;0.003337866092705229
1.45805e-05;0.003300431174365187
1.45808e-05;0.0032629962560248916
1.45810e-05;0.003225561337684596
1.45813e-05;0.003188126419344554
1.45815e-05;0.0031506915010042586
1.45818e-05;0.003113256582663963
1.45820e-05;0.0030842823600723997
1.45823e-05;0.0030584676455012393
1.45825e-05;0.0030326529309300785
1.45828e-05;0.003006838216359093
1.45830e-05;0.002981023501787932
1.45833e-05;0.0029552087872167713
1.45835e-05;0.0029293940726457857
1.45838e-05;0.002903579358074625
1.45840e-05;0.0028777646435034646
1.45843e-05;0.0028519499289324786
1.45845e-05;0.002826135214361318
1.45848e-05;0.0028003204997901574
1.45850e-05;0.002774505785219172
1.45853e-05;0.002748691070648011
1.45855e-05;0.0027228763560768502
1.45858e-05;0.002699261481924997
1.45860e-05;0.002683090867976621
1.45863e-05;0.002666920254028245
1.45865e-05;0.0026507496400798693
1.45868e-05;0.0026345790261316027
1.45870e-05;0.002618408412183227
1.45873e-05;0.002602237798234851
1.45875e-05;0.0025860671842865847
1.45878e-05;0.0025698965703382084
1.45880e-05;0.0025537259563898325
1.45883e-05;0.0025375553424415664
1.45885e-05;0.0025213847284931905
1.45888e-05;0.0025052141145448146
1.45890e-05;0.002489043500596548
1.45893e-05;0.002472872886648172
1.45895e-05;0.002456702272699796
1.45898e-05;0.002454737162780965
1.45900e-05;0.002458076865287397
1.45903e-05;0.002461416567793829
1.45905e-05;0.0024647562703002386
1.45908e-05;0.0024680959728066707
1.45910e-05;0.002471435675313103
1.45913e-05;0.0024747753778195125
1.45915e-05;0.0024781150803259446
1.45918e-05;0.0024814547828323767
1.45920e-05;0.002484794485338786
1.45923e-05;0.002488134187845218
1.45925e-05;0.0024971292419970685
1.45928e-05;0.0025252620067004647
1.45930e-05;0.0025533947714040514
1.45933e-05;0.0025815275361076384
1.45935e-05;0.0026096603008110343
1.45938e-05;0.0026377930655146213
1.45940e-05;0.002665925830218208
1.45943e-05;0.002694058594921604
1.45945e-05;0.002722191359625191
1.45948e-05;0.002750324124328778
1.45950e-05;0.0027784568890323645
1.45953e-05;0.002806589653735761
1.45955e-05;0.0028424779432063506
1.45958e-05;0.002881262406164925
1.45960e-05;0.0029200468691232364
1.45963e-05;0.0029588313320818107
1.45965e-05;0.002997615795040385
1.45968e-05;0.0030364002579986965
1.45970e-05;0.003075184720957271
1.45973e-05;0.003113969183915845
1.45975e-05;0.0031488185806030277
1.45978e-05;0.003182198491349617
1.45980e-05;0.0032155784020962063
1.45983e-05;0.0032489583128425697
1.45985e-05;0.003282338223589159
1.45988e-05;0.0033157181343357483
1.45990e-05;0.0033490980450821112
1.45993e-05;0.0033824779558287005
1.45995e-05;0.003409311923652419
1.45998e-05;0.0034337014164829978
1.46000e-05;0.0034580909093137424
1.46003e-05;0.003482480402144487
1.46005e-05;0.003506869894975066
1.46008e-05;0.0035312593878058106
1.46010e-05;0.0035556488806365552
1.46013e-05;0.003580038373467134
1.46015e-05;0.003604427866297879
1.46018e-05;0.0036288173591286234
1.46020e-05;0.0036532068519592024
1.46023e-05;0.003677596344789947
1.46025e-05;0.0037019858376206916
1.46028e-05;0.003726995594512769
1.46030e-05;0.0037541043250541046
1.46033e-05;0.0037812130555954396
1.46035e-05;0.003808321786136775
1.46038e-05;0.0038354305166779265
1.46040e-05;0.0038625392472192615
1.46043e-05;0.003889647977760597
1.46045e-05;0.003916756708301748
1.46048e-05;0.003943865438843084
1.46050e-05;0.003970974169384418
1.46053e-05;0.00399808289992557
1.46055e-05;0.004025191630466905
1.46058e-05;0.004052300361008241
1.46060e-05;0.004079409091549392
1.46063e-05;0.0041042194552824785
1.46065e-05;0.004128171531637355
1.46068e-05;0.00415212360799207
1.46070e-05;0.004176075684346947
1.46073e-05;0.004200027760701824
1.46075e-05;0.004223979837056539
1.46078e-05;0.004247931913411416
1.46080e-05;0.004271883989766293
1.46083e-05;0.004295836066121008
1.46085e-05;0.004319788142475885
1.46088e-05;0.004343740218830762
1.46090e-05;0.004367692295185476
1.46093e-05;0.004391644371540353
1.46095e-05;0.004402873999283855
1.46098e-05;0.00440935263731383
1.46100e-05;0.004415831275343849
1.46103e-05;0.004422309913373868
1.46105e-05;0.004428788551403843
1.46108e-05;0.0044352671894338615
1.46110e-05;0.004441745827463881
1.46113e-05;0.004448224465493856
1.46115e-05;0.004454703103523874
1.46118e-05;0.004461181741553894
1.46120e-05;0.004467660379583912
1.46123e-05;0.004474139017613887
1.46125e-05;0.0044806176556439065
1.46128e-05;0.004474043324448895
1.46130e-05;0.004462594576039224
1.46133e-05;0.004451145827629476
1.46135e-05;0.004439697079219728
1.46138e-05;0.004428248330810057
1.46140e-05;0.004416799582400309
1.46143e-05;0.004405350833990561
1.46145e-05;0.004393902085580891
1.46148e-05;0.004382453337171143
1.46150e-05;0.004371004588761395
1.46153e-05;0.004359555840351724
1.46155e-05;0.00434661248882593
1.46158e-05;0.004328611400196321
1.46160e-05;0.004310610311566834
1.46163e-05;0.004292609222937225
1.46165e-05;0.004274608134307616
1.46168e-05;0.00425660704567813
1.46170e-05;0.004238605957048521
1.46173e-05;0.004220604868418912
1.46175e-05;0.004202603779789425
1.46178e-05;0.004184602691159816
1.46180e-05;0.004166601602530208
1.46183e-05;0.00414860051390072
1.46185e-05;0.004136642695212873
1.46188e-05;0.004126941636541588
1.46190e-05;0.004117240577870369
1.46193e-05;0.004107539519199084
1.46195e-05;0.004097838460527799
1.46198e-05;0.0040881374018565805
1.46200e-05;0.004078436343185296
1.46203e-05;0.004068735284514012
1.46205e-05;0.004059034225842727
1.46208e-05;0.004049333167171508
1.46210e-05;0.004039632108500223
1.46213e-05;0.004029931049828938
1.46215e-05;0.004020229991157719
1.46218e-05;0.004010528932486435
1.46220e-05;0.00400082787381515
1.46223e-05;0.003991126815143931
1.46225e-05;0.003981425756472646
1.46228e-05;0.003971724697801361
1.46230e-05;0.003963892404707661
1.46233e-05;0.003962384014529109
1.46235e-05;0.003960875624350557
1.46238e-05;0.003959367234172015
1.46240e-05;0.003957858843993463
1.46243e-05;0.003956350453814911
1.46245e-05;0.003954842063636369
1.46248e-05;0.003953333673457817
1.46250e-05;0.003951825283279265
1.46253e-05;0.003950316893100723
1.46255e-05;0.003948808502922171
1.46258e-05;0.003947300112743619
1.46260e-05;0.003945791722565077
1.46263e-05;0.003944283332386524
1.46265e-05;0.003942774942207973
1.46268e-05;0.0039412665520294305
1.46270e-05;0.003939758161850879
1.46273e-05;0.003938249771672326
1.46275e-05;0.003936741381493785
1.46278e-05;0.003936433010580027
1.46280e-05;0.00393657276717388
1.46283e-05;0.003936712523767733
1.46285e-05;0.003936852280361587
1.46288e-05;0.00393699203695544
1.46290e-05;0.003937131793549293
1.46293e-05;0.0039372715501431454
1.46295e-05;0.003937411306736999
1.46298e-05;0.003944260970191387
1.46300e-05;0.003953616338283988
1.46303e-05;0.003962971706376652
1.46305e-05;0.0039723270744693165
1.46308e-05;0.003981682442561917
1.46310e-05;0.003991037810654581
1.46313e-05;0.004000393178747245
1.46315e-05;0.004009748546839846
1.46318e-05;0.004034602217692641
1.46320e-05;0.0040652434754555496
1.46323e-05;0.004095884733218251
1.46325e-05;0.00412652599098116
1.46328e-05;0.0041571672487440686
1.46330e-05;0.00418780850650677
1.46333e-05;0.004218449764269679
1.46335e-05;0.004249091022032588
1.46338e-05;0.004279732279795289
1.46340e-05;0.004310373537558199
1.46343e-05;0.004353407917811145
1.46345e-05;0.004401070306344176
1.46348e-05;0.004448732694877529
1.46350e-05;0.0044963950834108835
1.46353e-05;0.004544057471943914
1.46355e-05;0.004591719860477268
1.46358e-05;0.004639382249010622
1.46360e-05;0.004687044637543653
1.46363e-05;0.004734707026077006
1.46365e-05;0.00478236941461036
1.46368e-05;0.004829434809652444
1.46370e-05;0.004876277267269511
1.46373e-05;0.004923119724886579
1.46375e-05;0.004969962182503646
1.46378e-05;0.005016804640120397
1.46380e-05;0.005063647097737465
1.46383e-05;0.0051104895553545325
1.46385e-05;0.005157332012971283
1.46388e-05;0.005199347008729018
1.46390e-05;0.005225025873025763
1.46393e-05;0.0052507047373223335
1.46395e-05;0.005276383601619078
1.46398e-05;0.005302062465915824
1.46400e-05;0.005327741330212394
1.46403e-05;0.005353420194509139
1.46405e-05;0.005379099058805884
1.46408e-05;0.005404777923102455
1.46410e-05;0.005403250837459536
1.46413e-05;0.005391564136131966
1.46415e-05;0.0053798774348044745
1.46418e-05;0.005368190733476904
1.46420e-05;0.005356504032149334
1.46423e-05;0.005344817330821843
1.46425e-05;0.005333130629494273
1.46428e-05;0.005321443928166702
1.46430e-05;0.0053097572268392115
1.46433e-05;0.005298070525511641
1.46435e-05;0.005262215462104436
1.46438e-05;0.005217335120366217
1.46440e-05;0.0051724547786276935
1.46443e-05;0.005127574436889171
1.46445e-05;0.005082694095150951
1.46448e-05;0.005037813753412428
1.46450e-05;0.004992933411673905
1.46453e-05;0.004948053069935686
1.46455e-05;0.004903172728197162
1.46458e-05;0.0048582923864586396
1.46460e-05;0.004805211511756171
1.46463e-05;0.004749068282550148
1.46465e-05;0.004692925053343745
1.46468e-05;0.004636781824137342
1.46470e-05;0.004580638594931319
1.46473e-05;0.004524495365724916
1.46475e-05;0.004468352136518513
1.46478e-05;0.004414503875288668
1.46480e-05;0.004368421785944008
1.46483e-05;0.004322339696599347
1.46485e-05;0.004276257607254999
1.46488e-05;0.004230175517910339
1.46490e-05;0.004184093428565678
1.46493e-05;0.0041380113392213294
1.46495e-05;0.004091929249876669
1.46498e-05;0.00406753840184629
1.46500e-05;0.004051247792036894
