Time(s);Current(A)
5.75000e-06;0.001574100949079704
5.75025e-06;0.001597027316899091
5.75050e-06;0.0016199536847184002
5.75075e-06;0.0016428800525377094
5.75100e-06;0.0016658064203570963
5.75125e-06;0.0016887327881764055
5.75150e-06;0.0017116591559957924
5.75175e-06;0.0017332162841625842
5.75200e-06;0.0017540907543244792
5.75225e-06;0.001774965224486445
5.75250e-06;0.0017958396946483397
5.75275e-06;0.0018167141648102348
5.75300e-06;0.0018375886349722005
5.75325e-06;0.0018584631051340955
5.75350e-06;0.0018793375752959903
5.75375e-06;0.001900212045457956
5.75400e-06;0.001921086515619851
5.75425e-06;0.0019419609857817461
5.75450e-06;0.0019628354559437116
5.75475e-06;0.0019794687712130737
5.75500e-06;0.001993987585684934
5.75525e-06;0.002008506400156844
5.75550e-06;0.002023025214628705
5.75575e-06;0.002037544029100615
5.75600e-06;0.0020520628435724757
5.75625e-06;0.002066581658044336
5.75650e-06;0.0020811004725162464
5.75675e-06;0.002095619286988107
5.75700e-06;0.0021101381014599677
5.75725e-06;0.0021246569159318776
5.75750e-06;0.0021391757304037385
5.75775e-06;0.002146479460716416
5.75800e-06;0.002150185986589684
5.75825e-06;0.0021538925124629394
5.75850e-06;0.0021575990383361945
5.75875e-06;0.0021613055642094627
5.75900e-06;0.0021650120900827178
5.75925e-06;0.0021687186159559733
5.75950e-06;0.002172425141829241
5.75975e-06;0.002176131667702496
5.76000e-06;0.0021798381935757643
5.76025e-06;0.0021835447194490194
5.76050e-06;0.002187251245322275
5.76075e-06;0.0021909577711955426
5.76100e-06;0.0021932970316236988
5.76125e-06;0.0021888312191514175
5.76150e-06;0.0021843654066791215
5.76175e-06;0.0021798995942068403
5.76200e-06;0.002175433781734559
5.76225e-06;0.002170967969262263
5.76250e-06;0.002166502156789982
5.76275e-06;0.002162036344317701
5.76300e-06;0.0021575705318454047
5.76325e-06;0.0021531047193731234
5.76350e-06;0.0021486389069008426
5.76375e-06;0.0021441730944285462
5.76400e-06;0.0021397072819562654
5.76425e-06;0.002135241469483969
5.76450e-06;0.002129657703432894
5.76475e-06;0.0021235165623758783
5.76500e-06;0.0021173754213188413
5.76525e-06;0.002111234280261825
5.76550e-06;0.0021050931392048093
5.76575e-06;0.0020989519981477723
5.76600e-06;0.0020928488097987936
5.76625e-06;0.0020869345174288974
5.76650e-06;0.0020810202250589813
5.76675e-06;0.0020751059326890855
5.76700e-06;0.0020691916403191893
5.76725e-06;0.002063277347949273
5.76750e-06;0.0020573630555793775
5.76775e-06;0.0020456900730941975
5.76800e-06;0.0020311459964974512
5.76825e-06;0.002016601919900754
5.76850e-06;0.001996909437990796
5.76875e-06;0.001974650129965555
5.76900e-06;0.001952390821940314
5.76925e-06;0.0019241621396748365
5.76950e-06;0.001892957323099985
5.76975e-06;0.0018617525065251332
5.77000e-06;0.0018236151066141314
5.77025e-06;0.0017820213479143368
5.77050e-06;0.0017404275892145423
5.77075e-06;0.001693464620191225
5.77100e-06;0.0016438247389131471
5.77125e-06;0.0015941848576350693
5.77150e-06;0.0015391707424410657
5.77175e-06;0.0014814772103938932
5.77200e-06;0.0014237836783467209
5.77225e-06;0.0013619973427494068
5.77250e-06;0.0012981704694717822
5.77275e-06;0.0012343435961939416
5.77300e-06;0.001167998877067871
5.77325e-06;0.0011003988425413217
5.77350e-06;0.0010327988080145432
5.77375e-06;0.0009651987734879939
5.77400e-06;0.0008970299142334596
5.77425e-06;0.0008285774576164311
5.77450e-06;0.0007601250009996346
5.77475e-06;0.000691672544382838
5.77500e-06;0.0006252917855293594
5.77525e-06;0.0005599439072669589
5.77550e-06;0.0004969531490295345
5.77575e-06;0.00043513757356562776
5.77600e-06;0.00037567204884490204
5.77625e-06;0.0003193361404510193
5.77650e-06;0.00026622841877063864
5.77675e-06;0.00021678942837444415
5.77700e-06;0.00017085815499983894
5.77725e-06;0.0001414187750032254
5.77750e-06;0.00010321126208567086
5.77775e-06;6.597058261005588e-05
5.77800e-06;3.106434506062728e-05
5.77825e-06;3.485386157568408e-07
5.77850e-06;-2.7280263859335883e-05
5.77875e-06;-5.495721728734671e-05
5.77900e-06;-7.44276266861795e-05
5.77925e-06;-9.319649771277378e-05
5.77950e-06;-0.00010876697368143733
5.77975e-06;-0.00012210802448011754
5.78000e-06;-0.00013300629085483636
5.78025e-06;-0.00014136885562908823
5.78050e-06;-0.00014739390006235107
5.78075e-06;-0.00015113081425956846
5.78100e-06;-0.00015248075453984033
5.78125e-06;-0.00015154503989789974
5.78150e-06;-0.0001486413568944635
5.78175e-06;-0.00014407365445027873
5.78200e-06;-0.00013787421712210262
5.78225e-06;-0.00013005037300915713
5.78250e-06;-0.000120791819379141
5.78275e-06;-0.00011019502369513923
5.78300e-06;-9.826358774384391e-05
5.78325e-06;-8.512650664096259e-05
5.78350e-06;-7.104827696326424e-05
5.78375e-06;-5.6284772771209184e-05
5.78400e-06;-4.092170158473173e-05
5.78425e-06;-2.5029126863267443e-05
5.78450e-06;-8.791327315951255e-06
5.78475e-06;7.665822692770223e-06
5.78500e-06;2.4274620508319035e-05
5.78525e-06;4.088882336237204e-05
5.78550e-06;5.727733109333026e-05
5.78575e-06;7.321445600328505e-05
5.78600e-06;8.858111989228779e-05
5.78625e-06;0.0001032680526176087
5.78650e-06;0.00011709444947519898
5.78675e-06;0.00012991609541218707
5.78700e-06;0.00014175379499447086
5.78725e-06;0.00015316873202918582
5.78750e-06;0.00016498148521971743
5.78775e-06;0.0001779118089851522
5.78800e-06;0.00019149741883469457
5.78825e-06;0.00020586025544722163
5.78850e-06;0.00022087118901364532
5.78875e-06;0.00023634715330789012
5.78900e-06;0.0002522108873143062
5.78925e-06;0.00026899897344595595
5.78950e-06;0.0002865578382294516
5.78975e-06;0.0003055552400678967
5.79000e-06;0.0003257521779073973
5.79025e-06;0.0003470878792225481
5.79050e-06;0.00036937314786463193
5.79075e-06;0.0003926476264684014
5.79100e-06;0.00041674696596660836
5.79125e-06;0.00044084630546489703
5.79150e-06;0.0004664533578912533
5.79175e-06;0.0004933176291917877
5.79200e-06;0.0005201819004924132
5.79225e-06;0.0005482780265846592
5.79250e-06;0.0005774013449662668
5.79275e-06;0.000606524663347973
5.79300e-06;0.0006356479817295805
5.79325e-06;0.000664771300111188
5.79350e-06;0.0006943037668168872
5.79375e-06;0.0007241774052307337
5.79400e-06;0.0007540510436446815
5.79425e-06;0.0007839246820585279
5.79450e-06;0.0008137983204723745
5.79475e-06;0.0008404562601927243
5.79500e-06;0.0008644327630057845
5.79525e-06;0.0008884092658188446
5.79550e-06;0.0009123857686319861
5.79575e-06;0.0009363622714450463
5.79600e-06;0.0009603387742581064
5.79625e-06;0.0009843152770712478
5.79650e-06;0.001008291779884308
5.79675e-06;0.0010322682826973681
5.79700e-06;0.0010562447855105095
5.79725e-06;0.0010802212883235698
5.79750e-06;0.0010974783898527714
5.79775e-06;0.0011091324631406284
5.79800e-06;0.0011207865364284459
5.79825e-06;0.001132440609716303
5.79850e-06;0.0011440946830041205
5.79875e-06;0.0011557487562919382
5.79900e-06;0.0011674028295797952
5.79925e-06;0.0011790569028676126
5.79950e-06;0.0011907109761554303
5.79975e-06;0.0012023650494432873
5.80000e-06;0.001214019122731105
5.80025e-06;0.0012211338479147977
5.80050e-06;0.001224463400201537
5.80075e-06;0.0012277929524882648
5.80100e-06;0.0012311225047749925
5.80125e-06;0.0012344520570617317
5.80150e-06;0.0012377816093484596
5.80175e-06;0.0012411111616351875
5.80200e-06;0.0012444407139219267
5.80225e-06;0.0012477702662086546
5.80250e-06;0.0012510998184953935
5.80275e-06;0.0012544293707821214
5.80300e-06;0.001255510434387909
5.80325e-06;0.0012547165771419461
5.80350e-06;0.0012539227198959861
5.80375e-06;0.0012531288626500261
5.80400e-06;0.0012523350054040633
5.80425e-06;0.0012515411481581033
5.80450e-06;0.0012507472909121433
5.80475e-06;0.0012499534336661807
5.80500e-06;0.0012491595764202207
5.80525e-06;0.0012483657191742605
5.80550e-06;0.0012475718619282979
5.80575e-06;0.001246518362694225
5.80600e-06;0.0012452483588445845
5.80625e-06;0.0012439783549949399
5.80650e-06;0.0012427083511452994
5.80675e-06;0.0012405185539061375
5.80700e-06;0.001237561779354716
5.80725e-06;0.0012346050048032946
5.80750e-06;0.0012316482302518633
5.80775e-06;0.001223978735928867
5.80800e-06;0.001212379501313104
5.80825e-06;0.0012007802666973019
5.80850e-06;0.0011856181982018215
5.80875e-06;0.0011674852312587363
5.80900e-06;0.001146569697678707
5.80925e-06;0.0011233338979339817
5.80950e-06;0.0010963105941502985
5.80975e-06;0.0010661290488516498
5.81000e-06;0.001032254427636139
5.81025e-06;0.0009953003045749887
5.81050e-06;0.0009552713320661732
5.81075e-06;0.0009126783709578612
5.81100e-06;0.0008673884157223736
5.81125e-06;0.0008198495496662443
5.81150e-06;0.0007693600983970778
5.81175e-06;0.0007164102772860835
5.81200e-06;0.0006609449862263141
5.81225e-06;0.000603382149780446
5.81250e-06;0.0005440669813140582
5.81275e-06;0.00048329061632447945
5.81300e-06;0.00042137436900480525
5.81325e-06;0.00035850762139245864
5.81350e-06;0.00029461363864519727
5.81375e-06;0.00022986308739909064
5.81400e-06;0.00016511253615276463
5.81425e-06;0.00010022952367633067
5.81450e-06;3.552548743844734e-05
5.81475e-06;-2.8434296905154893e-05
5.81500e-06;-9.128810114644568e-05
5.81525e-06;-0.0001527694940184852
5.81550e-06;-0.00021267856876001074
5.81575e-06;-0.00027074472086993206
5.81600e-06;-0.0003265883512868597
5.81625e-06;-0.0003797924365722041
5.81650e-06;-0.00042993977993334057
5.81675e-06;-0.0004766131779608244
5.81700e-06;-0.0005193669242351337
5.81725e-06;-0.0005576929483643508
5.81750e-06;-0.0005911202696837511
5.81775e-06;-0.0006193766000290486
5.81800e-06;-0.0006423689640715367
5.81825e-06;-0.0006600563305837846
5.81850e-06;-0.0006723981711134183
5.81875e-06;-0.0006793539625816527
5.81900e-06;-0.0006808653013358446
5.81925e-06;-0.0006768348075836414
5.81950e-06;-0.0006671883493829465
5.81975e-06;-0.0006519761823140704
5.82000e-06;-0.000631360901018011
5.82025e-06;-0.0006055376968754342
5.82050e-06;-0.0005747020364852907
5.82075e-06;-0.0005390494076399656
5.82100e-06;-0.0004987640672522007
5.82125e-06;-0.00045400580497351623
5.82150e-06;-0.0004049490163919291
5.82175e-06;-0.0003518460211957876
5.82200e-06;-0.000295019457502114
5.82225e-06;-0.0002348123800454813
5.82250e-06;-0.00017156799574633193
5.82275e-06;-0.00010562947978521046
5.82300e-06;-3.7332978117119066e-05
5.82325e-06;3.300070708467627e-05
5.82350e-06;0.00010504167108565249
5.82375e-06;0.00017860419320488375
5.82400e-06;0.0002528474826234023
5.82425e-06;0.00032726406483863963
5.82450e-06;0.00040182514868344465
5.82475e-06;0.0004763862325279971
5.82500e-06;0.0005497471375865972
5.82525e-06;0.000622107263655658
5.82550e-06;0.0006924077616154028
5.82575e-06;0.000760990821671374
5.82600e-06;0.0008264684978751151
5.82625e-06;0.0008893567241141258
5.82650e-06;0.0009480639270339703
5.82675e-06;0.0010032847491393416
5.82700e-06;0.0010533733948769786
5.82725e-06;0.0010991825329775729
5.82750e-06;0.0011395102058808601
5.82775e-06;0.0011752671137723423
5.82800e-06;0.0012053650633375732
5.82825e-06;0.001230744243780115
5.82850e-06;0.0012502255230718603
5.82875e-06;0.0012647887887941545
5.82900e-06;0.0012732931653202041
5.82925e-06;0.0012767452870659991
5.82950e-06;0.0012743546409879859
5.82975e-06;0.0012670919547204907
5.83000e-06;0.001254310095487708
5.83025e-06;0.0012369260283098767
5.83050e-06;0.0012143079452250538
5.83075e-06;0.0011873254347626505
5.83100e-06;0.0011554429141504424
5.83125e-06;0.0011194744796192008
5.83150e-06;0.0010791761586115207
5.83175e-06;0.0010352673260166194
5.83200e-06;0.0009876659888340058
5.83225e-06;0.0009369856262143743
5.83250e-06;0.0008832260339515419
5.83275e-06;0.0008268988006277145
5.83300e-06;0.0007676897426912243
5.83325e-06;0.0007060776515088036
5.83350e-06;0.0006444655603263829
5.83375e-06;0.0005810138823642852
5.83400e-06;0.0005160282497783026
5.83425e-06;0.00045104261719232017
5.83450e-06;0.0003860712096604682
5.83475e-06;0.0003211116638078518
5.83500e-06;0.00025615211795523537
5.83525e-06;0.0001921864082490135
5.83550e-06;0.00012993742225287866
5.83575e-06;6.955793381627098e-05
5.83600e-06;1.148559435744844e-05
5.83625e-06;-4.384565186994441e-05
5.83650e-06;-9.600193537513587e-05
5.83675e-06;-0.00014454944255466495
5.83700e-06;-0.0001891547505359003
5.83725e-06;-0.00022983546070874794
5.83750e-06;-0.0002669369737595177
5.83775e-06;-0.00030070023968717917
5.83800e-06;-0.0003310752598785037
5.83825e-06;-0.0003579018656573415
5.83850e-06;-0.0003810190070228973
5.83875e-06;-0.0004002656736250153
5.83900e-06;-0.00041554376756068124
5.83925e-06;-0.00042697509067329755
5.83950e-06;-0.00043488673535295994
5.83975e-06;-0.000439540345047158
5.84000e-06;-0.0004410153411346089
5.84025e-06;-0.000439322103285868
5.84050e-06;-0.00043447045272536756
5.84075e-06;-0.0004264702609250622
5.84100e-06;-0.00041537081056717347
5.84125e-06;-0.0004013591219297344
5.84150e-06;-0.0003847507746070415
5.84175e-06;-0.0003658203556788423
5.84200e-06;-0.00034472827637344283
5.84225e-06;-0.00032159167707160324
5.84250e-06;-0.00029652739641920604
5.84275e-06;-0.000269652254554915
5.84300e-06;-0.00024110773929443896
5.84325e-06;-0.00021112163279840107
5.84350e-06;-0.00018000224573878963
5.84375e-06;-0.0001480321633627869
5.84400e-06;-0.00011532094761121956
5.84425e-06;-8.227234395661329e-05
5.84450e-06;-4.9019501796072806e-05
5.84475e-06;-1.5593764833141256e-05
5.84500e-06;1.7721089164358214e-05
5.84525e-06;5.067188666267101e-05
5.84550e-06;8.295501567402289e-05
5.84575e-06;0.00011428300494687233
5.84600e-06;0.0001444132236302355
5.84625e-06;0.00017312000917968606
5.84650e-06;0.0002001778690720063
5.84675e-06;0.00022536132667896964
5.84700e-06;0.0002484951228702489
5.84725e-06;0.0002695801677194239
5.84750e-06;0.0002887833390353443
5.84775e-06;0.00030622193911259354
5.84800e-06;0.0003218693010194379
5.84825e-06;0.0003356439156734564
5.84850e-06;0.00034746384519512656
5.84875e-06;0.0003572471755353005
5.84900e-06;0.0003649434660320402
5.84925e-06;0.00037061262797685154
5.84950e-06;0.00037441850096489186
5.84975e-06;0.0003764939000823681
5.85000e-06;0.000376424479040417
5.85025e-06;0.0003752083172771215
5.85050e-06;0.0003721730651911751
5.85075e-06;0.00036762094962133717
5.85100e-06;0.0003613329595033024
5.85125e-06;0.00035359749606195284
5.85150e-06;0.00034443069273353986
5.85175e-06;0.0003340703548232975
5.85200e-06;0.0003224892517381939
5.85225e-06;0.0003098902035334312
5.85250e-06;0.0002962107468448396
5.85275e-06;0.0002816303826222013
5.85300e-06;0.0002659935634471006
5.85325e-06;0.00024947581058798007
5.85350e-06;0.00023295805772885947
5.85375e-06;0.0002157710184429111
5.85400e-06;0.00019802588914449233
5.85425e-06;0.00018028075984601345
5.85450e-06;0.0001623875820644679
5.85475e-06;0.00014437095283299507
5.85500e-06;0.00012635432360146124
5.85525e-06;0.00010865078575316831
5.85550e-06;9.120832173958435e-05
5.85575e-06;7.420135784432054e-05
5.85600e-06;5.7939659774698215e-05
5.85625e-06;4.244496096053199e-05
5.85650e-06;2.7838735501050692e-05
5.85675e-06;1.4242447572024497e-05
5.85700e-06;1.85163427470332e-06
5.85725e-06;-8.909587036790752e-06
5.85750e-06;-1.7481585861970832e-05
5.85775e-06;-2.3519918981405645e-05
5.85800e-06;-2.6973840718688443e-05
5.85825e-06;-2.7890860174761147e-05
5.85850e-06;-2.6319236295193857e-05
5.85875e-06;-2.2307233482527618e-05
5.85900e-06;-1.5856722870487514e-05
5.85925e-06;-6.826404189967624e-06
5.85950e-06;5.009886323816989e-06
5.85975e-06;1.9743498324611275e-05
5.86000e-06;3.7281805028481984e-05
5.86025e-06;5.74706349446872e-05
5.86050e-06;8.015536024603803e-05
5.86075e-06;0.00010518135443310889
5.86100e-06;0.00013242305757218164
5.86125e-06;0.00016184460095782394
5.86150e-06;0.00019346326672020517
5.86175e-06;0.00022721187795694258
5.86200e-06;0.0002629080276163443
5.86225e-06;0.0003007137792937557
5.86250e-06;0.00033957824868225555
5.86275e-06;0.0003797426600359477
5.86300e-06;0.00042099103872907383
5.86325e-06;0.000463500401835558
5.86350e-06;0.0005070612472056444
5.86375e-06;0.0005506220925755831
5.86400e-06;0.0005941829379455219
5.86425e-06;0.0006378119580391965
5.86450e-06;0.0006814978261888198
5.86475e-06;0.0007251836943384431
5.86500e-06;0.0007688695624882144
5.86525e-06;0.0008109248394779419
5.86550e-06;0.0008516204345672881
5.86575e-06;0.0008923160296567721
5.86600e-06;0.000930862329596039
5.86625e-06;0.0009676164220304602
5.86650e-06;0.0010019211442002928
5.86675e-06;0.001034183438753513
5.86700e-06;0.0010632174024513053
5.86725e-06;0.0010895593958130168
5.86750e-06;0.0011116677400300609
5.86775e-06;0.0011302458209562142
5.86800e-06;0.0011443222673142165
5.86825e-06;0.0011546449885235935
5.86850e-06;0.0011604647738025346
5.86875e-06;0.0011625297487811007
5.86900e-06;0.0011599975501504012
5.86925e-06;0.001153631960352883
5.86950e-06;0.001142433174251743
5.86975e-06;0.0011272041875116307
5.87000e-06;0.0011073679654093054
5.87025e-06;0.0010836899620646206
5.87050e-06;0.0010557976395672098
5.87075e-06;0.0010243911722522937
5.87100e-06;0.0009891050580936678
5.87125e-06;0.0009505838683852746
5.87150e-06;0.0009084289099668193
5.87175e-06;0.0008632439035103697
5.87200e-06;0.000814960321547003
5.87225e-06;0.0007640929668168588
5.87250e-06;0.0007107667831394003
5.87275e-06;0.0006553902846449154
5.87300e-06;0.0005981581227843603
5.87325e-06;0.0005393786007062485
5.87350e-06;0.00047953497684897844
5.87375e-06;0.0004181332096892833
5.87400e-06;0.00035617206268640753
5.87425e-06;0.00029421091568332175
5.87450e-06;0.00023224976868044597
5.87475e-06;0.00017028862167757015
5.87500e-06;0.00010903838036231013
5.87525e-06;4.9053039669309185e-05
5.87550e-06;-9.517945779933737e-06
5.87575e-06;-6.631403640463162e-05
5.87600e-06;-0.00012093849581804667
5.87625e-06;-0.000172983214746294
5.87650e-06;-0.0002220400552867714
5.87675e-06;-0.00026770091029543815
5.87700e-06;-0.0003096467657019667
5.87725e-06;-0.00034787163977701525
5.87750e-06;-0.0003826660005583208
5.87775e-06;-0.0004142348660984359
5.87800e-06;-0.0004425293060968967
5.87825e-06;-0.0004674034841960159
5.87850e-06;-0.0004887108281822663
5.87875e-06;-0.0005063048426065408
5.87900e-06;-0.000520094786924377
5.87925e-06;-0.0005301860482437474
5.87950e-06;-0.0005368696580215963
5.87975e-06;-0.0005403831439517578
5.88000e-06;-0.0005408049429936705
5.88025e-06;-0.0005381527927636101
5.88050e-06;-0.0005324439491962984
5.88075e-06;-0.0005236957052404941
5.88100e-06;-0.0005119603531194402
5.88125e-06;-0.0004974129916996916
5.88150e-06;-0.0004803450081822392
5.88175e-06;-0.0004610142124443601
5.88200e-06;-0.00043905253582363974
5.88225e-06;-0.00041571999494647633
5.88250e-06;-0.0003904132953124027
5.88275e-06;-0.0003634604271012283
5.88300e-06;-0.0003348679454800127
5.88325e-06;-0.00030490825868103786
5.88350e-06;-0.00027389061983354934
5.88375e-06;-0.00024199079893675243
5.88400e-06;-0.00020947697782361128
5.88425e-06;-0.00017645116756144535
5.88450e-06;-0.0001434179088436959
5.88475e-06;-0.00011022766776005817
5.88500e-06;-7.703742667653292e-05
5.88525e-06;-4.420277293752413e-05
5.88550e-06;-1.2106820063331561e-05
5.88575e-06;1.9038157524660714e-05
5.88600e-06;4.899304162678665e-05
5.88625e-06;7.75336533514751e-05
5.88650e-06;0.00010443596209199023
5.88675e-06;0.0001294759556654061
5.88700e-06;0.00015257209329363797
5.88725e-06;0.00017479206021605898
5.88750e-06;0.00019752755310665815
5.88775e-06;0.00022153783109057324
5.88800e-06;0.0002472370847890453
5.88825e-06;0.0002737572226970723
5.88850e-06;0.00030097460516224873
5.88875e-06;0.000329189715619084
5.88900e-06;0.00035775198199877555
5.88925e-06;0.000387133916218597
5.88950e-06;0.000418332077941803
5.88975e-06;0.0004522049302361755
5.89000e-06;0.00048752047853878127
5.89025e-06;0.0005246216864353986
5.89050e-06;0.000563211881325805
5.89075e-06;0.0006033273205066948
5.89100e-06;0.0006447145972306757
5.89125e-06;0.0006861018739547968
5.89150e-06;0.0007298818799410453
5.89175e-06;0.000775657082975327
5.89200e-06;0.0008214322860097638
5.89225e-06;0.0008691292393998564
5.89250e-06;0.0009184286601889076
5.89275e-06;0.0009677280809777918
5.89300e-06;0.001017027501766676
5.89325e-06;0.0010663269225557272
5.89350e-06;0.0011161838977622831
5.89375e-06;0.0011665057943227733
5.89400e-06;0.001216827690883434
5.89425e-06;0.001267149587443924
5.89450e-06;0.0013174714840044142
5.89475e-06;0.0013653779262265352
5.89500e-06;0.0014112702219081386
