Time(s);Current(A)
6.00000e-06;0.0005140274711690542
6.00025e-06;0.00045224936688686057
6.00050e-06;0.0003904712626048763
6.00075e-06;0.00032869315832289203
6.00100e-06;0.00026691505404069846
6.00125e-06;0.00020540549537018202
6.00150e-06;0.00014510130935923657
6.00175e-06;8.612205215493841e-05
6.00200e-06;2.8807822939114088e-05
6.00225e-06;-2.6453777143058713e-05
6.00250e-06;-7.925505580800195e-05
6.00275e-06;-0.00012918830823842198
6.00300e-06;-0.00017584587281360378
6.00325e-06;-0.00021891932305901436
6.00350e-06;-0.00025867196029452535
6.00375e-06;-0.000296200190238833
6.00400e-06;-0.00033252467917665063
6.00425e-06;-0.0003678045414344287
6.00450e-06;-0.000401570694764193
6.00475e-06;-0.00043346558256172744
6.00500e-06;-0.00046446409448029115
6.00525e-06;-0.0004923799065778755
6.00550e-06;-0.0005196759198623184
6.00575e-06;-0.0005448404013475809
6.00600e-06;-0.0005696616195626481
6.00625e-06;-0.0005933023311992411
6.00650e-06;-0.0006169430428358341
6.00675e-06;-0.0006399036574663515
6.00700e-06;-0.0006605253705620066
6.00725e-06;-0.0006811470836576616
6.00750e-06;-0.0007012345159930766
6.00775e-06;-0.0007194845191397052
6.00800e-06;-0.0007377345222863955
6.00825e-06;-0.0007552921040598356
6.00850e-06;-0.0007704683999317855
6.00875e-06;-0.0007856446958037867
6.00900e-06;-0.0008008209916757366
6.00925e-06;-0.0008159972875476865
6.00950e-06;-0.0008311735834196877
6.00975e-06;-0.0008463498792916376
6.01000e-06;-0.0008615261751635875
6.01025e-06;-0.0008767024710355887
6.01050e-06;-0.0008908718155662945
6.01075e-06;-0.0009015781834687522
6.01100e-06;-0.0009122845513712462
6.01125e-06;-0.0009229909192737039
6.01150e-06;-0.0009336972871761616
6.01175e-06;-0.0009444036550786556
6.01200e-06;-0.0009551100229811133
6.01225e-06;-0.0009658163908836073
6.01250e-06;-0.000976522758786065
6.01275e-06;-0.0009865125067797793
6.01300e-06;-0.0009940377484031271
6.01325e-06;-0.0010015629900264492
6.01350e-06;-0.0010080019244391983
6.01375e-06;-0.001010704971796707
6.01400e-06;-0.0010117965225711258
6.01425e-06;-0.001007346023025343
6.01450e-06;-0.001001364144752228
6.01475e-06;-0.000990115747111344
6.01500e-06;-0.0009774442806431117
6.01525e-06;-0.0009598787801862123
6.01550e-06;-0.0009406435305154177
6.01575e-06;-0.0009156658956216875
6.01600e-06;-0.0008888079431690138
6.01625e-06;-0.0008554834461156142
6.01650e-06;-0.0008205022730890498
6.01675e-06;-0.0007798236746366904
6.01700e-06;-0.0007377296519902941
6.01725e-06;-0.0006907678857881322
6.01750e-06;-0.0006427748546099372
6.01775e-06;-0.0005905047418538603
6.01800e-06;-0.0005350348166480737
6.01825e-06;-0.00047659590968714035
6.01850e-06;-0.00041555822984846015
6.01875e-06;-0.0003522924275252587
6.01900e-06;-0.00028716916870319506
6.01925e-06;-0.0002205400964522972
6.01950e-06;-0.00015265061633719964
6.01975e-06;-8.360421770521405e-05
6.02000e-06;-1.3550360269259738e-05
6.02025e-06;5.7123515959544277e-05
6.02050e-06;0.00012788868906103153
6.02075e-06;0.00019865386216275855
6.02100e-06;0.0002689801062577099
6.02125e-06;0.00033779682641650296
6.02150e-06;0.00040591065990739435
6.02175e-06;0.0004716072166105819
6.02200e-06;0.000536302873791587
6.02225e-06;0.000597556366977881
6.02250e-06;0.0006578072723972637
6.02275e-06;0.0007138042694058294
6.02300e-06;0.0007661204922952764
6.02325e-06;0.0008139686924267342
6.02350e-06;0.0008572031019583126
6.02375e-06;0.0008991240638202698
6.02400e-06;0.0009365279865811289
6.02425e-06;0.0009726658833130572
6.02450e-06;0.0010044498273089984
6.02475e-06;0.0010347697781190874
6.02500e-06;0.00106005495318934
6.02525e-06;0.0010838211015809713
6.02550e-06;0.0011023632101726172
6.02575e-06;0.001119749012237542
6.02600e-06;0.0011331581946668558
6.02625e-06;0.0011452212485093829
6.02650e-06;0.0011526548712744522
6.02675e-06;0.0011600884940394967
6.02700e-06;0.001165839108587697
6.02725e-06;0.0011658017392693904
6.02750e-06;0.001165764369951084
6.02775e-06;0.001164463367649363
6.02800e-06;0.0011588166424641284
6.02825e-06;0.0011531699172789129
6.02850e-06;0.0011464886271183015
6.02875e-06;0.0011362493950971934
6.02900e-06;0.0011260101630761199
6.02925e-06;0.0011146760613301764
6.02950e-06;0.001099576625440704
6.02975e-06;0.0010844771895512312
6.03000e-06;0.0010693777536617075
6.03025e-06;0.001054278317772235
6.03050e-06;0.0010391788818827623
6.03075e-06;0.0010236801788991786
6.03100e-06;0.001006808368241275
6.03125e-06;0.0009899365575833715
6.03150e-06;0.0009730647469254108
6.03175e-06;0.0009561929362675072
6.03200e-06;0.0009393211256096037
6.03225e-06;0.0009230730606512308
6.03250e-06;0.0009089701011114896
6.03275e-06;0.0008948671415717483
6.03300e-06;0.0008807641820319593
6.03325e-06;0.0008669661194501515
6.03350e-06;0.0008542166189938423
6.03375e-06;0.0008414671185375762
6.03400e-06;0.0008287176180813101
6.03425e-06;0.0008153139802461161
6.03450e-06;0.0007996607178656055
6.03475e-06;0.0007840074554850949
6.03500e-06;0.0007679289259523139
6.03525e-06;0.0007503878727130578
6.03550e-06;0.0007328468194738016
6.03575e-06;0.0007144604288820611
6.03600e-06;0.0006931668635615893
6.03625e-06;0.0006718732982411174
6.03650e-06;0.0006497922701196349
6.03675e-06;0.0006250031019306657
6.03700e-06;0.0006002139337416963
6.03725e-06;0.0005748330735516094
6.03750e-06;0.0005474173428715809
6.03775e-06;0.0005200016121914594
6.03800e-06;0.0004918937537138722
6.03825e-06;0.00046140561896401765
6.03850e-06;0.00043091748421405975
6.03875e-06;0.00040005950044038214
6.03900e-06;0.0003679295798093559
6.03925e-06;0.0003357996591782208
6.03950e-06;0.00030348476704853994
6.03975e-06;0.0002705337448994763
6.04000e-06;0.00023758272275030103
6.04025e-06;0.0002046323868261891
6.04050e-06;0.0001716844108780466
6.04075e-06;0.00013873643492979247
6.04100e-06;0.00010599589560576105
6.04125e-06;7.413886230996464e-05
6.04150e-06;4.304948397956157e-05
6.04175e-06;1.278091232866948e-05
6.04200e-06;-1.6598011055538554e-05
6.04225e-06;-4.49239683661213e-05
6.04250e-06;-7.198826504034942e-05
6.04275e-06;-9.758208765106763e-05
6.04300e-06;-0.00012149665187469756
6.04325e-06;-0.0001435349448059732
6.04350e-06;-0.00016357237965044648
6.04375e-06;-0.00018161161683202635
6.04400e-06;-0.00019769925605619458
6.04425e-06;-0.0002118186746007448
6.04450e-06;-0.00022391263898404847
6.04475e-06;-0.000233923729187472
6.04500e-06;-0.00024179458156120608
6.04525e-06;-0.00024747520500274355
6.04550e-06;-0.0002509610122524591
6.04575e-06;-0.0002523270826863473
6.04600e-06;-0.0002516760134803072
6.04625e-06;-0.0002490708592795758
6.04650e-06;-0.0002445491189303816
6.04675e-06;-0.00023814831014884886
6.04700e-06;-0.00022990588012978042
6.04725e-06;-0.00021986395278210654
6.04750e-06;-0.00020809305823017368
6.04775e-06;-0.00019471363189239898
6.04800e-06;-0.00017986336525111803
6.04825e-06;-0.00016365511373393426
6.04850e-06;-0.0001461858072486499
6.04875e-06;-0.00012755228407374943
6.04900e-06;-0.00010785141303070515
6.04925e-06;-8.718293479544595e-05
6.04950e-06;-6.566438352650649e-05
6.04975e-06;-4.34445835062449e-05
6.05000e-06;-2.06831156425923e-05
6.05025e-06;2.475983263269107e-06
6.05050e-06;2.58944386165517e-05
6.05075e-06;4.942209642373546e-05
6.05100e-06;7.294975423091922e-05
6.05125e-06;9.6360120568078e-05
6.05150e-06;0.00011936711327371
6.05175e-06;0.0001421096400186351
6.05200e-06;0.00016394264968733497
6.05225e-06;0.00018548516984374922
6.05250e-06;0.0002057878078600592
6.05275e-06;0.00022498581411685328
6.05300e-06;0.0002427854864478046
6.05325e-06;0.000259043679220316
6.05350e-06;0.00027517711728006265
6.05375e-06;0.0002908815150906857
6.05400e-06;0.00030703827282671547
6.05425e-06;0.00032475072822486816
6.05450e-06;0.00034246318362296085
6.05475e-06;0.00036044335307685573
6.05500e-06;0.0003793442100346266
6.05525e-06;0.0003984181169716453
6.05550e-06;0.0004180871549824731
6.05575e-06;0.00043829255646867405
6.05600e-06;0.0004603425497452701
6.05625e-06;0.00048302964388325406
6.05650e-06;0.0005079077727806528
6.05675e-06;0.0005327859016780515
6.05700e-06;0.0005581473077761213
6.05725e-06;0.0005851707382241467
6.05750e-06;0.0006121941686721722
6.05775e-06;0.0006400384334343763
6.05800e-06;0.0006707056052479239
6.05825e-06;0.0007013727770614715
6.05850e-06;0.000732039948875123
6.05875e-06;0.0007627071206886706
6.05900e-06;0.0007933742925023221
6.05925e-06;0.000824454501803236
6.05950e-06;0.0008569551761304506
6.05975e-06;0.0008894558504577752
6.06000e-06;0.0009219565247849898
6.06025e-06;0.0009544571991122043
6.06050e-06;0.000986957873439529
6.06075e-06;0.0010186588236116019
6.06100e-06;0.0010476094660567265
6.06125e-06;0.0010765601085019492
6.06150e-06;0.001105510750947074
6.06175e-06;0.0011344613933921986
6.06200e-06;0.0011634120358374213
6.06225e-06;0.001192362678282546
6.06250e-06;0.0012213133207276707
6.06275e-06;0.001247887672157195
6.06300e-06;0.001266289791324344
6.06325e-06;0.0012846919104915555
6.06350e-06;0.0013030940296587046
6.06375e-06;0.0013214961488258537
6.06400e-06;0.001339898267993065
6.06425e-06;0.001358300387160214
6.06450e-06;0.0013767025063273631
6.06475e-06;0.0013924190670981473
6.06500e-06;0.0013988998032904631
6.06525e-06;0.001405380539482779
6.06550e-06;0.0014118612756751168
6.06575e-06;0.0014183420118674326
6.06600e-06;0.0014248227480597485
6.06625e-06;0.0014313034842520862
6.06650e-06;0.001437784220444402
6.06675e-06;0.0014442649566367178
6.06700e-06;0.0014507456928290557
6.06725e-06;0.0014551390953129405
6.06750e-06;0.00145235401007814
6.06775e-06;0.0014495689248433489
6.06800e-06;0.001446783839608558
6.06825e-06;0.0014439987543737574
6.06850e-06;0.0014412136691389665
6.06875e-06;0.0014384285839041753
6.06900e-06;0.0014356434986693748
6.06925e-06;0.0014328584134345838
6.06950e-06;0.0014300733281997929
6.06975e-06;0.0014264328648733577
6.07000e-06;0.0014198506960111355
6.07025e-06;0.0014132685271489136
6.07050e-06;0.001406686358286669
6.07075e-06;0.001400104189424447
6.07100e-06;0.0013935220205622248
6.07125e-06;0.0013869398516999803
6.07150e-06;0.0013803576828377582
6.07175e-06;0.001374163634754777
6.07200e-06;0.0013681166038439262
6.07225e-06;0.0013620695729330752
6.07250e-06;0.0013560225420222037
6.07275e-06;0.001349975511111353
6.07300e-06;0.0013439284802005019
6.07325e-06;0.0013378814492896304
6.07350e-06;0.0013313241100341112
6.07375e-06;0.0013230117844199173
6.07400e-06;0.001314699458805695
6.07425e-06;0.0013049211818591288
6.07450e-06;0.0012901013949752382
6.07475e-06;0.0012752816080912972
6.07500e-06;0.0012592019646453859
6.07525e-06;0.0012387895857009293
6.07550e-06;0.0012183772067564035
6.07575e-06;0.001196206885576913
6.07600e-06;0.0011679908771694432
6.07625e-06;0.0011397748687620689
6.07650e-06;0.0011099285472190381
6.07675e-06;0.0010744754639148506
6.07700e-06;0.001039022380610783
6.07725e-06;0.0010022424529508881
6.07750e-06;0.0009608994140490615
6.07775e-06;0.0009195563751473748
6.07800e-06;0.0008768692488488421
6.07825e-06;0.0008295597112752747
6.07850e-06;0.0007822501737018676
6.07875e-06;0.0007341079917514606
6.07900e-06;0.0006831022871124292
6.07925e-06;0.0006320965824735705
6.07950e-06;0.0005805647913425672
6.07975e-06;0.0005272237516919338
6.08000e-06;0.00047388271204148124
6.08025e-06;0.00042054167239084783
6.08050e-06;0.00036720063274039527
6.08075e-06;0.0003138595930899426
6.08100e-06;0.0002608605043595515
6.08125e-06;0.00020903740894103866
6.08150e-06;0.00015761495853049146
6.08175e-06;0.00010788125213735533
6.08200e-06;5.958904093895085e-05
6.08225e-06;1.3026759641244023e-05
6.08250e-06;-3.146249865245664e-05
6.08275e-06;-7.353550575288893e-05
6.08300e-06;-0.00011284908522248089
6.08325e-06;-0.0001491202781630241
6.08350e-06;-0.00018241570635904957
6.08375e-06;-0.00021332436944271246
6.08400e-06;-0.00024242096125120805
6.08425e-06;-0.0002697808217297752
6.08450e-06;-0.00029522642047385316
6.08475e-06;-0.0003185793331725131
6.08500e-06;-0.0003396611570227592
6.08525e-06;-0.00035833128095418866
6.08550e-06;-0.00037466803028254474
6.08575e-06;-0.00038907696188108116
6.08600e-06;-0.0004019546162449176
6.08625e-06;-0.0004132067352691234
6.08650e-06;-0.00042268043953641663
6.08675e-06;-0.00043140818886986553
6.08700e-06;-0.00043757054661928296
6.08725e-06;-0.000442994443273556
6.08750e-06;-0.0004458787201833195
6.08775e-06;-0.00044824781043188537
6.08800e-06;-0.0004488451374481794
6.08825e-06;-0.00044888742649115286
6.08850e-06;-0.0004470209008311943
6.08875e-06;-0.0004451543751712295
6.08900e-06;-0.0004426342005751857
6.08925e-06;-0.00043786608122635173
6.08950e-06;-0.00043309796187750166
6.08975e-06;-0.0004279462515219565
6.09000e-06;-0.0004214753446633136
6.09025e-06;-0.0004150044378046488
6.09050e-06;-0.00040826687660496506
6.09075e-06;-0.0004006122723357734
6.09100e-06;-0.0003929576680665559
6.09125e-06;-0.00038530306379736424
6.09150e-06;-0.00037764845952817263
6.09175e-06;-0.0003700947132806203
6.09200e-06;-0.00036288782487687676
6.09225e-06;-0.0003556809364731333
6.09250e-06;-0.00034847404806936537
6.09275e-06;-0.00034126715966562184
6.09300e-06;-0.00033436215101581595
6.09325e-06;-0.00032849532811277143
6.09350e-06;-0.0003224586415869652
6.09375e-06;-0.00031539857626859214
6.09400e-06;-0.00030632522311604016
6.09425e-06;-0.0002950571385271865
6.09450e-06;-0.0002817604904986807
6.09475e-06;-0.0002666026297333595
6.09500e-06;-0.00024975099672461455
6.09525e-06;-0.00023132466597831753
6.09550e-06;-0.00021116931634728334
6.09575e-06;-0.0001887544627121479
6.09600e-06;-0.00016364048460262411
6.09625e-06;-0.00013584673213153862
6.09650e-06;-0.00010561026227206051
6.09675e-06;-7.316889441617537e-05
6.09700e-06;-3.876041577396904e-05
6.09725e-06;-2.5923685628238793e-06
6.09750e-06;3.529898119741882e-05
6.09775e-06;7.511299596916457e-05
6.09800e-06;0.0001169920870500765
6.09825e-06;0.00016079117123682626
6.09850e-06;0.00020622879250261467
6.09875e-06;0.0002531195098332825
6.09900e-06;0.0003012237978315676
6.09925e-06;0.0003497190062217816
6.09950e-06;0.00039955861738717605
6.09975e-06;0.00044939822855240156
6.10000e-06;0.0004994340388620363
6.10025e-06;0.0005501445918551091
6.10050e-06;0.0006008551448480101
6.10075e-06;0.000651565697840911
6.10100e-06;0.0007022762508339838
6.10125e-06;0.0007502930967163278
6.10150e-06;0.0007972895870220013
6.10175e-06;0.0008442860773275156
6.10200e-06;0.0008912825676330298
6.10225e-06;0.0009367710123138697
6.10250e-06;0.0009770731818231019
6.10275e-06;0.001017375351332334
6.10300e-06;0.0010561320329768107
6.10325e-06;0.0010895736729477988
6.10350e-06;0.0011216937616731616
6.10375e-06;0.0011492689425390793
6.10400e-06;0.001175614006170628
6.10425e-06;0.001197728609950838
6.10450e-06;0.001218181141928841
6.10475e-06;0.0012329176918576253
6.10500e-06;0.0012476542417864096
6.10525e-06;0.001260322736992515
6.10550e-06;0.001265879046277778
6.10575e-06;0.0012714353555630601
6.10600e-06;0.001275170983293865
6.10625e-06;0.0012726451588612932
6.10650e-06;0.001270119334428713
6.10675e-06;0.0012658654032473785
6.10700e-06;0.001255668391183021
6.10725e-06;0.0012454713791186288
6.10750e-06;0.001233763369642119
6.10775e-06;0.0012168589335902734
6.10800e-06;0.0011999544975383706
6.10825e-06;0.0011818718001300958
6.10850e-06;0.001159736978888995
6.10875e-06;0.0011376021576478194
6.10900e-06;0.0011142956186243995
6.10925e-06;0.0010869594595806999
6.10950e-06;0.0010596233005369074
6.10975e-06;0.0010322871414932076
6.11000e-06;0.0010049509824494151
6.11025e-06;0.0009776148234057155
6.11050e-06;0.0009488277938387319
6.11075e-06;0.0009194911856543093
6.11100e-06;0.0008901545774699861
6.11125e-06;0.000860817969285663
6.11150e-06;0.0008314813611012404
6.11175e-06;0.0008026579891816202
6.11200e-06;0.0007755996729421539
6.11225e-06;0.000748541356702596
6.11250e-06;0.000722389971970016
6.11275e-06;0.0006993575885976297
6.11300e-06;0.0006763252052251654
6.11325e-06;0.0006543097722659667
6.11350e-06;0.000635791703438278
6.11375e-06;0.0006181195073946477
6.11400e-06;0.0006033563274609954
6.11425e-06;0.000589459849642718
6.11450e-06;0.0005785440214724632
6.11475e-06;0.0005685424678532168
6.11500e-06;0.0005616851688401303
6.11525e-06;0.0005557677270191654
6.11550e-06;0.0005530825203097358
6.11575e-06;0.0005512794754460554
6.11600e-06;0.0005525102473322402
6.11625e-06;0.0005545724419408382
6.11650e-06;0.0005594939578787494
6.11675e-06;0.0005652129415164818
6.11700e-06;0.0005736744727681507
6.11725e-06;0.0005828857091517204
6.11750e-06;0.0005946752343122864
6.11775e-06;0.0006072566783664749
6.11800e-06;0.0006225615872990239
6.11825e-06;0.000637866496231521
6.11850e-06;0.0006539390548599396
6.11875e-06;0.0006726516148852939
6.11900e-06;0.0006913641749106481
6.11925e-06;0.000710775237633508
6.11950e-06;0.000732588500353169
6.11975e-06;0.00075440176307283
6.12000e-06;0.0007762150257925649
6.12025e-06;0.0007980282885122259
6.12050e-06;0.0008198415512318869
6.12075e-06;0.0008416676118284509
6.12100e-06;0.0008635376852251634
6.12125e-06;0.000885407758621876
6.12150e-06;0.0009072778320186626
6.12175e-06;0.0009291479054153751
6.12200e-06;0.0009510179788120877
6.12225e-06;0.000972155277601479
6.12250e-06;0.0009907725128808105
6.12275e-06;0.0010093897481602053
6.12300e-06;0.0010270746310131697
6.12325e-06;0.0010415530881734637
6.12350e-06;0.0010560315453338068
6.12375e-06;0.0010691043952474504
6.12400e-06;0.0010773432627935718
6.12425e-06;0.0010855821303397209
6.12450e-06;0.0010922896759761296
6.12475e-06;0.001093730897660347
6.12500e-06;0.0010951721193445693
6.12525e-06;0.0010950424191313183
6.12550e-06;0.0010895102078176731
6.12575e-06;0.0010839779965040094
6.12600e-06;0.0010768248431759163
6.12625e-06;0.0010640971560405776
6.12650e-06;0.0010513694689051956
6.12675e-06;0.0010372027986394203
6.12700e-06;0.0010180873639902656
6.12725e-06;0.0009989719293411756
6.12750e-06;0.0009785722662156815
6.12775e-06;0.0009537560508668571
6.12800e-06;0.0009289398355181167
6.12825e-06;0.0009030665977152983
6.12850e-06;0.0008735581852100088
6.12875e-06;0.0008440497727048191
6.12900e-06;0.000813686755166293
6.12925e-06;0.0007803846906985572
6.12950e-06;0.0007470826262309343
6.12975e-06;0.0007137805617633114
6.13000e-06;0.0006804784972955758
6.13025e-06;0.0006460077419005376
6.13050e-06;0.000611094295353268
6.13075e-06;0.0005761808488058799
6.13100e-06;0.0005412674022586102
6.13125e-06;0.0005067074963302306
6.13150e-06;0.000473363441502764
6.13175e-06;0.0004400193866752974
6.13200e-06;0.0004072594218324302
6.13225e-06;0.0003765081836046083
6.13250e-06;0.00034625805896334956
6.13275e-06;0.00031813415045659074
6.13300e-06;0.0002918501116970335
6.13325e-06;0.0002675926632251055
6.13350e-06;0.0002453033584690197
6.13375e-06;0.0002245590916810978
6.13400e-06;0.0002049507934614497
6.13425e-06;0.00018642291229547197
6.13450e-06;0.00016909822037141896
6.13475e-06;0.00015310011609155535
6.13500e-06;0.0001385519480456009
6.13525e-06;0.00012555061143544534
6.13550e-06;0.00011403943135776382
6.13575e-06;0.00010373331174602501
6.13600e-06;9.435597200570532e-05
6.13625e-06;8.585260101190068e-05
6.13650e-06;7.828007652322396e-05
6.13675e-06;7.169567231950805e-05
6.13700e-06;6.615662508114315e-05
6.13725e-06;6.17035793590055e-05
6.13750e-06;5.828099953427498e-05
6.13775e-06;5.5690279635990826e-05
6.13800e-06;5.373834137725735e-05
6.13825e-06;5.237085065400679e-05
6.13850e-06;5.160343958061321e-05
6.13875e-06;5.1451975381564896e-05
6.13900e-06;5.193231308816836e-05
6.13925e-06;5.304990084138483e-05
6.13950e-06;5.474994721700717e-05
6.13975e-06;5.688804819786297e-05
6.14000e-06;5.932327437765413e-05
6.14025e-06;6.202697625792099e-05
6.14050e-06;6.500010716206914e-05
6.14075e-06;6.807015559416337e-05
6.14100e-06;7.147351023404932e-05
6.14125e-06;7.494036062416672e-05
6.14150e-06;7.86255773734089e-05
6.14175e-06;8.23107941226511e-05
6.14200e-06;8.592936782961239e-05
6.14225e-06;8.93187514182195e-05
6.14250e-06;9.270813500682662e-05
6.14275e-06;9.601261574091964e-05
6.14300e-06;9.897339520433379e-05
6.14325e-06;0.00010174603028710851
6.14350e-06;0.0001046194047202416
6.14375e-06;0.00010824987989613279
6.14400e-06;0.00011320223421078238
6.14425e-06;0.00011958956531457083
6.14450e-06;0.0001273110376321183
6.14475e-06;0.00013626507479735123
6.14500e-06;0.00014635011007879773
