Time(s);Current(A)
3.00000e-06;0.004958794152975905
3.00025e-06;0.00498062953713748
3.00050e-06;0.005002464921299054
3.00075e-06;0.005011992545045518
3.00100e-06;0.005017895267523433
3.00125e-06;0.005023797990001348
3.00150e-06;0.005029700712479253
3.00175e-06;0.005035603434957168
3.00200e-06;0.0050415061574350835
3.00225e-06;0.005047408879912998
3.00250e-06;0.005053311602390903
3.00275e-06;0.005059214324868819
3.00300e-06;0.005039695215018645
3.00325e-06;0.0050126888264802666
3.00350e-06;0.0049856824379418425
3.00375e-06;0.004958676049403419
3.00400e-06;0.004931669660864995
3.00425e-06;0.004904663272326617
3.00450e-06;0.004877656883788194
3.00475e-06;0.00485065049524977
3.00500e-06;0.004823644106711392
3.00525e-06;0.00477499895846413
3.00550e-06;0.004719980728122755
3.00575e-06;0.004664962497781473
3.00600e-06;0.004609944267440098
3.00625e-06;0.004554926037098724
3.00650e-06;0.004499907806757349
3.00675e-06;0.004444889576416067
3.00700e-06;0.004389871346074692
3.00725e-06;0.004326000415548659
3.00750e-06;0.004259522173615262
3.00775e-06;0.004193043931681752
3.00800e-06;0.0041265656897482425
3.00825e-06;0.004060087447814733
3.00850e-06;0.003993609205881336
3.00875e-06;0.003927130963947826
3.00900e-06;0.003860652722014316
3.00925e-06;0.0038016936422961074
3.00950e-06;0.0037449491182511914
3.00975e-06;0.0036882045942062754
3.01000e-06;0.0036314600701614556
3.01025e-06;0.0035747155461165396
3.01050e-06;0.0035179710220716236
3.01075e-06;0.0034612264980267075
3.01100e-06;0.0034044819739818873
3.01125e-06;0.003367070052154054
3.01150e-06;0.0033353519992303745
3.01175e-06;0.003303633946306749
3.01200e-06;0.0032719158933830696
3.01225e-06;0.0032401978404593902
3.01250e-06;0.003208479787535711
3.01275e-06;0.0031767617346120853
3.01300e-06;0.003145043681688406
3.01325e-06;0.0031339321624420124
3.01350e-06;0.003128889712429675
3.01375e-06;0.0031238472624173282
3.01400e-06;0.003118804812404982
3.01425e-06;0.003113762362392644
3.01450e-06;0.0031087199123802974
3.01475e-06;0.003103677462367951
3.01500e-06;0.0030986350123556046
3.01525e-06;0.003093592562343267
3.01550e-06;0.003093970893251168
3.01575e-06;0.0031088222286872803
3.01600e-06;0.0031236735641233674
3.01625e-06;0.0031385248995594796
3.01650e-06;0.0031533762349955923
3.01675e-06;0.0031682275704317045
3.01700e-06;0.0031830789058677916
3.01725e-06;0.003197930241303904
3.01750e-06;0.0032127815767400165
3.01775e-06;0.0032276329121761036
3.01800e-06;0.003247103851858183
3.01825e-06;0.003267935364766322
3.01850e-06;0.003288766877674426
3.01875e-06;0.003309598390582565
3.01900e-06;0.0033304299034907043
3.01925e-06;0.0033512614163988433
3.01950e-06;0.003372092929306947
3.01975e-06;0.0033929244422150865
3.02000e-06;0.0034137559551232254
3.02025e-06;0.003434587468031329
3.02050e-06;0.003453503771975772
3.02075e-06;0.003467306637761985
3.02100e-06;0.003481109503548198
3.02125e-06;0.0034949123693343875
3.02150e-06;0.0035087152351206004
3.02175e-06;0.0035225181009068134
3.02200e-06;0.003536320966693003
3.02225e-06;0.003550123832479216
3.02250e-06;0.003563926698265429
3.02275e-06;0.0035777295640516183
3.02300e-06;0.0035915324298378313
3.02325e-06;0.0036009414067210348
3.02350e-06;0.003609056288421674
3.02375e-06;0.0036171711701222992
3.02400e-06;0.003625286051822938
3.02425e-06;0.003633400933523577
3.02450e-06;0.0036415158152242025
3.02475e-06;0.0036496306969248412
3.02500e-06;0.0036577455786254804
3.02525e-06;0.003665860460326119
3.02550e-06;0.0036739753420267445
3.02575e-06;0.0036820902237273837
3.02600e-06;0.0036902051054280224
3.02625e-06;0.0036983199871286477
3.02650e-06;0.003706434868829287
3.02675e-06;0.0037145497505299257
3.02700e-06;0.003722664632230551
3.02725e-06;0.003729862383965768
3.02750e-06;0.0037346114799926946
3.02775e-06;0.0037393605760196215
3.02800e-06;0.0037441096720465398
3.02825e-06;0.0037488587680734663
3.02850e-06;0.003753607864100393
3.02875e-06;0.0037583569601273114
3.02900e-06;0.003763106056154238
3.02925e-06;0.0037678551521811644
3.02950e-06;0.0037726042482080914
3.02975e-06;0.0037773533442350096
3.03000e-06;0.003782102440261936
3.03025e-06;0.003786851536288863
3.03050e-06;0.0037916006323157813
3.03075e-06;0.003796349728342708
3.03100e-06;0.0038010988243696348
3.03125e-06;0.003805847920396553
3.03150e-06;0.003800090129847146
3.03175e-06;0.003791237834269618
3.03200e-06;0.00378238553869209
3.03225e-06;0.003773533243114577
3.03250e-06;0.003764680947537049
3.03275e-06;0.003755828651959521
3.03300e-06;0.0037469763563820085
3.03325e-06;0.0037381240608044806
3.03350e-06;0.0037292717652269527
3.03375e-06;0.003720419469649425
3.03400e-06;0.003711567174071912
3.03425e-06;0.003702714878494384
3.03450e-06;0.0036884912951140464
3.03475e-06;0.0036599268494396696
3.03500e-06;0.0036313624037652443
3.03525e-06;0.0036027979580908194
3.03550e-06;0.003574233512416442
3.03575e-06;0.0035456690667420173
3.03600e-06;0.003517104621067592
3.03625e-06;0.0034885401753931666
3.03650e-06;0.00345997572971879
3.03675e-06;0.0034314112840443645
3.03700e-06;0.0034028468383699396
3.03725e-06;0.003374282392695563
3.03750e-06;0.0033457179470211375
3.03775e-06;0.003312359978779386
3.03800e-06;0.0032775902146093354
3.03825e-06;0.003242820450439344
3.03850e-06;0.003208050686269293
3.03875e-06;0.0031732809220992426
3.03900e-06;0.003138511157929251
3.03925e-06;0.0031037413937592003
3.03950e-06;0.003073432067674438
3.03975e-06;0.0030444364369440115
3.04000e-06;0.003015440806213536
3.04025e-06;0.0029864451754830603
3.04050e-06;0.0029574495447525846
3.04075e-06;0.002928453914022158
3.04100e-06;0.0028994582832916824
3.04125e-06;0.002879810966612207
3.04150e-06;0.0028629169303291306
3.04175e-06;0.0028460228940460253
3.04200e-06;0.002840406042311789
3.04225e-06;0.002838110564996004
3.04250e-06;0.002835815087680223
3.04275e-06;0.002844582643456337
3.04300e-06;0.0028566085014215016
3.04325e-06;0.0028686343593866464
3.04350e-06;0.0028929039012394082
3.04375e-06;0.002920779472440653
3.04400e-06;0.002948655043641851
3.04425e-06;0.0029886269347101707
3.04450e-06;0.0030321614532401423
3.04475e-06;0.003075695971770114
3.04500e-06;0.003129478884534826
3.04525e-06;0.0031862801707504096
3.04550e-06;0.003243081456965993
3.04575e-06;0.0033138641508616553
3.04600e-06;0.003388764671294928
3.04625e-06;0.0034636651917282005
3.04650e-06;0.003538565712161473
3.04675e-06;0.003613466232594619
3.04700e-06;0.0036883667530278916
3.04725e-06;0.003763267273461164
3.04750e-06;0.003846431030502151
3.04775e-06;0.003932028489196813
3.04800e-06;0.004017625947891476
3.04825e-06;0.004103223406585993
3.04850e-06;0.0041888208652806555
3.04875e-06;0.004274418323975317
3.04900e-06;0.00436001578266998
3.04925e-06;0.004439152184054845
3.04950e-06;0.004516385664513743
3.04975e-06;0.004593619144972641
3.05000e-06;0.0046708526254314086
3.05025e-06;0.004748086105890306
3.05050e-06;0.004819955620114159
3.05075e-06;0.0048775038199791185
3.05100e-06;0.004935052019843981
3.05125e-06;0.004992600219708941
3.05150e-06;0.005050148419573901
3.05175e-06;0.005107696619438763
3.05200e-06;0.005157237077069481
3.05225e-06;0.005204419081657827
3.05250e-06;0.005251601086246093
3.05275e-06;0.0052987830908344385
3.05300e-06;0.0053459650954227845
3.05325e-06;0.00539314710001113
3.05350e-06;0.005440329104599396
3.05375e-06;0.005487511109187741
3.05400e-06;0.005534693113776087
3.05425e-06;0.005581875118364353
3.05450e-06;0.005629057122952698
3.05475e-06;0.005676239127541044
3.05500e-06;0.005721721469809935
3.05525e-06;0.005766703224815675
3.05550e-06;0.005811684979821491
3.05575e-06;0.005856666734827308
3.05600e-06;0.005901648489833049
3.05625e-06;0.005946630244838865
3.05650e-06;0.005991611999844682
3.05675e-06;0.0060365937548504224
3.05700e-06;0.006081575509856239
3.05725e-06;0.006126557264862055
3.05750e-06;0.006171539019867872
3.05775e-06;0.006216520774873613
3.05800e-06;0.006258500194798952
3.05825e-06;0.00629959536219741
3.05850e-06;0.006340690529595797
3.05875e-06;0.006381785696994255
3.05900e-06;0.0064228808643927125
3.05925e-06;0.006463976031791169
3.05950e-06;0.0065050711991895575
3.05975e-06;0.00654281093585575
3.06000e-06;0.006571591969908119
3.06025e-06;0.006600373003960438
3.06050e-06;0.006629154038012807
3.06075e-06;0.006657935072065176
3.06100e-06;0.006686716106117496
3.06125e-06;0.006715497140169864
3.06150e-06;0.006744278174222233
3.06175e-06;0.006760795092468056
3.06200e-06;0.006751935843267474
3.06225e-06;0.006736666590521924
3.06250e-06;0.006721397337776376
3.06275e-06;0.0067061280850308535
3.06300e-06;0.006690858832285304
3.06325e-06;0.006675589579539756
3.06350e-06;0.006660320326794207
3.06375e-06;0.006645051074048684
3.06400e-06;0.006616298694386323
3.06425e-06;0.006551547561063588
3.06450e-06;0.006486796427740963
3.06475e-06;0.006422045294418228
3.06500e-06;0.006357294161095492
3.06525e-06;0.006292543027772867
3.06550e-06;0.006227791894450132
3.06575e-06;0.006163040761127397
3.06600e-06;0.006098289627804661
3.06625e-06;0.006008922810553527
3.06650e-06;0.005912306142725137
3.06675e-06;0.0058156894748967475
3.06700e-06;0.005719072807068522
3.06725e-06;0.005622456139240132
3.06750e-06;0.005525839471411742
3.06775e-06;0.005429222803583353
3.06800e-06;0.005328034596538285
3.06825e-06;0.005225499972455583
3.06850e-06;0.005122965348372881
3.06875e-06;0.005020430724290354
3.06900e-06;0.004917896100207652
3.06925e-06;0.00481536147612495
3.06950e-06;0.0047128268520424225
3.06975e-06;0.004626306001825832
3.07000e-06;0.004544501553885414
3.07025e-06;0.0044626971059449965
3.07050e-06;0.0043808926580047175
3.07075e-06;0.0042990882100643
3.07100e-06;0.004217283762123882
3.07125e-06;0.004135479314183603
3.07150e-06;0.004081056721690381
3.07175e-06;0.004034698677031992
3.07200e-06;0.003988340632373604
3.07225e-06;0.003941982587715294
3.07250e-06;0.0038956245430569053
3.07275e-06;0.003849266498398517
3.07300e-06;0.003802908453740207
3.07325e-06;0.00377613878392502
3.07350e-06;0.003755138313579801
3.07375e-06;0.0037341378432346178
3.07400e-06;0.0037310946905787
3.07425e-06;0.0037333403558326627
3.07450e-06;0.003735586021086625
3.07475e-06;0.003737831686340584
3.07500e-06;0.003740077351594546
3.07525e-06;0.003742323016848509
3.07550e-06;0.003744568682102467
3.07575e-06;0.00374681434735643
3.07600e-06;0.00375574186489218
3.07625e-06;0.0037825093357112564
3.07650e-06;0.0038092768065303784
3.07675e-06;0.0038360442773495004
3.07700e-06;0.0038628117481686224
3.07725e-06;0.0038895792189876993
3.07750e-06;0.003916346689806821
3.07775e-06;0.003943114160625943
3.07800e-06;0.003969881631445019
3.07825e-06;0.0040022216338406625
3.07850e-06;0.004036202867143699
3.07875e-06;0.004070184100446734
3.07900e-06;0.004104165333749713
3.07925e-06;0.004138146567052749
3.07950e-06;0.0041721278003557846
3.07975e-06;0.004206109033658764
3.08000e-06;0.004234611778681577
3.08025e-06;0.004261500990578915
3.08050e-06;0.004288390202476209
3.08075e-06;0.0043152794143735485
3.08100e-06;0.004342168626270887
3.08125e-06;0.004369057838168227
3.08150e-06;0.00439594705006552
3.08175e-06;0.0044224186512053535
3.08200e-06;0.004448767256957346
3.08225e-06;0.004475115862709295
3.08250e-06;0.004501464468461288
3.08275e-06;0.004527813074213281
3.08300e-06;0.004554161679965274
3.08325e-06;0.004580510285717223
3.08350e-06;0.004606858891469215
3.08375e-06;0.004633207497221209
3.08400e-06;0.004659556102973157
3.08425e-06;0.00468590470872515
3.08450e-06;0.004712253314477143
3.08475e-06;0.004740866575856247
3.08500e-06;0.004775526267011202
3.08525e-06;0.004810185958166156
3.08550e-06;0.00484484564932111
3.08575e-06;0.004879505340476006
3.08600e-06;0.004914165031630961
3.08625e-06;0.004948824722785915
3.08650e-06;0.00498348441394081
3.08675e-06;0.005018144105095765
3.08700e-06;0.00505280379625072
3.08725e-06;0.005087463487405674
3.08750e-06;0.00512212317856057
3.08775e-06;0.005156782869715524
3.08800e-06;0.005189994281853445
3.08825e-06;0.00522277914454015
3.08850e-06;0.005255564007226912
3.08875e-06;0.005288348869913672
3.08900e-06;0.0053211337326003775
3.08925e-06;0.005353918595287138
3.08950e-06;0.0053867034579739
3.08975e-06;0.0054194883206606604
3.09000e-06;0.005452273183347366
3.09025e-06;0.005485058046034126
3.09050e-06;0.005517842908720887
3.09075e-06;0.005546279765818755
3.09100e-06;0.005563107833419481
3.09125e-06;0.005579935901020207
3.09150e-06;0.005596763968620933
3.09175e-06;0.0056135920362216304
3.09200e-06;0.005630420103822356
3.09225e-06;0.005647248171423082
3.09250e-06;0.005664076239023779
3.09275e-06;0.005680904306624505
3.09300e-06;0.005697732374225231
3.09325e-06;0.005714560441825928
3.09350e-06;0.005731388509426654
3.09375e-06;0.005736345200125373
3.09400e-06;0.005737805513922371
3.09425e-06;0.005739265827719366
3.09450e-06;0.005740726141516363
3.09475e-06;0.005742186455313361
3.09500e-06;0.005743646769110355
3.09525e-06;0.005745107082907352
3.09550e-06;0.00574656739670435
3.09575e-06;0.005748027710501347
3.09600e-06;0.005749488024298342
3.09625e-06;0.00575094833809534
3.09650e-06;0.005752408651892337
3.09675e-06;0.005753868965689331
3.09700e-06;0.005755329279486329
3.09725e-06;0.005756789593283326
3.09750e-06;0.005756504525324354
3.09775e-06;0.005751559442794455
3.09800e-06;0.005746614360264555
3.09825e-06;0.005741669277734655
3.09850e-06;0.005736724195204763
3.09875e-06;0.005731779112674864
3.09900e-06;0.005726834030144963
3.09925e-06;0.005721888947615072
3.09950e-06;0.005716943865085171
3.09975e-06;0.005711998782555272
3.10000e-06;0.005707053700025372
3.10025e-06;0.00570210861749548
3.10050e-06;0.00569716353496558
3.10075e-06;0.005692218452435681
3.10100e-06;0.005687273369905789
3.10125e-06;0.005682328287375889
3.10150e-06;0.005683059639530278
3.10175e-06;0.005685462824301812
3.10200e-06;0.005687866009073351
3.10225e-06;0.005690269193844889
3.10250e-06;0.0056926723786164275
3.10275e-06;0.005695075563387962
3.10300e-06;0.0056974787481595
3.10325e-06;0.005699881932931038
3.10350e-06;0.005702285117702573
3.10375e-06;0.005704688302474111
3.10400e-06;0.005707091487245649
3.10425e-06;0.005709494672017188
3.10450e-06;0.005711897856788722
3.10475e-06;0.005714301041560261
3.10500e-06;0.005716704226331799
3.10525e-06;0.005719107411103333
3.10550e-06;0.005721510595874872
3.10575e-06;0.005726019519584283
3.10600e-06;0.005736150579597017
3.10625e-06;0.005746281639609768
3.10650e-06;0.005756412699622519
3.10675e-06;0.0057665437596352695
3.10700e-06;0.005776674819648003
3.10725e-06;0.005786805879660754
3.10750e-06;0.005796936939673505
3.10775e-06;0.005807067999686238
3.10800e-06;0.005817199059698988
3.10825e-06;0.005827330119711739
3.10850e-06;0.00583746117972449
3.10875e-06;0.0058475922397372235
3.10900e-06;0.005857723299749974
3.10925e-06;0.005867854359762725
3.10950e-06;0.005877985419775459
3.10975e-06;0.00588811647978821
3.11000e-06;0.005898247539800961
3.11025e-06;0.005902398952262981
3.11050e-06;0.0059047892293696376
3.11075e-06;0.005907179506476295
3.11100e-06;0.005909569783582952
3.11125e-06;0.005911960060689605
3.11150e-06;0.005914350337796262
3.11175e-06;0.005916740614902919
3.11200e-06;0.005919130892009572
3.11225e-06;0.005921521169116229
3.11250e-06;0.005923911446222886
3.11275e-06;0.005926301723329543
3.11300e-06;0.005928692000436196
3.11325e-06;0.005931082277542853
3.11350e-06;0.00593347255464951
3.11375e-06;0.005935862831756163
3.11400e-06;0.00593825310886282
3.11425e-06;0.0059406433859694775
3.11450e-06;0.00594303366307613
3.11475e-06;0.005939071585207983
3.11500e-06;0.005930138723254015
3.11525e-06;0.005921205861300046
3.11550e-06;0.005912272999346092
3.11575e-06;0.005903340137392122
3.11600e-06;0.005894407275438153
3.11625e-06;0.005885474413484199
3.11650e-06;0.00587654155153023
3.11675e-06;0.005867608689576261
3.11700e-06;0.005858675827622292
3.11725e-06;0.005849742965668338
3.11750e-06;0.005840810103714369
3.11775e-06;0.0058318772417604
3.11800e-06;0.005822944379806446
3.11825e-06;0.005814011517852476
3.11850e-06;0.005805078655898507
3.11875e-06;0.005796145793944553
3.11900e-06;0.0057872129319905844
3.11925e-06;0.005777819277669197
3.11950e-06;0.0057675680841552624
3.11975e-06;0.005757316890641345
3.12000e-06;0.0057470656971274105
3.12025e-06;0.005736814503613476
3.12050e-06;0.0057265633100995585
3.12075e-06;0.005716312116585624
3.12100e-06;0.00570606092307169
3.12125e-06;0.005695809729557755
3.12150e-06;0.005685558536043838
3.12175e-06;0.005675307342529903
3.12200e-06;0.005665056149015969
3.12225e-06;0.005654804955502052
3.12250e-06;0.005643225376446317
3.12275e-06;0.005626192460209231
3.12300e-06;0.005609159543972174
3.12325e-06;0.005592126627735088
3.12350e-06;0.005575093711498002
3.12375e-06;0.005558060795260916
3.12400e-06;0.0055410278790238585
3.12425e-06;0.005523994962786773
3.12450e-06;0.005506962046549687
3.12475e-06;0.00548992913031263
3.12500e-06;0.005472896214075544
3.12525e-06;0.005455863297838458
3.12550e-06;0.0054388303816013716
3.12575e-06;0.005421413657030067
3.12600e-06;0.0053952917189958255
3.12625e-06;0.005369169780961583
3.12650e-06;0.005343047842927385
3.12675e-06;0.005316925904893142
3.12700e-06;0.0052908039668589
3.12725e-06;0.005264682028824703
3.12750e-06;0.00523856009079046
3.12775e-06;0.005212438152756218
3.12800e-06;0.005186316214721975
3.12825e-06;0.005160194276687778
3.12850e-06;0.005134072338653535
3.12875e-06;0.00511017950936887
3.12900e-06;0.005088168591148158
3.12925e-06;0.005066157672927408
3.12950e-06;0.0050441467547066585
3.12975e-06;0.005022135836485909
3.13000e-06;0.005000124918265196
3.13025e-06;0.004978114000044447
3.13050e-06;0.004956103081823697
3.13075e-06;0.004934092163602985
3.13100e-06;0.004912081245382235
3.13125e-06;0.004890070327161485
3.13150e-06;0.004868915358271464
3.13175e-06;0.004867174302458363
3.13200e-06;0.004865433246645262
3.13225e-06;0.004863692190832161
3.13250e-06;0.0048619511350190625
3.13275e-06;0.0048602100792059615
3.13300e-06;0.00485846902339286
3.13325e-06;0.004856727967579762
3.13350e-06;0.004854986911766661
3.13375e-06;0.00485324585595356
3.13400e-06;0.004851504800140459
3.13425e-06;0.00484976374432736
3.13450e-06;0.004848022688514259
3.13475e-06;0.004846281632701158
3.13500e-06;0.004855476185942132
3.13525e-06;0.004873903058456048
3.13550e-06;0.004892329930969964
3.13575e-06;0.0049107568034838485
3.13600e-06;0.004929183675997764
3.13625e-06;0.00494761054851168
3.13650e-06;0.004966037421025596
3.13675e-06;0.00498446429353948
3.13700e-06;0.0050028911660533965
3.13725e-06;0.005021318038567312
3.13750e-06;0.005039744911081197
3.13775e-06;0.005058171783595113
3.13800e-06;0.005076598656109028
3.13825e-06;0.005095136678185571
3.13850e-06;0.005116195699894052
3.13875e-06;0.0051372547216025684
3.13900e-06;0.005158313743311085
3.13925e-06;0.005179372765019565
3.13950e-06;0.005200431786728081
3.13975e-06;0.005221490808436598
3.14000e-06;0.0052425498301450785
3.14025e-06;0.005263608851853595
3.14050e-06;0.0052846678735621105
3.14075e-06;0.005305726895270627
3.14100e-06;0.005318157147904449
3.14125e-06;0.005323302616431813
3.14150e-06;0.005328448084959176
3.14175e-06;0.005333593553486531
3.14200e-06;0.005338739022013895
3.14225e-06;0.005343884490541259
3.14250e-06;0.005349029959068622
3.14275e-06;0.005354175427595978
3.14300e-06;0.005359320896123341
3.14325e-06;0.005364466364650705
3.14350e-06;0.005368579539402576
3.14375e-06;0.005349279106696155
3.14400e-06;0.005329978673989734
3.14425e-06;0.005310678241283346
3.14450e-06;0.005291377808576924
3.14475e-06;0.005272077375870503
3.14500e-06;0.005252776943164082
3.14525e-06;0.005233476510457694
3.14550e-06;0.0052141760777512725
3.14575e-06;0.005194875645044852
3.14600e-06;0.005175575212338464
3.14625e-06;0.0051556554647587335
3.14650e-06;0.005121688945142862
3.14675e-06;0.00508772242552699
3.14700e-06;0.005053755905911175
3.14725e-06;0.005019789386295303
3.14750e-06;0.0049858228666794305
3.14775e-06;0.004951856347063616
3.14800e-06;0.004917889827447744
3.14825e-06;0.004883923307831872
3.14850e-06;0.004849956788216057
3.14875e-06;0.004815990268600185
3.14900e-06;0.004782312505935734
3.14925e-06;0.004755184082299958
3.14950e-06;0.004728055658664227
3.14975e-06;0.00470092723502845
3.15000e-06;0.004673798811392674
3.15025e-06;0.004646670387756944
