Time(s);Current(A)
7.25000e-06;0.001456429550486946
7.25025e-06;0.001459552071352829
7.25050e-06;0.0014626745922187016
7.25075e-06;0.0014653156567080415
7.25100e-06;0.0014629249653549234
7.25125e-06;0.0014605342740018053
7.25150e-06;0.001458143582648679
7.25175e-06;0.0014557528912955606
7.25200e-06;0.0014533621999424425
7.25225e-06;0.0014509715085893162
7.25250e-06;0.001448580817236198
7.25275e-06;0.0014461901258830798
7.25300e-06;0.0014420697023455964
7.25325e-06;0.0014367339224849816
7.25350e-06;0.001431398142624367
7.25375e-06;0.0014260623627637343
7.25400e-06;0.0014207265829031196
7.25425e-06;0.001415390803042505
7.25450e-06;0.0014100550231818721
7.25475e-06;0.0014047192433212575
7.25500e-06;0.0013993566676690316
7.25525e-06;0.0013937140461239106
7.25550e-06;0.0013880714245787895
7.25575e-06;0.0013824288030336491
7.25600e-06;0.0013768648075540462
7.25625e-06;0.0013721225421079346
7.25650e-06;0.001367380276661807
7.25675e-06;0.0013626380112156955
7.25700e-06;0.001357885068626409
7.25725e-06;0.0013530205379885334
7.25750e-06;0.001348156007350674
7.25775e-06;0.0013432914767128148
7.25800e-06;0.0013384269460749389
7.25825e-06;0.0013335624154370796
7.25850e-06;0.0013286978847992202
7.25875e-06;0.0013238333541613445
7.25900e-06;0.001318968823523485
7.25925e-06;0.0013126610475439426
7.25950e-06;0.0013053392085970376
7.25975e-06;0.0012980173696501328
7.26000e-06;0.001290695530703203
7.26025e-06;0.001283373691756298
7.26050e-06;0.0012760518528093933
7.26075e-06;0.0012687300138624635
7.26100e-06;0.0012614081749155585
7.26125e-06;0.0012538742830974301
7.26150e-06;0.001244124202388569
7.26175e-06;0.0012343741216797406
7.26200e-06;0.0012246240409709125
7.26225e-06;0.0012148739602620513
7.26250e-06;0.001205123879553223
7.26275e-06;0.0011953737988443947
7.26300e-06;0.0011856237181355335
7.26325e-06;0.0011758736374267052
7.26350e-06;0.0011661002476803664
7.26375e-06;0.0011560832525086605
7.26400e-06;0.0011460662573369548
7.26425e-06;0.001136049262165215
7.26450e-06;0.001126032266993509
7.26475e-06;0.001116015271821803
7.26500e-06;0.0011059982766500633
7.26525e-06;0.0010959812814783573
7.26550e-06;0.0010859642863066516
7.26575e-06;0.0010760798459655502
7.26600e-06;0.0010675807513700385
7.26625e-06;0.0010590816567745266
7.26650e-06;0.0010506656275233142
7.26675e-06;0.0010431670912082116
7.26700e-06;0.001036184500205032
7.26725e-06;0.0010289745096886923
7.26750e-06;0.0010193879407668879
7.26775e-06;0.0010093744335289607
7.26800e-06;0.0009948989449593733
7.26825e-06;0.0009800511567845057
7.26850e-06;0.0009613124227142307
7.26875e-06;0.0009422502583815238
7.26900e-06;0.00091980788726271
7.26925e-06;0.0008969080103435141
7.26950e-06;0.0008692266878080142
7.26975e-06;0.0008410163752234238
7.27000e-06;0.0008072775269356973
7.27025e-06;0.0007730974109500687
7.27050e-06;0.0007343055556185584
7.27075e-06;0.0006951565357417206
7.27100e-06;0.0006522747482199559
7.27125e-06;0.0006090053023743924
7.27150e-06;0.0005616843949043932
7.27175e-06;0.0005139845530559861
7.27200e-06;0.00046232442453594076
7.27225e-06;0.0004103938003404351
7.27250e-06;0.00035563619480080027
7.27275e-06;0.00030071425567533485
7.27300e-06;0.0002440748473900709
7.27325e-06;0.00018733642899788658
7.27350e-06;0.00012950133065705617
7.27375e-06;7.09820637263654e-05
7.27400e-06;1.2069112890124328e-05
7.27425e-06;-4.688096545516172e-05
7.27450e-06;-0.00010551164118801218
7.27475e-06;-0.00016346669394869386
7.27500e-06;-0.00022040064074125204
7.27525e-06;-0.00027606486204911825
7.27550e-06;-0.000330322986078884
7.27575e-06;-0.0003829731575536221
7.27600e-06;-0.0004336805327140611
7.27625e-06;-0.00048206886486510644
7.27650e-06;-0.0005277619869977832
7.27675e-06;-0.0005703838845979114
7.27700e-06;-0.0006095663815287311
7.27725e-06;-0.0006450205641001389
7.27750e-06;-0.0006766120124874125
7.27775e-06;-0.0007042907264232364
7.27800e-06;-0.0007279929897667726
7.27825e-06;-0.0007476389037322561
7.27850e-06;-0.000763148782031936
7.27875e-06;-0.0007744430197082262
7.27900e-06;-0.0007814468012322753
7.27925e-06;-0.0007841352255831087
7.27950e-06;-0.0007825799151339774
7.27975e-06;-0.000776905565255191
7.28000e-06;-0.0007672281544233342
7.28025e-06;-0.0007536536205813463
7.28050e-06;-0.0007361312493516864
7.28075e-06;-0.0007135998205116751
7.28100e-06;-0.0006904680495351506
7.28125e-06;-0.000661062034006685
7.28150e-06;-0.0006311281594283367
7.28175e-06;-0.0005956775693524118
7.28200e-06;-0.000559778180900775
7.28225e-06;-0.0005191883491313086
7.28250e-06;-0.00047822737162987673
7.28275e-06;-0.00043338750749866156
7.28300e-06;-0.00038825903645105995
7.28325e-06;-0.00034011430140439756
7.28350e-06;-0.0002917807847571598
7.28375e-06;-0.00024147428994374736
7.28400e-06;-0.0001910829434845396
7.28425e-06;-0.00013980480273924014
7.28450e-06;-8.852741144010311e-05
7.28475e-06;-3.7292710026544464e-05
7.28500e-06;1.3516100560798987e-05
7.28525e-06;6.359072031920712e-05
7.28550e-06;0.00011259912518456349
7.28575e-06;0.00016019631803043137
7.28600e-06;0.00020603947636321904
7.28625e-06;0.00024978827835397916
7.28650e-06;0.0002911024458290784
7.28675e-06;0.0003296417239384946
7.28700e-06;0.00036506663572534324
7.28725e-06;0.0003970539060332256
7.28750e-06;0.0004253562945095067
7.28775e-06;0.0004498428057376803
7.28800e-06;0.0004704478549724225
7.28825e-06;0.00048711544644401873
7.28850e-06;0.0004997895996321315
7.28875e-06;0.0005084144730572957
7.28900e-06;0.0005129346125530463
7.28925e-06;0.0005133047568327743
7.28950e-06;0.0005095272597408243
7.28975e-06;0.0005016773470585959
7.29000e-06;0.0004898711910543861
7.29025e-06;0.00047423094558774
7.29050e-06;0.0004548788227258126
7.29075e-06;0.0004319370749526349
7.29100e-06;0.00040552819555179584
7.29125e-06;0.00037578104778351873
7.29150e-06;0.00034285438527028716
7.29175e-06;0.0003069524993811325
7.29200e-06;0.0002683053991789606
7.29225e-06;0.00022714676694349378
7.29250e-06;0.00018371036082847253
7.29275e-06;0.00013822989279029045
7.29300e-06;9.093924506404353e-05
7.29325e-06;4.207630828620641e-05
7.29350e-06;-8.102395215582672e-06
7.29375e-06;-5.93315229264651e-05
7.29400e-06;-0.00011145718904254036
7.29425e-06;-0.0001635933300348787
7.29450e-06;-0.00021583894516268557
7.29475e-06;-0.00026808456029066947
7.29500e-06;-0.00032018533081711286
7.29525e-06;-0.00037077231379655206
7.29550e-06;-0.0004211119827767115
7.29575e-06;-0.0004688669447739821
7.29600e-06;-0.000516254133704813
7.29625e-06;-0.0005597976841236504
7.29650e-06;-0.0006028522844148552
7.29675e-06;-0.0006407968108264482
7.29700e-06;-0.0006783006134358713
7.29725e-06;-0.000710873837884406
7.29750e-06;-0.0007397199818785198
7.29775e-06;-0.0007647190532547065
7.29800e-06;-0.0007858054821729231
7.29825e-06;-0.0008029195147811752
7.29850e-06;-0.0008160016526836169
7.29875e-06;-0.0008249923014018195
7.29900e-06;-0.0008298330452496391
7.29925e-06;-0.0008303019523764094
7.29950e-06;-0.0008250748753225495
7.29975e-06;-0.0008191508484452229
7.30000e-06;-0.0008059429190035175
7.30025e-06;-0.0007920799299250383
7.30050e-06;-0.0007713708374290052
7.30075e-06;-0.0007500491092130012
7.30100e-06;-0.0007223246548007644
7.30125e-06;-0.000694291195583017
7.30150e-06;-0.0006630282916927829
7.30175e-06;-0.0006321066989659272
7.30200e-06;-0.0005934792531557261
7.30225e-06;-0.0005692176685066078
7.30250e-06;-0.0005181333404564312
7.30275e-06;-0.0004692548647924109
7.30300e-06;-0.0004197313072251146
7.30325e-06;-0.0003721225718164756
7.30350e-06;-0.00032310117548382323
7.30375e-06;-0.0002729682047450283
7.30400e-06;-0.00022199707864010827
7.30425e-06;-0.000170160863070715
7.30450e-06;-0.00011441612048732148
7.30475e-06;-5.695451043577911e-05
7.30500e-06;-3.6355132368331292e-06
7.30525e-06;4.670290605859949e-05
7.30550e-06;9.59876815407262e-05
7.30575e-06;0.00014387279226061838
7.30600e-06;0.00019002947783791895
7.30625e-06;0.0002343172186897805
7.30650e-06;0.0002784848916380336
7.30675e-06;0.00032100183347297137
7.30700e-06;0.0003580292344806373
7.30725e-06;0.0003900423864812637
7.30750e-06;0.0004179637864493533
7.30775e-06;0.0004414946388658071
7.30800e-06;0.0004605639399886506
7.30825e-06;0.0004752745423259454
7.30850e-06;0.0004869127211643893
7.30875e-06;0.0004947105092259334
7.30900e-06;0.0004964541331873983
7.30925e-06;0.0004926324755109108
7.30950e-06;0.0004840143144567065
7.30975e-06;0.000470603427739662
7.31000e-06;0.00045254628496913527
7.31025e-06;0.00043009827134157715
7.31050e-06;0.00040425603440565587
7.31075e-06;0.0003747293661583714
7.31100e-06;0.00034032252967223093
7.31125e-06;0.0003015327653603898
7.31150e-06;0.000259032502896722
7.31175e-06;0.00021301514158493162
7.31200e-06;0.0001637632780171908
7.31225e-06;0.00011162778028760739
7.31250e-06;5.742378060324569e-05
7.31275e-06;1.1603067706262237e-06
7.31300e-06;-5.7720784093204816e-05
7.31325e-06;-0.00011871721980203296
7.31350e-06;-0.0001812575723311446
7.31375e-06;-0.00024529682596088865
7.31400e-06;-0.00030938985269266396
7.31425e-06;-0.0003739970287686639
7.31450e-06;-0.0004386042048448827
7.31475e-06;-0.0005031080031177908
7.31500e-06;-0.0005666233586954832
7.31525e-06;-0.0006298895526779181
7.31550e-06;-0.0006907733981133735
7.31575e-06;-0.000751245798165626
7.31600e-06;-0.0008077841797796086
7.31625e-06;-0.0008637208953044099
7.31650e-06;-0.0009139048047839386
7.31675e-06;-0.000963382360512737
7.31700e-06;-0.0010061061433389521
7.31725e-06;-0.0010480338369833178
7.31750e-06;-0.0010823497560213423
7.31775e-06;-0.0011158459367719671
7.31800e-06;-0.001141504222948589
7.31825e-06;-0.0011662881425618745
7.31850e-06;-0.0011827118415422358
7.31875e-06;-0.0011982585781240437
7.31900e-06;-0.001205420274099854
7.31925e-06;-0.00121171181416626
7.31950e-06;-0.0012096833935987406
7.31975e-06;-0.0012068329971449763
7.32000e-06;-0.0011961233114058465
7.32025e-06;-0.001184620435442844
7.32050e-06;-0.001165533503145048
7.32075e-06;-0.0011457147547641374
7.32100e-06;-0.0011188987764195167
7.32125e-06;-0.0010914182422301173
7.32150e-06;-0.0010575835841326415
7.32175e-06;-0.001023177528155378
7.32200e-06;-0.0009833080743973767
7.32225e-06;-0.0009429482310039065
7.32250e-06;-0.0008978995468891637
7.32275e-06;-0.0008524618843169308
7.32300e-06;-0.0008033050199102231
7.32325e-06;-0.0007538642532565226
7.32350e-06;-0.0007017089667171766
7.32375e-06;-0.0006493910739772074
7.32400e-06;-0.0005955184286102705
7.32425e-06;-0.0005415968371456463
7.32450e-06;-0.0004872072495419526
7.32475e-06;-0.00043289514431102345
7.32500e-06;-0.00037932388366038124
7.32525e-06;-0.0003258898261246895
7.32550e-06;-0.00027390560120803037
7.32575e-06;-0.00022341322552383956
7.32600e-06;-0.000174778431272417
7.32625e-06;-0.00012835978880028297
7.32650e-06;-8.44982875677142e-05
7.32675e-06;-4.356397095766883e-05
7.32700e-06;-5.8829424499524455e-06
7.32725e-06;2.8833332120833886e-05
7.32750e-06;6.159250819583414e-05
7.32775e-06;9.311720031661967e-05
7.32800e-06;0.00012341920505605847
7.32825e-06;0.0001522772154477978
7.32850e-06;0.0001794809302201206
7.32875e-06;0.00020480188965039622
7.32900e-06;0.00022803921137174224
7.32925e-06;0.0002493769533094556
7.32950e-06;0.0002694496747171635
7.32975e-06;0.0002887132203313173
7.33000e-06;0.0003071286502253449
7.33025e-06;0.00032423461575124607
7.33050e-06;0.00034111527408379203
7.33075e-06;0.000355841666775747
7.33100e-06;0.0003703179866659703
7.33125e-06;0.0003824032455490839
7.33150e-06;0.0003944885044322385
7.33175e-06;0.0004064100098402098
7.33200e-06;0.0004167657930009857
7.33225e-06;0.00042712157616179675
7.33250e-06;0.00043727066893357695
7.33275e-06;0.0004454434998883919
7.33300e-06;0.00045361633084323454
7.33325e-06;0.0004616372631879077
7.33350e-06;0.00046820582309900976
7.33375e-06;0.0004747743830101341
7.33400e-06;0.0004811777018823126
7.33425e-06;0.00048600107522639343
7.33450e-06;0.0004908244485704906
7.33475e-06;0.0004956478219145714
7.33500e-06;0.0005004711952586523
7.33525e-06;0.0005052945686027495
7.33550e-06;0.0005101179419468304
7.33575e-06;0.0005139390839895815
7.33600e-06;0.0005170771395846502
7.33625e-06;0.0005202151951797188
7.33650e-06;0.0005233532507747981
7.33675e-06;0.0005264913063698667
7.33700e-06;0.0005296293619649353
7.33725e-06;0.0005329256745814252
7.33750e-06;0.0005377351553239766
7.33775e-06;0.000542544636066528
7.33800e-06;0.0005473541168090956
7.33825e-06;0.000552163597551647
7.33850e-06;0.0005569730782941984
7.33875e-06;0.000561782559036766
7.33900e-06;0.0005665920397793174
7.33925e-06;0.000571827770708509
7.33950e-06;0.0005811390756018852
7.33975e-06;0.0005904503804952298
7.34000e-06;0.000599761685388606
7.34025e-06;0.0006090729902819506
7.34050e-06;0.0006183842951752953
7.34075e-06;0.0006276956000686715
7.34100e-06;0.0006370069049620161
7.34125e-06;0.0006466918546985578
7.34150e-06;0.0006599493945297016
7.34175e-06;0.0006732069343608005
7.34200e-06;0.0006864644741918994
7.34225e-06;0.0006997220140230432
7.34250e-06;0.0007129795538541421
7.34275e-06;0.000726237093685241
7.34300e-06;0.0007394946335163848
7.34325e-06;0.0007535616003503615
7.34350e-06;0.0007681802448412028
7.34375e-06;0.0007827988893320937
7.34400e-06;0.000797417533822935
7.34425e-06;0.0008120361783138259
7.34450e-06;0.0008266548228046673
7.34475e-06;0.0008412734672955086
7.34500e-06;0.0008557944727445535
7.34525e-06;0.0008693819064341378
7.34550e-06;0.0008829693401237222
7.34575e-06;0.0008964472426131687
7.34600e-06;0.0009088778669510356
7.34625e-06;0.0009212174854968794
7.34650e-06;0.0009326142779608582
7.34675e-06;0.0009432327389120992
7.34700e-06;0.0009528976585914189
7.34725e-06;0.0009607607117388133
7.34750e-06;0.0009652221890647521
7.34775e-06;0.0009651957220863229
7.34800e-06;0.0009603623136623827
7.34825e-06;0.0009495830988722918
7.34850e-06;0.0009382167430952826
7.34875e-06;0.000920867065749005
7.34900e-06;0.0008995936384298381
7.34925e-06;0.0008741079977837291
7.34950e-06;0.0008436509205497933
7.34975e-06;0.0008077848578673716
7.35000e-06;0.0007666791174426086
7.35025e-06;0.0007206915072787602
7.35050e-06;0.0006701798660296753
7.35075e-06;0.0006155011326478968
7.35100e-06;0.0005569814643179967
7.35125e-06;0.0004946830652844562
7.35150e-06;0.00042837332666905624
7.35175e-06;0.00035802107207053154
7.35200e-06;0.00028397529224653665
7.35225e-06;0.00020670302402689655
7.35250e-06;0.00012667123079374728
7.35275e-06;4.4346370142578865e-05
7.35300e-06;-3.9824410945370205e-05
7.35325e-06;-0.00012555937952352393
7.35350e-06;-0.00021282349272424295
7.35375e-06;-0.00030184535800272536
7.35400e-06;-0.0003908672232812078
7.35425e-06;-0.0004798217779460645
7.35450e-06;-0.0005681328985809631
7.35475e-06;-0.0006564440192158616
7.35500e-06;-0.0007443877437504889
7.35525e-06;-0.0008288186252935739
7.35550e-06;-0.0009127874040877401
7.35575e-06;-0.0009923378060941442
7.35600e-06;-0.0010712245092656392
7.35625e-06;-0.0011437652828100997
7.35650e-06;-0.0012154234558667042
7.35675e-06;-0.0012786426799694993
7.35700e-06;-0.0013407478664169798
7.35725e-06;-0.0013922012267733703
7.35750e-06;-0.0014423596015762507
7.35775e-06;-0.0014801360242632535
7.35800e-06;-0.0015165678870074882
7.35825e-06;-0.0015401437941149308
7.35850e-06;-0.001562348626284113
7.35875e-06;-0.0015714439807554687
7.35900e-06;-0.0015791338971627533
7.35925e-06;-0.001573385774232207
7.35950e-06;-0.001566229518198508
7.35975e-06;-0.001545609454319912
7.36000e-06;-0.0015236608243702947
7.36025e-06;-0.0014890091635442375
7.36050e-06;-0.0014531229654023425
7.36075e-06;-0.001405432788531507
7.36100e-06;-0.0013565971814847868
7.36125e-06;-0.0012968095900311451
7.36150e-06;-0.0012362256944518921
7.36175e-06;-0.0011675475577327993
7.36200e-06;-0.0010938379577338992
7.36225e-06;-0.0010155445113681303
7.36250e-06;-0.0009331148245250141
7.36275e-06;-0.0008469963425880787
7.36300e-06;-0.000757634484897385
7.36325e-06;-0.0006654605027291867
7.36350e-06;-0.0005709132411077984
7.36375e-06;-0.00047449483467480025
7.36400e-06;-0.00037676422693426145
7.36425e-06;-0.0002782934882886326
7.36450e-06;-0.00017965473908203823
7.36475e-06;-8.142002646315074e-05
7.36500e-06;1.583999575139601e-05
7.36525e-06;0.00011156359622496105
7.36550e-06;0.000205184284989803
7.36575e-06;0.00029609596632069525
7.36600e-06;0.00038365703435001185
7.36625e-06;0.00046721764342638067
7.36650e-06;0.0005461280768824661
7.36675e-06;0.0006197397573493312
7.36700e-06;0.0006874601865840379
7.36725e-06;0.0007491983452136533
7.36750e-06;0.0008055440677428416
7.36775e-06;0.0008569750553521282
7.36800e-06;0.0009034344544413576
7.36825e-06;0.0009446774491002306
7.36850e-06;0.0009804592981600194
7.36875e-06;0.001010536165664239
7.36900e-06;0.0010346990458339567
7.36925e-06;0.0010530534470673783
7.36950e-06;0.0010661310660063047
7.36975e-06;0.0010741718211924286
7.37000e-06;0.0010758484928650466
7.37025e-06;0.0010766405193465267
7.37050e-06;0.0010689740465352488
7.37075e-06;0.001060436084071112
7.37100e-06;0.0010435654084625962
7.37125e-06;0.001025945357680226
7.37150e-06;0.0010011601864173061
7.37175e-06;0.0009757596561710255
7.37200e-06;0.0009444753958401978
7.37225e-06;0.0009126431745477208
7.37250e-06;0.000875571646634508
7.37275e-06;0.000838021809913893
7.37300e-06;0.0007958986428368136
7.37325e-06;0.0007533818815644842
7.37350e-06;0.0007071017852792823
7.37375e-06;0.0006608216889942371
7.37400e-06;0.0006143268640488906
7.37425e-06;0.0005657789196842778
7.37450e-06;0.0005172309753198294
7.37475e-06;0.00046871103676492695
7.37500e-06;0.00042045887462941037
7.37525e-06;0.0003722067124938938
7.37550e-06;0.0003241442438142451
7.37575e-06;0.00027805305172685365
7.37600e-06;0.0002336567799007694
7.37625e-06;0.00019128462804707635
7.37650e-06;0.00015126571683277633
7.37675e-06;0.00011392676054115945
7.37700e-06;7.948311041961937e-05
7.37725e-06;4.71789694585513e-05
7.37750e-06;1.5096117419898056e-05
7.37775e-06;-1.811796430775677e-05
7.37800e-06;-5.25393482677739e-05
7.37825e-06;-8.78335976036144e-05
7.37850e-06;-0.00012366631469090065
7.37875e-06;-0.0001597046528814732
7.37900e-06;-0.00019568554194699671
7.37925e-06;-0.0002319542482931202
7.37950e-06;-0.00026958405585567204
7.37975e-06;-0.0003093739967183726
7.38000e-06;-0.00035176941557745953
7.38025e-06;-0.00039442153966208384
7.38050e-06;-0.00043952814039943585
7.38075e-06;-0.00048483497684330076
7.38100e-06;-0.0005320563589142544
7.38125e-06;-0.0005792777409853681
7.38150e-06;-0.000626892401268975
7.38175e-06;-0.0006782673753086687
7.38200e-06;-0.0007296423493485364
7.38225e-06;-0.0007812743709590764
7.38250e-06;-0.0008353641425427527
7.38275e-06;-0.0008894539141266123
7.38300e-06;-0.0009435436857102887
7.38325e-06;-0.0009976334572941482
7.38350e-06;-0.0010517437662879102
7.38375e-06;-0.0011060504428992144
7.38400e-06;-0.0011603571195107026
7.38425e-06;-0.001214663796122007
7.38450e-06;-0.0012689704727333114
7.38475e-06;-0.0013229332851416025
7.38500e-06;-0.0013736082538511507
7.38525e-06;-0.001424283222560699
7.38550e-06;-0.0014745117076223856
7.38575e-06;-0.0015204711573060122
7.38600e-06;-0.0015664306069896386
7.38625e-06;-0.0016117029631718834
7.38650e-06;-0.0016504057025745352
7.38675e-06;-0.001689108441977187
7.38700e-06;-0.0017267925888891271
7.38725e-06;-0.0017547375048170737
7.38750e-06;-0.001782682420745115
7.38775e-06;-0.0018093575158380588
7.38800e-06;-0.0018238912702762207
7.38825e-06;-0.0018384250247144318
7.38850e-06;-0.0018518734720445818
7.38875e-06;-0.0018549447992726809
7.38900e-06;-0.0018571228505702344
7.38925e-06;-0.0018507598801174787
7.38950e-06;-0.0018434823820560559
7.38975e-06;-0.0018274606651819088
7.39000e-06;-0.0018103758261292628
7.39025e-06;-0.0017831259872828375
7.39050e-06;-0.00175587614843632
7.39075e-06;-0.0017274805891488885
7.39100e-06;-0.0016881302701160208
7.39125e-06;-0.0016487799510830198
7.39150e-06;-0.001608572710671556
7.39175e-06;-0.0015601720510916085
7.39200e-06;-0.0015112024847500722
7.39225e-06;-0.0014567933393724959
7.39250e-06;-0.0014019313392521695
7.39275e-06;-0.0013427393867926553
7.39300e-06;-0.0012832044313665567
7.39325e-06;-0.001220389866922219
7.39350e-06;-0.001157343093724453
7.39375e-06;-0.0010920760659030612
7.39400e-06;-0.0010267214686017828
7.39425e-06;-0.000960519840740776
7.39450e-06;-0.00089425185044107
