Time(s);Current(A)
1.30000e-06;0.009002831026902375
1.30025e-06;0.009054816281343473
1.30050e-06;0.009108644863511099
1.30075e-06;0.009162473445678724
1.30100e-06;0.009216305677116822
1.30125e-06;0.009270167786897134
1.30150e-06;0.00932388422996626
1.30175e-06;0.00937640802920685
1.30200e-06;0.009428687884856221
1.30225e-06;0.009478970456321041
1.30250e-06;0.009528899656766085
1.30275e-06;0.009575935637735792
1.30300e-06;0.00962232672842078
1.30325e-06;0.009663437790391208
1.30350e-06;0.0097045488523616
1.30375e-06;0.009744662480871325
1.30400e-06;0.009776609639148387
1.30425e-06;0.009808556797425422
1.30450e-06;0.009839151709534972
1.30475e-06;0.009858675128146921
1.30500e-06;0.009878198546758869
1.30525e-06;0.009897721965370834
1.30550e-06;0.009917245383982783
1.30575e-06;0.009927256938852802
1.30600e-06;0.009931157524755863
1.30625e-06;0.009935058110658927
1.30650e-06;0.009938958696561992
1.30675e-06;0.009941531736451981
1.30700e-06;0.009933235514957298
1.30725e-06;0.009924939293462623
1.30750e-06;0.009915831413403627
1.30775e-06;0.009900078092054006
1.30800e-06;0.009883743624388758
1.30825e-06;0.00986265103071885
1.30850e-06;0.009841175466391282
1.30875e-06;0.00981633483747201
1.30900e-06;0.009789404447439084
1.30925e-06;0.00976055669233741
1.30950e-06;0.009729964798165838
1.30975e-06;0.009697804322401629
1.31000e-06;0.009664274371682236
1.31025e-06;0.009629612597991551
1.31050e-06;0.009594072137337569
1.31075e-06;0.009557895678442702
1.31100e-06;0.009521315323365342
1.31125e-06;0.009484564935440276
1.31150e-06;0.00944787910658775
1.31175e-06;0.009411492815197434
1.31200e-06;0.009375654141533735
1.31225e-06;0.009340638110857129
1.31250e-06;0.009306728795557781
1.31275e-06;0.009274305332802575
1.31300e-06;0.009244173787884728
1.31325e-06;0.009214513759116796
1.31350e-06;0.009188714261154798
1.31375e-06;0.009163388306715134
1.31400e-06;0.009141939482160452
1.31425e-06;0.009120735260093058
1.31450e-06;0.009101533716910923
1.31475e-06;0.009082646906408443
1.31500e-06;0.009066336964600047
1.31525e-06;0.009050027022791663
1.31550e-06;0.009034178443376102
1.31575e-06;0.009022107261045652
1.31600e-06;0.009010036078715204
1.31625e-06;0.008998242984307188
1.31650e-06;0.008988726730239767
1.31675e-06;0.008979210476172337
1.31700e-06;0.008970056168910223
1.31725e-06;0.008963865295227719
1.31750e-06;0.00895767442154522
1.31775e-06;0.00895148354786272
1.31800e-06;0.008945292674180216
1.31825e-06;0.00893944304783021
1.31850e-06;0.008936387378462895
1.31875e-06;0.008933331709095582
1.31900e-06;0.008930276039728268
1.31925e-06;0.008927220370360952
1.31950e-06;0.008924562385119277
1.31975e-06;0.008925160432185896
1.32000e-06;0.008925758479252515
1.32025e-06;0.008926356526319132
1.32050e-06;0.008926954573385751
1.32075e-06;0.008927552620452368
1.32100e-06;0.008928150667518987
1.32125e-06;0.008928748714585604
1.32150e-06;0.008929346761652223
1.32175e-06;0.00892994480871884
1.32200e-06;0.00893054285578546
1.32225e-06;0.008931140902852077
1.32250e-06;0.008931738949918696
1.32275e-06;0.008932336996985315
1.32300e-06;0.008934067759801677
1.32325e-06;0.00893652624443809
1.32350e-06;0.008938984729074504
1.32375e-06;0.008941443213710917
1.32400e-06;0.008943901698347332
1.32425e-06;0.008946360182983745
1.32450e-06;0.008948818667620158
1.32475e-06;0.008951277152256572
1.32500e-06;0.008953735636892985
1.32525e-06;0.0089561941215294
1.32550e-06;0.008958652606165813
1.32575e-06;0.008961111090802228
1.32600e-06;0.008963569575438639
1.32625e-06;0.008965969995908018
1.32650e-06;0.008967895016954565
1.32675e-06;0.00896982003800111
1.32700e-06;0.008971745059047657
1.32725e-06;0.008973670080094203
1.32750e-06;0.00897559510114075
1.32775e-06;0.008977520122187296
1.32800e-06;0.008979445143233842
1.32825e-06;0.008981370164280389
1.32850e-06;0.008983295185326935
1.32875e-06;0.00898522020637348
1.32900e-06;0.008987145227420027
1.32925e-06;0.008989070248466572
1.32950e-06;0.00899099526951312
1.32975e-06;0.008992920290559665
1.33000e-06;0.008994845311606213
1.33025e-06;0.008996770332652757
1.33050e-06;0.008998695353699303
1.33075e-06;0.00900062037474585
1.33100e-06;0.009002545395792396
1.33125e-06;0.009004470416838942
1.33150e-06;0.009006880262288821
1.33175e-06;0.009009601586851847
1.33200e-06;0.009012322911414876
1.33225e-06;0.009015044235977902
1.33250e-06;0.00901776556054093
1.33275e-06;0.009020486885103957
1.33300e-06;0.009023208209666983
1.33325e-06;0.009025929534230013
1.33350e-06;0.00902865085879304
1.33375e-06;0.009031372183356067
1.33400e-06;0.009034093507919094
1.33425e-06;0.009036814832482122
1.33450e-06;0.009039536157045149
1.33475e-06;0.009042257481608175
1.33500e-06;0.009044978806171203
1.33525e-06;0.00904770013073423
1.33550e-06;0.00905042145529726
1.33575e-06;0.009053142779860286
1.33600e-06;0.009055864104423312
1.33625e-06;0.00905858542898634
1.33650e-06;0.009061478893066447
1.33675e-06;0.00906578174664157
1.33700e-06;0.00907008460021669
1.33725e-06;0.00907438745379181
1.33750e-06;0.009078690307366933
1.33775e-06;0.009082993160942052
1.33800e-06;0.009087296014517176
1.33825e-06;0.009091598868092295
1.33850e-06;0.009095901721667419
1.33875e-06;0.009100204575242538
1.33900e-06;0.009104507428817658
1.33925e-06;0.009108810282392781
1.33950e-06;0.009113113135967901
1.33975e-06;0.009117469948840825
1.34000e-06;0.00912226855258643
1.34025e-06;0.009127067156332038
1.34050e-06;0.00913186576007765
1.34075e-06;0.009136664363823257
1.34100e-06;0.009141462967568868
1.34125e-06;0.009146261571314476
1.34150e-06;0.009151060175060084
1.34175e-06;0.009155858778805695
1.34200e-06;0.009160657382551302
1.34225e-06;0.009165455986296913
1.34250e-06;0.00917025459004252
1.34275e-06;0.009175053193788132
1.34300e-06;0.009179841968676097
1.34325e-06;0.009184550269952066
1.34350e-06;0.009189252438426344
1.34375e-06;0.009194031156149661
1.34400e-06;0.009199847731289427
1.34425e-06;0.009206149000500262
1.34450e-06;0.009216418694530546
1.34475e-06;0.009227495767117013
1.34500e-06;0.00924518323849354
1.34525e-06;0.00926287070987008
1.34550e-06;0.009280558181246608
1.34575e-06;0.009298245652623134
1.34600e-06;0.009322736852890664
1.34625e-06;0.009351599160359712
1.34650e-06;0.009380461467828784
1.34675e-06;0.009409323775297832
1.34700e-06;0.009439495616702638
1.34725e-06;0.009480389245895978
1.34750e-06;0.009521282875089285
1.34775e-06;0.009562176504282625
1.34800e-06;0.00960307013347593
1.34825e-06;0.009645074884420216
1.34850e-06;0.009696176926618397
1.34875e-06;0.009747278968816579
1.34900e-06;0.009798381011014802
1.34925e-06;0.009849483053212984
1.34950e-06;0.009901130823530254
1.34975e-06;0.009957246733941135
1.35000e-06;0.010013362644352016
1.35025e-06;0.010069683420750127
1.35050e-06;0.010127681534084306
1.35075e-06;0.010185679647418533
1.35100e-06;0.01024361720989521
1.35125e-06;0.010301059013211487
1.35150e-06;0.01035850081652781
1.35175e-06;0.010415601379269354
1.35200e-06;0.010469908040358663
1.35225e-06;0.010524214701447923
1.35250e-06;0.01057794227738327
1.35275e-06;0.010626928603044613
1.35300e-06;0.010675914928705954
1.35325e-06;0.010723859826923627
1.35350e-06;0.010763278054894227
1.35375e-06;0.01080269628286486
1.35400e-06;0.01084211451083546
1.35425e-06;0.010880502732227206
1.35450e-06;0.010910457791517164
1.35475e-06;0.010940412850807097
1.35500e-06;0.010970367910097053
1.35525e-06;0.010998605591829328
1.35550e-06;0.011012782272757513
1.35575e-06;0.011026958953685712
1.35600e-06;0.011041135634613897
1.35625e-06;0.011055312315542094
1.35650e-06;0.01106948899647028
1.35675e-06;0.011083665677398477
1.35700e-06;0.011097842358326664
1.35725e-06;0.011112019039254848
1.35750e-06;0.011126195720183045
1.35775e-06;0.011140372401111232
1.35800e-06;0.011144777806612573
1.35825e-06;0.011142905582145432
1.35850e-06;0.011141033357678291
1.35875e-06;0.011139161133211149
1.35900e-06;0.011137288908744008
1.35925e-06;0.011135416684276865
1.35950e-06;0.011133544459809724
1.35975e-06;0.011131672235342583
1.36000e-06;0.01112980001087544
1.36025e-06;0.011127927786408299
1.36050e-06;0.011125481270074886
1.36075e-06;0.011118332748432996
1.36100e-06;0.0111111842267911
1.36125e-06;0.01110395136645482
1.36150e-06;0.011096027984430849
1.36175e-06;0.011088104602406872
1.36200e-06;0.011080212948761922
1.36225e-06;0.0110725810707038
1.36250e-06;0.011064949192645683
1.36275e-06;0.011057668198697355
1.36300e-06;0.01105326006268718
1.36325e-06;0.011048851926677011
1.36350e-06;0.011044443790666837
1.36375e-06;0.011040035654656668
1.36400e-06;0.011035627518646497
1.36425e-06;0.011031219382636324
1.36450e-06;0.011026811246626153
1.36475e-06;0.01102240311061598
1.36500e-06;0.011017994974605809
1.36525e-06;0.01101391171489571
1.36550e-06;0.011012488374604926
1.36575e-06;0.01101106503431414
1.36600e-06;0.011009641694023355
1.36625e-06;0.01100821835373257
1.36650e-06;0.011006795013441784
1.36675e-06;0.011005371673150998
1.36700e-06;0.011003948332860215
1.36725e-06;0.011002524992569429
1.36750e-06;0.011001101652278644
1.36775e-06;0.010999836612608602
1.36800e-06;0.010999867656694423
1.36825e-06;0.010999898700780242
1.36850e-06;0.010999929744866063
1.36875e-06;0.010999960788951884
1.36900e-06;0.010999991833037704
1.36925e-06;0.011000022877123525
1.36950e-06;0.011000053921209346
1.36975e-06;0.011000084965295165
1.37000e-06;0.011000116009380986
1.37025e-06;0.011000147053466807
1.37050e-06;0.011000178097552627
1.37075e-06;0.011000339053976306
1.37100e-06;0.01100156366555171
1.37125e-06;0.011002788277127116
1.37150e-06;0.01100401288870252
1.37175e-06;0.011005237500277926
1.37200e-06;0.011006462111853332
1.37225e-06;0.011007686723428736
1.37250e-06;0.01100891133500414
1.37275e-06;0.011010135946579546
1.37300e-06;0.011011360558154952
1.37325e-06;0.011012585169730358
1.37350e-06;0.011013809781305763
1.37375e-06;0.011015343451733965
1.37400e-06;0.011019407536489015
1.37425e-06;0.011023471621244065
1.37450e-06;0.011027535705999118
1.37475e-06;0.011031599790754167
1.37500e-06;0.01103566387550922
1.37525e-06;0.01103972796026427
1.37550e-06;0.01104379204501932
1.37575e-06;0.011047856129774374
1.37600e-06;0.011052427147750279
1.37625e-06;0.011061148673220703
1.37650e-06;0.011069870198691118
1.37675e-06;0.011078591724161533
1.37700e-06;0.011087313249631957
1.37725e-06;0.011096034775102372
1.37750e-06;0.011104756300572796
1.37775e-06;0.011113477826043211
1.37800e-06;0.011122199351513635
1.37825e-06;0.011131334074800058
1.37850e-06;0.011143851848479382
1.37875e-06;0.011156369622158718
1.37900e-06;0.011168887395838044
1.37925e-06;0.01118140516951738
1.37950e-06;0.011193922943196703
1.37975e-06;0.011206440716876029
1.38000e-06;0.011218958490555365
1.38025e-06;0.01123147626423469
1.38050e-06;0.011243994037914026
1.38075e-06;0.01125651181159335
1.38100e-06;0.011269005770016438
1.38125e-06;0.011281484428147638
1.38150e-06;0.01129396308627883
1.38175e-06;0.01130644174441003
1.38200e-06;0.01131892040254122
1.38225e-06;0.011331399060672421
1.38250e-06;0.01134387771880361
1.38275e-06;0.0113563563769348
1.38300e-06;0.011368835035066003
1.38325e-06;0.011381313693197193
1.38350e-06;0.011393554897138952
1.38375e-06;0.011403851948769866
1.38400e-06;0.01141414900040078
1.38425e-06;0.011424446052031703
1.38450e-06;0.011434743103662617
1.38475e-06;0.01144504015529354
1.38500e-06;0.011455337206924454
1.38525e-06;0.011465634258555369
1.38550e-06;0.01147611331754906
1.38575e-06;0.011488082558862696
1.38600e-06;0.011500051800176343
1.38625e-06;0.011512021041489979
1.38650e-06;0.011523990282803615
1.38675e-06;0.011535959524117262
1.38700e-06;0.011547928765430898
1.38725e-06;0.011559898006744545
1.38750e-06;0.011572152057903224
1.38775e-06;0.011586737985032028
1.38800e-06;0.01160132391216082
1.38825e-06;0.01161590983928961
1.38850e-06;0.011630495766418414
1.38875e-06;0.011645081693547206
1.38900e-06;0.01165966762067601
1.38925e-06;0.0116742535478048
1.38950e-06;0.011688839474933592
1.38975e-06;0.011703425402062395
1.39000e-06;0.011718011329191187
1.39025e-06;0.01173259725631999
1.39050e-06;0.011747183183448782
1.39075e-06;0.011761281827753763
1.39100e-06;0.011775067413514846
1.39125e-06;0.011788852999275918
1.39150e-06;0.011802638585036999
1.39175e-06;0.01181642417079807
1.39200e-06;0.011830209756559153
1.39225e-06;0.011843995342320224
1.39250e-06;0.011857780928081294
1.39275e-06;0.011871566513842377
1.39300e-06;0.011885352099603447
1.39325e-06;0.01189913768536453
1.39350e-06;0.0119129232711256
1.39375e-06;0.011925986976271898
1.39400e-06;0.011933140295636148
1.39425e-06;0.011940293615000392
1.39450e-06;0.011947446934364643
1.39475e-06;0.011954600253728888
1.39500e-06;0.011961753573093132
1.39525e-06;0.011968906892457382
1.39550e-06;0.011976060211821626
1.39575e-06;0.011983213531185876
1.39600e-06;0.01199036685055012
1.39625e-06;0.011997520169914372
1.39650e-06;0.012003906386830899
1.39675e-06;0.012004011964944585
1.39700e-06;0.012004117543058272
1.39725e-06;0.012004223121171958
1.39750e-06;0.012004328699285643
1.39775e-06;0.012004434277399329
1.39800e-06;0.012004539855513014
1.39825e-06;0.012004645433626702
1.39850e-06;0.012004751011740387
1.39875e-06;0.012004856589854073
1.39900e-06;0.012004962167967759
1.39925e-06;0.012004661502620955
1.39950e-06;0.012001034725554827
1.39975e-06;0.011997407948488702
1.40000e-06;0.011993781171422574
1.40025e-06;0.01199015439435645
1.40050e-06;0.011986527617290322
1.40075e-06;0.011982900840224197
1.40100e-06;0.011979274063158072
1.40125e-06;0.011975647286091944
1.40150e-06;0.011972070889231507
1.40175e-06;0.011968906979484963
1.40200e-06;0.011965743069738423
1.40225e-06;0.011962579159991882
1.40250e-06;0.011959415250245338
1.40275e-06;0.011956251340498797
1.40300e-06;0.011953087430752254
1.40325e-06;0.011949923521005714
1.40350e-06;0.011946759611259171
1.40375e-06;0.011943755937147828
1.40400e-06;0.01194206418969104
1.40425e-06;0.011940372442234249
1.40450e-06;0.01193868069477746
1.40475e-06;0.011936988947320669
1.40500e-06;0.01193529719986388
1.40525e-06;0.01193360545240709
1.40550e-06;0.011931913704950302
1.40575e-06;0.011930221957493513
1.40600e-06;0.011928530210036722
1.40625e-06;0.011926699445650182
1.40650e-06;0.011923730482414567
1.40675e-06;0.011920761519178947
1.40700e-06;0.011917792555943331
1.40725e-06;0.01191482359270771
1.40750e-06;0.011911854629472095
1.40775e-06;0.011908885666236478
1.40800e-06;0.011905916703000858
1.40825e-06;0.011902947739765243
1.40850e-06;0.011899978776529622
1.40875e-06;0.011896895499897708
1.40900e-06;0.011892876284194694
1.40925e-06;0.011888857068491684
1.40950e-06;0.011884837852788672
1.40975e-06;0.011880818637085658
1.41000e-06;0.011876799421382648
1.41025e-06;0.011872780205679634
1.41050e-06;0.011868760989976622
1.41075e-06;0.011864741774273612
1.41100e-06;0.011860722558570598
1.41125e-06;0.011856703342867586
1.41150e-06;0.011852684127164573
1.41175e-06;0.011848664911461563
1.41200e-06;0.011846037867594658
1.41225e-06;0.011844305235076841
1.41250e-06;0.011842572602559028
1.41275e-06;0.011840839970041211
1.41300e-06;0.011839107337523396
1.41325e-06;0.011837374705005581
1.41350e-06;0.011835642072487766
1.41375e-06;0.011833909439969951
1.41400e-06;0.011832176807452134
1.41425e-06;0.011830444174934321
1.41450e-06;0.011828711542416505
1.41475e-06;0.01182697890989869
1.41500e-06;0.011825765667035838
1.41525e-06;0.011828804918516626
1.41550e-06;0.01183184416999741
1.41575e-06;0.011834883421478195
1.41600e-06;0.01183792267295898
1.41625e-06;0.011840961924439763
1.41650e-06;0.011844001175920549
1.41675e-06;0.011847040427401333
1.41700e-06;0.01185007967888212
1.41725e-06;0.011853118930362904
1.41750e-06;0.01185615818184369
1.41775e-06;0.011859197433324474
1.41800e-06;0.011862236684805258
1.41825e-06;0.011865275936286043
1.41850e-06;0.011868315187766827
1.41875e-06;0.011871354439247615
1.41900e-06;0.011874393690728397
1.41925e-06;0.01187743294220918
1.41950e-06;0.011881962380696333
1.41975e-06;0.01188744920112164
1.42000e-06;0.01189293602154695
1.42025e-06;0.011898422841972256
1.42050e-06;0.011903909662397561
1.42075e-06;0.011909396482822871
1.42100e-06;0.011914883303248178
1.42125e-06;0.011920370123673488
1.42150e-06;0.011925856944098794
1.42175e-06;0.011931343764524104
1.42200e-06;0.01193683058494941
1.42225e-06;0.011942317405374717
1.42250e-06;0.011947804225800027
1.42275e-06;0.011953291046225334
1.42300e-06;0.011958777866650644
1.42325e-06;0.01196426468707595
1.42350e-06;0.011969751507501255
1.42375e-06;0.011975390956892507
1.42400e-06;0.011982280053457224
1.42425e-06;0.011989169150021947
1.42450e-06;0.011996058246586663
1.42475e-06;0.01200294734315138
1.42500e-06;0.012009836439716103
1.42525e-06;0.012016725536280819
1.42550e-06;0.012023614632845542
1.42575e-06;0.01203050372941026
1.42600e-06;0.012037894105079619
1.42625e-06;0.012049388695256106
1.42650e-06;0.012060883285432582
1.42675e-06;0.012072377875609068
1.42700e-06;0.012083872465785545
1.42725e-06;0.012095367055962031
1.42750e-06;0.012106861646138507
1.42775e-06;0.012118356236314983
1.42800e-06;0.01212985082649147
1.42825e-06;0.012141786506316221
1.42850e-06;0.012157333600454007
1.42875e-06;0.012172880694591779
1.42900e-06;0.01218842778872955
1.42925e-06;0.012203974882867334
1.42950e-06;0.012219521977005106
1.42975e-06;0.012235069071142891
1.43000e-06;0.012250616165280663
1.43025e-06;0.012266163259418435
1.43050e-06;0.01228171035355622
1.43075e-06;0.012297257447693992
1.43100e-06;0.012312804541831776
1.43125e-06;0.012327594231930018
1.43150e-06;0.012341897322061831
1.43175e-06;0.012356200412193633
1.43200e-06;0.012370503502325434
1.43225e-06;0.012384806592457248
1.43250e-06;0.01239910968258905
1.43275e-06;0.012413412772720863
1.43300e-06;0.012427715862852665
1.43325e-06;0.012442018952984467
1.43350e-06;0.01245632204311628
1.43375e-06;0.012470625133248084
1.43400e-06;0.012484365835600834
1.43425e-06;0.012493501997170225
1.43450e-06;0.012502638158739619
1.43475e-06;0.01251177432030902
1.43500e-06;0.012520910481878412
1.43525e-06;0.012530046643447814
1.43550e-06;0.012539182805017205
1.43575e-06;0.012548318966586607
1.43600e-06;0.012557455128155998
1.43625e-06;0.012566591289725391
1.43650e-06;0.012575727451294793
1.43675e-06;0.012584863612864185
1.43700e-06;0.012593999774433587
1.43725e-06;0.012603135936002978
1.43750e-06;0.012612272097572371
1.43775e-06;0.012621408259141773
1.43800e-06;0.012630544420711164
1.43825e-06;0.012638169361655537
1.43850e-06;0.0126448234074541
1.43875e-06;0.01265147745325266
1.43900e-06;0.012658131499051229
1.43925e-06;0.01266478554484979
1.43950e-06;0.012671439590648358
1.43975e-06;0.01267809363644692
1.44000e-06;0.012684747682245487
1.44025e-06;0.01269140172804405
1.44050e-06;0.012698055773842611
1.44075e-06;0.01270470981964118
1.44100e-06;0.01271136386543974
1.44125e-06;0.012718017911238309
1.44150e-06;0.01272467195703687
1.44175e-06;0.012731326002835433
1.44200e-06;0.012737980048634
1.44225e-06;0.012744519778271617
1.44250e-06;0.012750123546203081
1.44275e-06;0.012755727314134543
1.44300e-06;0.012761331082066004
1.44325e-06;0.01276693484999747
1.44350e-06;0.012772538617928932
1.44375e-06;0.012777582003216739
1.44400e-06;0.012778037264735297
1.44425e-06;0.012778492526253854
1.44450e-06;0.012778947787772412
1.44475e-06;0.01277940304929097
1.44500e-06;0.012779858310809529
1.44525e-06;0.01277913340502757
1.44550e-06;0.012768745898691588
1.44575e-06;0.012758358392355614
1.44600e-06;0.01274797088601964
1.44625e-06;0.012737583379683658
1.44650e-06;0.012727195873347684
1.44675e-06;0.012715530125568236
1.44700e-06;0.01269339879678679
1.44725e-06;0.012671267468005344
1.44750e-06;0.012649136139223879
1.44775e-06;0.012627004810442433
1.44800e-06;0.012604873481660969
1.44825e-06;0.012581613256983825
1.44850e-06;0.012549110215545039
1.44875e-06;0.01251660717410628
1.44900e-06;0.012484104132667522
1.44925e-06;0.012451601091228736
1.44950e-06;0.012419098049789978
1.44975e-06;0.012386595008351192
1.45000e-06;0.012354091966912433
1.45025e-06;0.012321248086149315
1.45050e-06;0.012285613588968703
1.45075e-06;0.012249979091788122
1.45100e-06;0.012214344594607511
1.45125e-06;0.01217871009742693
1.45150e-06;0.012143075600246349
1.45175e-06;0.012107441103065737
1.45200e-06;0.012071806605885155
