Time(s);Current(A)
9.80000e-06;0.0067344180594103974
9.80025e-06;0.006732965682101436
9.80050e-06;0.006731513304792464
9.80075e-06;0.006730060927483492
9.80100e-06;0.006728608550174531
9.80125e-06;0.0067271561728655584
9.80150e-06;0.006725703795556587
9.80175e-06;0.0067242514182476254
9.80200e-06;0.006722799040938653
9.80225e-06;0.006721346663629682
9.80250e-06;0.006719894286320711
9.80275e-06;0.006718441909011749
9.80300e-06;0.006692155212341517
9.80325e-06;0.006661788144042996
9.80350e-06;0.0066314210757446816
9.80375e-06;0.00660105400744616
9.80400e-06;0.00657068693914764
9.80425e-06;0.006540319870849325
9.80450e-06;0.006509952802550804
9.80475e-06;0.0064795857342522835
9.80500e-06;0.006449218665953969
9.80525e-06;0.006418851597655447
9.80550e-06;0.006388484529356927
9.80575e-06;0.006355594491450375
9.80600e-06;0.00631819734988198
9.80625e-06;0.006280800208313586
9.80650e-06;0.006243403066745445
9.80675e-06;0.006206005925177051
9.80700e-06;0.006168608783608656
9.80725e-06;0.0061312116420405155
9.80750e-06;0.006093814500472121
9.80775e-06;0.006061067052197632
9.80800e-06;0.006036625946418538
9.80825e-06;0.006012184840639277
9.80850e-06;0.005987743734860017
9.80875e-06;0.005963302629080922
9.80900e-06;0.005938861523301662
9.80925e-06;0.005914420417522401
9.80950e-06;0.0058899793117433066
9.80975e-06;0.0058786072675472865
9.81000e-06;0.005890582161471567
9.81025e-06;0.005902557055395767
9.81050e-06;0.005914531949320048
9.81075e-06;0.005926506843244328
9.81100e-06;0.00593848173716861
9.81125e-06;0.005950456631092809
9.81150e-06;0.0059624315250170895
9.81175e-06;0.005974406418941371
9.81200e-06;0.006000820425776192
9.81225e-06;0.0060530288688450265
9.81250e-06;0.006105237311913861
9.81275e-06;0.006157445754982342
9.81300e-06;0.006209654198051178
9.81325e-06;0.006261862641120013
9.81350e-06;0.006314071084188494
9.81375e-06;0.006366279527257329
9.81400e-06;0.006418487970326164
9.81425e-06;0.006478777463484224
9.81450e-06;0.006553503171148433
9.81475e-06;0.006628228878812642
9.81500e-06;0.0067029545864763455
9.81525e-06;0.006777680294140554
9.81550e-06;0.006852406001804764
9.81575e-06;0.006927131709468466
9.81600e-06;0.007001857417132676
9.81625e-06;0.0070765831247968855
9.81650e-06;0.007146511052813189
9.81675e-06;0.007215650687674855
9.81700e-06;0.00728479032253652
9.81725e-06;0.007353929957397718
9.81750e-06;0.007423069592259383
9.81775e-06;0.007492209227121049
9.81800e-06;0.007561348861982246
9.81825e-06;0.007630488496843911
9.81850e-06;0.007686694064179204
9.81875e-06;0.007719793850557479
9.81900e-06;0.007752893636935978
9.81925e-06;0.007785993423314477
9.81950e-06;0.007819093209692977
9.81975e-06;0.007852192996071252
9.82000e-06;0.007885292782449751
9.82025e-06;0.00791839256882825
9.82050e-06;0.007933663284119602
9.82075e-06;0.007917083646815625
9.82100e-06;0.00790050400951165
9.82125e-06;0.007883924372207784
9.82150e-06;0.007867344734903808
9.82175e-06;0.007850765097599832
9.82200e-06;0.007834185460295967
9.82225e-06;0.00781760582299199
9.82250e-06;0.007785151489081052
9.82275e-06;0.007724338151955265
9.82300e-06;0.007663524814829067
9.82325e-06;0.0076027114777028676
9.82350e-06;0.007541898140577081
9.82375e-06;0.007481084803450882
9.82400e-06;0.007420271466324683
9.82425e-06;0.007359458129198896
9.82450e-06;0.007298644792072697
9.82475e-06;0.007218566839978539
9.82500e-06;0.0071353236395332266
9.82525e-06;0.00705208043908735
9.82550e-06;0.006968837238641474
9.82575e-06;0.006885594038196162
9.82600e-06;0.006802350837750285
9.82625e-06;0.006719107637304409
9.82650e-06;0.006635864436859097
9.82675e-06;0.00655568030455262
9.82700e-06;0.006480960977361108
9.82725e-06;0.006406241650170102
9.82750e-06;0.00633152232297859
9.82775e-06;0.006256802995787078
9.82800e-06;0.006182083668595567
9.82825e-06;0.006107364341404561
9.82850e-06;0.00603264501421305
9.82875e-06;0.005991016021773806
9.82900e-06;0.005954823895201886
9.82925e-06;0.005918631768629721
9.82950e-06;0.005882439642057557
9.82975e-06;0.005846247515485637
9.83000e-06;0.005810055388913472
9.83025e-06;0.005773863262341307
9.83050e-06;0.005751072299562955
9.83075e-06;0.005752221551620035
9.83100e-06;0.005753370803677116
9.83125e-06;0.0057689719176410225
9.83150e-06;0.005810390243016164
9.83175e-06;0.0058518085683913045
9.83200e-06;0.005893226893766165
9.83225e-06;0.005934645219141306
9.83250e-06;0.005976063544516448
9.83275e-06;0.006017481869891308
9.83300e-06;0.00605890019526645
9.83325e-06;0.00610031852064159
9.83350e-06;0.006178756106483148
9.83375e-06;0.006263276095395142
9.83400e-06;0.006347796084307135
9.83425e-06;0.006432316073218556
9.83450e-06;0.006516836062130549
9.83475e-06;0.006601356051042543
9.83500e-06;0.006685876039953963
9.83525e-06;0.006770396028865956
9.83550e-06;0.006859345684367062
9.83575e-06;0.00695620862049274
9.83600e-06;0.007053071556619075
9.83625e-06;0.007149934492745409
9.83650e-06;0.007246797428871743
9.83675e-06;0.007343660364997421
9.83700e-06;0.007440523301123755
9.83725e-06;0.0075306753418079775
9.83750e-06;0.0076088388506654475
9.83775e-06;0.0076870023595234475
9.83800e-06;0.007765165868381447
9.83825e-06;0.007843329377238917
9.83850e-06;0.007921492886096917
9.83875e-06;0.007999656394954915
9.83900e-06;0.008061967181495655
9.83925e-06;0.008095958220294979
9.83950e-06;0.0081299492590943
9.83975e-06;0.008163940297893394
9.84000e-06;0.008197931336692716
9.84025e-06;0.00823192237549204
9.84050e-06;0.00826591341429113
9.84075e-06;0.008299904453090454
9.84100e-06;0.008333895491889776
9.84125e-06;0.00836788653068887
9.84150e-06;0.008401877569488191
9.84175e-06;0.008435868608287515
9.84200e-06;0.008469859647086606
9.84225e-06;0.008468158020951659
9.84250e-06;0.008460591956355476
9.84275e-06;0.008453025891759341
9.84300e-06;0.008445459827163158
9.84325e-06;0.008437893762566973
9.84350e-06;0.00843032769797084
9.84375e-06;0.008422761633374656
9.84400e-06;0.00841519556877847
9.84425e-06;0.008407629504182338
9.84450e-06;0.008400063439586153
9.84475e-06;0.00839249737498997
9.84500e-06;0.008384931310393785
9.84525e-06;0.00837185119916755
9.84550e-06;0.008348920640396655
9.84575e-06;0.00832599008162576
9.84600e-06;0.008303059522855021
9.84625e-06;0.008280128964084126
9.84650e-06;0.008257198405313231
9.84675e-06;0.00823426784654249
9.84700e-06;0.008211337287771596
9.84725e-06;0.008189465544607168
9.84750e-06;0.008169485299337469
9.84775e-06;0.008149505054067634
9.84800e-06;0.008129524808797799
9.84825e-06;0.008109544563528099
9.84850e-06;0.008089564318258264
9.84875e-06;0.008069584072988429
9.84900e-06;0.00804960382771873
9.84925e-06;0.008030636513480524
9.84950e-06;0.008013478727645719
9.84975e-06;0.007996320941811031
9.85000e-06;0.007979163155976226
9.85025e-06;0.007962005370141422
9.85050e-06;0.007944847584306733
9.85075e-06;0.007927689798471929
9.85100e-06;0.007910532012637124
9.85125e-06;0.007893374226802436
9.85150e-06;0.00787621644096763
9.85175e-06;0.007859058655132827
9.85200e-06;0.007841900869298138
9.85225e-06;0.007824743083463334
9.85250e-06;0.007807585297628528
9.85275e-06;0.00779042751179384
9.85300e-06;0.007773269725959035
9.85325e-06;0.007754454322196516
9.85350e-06;0.007735366565603135
9.85375e-06;0.0077162788090098825
9.85400e-06;0.007697191052416502
9.85425e-06;0.007678103295823121
9.85450e-06;0.007659015539229868
9.85475e-06;0.007639927782636487
9.85500e-06;0.007620840026043106
9.85525e-06;0.007601752269449855
9.85550e-06;0.007582664512856473
9.85575e-06;0.007563576756263092
9.85600e-06;0.00754448899966984
9.85625e-06;0.007525401243076458
9.85650e-06;0.0075063134864830775
9.85675e-06;0.007487225729889826
9.85700e-06;0.007469440613614622
9.85725e-06;0.007453982570538132
9.85750e-06;0.007438524527461746
9.85775e-06;0.007423066484385257
9.85800e-06;0.007407608441308766
9.85825e-06;0.007392150398232381
9.85850e-06;0.007376692355155891
9.85875e-06;0.007361234312079401
9.85900e-06;0.007345776269003015
9.85925e-06;0.0073303182259265255
9.85950e-06;0.007306254811316417
9.85975e-06;0.007280777501948431
9.86000e-06;0.007255300192580272
9.86025e-06;0.007229822883212114
9.86050e-06;0.007204345573844128
9.86075e-06;0.007178868264475969
9.86100e-06;0.0071533909551078105
9.86125e-06;0.007127913645739824
9.86150e-06;0.007102436336371666
9.86175e-06;0.00706857712392882
9.86200e-06;0.007019744244749151
9.86225e-06;0.006970911365569151
9.86250e-06;0.006922078486389151
9.86275e-06;0.006873245607209151
9.86300e-06;0.0068244127280294815
9.86325e-06;0.006775579848849482
9.86350e-06;0.006726746969669482
9.86375e-06;0.006677914090489813
9.86400e-06;0.006629081211309813
9.86425e-06;0.006580248332129814
9.86450e-06;0.006521473995526732
9.86475e-06;0.006461066240251164
9.86500e-06;0.006400658484975597
9.86525e-06;0.006340250729700439
9.86550e-06;0.006279842974424871
9.86575e-06;0.006219435219149304
9.86600e-06;0.006159027463874147
9.86625e-06;0.006098619708598579
9.86650e-06;0.006038211953323012
9.86675e-06;0.005977804198047854
9.86700e-06;0.005921543014470329
9.86725e-06;0.005872689382873275
9.86750e-06;0.0058238357512765525
9.86775e-06;0.0057749821196794995
9.86800e-06;0.005726128488082446
9.86825e-06;0.005677274856485723
9.86850e-06;0.005628421224888669
9.86875e-06;0.005579567593291616
9.86900e-06;0.005543705436576294
9.86925e-06;0.005531051614962632
9.86950e-06;0.005518397793348971
9.86975e-06;0.005505743971735397
9.87000e-06;0.005493090150121735
9.87025e-06;0.005480436328508074
9.87050e-06;0.005467782506894499
9.87075e-06;0.005455128685280838
9.87100e-06;0.005460946355845527
9.87125e-06;0.005499762018110351
9.87150e-06;0.005538577680374911
9.87175e-06;0.005577393342639735
9.87200e-06;0.005616209004904559
9.87225e-06;0.00565502466716912
9.87250e-06;0.005693840329433944
9.87275e-06;0.005732655991698768
9.87300e-06;0.005771471653963329
9.87325e-06;0.005824804343080445
9.87350e-06;0.005904070656130033
9.87375e-06;0.005983336969179085
9.87400e-06;0.0060626032822286725
9.87425e-06;0.00614186959527826
9.87450e-06;0.006221135908327311
9.87475e-06;0.0063004022213768995
9.87500e-06;0.006379668534426487
9.87525e-06;0.006458934847475538
9.87550e-06;0.006541996662155436
9.87575e-06;0.006631838867401726
9.87600e-06;0.0067216810726474065
9.87625e-06;0.006811523277893696
9.87650e-06;0.006901365483139986
9.87675e-06;0.006991207688385666
9.87700e-06;0.007081049893631956
9.87725e-06;0.007170892098878246
9.87750e-06;0.007242927646532464
9.87775e-06;0.007312037493680724
9.87800e-06;0.007381147340828984
9.87825e-06;0.007450257187976775
9.87850e-06;0.007519367035125035
9.87875e-06;0.007588476882273294
9.87900e-06;0.007657586729421085
9.87925e-06;0.007711887662786741
9.87950e-06;0.00773973353721552
9.87975e-06;0.0077675794116442995
9.88000e-06;0.00779542528607289
9.88025e-06;0.007823271160501669
9.88050e-06;0.007851117034930449
9.88075e-06;0.00787896290935904
9.88100e-06;0.007906808783787819
9.88125e-06;0.007934654658216597
9.88150e-06;0.007962500532645187
9.88175e-06;0.007990346407073967
9.88200e-06;0.008018192281502747
9.88225e-06;0.008046038155931337
9.88250e-06;0.008042102283754685
9.88275e-06;0.008032944551625579
9.88300e-06;0.008023786819496533
9.88325e-06;0.008014629087367426
9.88350e-06;0.00800547135523832
9.88375e-06;0.007996313623109276
9.88400e-06;0.007987155890980167
9.88425e-06;0.00797799815885106
9.88450e-06;0.007968840426722017
9.88475e-06;0.00795968269459291
9.88500e-06;0.007950524962463802
9.88525e-06;0.007941367230334758
9.88550e-06;0.007927790315296907
9.88575e-06;0.00790631884796213
9.88600e-06;0.007884847380627499
9.88625e-06;0.007863375913292722
9.88650e-06;0.007841904445957944
9.88675e-06;0.007820432978623311
9.88700e-06;0.007798961511288535
9.88725e-06;0.007777490043953758
9.88750e-06;0.007757324371211092
9.88775e-06;0.0077394914065523545
9.88800e-06;0.007721658441893617
9.88825e-06;0.00770382547723488
9.88850e-06;0.007685992512576264
9.88875e-06;0.007668159547917527
9.88900e-06;0.00765032658325879
9.88925e-06;0.007632493618600173
9.88950e-06;0.007614802660810703
9.88975e-06;0.007597365388075523
9.89000e-06;0.007579928115340461
9.89025e-06;0.0075624908426052805
9.89050e-06;0.0075450535698701
9.89075e-06;0.007527616297135038
9.89100e-06;0.007510179024399858
9.89125e-06;0.007492741751664677
9.89150e-06;0.007475304478929615
9.89175e-06;0.007457867206194435
9.89200e-06;0.0074404299334592545
9.89225e-06;0.007422992660724192
9.89250e-06;0.007405555387989012
9.89275e-06;0.007388118115253832
9.89300e-06;0.007370680842518769
9.89325e-06;0.007353243569783589
9.89350e-06;0.007333191177120362
9.89375e-06;0.007312709110462265
9.89400e-06;0.00729222704380403
9.89425e-06;0.007271744977145794
9.89450e-06;0.007251262910487698
9.89475e-06;0.007230780843829462
9.89500e-06;0.007210298777171227
9.89525e-06;0.00718981671051313
9.89550e-06;0.007169334643854895
9.89575e-06;0.007148852577196659
9.89600e-06;0.007128370510538563
9.89625e-06;0.007107888443880328
9.89650e-06;0.007087406377222092
9.89675e-06;0.007066924310563857
9.89700e-06;0.00704644224390576
9.89725e-06;0.007028717812894482
9.89750e-06;0.007015919699550959
9.89775e-06;0.007003121586207522
9.89800e-06;0.0069903234728639985
9.89825e-06;0.006977525359520475
9.89850e-06;0.006964727246177038
9.89875e-06;0.006951929132833515
9.89900e-06;0.0069391310194899915
9.89925e-06;0.006926332906146555
9.89950e-06;0.006913534792803031
9.89975e-06;0.006900736679459508
9.90000e-06;0.006887938566116071
9.90025e-06;0.006892937595069393
9.90050e-06;0.006900860761134515
9.90075e-06;0.006908783927199583
9.90100e-06;0.006916707093264704
9.90125e-06;0.006924630259329826
9.90150e-06;0.006932553425394894
9.90175e-06;0.006940476591460016
9.90200e-06;0.006948399757525138
9.90225e-06;0.006956322923590206
9.90250e-06;0.006964246089655328
9.90275e-06;0.0069721692557204494
9.90300e-06;0.006986654056251806
9.90325e-06;0.007012860744640341
9.90350e-06;0.0070390674330288745
9.90375e-06;0.007065274121417231
9.90400e-06;0.007091480809805766
9.90425e-06;0.007117687498194299
9.90450e-06;0.007143894186582656
9.90475e-06;0.0071701008749711906
9.90500e-06;0.007196307563359725
9.90525e-06;0.007222514251748259
9.90550e-06;0.007248720940136615
9.90575e-06;0.00727492762852515
9.90600e-06;0.00730178292869993
9.90625e-06;0.007328744798219437
9.90650e-06;0.007355706667739127
9.90675e-06;0.007382668537258817
9.90700e-06;0.007409630406778323
9.90725e-06;0.007436592276298014
9.90750e-06;0.007463554145817703
9.90775e-06;0.007490516015337211
9.90800e-06;0.0075174778848569
9.90825e-06;0.00754443975437659
9.90850e-06;0.007571401623896097
9.90875e-06;0.0075912959883412
9.90900e-06;0.007598564763482807
9.90925e-06;0.007605833538624364
9.90950e-06;0.007613102313765971
9.90975e-06;0.0076203710889075765
9.91000e-06;0.007627639864049134
9.91025e-06;0.00763490863919074
9.91050e-06;0.007642177414332346
9.91075e-06;0.007649446189473903
9.91100e-06;0.00765671496461551
9.91125e-06;0.007663983739757117
9.91150e-06;0.007671252514898674
9.91175e-06;0.00767852129004028
9.91200e-06;0.0076857900651818864
9.91225e-06;0.007693058840323444
9.91250e-06;0.0077003276154650495
9.91275e-06;0.007707596390606656
9.91300e-06;0.007700427493155686
9.91325e-06;0.007690886432041501
9.91350e-06;0.007681345370927316
9.91375e-06;0.00767180430981313
9.91400e-06;0.00766226324869901
9.91425e-06;0.007652722187584825
9.91450e-06;0.00764318112647064
9.91475e-06;0.007633640065356519
9.91500e-06;0.007624099004242334
9.91525e-06;0.0076145579431281495
9.91550e-06;0.007605016882014029
9.91575e-06;0.007595475820899844
9.91600e-06;0.007585934759785659
9.91625e-06;0.007576393698671538
9.91650e-06;0.007566852637557353
9.91675e-06;0.007557311576443168
9.91700e-06;0.0075472313419058384
9.91725e-06;0.007536187912841585
9.91750e-06;0.007525144483777331
9.91775e-06;0.007514101054713152
9.91800e-06;0.007503057625648898
9.91825e-06;0.0074920141965846435
9.91850e-06;0.007480970767520465
9.91875e-06;0.0074699273384562104
9.91900e-06;0.007458883909391957
9.91925e-06;0.007447840480327777
9.91950e-06;0.007436797051263523
9.91975e-06;0.00742575362219927
9.92000e-06;0.0074112288541078155
9.92025e-06;0.007390484924326796
9.92050e-06;0.007369740994545776
9.92075e-06;0.007348997064764897
9.92100e-06;0.007328253134983877
9.92125e-06;0.0073075092052028575
9.92150e-06;0.007286765275421978
9.92175e-06;0.007266021345640959
9.92200e-06;0.007245277415859939
9.92225e-06;0.007224533486078919
9.92250e-06;0.00720378955629804
9.92275e-06;0.0071830456265170204
9.92300e-06;0.007157610826210338
9.92325e-06;0.007123796123217713
9.92350e-06;0.00708998142022486
9.92375e-06;0.0070561667172320056
9.92400e-06;0.0070223520142393804
9.92425e-06;0.006988537311246526
9.92450e-06;0.006954722608253673
9.92475e-06;0.006920907905261048
9.92500e-06;0.006887093202268194
9.92525e-06;0.006853278499275341
9.92550e-06;0.0068194637962827155
9.92575e-06;0.0067856490932898614
9.92600e-06;0.006753475117280073
9.92625e-06;0.006721570718857115
9.92650e-06;0.00668966632043394
9.92675e-06;0.006657761922010766
9.92700e-06;0.006625857523587808
9.92725e-06;0.006593953125164634
9.92750e-06;0.00656204872674146
9.92775e-06;0.0065301443283185025
9.92800e-06;0.006498239929895328
9.92825e-06;0.006466335531472154
9.92850e-06;0.006434431133049196
9.92875e-06;0.006404645247199232
9.92900e-06;0.006378643931635315
9.92925e-06;0.0063526426160715735
9.92950e-06;0.006326641300507657
9.92975e-06;0.00630063998494374
9.93000e-06;0.006274638669379998
9.93025e-06;0.006248637353816081
9.93050e-06;0.006222636038252165
9.93075e-06;0.006196634722688247
9.93100e-06;0.006170633407124506
9.93125e-06;0.006141144480052045
9.93150e-06;0.006105425185951046
9.93175e-06;0.006069705891850288
9.93200e-06;0.006033986597749288
9.93225e-06;0.005998267303648288
9.93250e-06;0.00596254800954753
9.93275e-06;0.0059268287154465304
9.93300e-06;0.005891109421345531
9.93325e-06;0.005855390127244773
9.93350e-06;0.0058196708331437735
9.93375e-06;0.005781152435510451
9.93400e-06;0.005737633640810242
9.93425e-06;0.00569411484610974
9.93450e-06;0.005650596051409236
9.93475e-06;0.0056070772567090275
9.93500e-06;0.005563558462008524
9.93525e-06;0.0055200396673080205
9.93550e-06;0.005476520872607813
9.93575e-06;0.005433002077907309
9.93600e-06;0.005389483283206806
9.93625e-06;0.005348086548333022
9.93650e-06;0.0053104807206587525
9.93675e-06;0.005272874892984483
9.93700e-06;0.005235269065310468
9.93725e-06;0.005197663237636199
9.93750e-06;0.005160057409961929
9.93775e-06;0.005122451582287914
9.93800e-06;0.005084845754613644
9.93825e-06;0.0050472399269393745
9.93850e-06;0.00500963409926536
9.93875e-06;0.00497974499558727
9.93900e-06;0.004963641264118935
9.93925e-06;0.004947537532650599
9.93950e-06;0.004931433801182373
9.93975e-06;0.004915330069714037
9.94000e-06;0.004899226338245702
9.94025e-06;0.004883122606777475
9.94050e-06;0.004867018875309139
9.94075e-06;0.004850915143840804
9.94100e-06;0.0048348114123725775
9.94125e-06;0.004818707680904242
9.94150e-06;0.0048026039494359065
9.94175e-06;0.00478650021796768
9.94200e-06;0.004770396486499345
9.94225e-06;0.0047609245799396386
9.94250e-06;0.004763299951427703
9.94275e-06;0.004765675322915782
9.94300e-06;0.004768050694403862
9.94325e-06;0.004770426065891925
9.94350e-06;0.004772801437380005
9.94375e-06;0.004775176808868084
9.94400e-06;0.0047775521803561476
9.94425e-06;0.004779927551844227
9.94450e-06;0.004782302923332307
9.94475e-06;0.004784678294820371
9.94500e-06;0.00478705366630845
9.94525e-06;0.004789429037796529
9.94550e-06;0.004791804409284593
9.94575e-06;0.004796104707831733
9.94600e-06;0.004803843750074101
9.94625e-06;0.0048115827923164165
9.94650e-06;0.004819321834558785
9.94675e-06;0.004827060876801153
9.94700e-06;0.004834799919043469
9.94725e-06;0.004842538961285836
9.94750e-06;0.004850278003528204
9.94775e-06;0.004857296338958702
9.94800e-06;0.004864196259561295
9.94825e-06;0.004871096180163934
9.94850e-06;0.004877996100766574
9.94875e-06;0.0048848960213691665
9.94900e-06;0.004891795941971806
9.94925e-06;0.004898695862574446
9.94950e-06;0.004910841201713136
9.94975e-06;0.004932357103667537
9.95000e-06;0.004953873005621938
9.95025e-06;0.004975388907576194
9.95050e-06;0.004996904809530594
9.95075e-06;0.005018420711484996
9.95100e-06;0.005039936613439251
