Time(s);Current(A)
2.25000e-06;-0.007597445569258878
2.25025e-06;-0.007599470699153294
2.25050e-06;-0.00760149582904771
2.25075e-06;-0.007603520958942122
2.25100e-06;-0.007605546088836538
2.25125e-06;-0.00760720262255512
2.25150e-06;-0.007607063855491502
2.25175e-06;-0.007606925088427884
2.25200e-06;-0.007605815474808312
2.25225e-06;-0.007599977213157171
2.25250e-06;-0.007594138951506039
2.25275e-06;-0.007588300689854898
2.25300e-06;-0.007582462428203756
2.25325e-06;-0.0075766241665526255
2.25350e-06;-0.007570785904901484
2.25375e-06;-0.007563401543169439
2.25400e-06;-0.007548486678229158
2.25425e-06;-0.007533571813288852
2.25450e-06;-0.007518656948348546
2.25475e-06;-0.007503742083408239
2.25500e-06;-0.007488827218467958
2.25525e-06;-0.007473912353527652
2.25550e-06;-0.007457670951472835
2.25575e-06;-0.007434968459272465
2.25600e-06;-0.0074122659670720565
2.25625e-06;-0.007389563474871648
2.25650e-06;-0.00736686098267124
2.25675e-06;-0.00734415849047087
2.25700e-06;-0.007321455998270462
2.25725e-06;-0.007295925850671582
2.25750e-06;-0.0072690051119699865
2.25775e-06;-0.007242084373268346
2.25800e-06;-0.007215163634566706
2.25825e-06;-0.0071882428958651105
2.25850e-06;-0.00716132215716347
2.25875e-06;-0.007134345194601573
2.25900e-06;-0.007107094385627465
2.25925e-06;-0.0070798435766534044
2.25950e-06;-0.00705284651333946
2.25975e-06;-0.007027085354823451
2.26000e-06;-0.007001324196307485
2.26025e-06;-0.0069759095617700165
2.26050e-06;-0.006952182722197825
2.26075e-06;-0.006928987460878997
2.26100e-06;-0.006908381328033947
2.26125e-06;-0.006887775195188864
2.26150e-06;-0.006867985849978831
2.26175e-06;-0.006852174786629611
2.26200e-06;-0.006836363723280364
2.26225e-06;-0.006821424363658288
2.26250e-06;-0.006810730762636142
2.26275e-06;-0.006800037161613978
2.26300e-06;-0.006790880916553072
2.26325e-06;-0.00678921258520673
2.26350e-06;-0.0067875442538603906
2.26375e-06;-0.006785875922514048
2.26400e-06;-0.0067842075911677055
2.26425e-06;-0.0067825392598213664
2.26450e-06;-0.006780870928475024
2.26475e-06;-0.006781119338338263
2.26500e-06;-0.006790703512430595
2.26525e-06;-0.00680028768652291
2.26550e-06;-0.006809871860615242
2.26575e-06;-0.0068194560347075725
2.26600e-06;-0.006829040208799889
2.26625e-06;-0.006838624382892219
2.26650e-06;-0.006849536781558561
2.26675e-06;-0.006866918489385783
2.26700e-06;-0.006884300197213036
2.26725e-06;-0.006901681905040288
2.26750e-06;-0.00691906361286754
2.26775e-06;-0.006936445320694763
2.26800e-06;-0.006953827028522015
2.26825e-06;-0.006971208736349267
2.26850e-06;-0.00698996224355162
2.26875e-06;-0.007009390377516156
2.26900e-06;-0.007028818511480692
2.26925e-06;-0.007048246645445229
2.26950e-06;-0.007067674779409732
2.26975e-06;-0.007087102913374268
2.27000e-06;-0.007106531047338805
2.27025e-06;-0.007125510154336858
2.27050e-06;-0.007142302210798033
2.27075e-06;-0.007159094267259209
2.27100e-06;-0.007175301944583087
2.27125e-06;-0.007188663319120238
2.27150e-06;-0.007202024693657388
2.27175e-06;-0.007214543025538136
2.27200e-06;-0.007222955196693337
2.27225e-06;-0.007231367367848551
2.27250e-06;-0.007238237704786634
2.27275e-06;-0.007237598316019063
2.27300e-06;-0.00723695892725149
2.27325e-06;-0.007236319538483917
2.27350e-06;-0.007235680149716344
2.27375e-06;-0.007235040760948773
2.27400e-06;-0.0072344013721812
2.27425e-06;-0.007225519229380382
2.27450e-06;-0.007212583445379779
2.27475e-06;-0.007199647661379154
2.27500e-06;-0.0071867118773785285
2.27525e-06;-0.007173776093377925
2.27550e-06;-0.0071608403093773
2.27575e-06;-0.0071462707162135075
2.27600e-06;-0.007123743420117421
2.27625e-06;-0.007101216124021373
2.27650e-06;-0.007078688827925286
2.27675e-06;-0.0070561615318292
2.27700e-06;-0.007033634235733151
2.27725e-06;-0.00701021797052329
2.27750e-06;-0.006982471853159917
2.27775e-06;-0.006954725735796544
2.27800e-06;-0.006926979618433218
2.27825e-06;-0.006899233501069844
2.27850e-06;-0.00687148738370647
2.27875e-06;-0.006843573609655549
2.27900e-06;-0.006814843239551236
2.27925e-06;-0.006786207022650602
2.27950e-06;-0.006758029392494371
2.27975e-06;-0.00673004966650252
2.28000e-06;-0.006703033861258074
2.28025e-06;-0.006676379915251351
2.28050e-06;-0.006651488456799637
2.28075e-06;-0.00662659699834788
2.28100e-06;-0.006603985989876728
2.28125e-06;-0.00658249646652558
2.28150e-06;-0.00656142895893247
2.28175e-06;-0.00654241693989427
2.28200e-06;-0.006523404920856069
2.28225e-06;-0.006504186378180185
2.28250e-06;-0.006483961932370265
2.28275e-06;-0.006463737486560344
2.28300e-06;-0.006443464787564076
2.28325e-06;-0.006422957064471043
2.28350e-06;-0.00640244934137801
2.28375e-06;-0.006381525488093682
2.28400e-06;-0.0063585748127551744
2.28425e-06;-0.006335624137416668
2.28450e-06;-0.006312673462078162
2.28475e-06;-0.0062897227867396936
2.28500e-06;-0.00626624867669939
2.28525e-06;-0.006240225102525939
2.28550e-06;-0.0062142015283525335
2.28575e-06;-0.0061881779541790825
2.28600e-06;-0.006162154380005632
2.28625e-06;-0.006135713491124284
2.28650e-06;-0.006107240010830184
2.28675e-06;-0.006078766530536036
2.28700e-06;-0.006050174215202883
2.28725e-06;-0.006021003096690182
2.28750e-06;-0.005991818612705808
2.28775e-06;-0.005962569030266147
2.28800e-06;-0.005933278835829671
2.28825e-06;-0.005903780285210161
2.28850e-06;-0.005874249784715248
2.28875e-06;-0.0058448631956709235
2.28900e-06;-0.005815795844682182
2.28925e-06;-0.005787223820775284
2.28950e-06;-0.005759308034780566
2.28975e-06;-0.005732126476273467
2.29000e-06;-0.005705674325268062
2.29025e-06;-0.005679998548054613
2.29050e-06;-0.00565524325693892
2.29075e-06;-0.005631585006608664
2.29100e-06;-0.005609333700829029
2.29125e-06;-0.005588916548856377
2.29150e-06;-0.005568993245111238
2.29175e-06;-0.005551475300313365
2.29200e-06;-0.005534267735874328
2.29225e-06;-0.005518571923693717
2.29250e-06;-0.005503282429782469
2.29275e-06;-0.005489971967546065
2.29300e-06;-0.00547666150530966
2.29325e-06;-0.005463921884878132
2.29350e-06;-0.005453962631706052
2.29375e-06;-0.005444003378533972
2.29400e-06;-0.005434576597290555
2.29425e-06;-0.005427743297296086
2.29450e-06;-0.005420909997301617
2.29475e-06;-0.005414076697307148
2.29500e-06;-0.005407243397312691
2.29525e-06;-0.0054010181033306084
2.29550e-06;-0.0053977541902356105
2.29575e-06;-0.005394490277140619
2.29600e-06;-0.005391226364045622
2.29625e-06;-0.0053879624509506245
2.29650e-06;-0.005384960707332241
2.29675e-06;-0.005383513677636954
2.29700e-06;-0.005383419614056918
2.29725e-06;-0.0053833255504768815
2.29750e-06;-0.005383231486896845
2.29775e-06;-0.005383137423316809
2.29800e-06;-0.005383043359736773
2.29825e-06;-0.005382949296156737
2.29850e-06;-0.005383879087692775
2.29875e-06;-0.005385312393135108
2.29900e-06;-0.0053867456985774425
2.29925e-06;-0.005388179004019774
2.29950e-06;-0.005389612309462108
2.29975e-06;-0.005391045614904441
2.30000e-06;-0.005392497164017238
2.30025e-06;-0.005394037571555652
2.30050e-06;-0.005395577979094066
2.30075e-06;-0.005397076346870102
2.30100e-06;-0.005398343460943917
2.30125e-06;-0.00539945329910103
2.30150e-06;-0.005400459786920973
2.30175e-06;-0.005401816890134776
2.30200e-06;-0.005404364572500433
2.30225e-06;-0.0054086494279815215
2.30250e-06;-0.00541470949832827
2.30275e-06;-0.005422428061198201
2.30300e-06;-0.005431802713949326
2.30325e-06;-0.005442930388901476
2.30350e-06;-0.005454582886660671
2.30375e-06;-0.005468791609520292
2.30400e-06;-0.005483894034271727
2.30425e-06;-0.005503349362855412
2.30450e-06;-0.005522804691439129
2.30475e-06;-0.005543437307873967
2.30500e-06;-0.0055698040744161185
2.30525e-06;-0.005596170840958314
2.30550e-06;-0.00562253760750051
2.30575e-06;-0.005648904374042707
2.30600e-06;-0.005676499843858539
2.30625e-06;-0.005710079890005647
2.30650e-06;-0.005743659936152755
2.30675e-06;-0.005777239982299807
2.30700e-06;-0.0058108200284469145
2.30725e-06;-0.005844992364609647
2.30750e-06;-0.005882049534633168
2.30775e-06;-0.005919106704656626
2.30800e-06;-0.005956383459728256
2.30825e-06;-0.005994729735415474
2.30850e-06;-0.006033076011102627
2.30875e-06;-0.006071336515098567
2.30900e-06;-0.006109179255713776
2.30925e-06;-0.006147021996328921
2.30950e-06;-0.006184549147885228
2.30975e-06;-0.006220539177458668
2.31000e-06;-0.00625603567608594
2.31025e-06;-0.006289128361129695
2.31050e-06;-0.006322221046173507
2.31075e-06;-0.006353772332999097
2.31100e-06;-0.006377816017711165
2.31125e-06;-0.006401859702423274
2.31150e-06;-0.006425903387135383
2.31175e-06;-0.006449947071847492
2.31200e-06;-0.006473845494087502
2.31225e-06;-0.006497351141226443
2.31250e-06;-0.006520856788365385
2.31275e-06;-0.006544362435504287
2.31300e-06;-0.006567868082643228
2.31325e-06;-0.006592030416616364
2.31350e-06;-0.0066173126580203806
2.31375e-06;-0.00664259489942444
2.31400e-06;-0.0066678771408285
2.31425e-06;-0.00669315938223256
2.31450e-06;-0.006718441623636576
2.31475e-06;-0.0067437238650406356
2.31500e-06;-0.006769006106444694
2.31525e-06;-0.006797340136326744
2.31550e-06;-0.00682613166328012
2.31575e-06;-0.006854923190233496
2.31600e-06;-0.006883714717186824
2.31625e-06;-0.0069125062441402
2.31650e-06;-0.006941297771093576
2.31675e-06;-0.006970089298046952
2.31700e-06;-0.006999472807945738
2.31725e-06;-0.007029865879884044
2.31750e-06;-0.00706025895182235
2.31775e-06;-0.007090652023760604
2.31800e-06;-0.00712104509569891
2.31825e-06;-0.007151438167637216
2.31850e-06;-0.007181831239575522
2.31875e-06;-0.007212224311513777
2.31900e-06;-0.007241150245703866
2.31925e-06;-0.007267574137244483
2.31950e-06;-0.0072939980287850545
2.31975e-06;-0.007320421920325671
2.32000e-06;-0.007346845811866288
2.32025e-06;-0.0073732697034068605
2.32050e-06;-0.007399693594947477
2.32075e-06;-0.007426117486488094
2.32100e-06;-0.007448151855227882
2.32125e-06;-0.007462700373868015
2.32150e-06;-0.007477248892508173
2.32175e-06;-0.007491797411148331
2.32200e-06;-0.007506345929788464
2.32225e-06;-0.007520894448428622
2.32250e-06;-0.00753544296706878
2.32275e-06;-0.007549991485708938
2.32300e-06;-0.007564540004349071
2.32325e-06;-0.0075659036922399465
2.32350e-06;-0.007565290827202168
2.32375e-06;-0.007564677962164392
2.32400e-06;-0.007564065097126614
2.32425e-06;-0.007563452232088836
2.32450e-06;-0.007562839367051059
2.32475e-06;-0.007562226502013281
2.32500e-06;-0.007561613636975503
2.32525e-06;-0.007556410710063174
2.32550e-06;-0.00754337993563748
2.32575e-06;-0.007530349161211765
2.32600e-06;-0.00751731838678605
2.32625e-06;-0.007504287612360357
2.32650e-06;-0.007491256837934642
2.32675e-06;-0.0074782260635089266
2.32700e-06;-0.007465195289083211
2.32725e-06;-0.007449782454404535
2.32750e-06;-0.007430307277008446
2.32775e-06;-0.0074108320996123574
2.32800e-06;-0.0073913569222163016
2.32825e-06;-0.007371881744820213
2.32850e-06;-0.007352406567424124
2.32875e-06;-0.007332931390028068
2.32900e-06;-0.007313456212631979
2.32925e-06;-0.00729373833391832
2.32950e-06;-0.007273606554704573
2.32975e-06;-0.007253474775490861
2.33000e-06;-0.007233866022242296
2.33025e-06;-0.007215149232460249
2.33050e-06;-0.007196432442678233
2.33075e-06;-0.007178682929634552
2.33100e-06;-0.007162583001066745
2.33125e-06;-0.007146483072498938
2.33150e-06;-0.0071309778019627585
2.33175e-06;-0.007116486655532385
2.33200e-06;-0.007100870595917915
2.33225e-06;-0.007083336120144373
2.33250e-06;-0.007064177888574355
2.33275e-06;-0.0070422505194367505
2.33300e-06;-0.007020323150299182
2.33325e-06;-0.00699686296395167
2.33350e-06;-0.00697078872583016
2.33375e-06;-0.006944714487708651
2.33400e-06;-0.006916109632403584
2.33425e-06;-0.006883189086815646
2.33450e-06;-0.006850268541227709
2.33475e-06;-0.006814579044772679
2.33500e-06;-0.006774167406055814
2.33525e-06;-0.00673375576733895
2.33550e-06;-0.0066933441286220864
2.33575e-06;-0.00665293248990529
2.33600e-06;-0.006605793212888552
2.33625e-06;-0.006557645387985232
2.33650e-06;-0.006509497563081993
2.33675e-06;-0.006461349738178673
2.33700e-06;-0.006411680284093465
2.33725e-06;-0.006359415858189995
2.33750e-06;-0.006306833520167859
2.33775e-06;-0.00625350367452205
2.33800e-06;-0.006199604869326889
2.33825e-06;-0.006145190631473036
2.33850e-06;-0.0060905112618193
2.33875e-06;-0.006035891498406532
2.33900e-06;-0.005981656717060382
2.33925e-06;-0.005928132880681778
2.33950e-06;-0.00587561858453422
2.33975e-06;-0.005824312565210285
2.34000e-06;-0.005774324060993263
2.34025e-06;-0.00572582116568817
2.34050e-06;-0.00567909603608177
2.34075e-06;-0.005634487035806503
2.34100e-06;-0.005592332751327326
2.34125e-06;-0.005552972477599256
2.34150e-06;-0.005516670342313697
2.34175e-06;-0.0054833997832659945
2.34200e-06;-0.005452823038137342
2.34225e-06;-0.005424672202595489
2.34250e-06;-0.005398964832596885
2.34275e-06;-0.005375837366898621
2.34300e-06;-0.00535542676062845
2.34325e-06;-0.0053378701610334095
2.34350e-06;-0.0053237532138729815
2.34375e-06;-0.005312341951196862
2.34400e-06;-0.005302715953541734
2.34425e-06;-0.005296134529737575
2.34450e-06;-0.005292290663385122
2.34475e-06;-0.005293115401265087
2.34500e-06;-0.005293940139145051
2.34525e-06;-0.005294764877025017
2.34550e-06;-0.005295589614904983
2.34575e-06;-0.005304256784868248
2.34600e-06;-0.005314099622718506
2.34625e-06;-0.0053239424605687645
2.34650e-06;-0.005333785298419024
2.34675e-06;-0.005345676406009894
2.34700e-06;-0.005361060613179109
2.34725e-06;-0.005376444820348324
2.34750e-06;-0.005393061317083033
2.34775e-06;-0.005411779348628513
2.34800e-06;-0.005430497380173993
2.34825e-06;-0.005449832244996264
2.34850e-06;-0.005470219051374991
2.34875e-06;-0.005490605857753753
2.34900e-06;-0.005511186762074602
2.34925e-06;-0.005532098679164982
2.34950e-06;-0.005552925997551406
2.34975e-06;-0.0055736090421191105
2.35000e-06;-0.005593897837792592
2.35025e-06;-0.005613514285181718
2.35050e-06;-0.005632276483602561
2.35075e-06;-0.005649581854022779
2.35100e-06;-0.005666887224442967
2.35125e-06;-0.005683085238276962
2.35150e-06;-0.005697394776805285
2.35175e-06;-0.0057116151553566405
2.35200e-06;-0.005725683481338138
2.35225e-06;-0.005740608838951285
2.35250e-06;-0.005756995770092502
2.35275e-06;-0.005773382701233691
2.35300e-06;-0.00579038617877917
2.35325e-06;-0.0058084411086515245
2.35350e-06;-0.005826496038523848
2.35375e-06;-0.005846269334747172
2.35400e-06;-0.005868973116471148
2.35425e-06;-0.005891676898195086
2.35450e-06;-0.005914380679919062
2.35475e-06;-0.0059370844616430385
2.35500e-06;-0.005959788243367015
2.35525e-06;-0.005984747129913132
2.35550e-06;-0.0060135518506029845
2.35575e-06;-0.006042356571292838
2.35600e-06;-0.006071161291982642
2.35625e-06;-0.006099966012672495
2.35650e-06;-0.006128770733362348
2.35675e-06;-0.00615909157528171
2.35700e-06;-0.006191997995810543
2.35725e-06;-0.0062249044163394315
2.35750e-06;-0.00625781083686832
2.35775e-06;-0.0062907172573971526
2.35800e-06;-0.006323623677926041
2.35825e-06;-0.00635653009845493
2.35850e-06;-0.006389058043979612
2.35875e-06;-0.006420940541860752
2.35900e-06;-0.006452823039741892
2.35925e-06;-0.006484705537623032
2.35950e-06;-0.006516588035504118
2.35975e-06;-0.0065484705333852585
2.36000e-06;-0.006580353031266398
2.36025e-06;-0.006610503425701399
2.36050e-06;-0.00663769990752532
2.36075e-06;-0.006664896389349241
2.36100e-06;-0.006688364465625297
2.36125e-06;-0.006705474154824533
2.36150e-06;-0.006722583844023799
2.36175e-06;-0.006739693533223064
2.36200e-06;-0.006756803222422301
2.36225e-06;-0.0067739129116215656
2.36250e-06;-0.006791022600820831
2.36275e-06;-0.006808132290020068
2.36300e-06;-0.006825241979219333
2.36325e-06;-0.006837256946467422
2.36350e-06;-0.006840583423743377
2.36375e-06;-0.006843909901019327
2.36400e-06;-0.006847236378295283
2.36425e-06;-0.006850562855571239
2.36450e-06;-0.006853889332847188
2.36475e-06;-0.006857215810123145
2.36500e-06;-0.0068605422873991
2.36525e-06;-0.0068638687646750554
2.36550e-06;-0.0068634243758963435
2.36575e-06;-0.006856549188299489
2.36600e-06;-0.006849674000702634
2.36625e-06;-0.006842798813105792
2.36650e-06;-0.006835923625508936
2.36675e-06;-0.0068290484379120815
2.36700e-06;-0.006822173250315239
2.36725e-06;-0.006815298062718384
2.36750e-06;-0.00680842287512153
2.36775e-06;-0.006797437450531113
2.36800e-06;-0.006785835855651785
2.36825e-06;-0.006774234260772437
2.36850e-06;-0.006762632665893089
2.36875e-06;-0.006751031071013761
2.36900e-06;-0.006739429476134413
2.36925e-06;-0.006727827881255065
2.36950e-06;-0.006716226286375717
2.36975e-06;-0.006704808186967886
2.37000e-06;-0.006693703018977957
2.37025e-06;-0.006682597850988028
2.37050e-06;-0.006671492682998117
2.37075e-06;-0.006660387515008187
2.37100e-06;-0.006649282347018258
2.37125e-06;-0.006638935153581299
2.37150e-06;-0.006629880602680244
2.37175e-06;-0.006620089162355917
2.37200e-06;-0.006609041037873683
2.37225e-06;-0.006597992913391467
2.37250e-06;-0.006585235200857291
2.37275e-06;-0.006569561973249087
2.37300e-06;-0.00655388874564091
2.37325e-06;-0.006536817301406012
2.37350e-06;-0.0065173613519405775
2.37375e-06;-0.0064979054024751435
2.37400e-06;-0.006475660421067193
2.37425e-06;-0.006448659051322653
2.37450e-06;-0.006421657681578114
2.37475e-06;-0.006394656311833621
2.37500e-06;-0.006367654942089082
2.37525e-06;-0.006337727782537771
2.37550e-06;-0.006302811009099377
2.37575e-06;-0.0062678942356609235
2.37600e-06;-0.006232977462222469
2.37625e-06;-0.006198060688784016
2.37650e-06;-0.006161139514149917
2.37675e-06;-0.006120800052932592
2.37700e-06;-0.006080460591715268
2.37725e-06;-0.006039452660169032
2.37750e-06;-0.005997304725732234
2.37775e-06;-0.005954794729497219
2.37800e-06;-0.005911667276542569
2.37825e-06;-0.005868323550400705
2.37850e-06;-0.005824583282153831
2.37875e-06;-0.005780863743109921
2.37900e-06;-0.005737423324574267
2.37925e-06;-0.005694520225732635
2.37950e-06;-0.0056523935093482315
2.37975e-06;-0.005611208356566526
2.38000e-06;-0.005571064571030566
2.38025e-06;-0.0055321057357419455
2.38050e-06;-0.0054945669325464795
2.38075e-06;-0.005462270150609723
2.38100e-06;-0.0054372025231797586
2.38125e-06;-0.0054121348957497945
2.38150e-06;-0.005387067268319874
2.38175e-06;-0.00536199964088991
2.38200e-06;-0.005336932013459946
2.38225e-06;-0.005311864386029982
2.38250e-06;-0.00528679675860006
2.38275e-06;-0.005261729131170096
2.38300e-06;-0.005236661503740133
2.38325e-06;-0.0052115938763102115
2.38350e-06;-0.0051865262488802475
2.38375e-06;-0.0051614586214502834
2.38400e-06;-0.00514715127374542
2.38425e-06;-0.005134457011777286
2.38450e-06;-0.005121762749809151
2.38475e-06;-0.0051090684878410154
2.38500e-06;-0.005096374225872903
2.38525e-06;-0.0050836799639047674
2.38550e-06;-0.005070985701936632
2.38575e-06;-0.0050582914399685186
2.38600e-06;-0.005045597178000384
2.38625e-06;-0.005032902916032249
2.38650e-06;-0.005020208654064114
2.38675e-06;-0.005007514392096001
2.38700e-06;-0.004997077518618832
2.38725e-06;-0.004990490373833138
2.38750e-06;-0.004983903229047455
2.38775e-06;-0.0049773160842617615
2.38800e-06;-0.004970728939476068
2.38825e-06;-0.004964141794690386
2.38850e-06;-0.004957554649904692
2.38875e-06;-0.0049509675051189975
2.38900e-06;-0.004944380360333304
2.38925e-06;-0.004937793215547622
2.38950e-06;-0.004931206070761928
2.38975e-06;-0.0049246189259762345
2.39000e-06;-0.004918031781190551
2.39025e-06;-0.004911444636404858
2.39050e-06;-0.004905574349144622
2.39075e-06;-0.004900998187215164
2.39100e-06;-0.00489662555142115
2.39125e-06;-0.004892484017197008
2.39150e-06;-0.004888754734137523
2.39175e-06;-0.004886176558568365
2.39200e-06;-0.00488597159350414
2.39225e-06;-0.004888983799568494
2.39250e-06;-0.004895325330911304
2.39275e-06;-0.0049048294807917305
2.39300e-06;-0.004917330058839439
2.39325e-06;-0.004932661066803381
2.39350e-06;-0.004951382984409685
2.39375e-06;-0.0049729582360038705
2.39400e-06;-0.004997364058680193
2.39425e-06;-0.0050265971101441055
2.39450e-06;-0.005059945146990987
2.39475e-06;-0.005100310840460822
2.39500e-06;-0.005140676533930588
2.39525e-06;-0.0051810422274004226
2.39550e-06;-0.005221407920870258
2.39575e-06;-0.005273058606657176
2.39600e-06;-0.005326401038440771
2.39625e-06;-0.005379743470224458
2.39650e-06;-0.005433085902008144
