Time(s);Current(A)
4.30000e-06;0.0020236281198040703
4.30025e-06;0.0020146355631254506
4.30050e-06;0.0020037206340049987
4.30075e-06;0.0019921540577675216
4.30100e-06;0.001980587481530044
4.30125e-06;0.0019690209052925277
4.30150e-06;0.0019574543290550505
4.30175e-06;0.0019458877528175733
4.30200e-06;0.001934321176580057
4.30225e-06;0.0019192611467341155
4.30250e-06;0.001893541680425357
4.30275e-06;0.0018678222141165113
4.30300e-06;0.0018421027478077528
4.30325e-06;0.0018163832814989073
4.30350e-06;0.0017906638151901487
4.30375e-06;0.0017649443488813902
4.30400e-06;0.0017392248825725445
4.30425e-06;0.0017033215465075834
4.30450e-06;0.001663966075350483
4.30475e-06;0.0016246106041932493
4.30500e-06;0.0015852551330361488
4.30525e-06;0.0015458996618790484
4.30550e-06;0.0015065441907218147
4.30575e-06;0.0014651794127637009
4.30600e-06;0.0014176837166431512
4.30625e-06;0.0013701880205224406
4.30650e-06;0.001322692324401891
4.30675e-06;0.0012751966282813414
4.30700e-06;0.0012277009321606308
4.30725e-06;0.0011802052360400813
4.30750e-06;0.0011317293834182081
4.30775e-06;0.0010829212766795297
4.30800e-06;0.0010341131699408515
4.30825e-06;0.0009853050632020076
4.30850e-06;0.0009375666544490681
4.30875e-06;0.0008930921727406113
4.30900e-06;0.0008486176910320036
4.30925e-06;0.0008041432093235468
4.30950e-06;0.0007596687276150899
4.30975e-06;0.0007195826094639621
4.31000e-06;0.0006809840617743454
4.31025e-06;0.0006463862291204459
4.31050e-06;0.0006131445615684134
4.31075e-06;0.0005836334763980322
4.31100e-06;0.0005583352319293318
4.31125e-06;0.000537136694754706
4.31150e-06;0.0005201118863693547
4.31175e-06;0.0005072815102636665
4.31200e-06;0.0004986633043017767
4.31225e-06;0.0004942748626697645
4.31250e-06;0.0004941497903734158
4.31275e-06;0.0004983841360486184
4.31300e-06;0.0005070893113617613
4.31325e-06;0.0005202551010237917
4.31350e-06;0.00053774909277714
4.31375e-06;0.0005594056659228527
4.31400e-06;0.000585057342284532
4.31425e-06;0.0006145364410634562
4.31450e-06;0.0006476853801403128
4.31475e-06;0.0006856608471593113
4.31500e-06;0.0007249608262667657
4.31525e-06;0.0007690213826130192
4.31550e-06;0.0008146956826672622
4.31575e-06;0.0008643160756651612
4.31600e-06;0.0009152741179311811
4.31625e-06;0.0009699453974018391
4.31650e-06;0.0010258753925437626
4.31675e-06;0.0010818053876858755
4.31700e-06;0.0011408913877504518
4.31725e-06;0.0012010472125085644
4.31750e-06;0.0012612030372668806
4.31775e-06;0.001321358862024993
4.31800e-06;0.0013815146867831053
4.31825e-06;0.0014401276515386685
4.31850e-06;0.001498217616561769
4.31875e-06;0.0015563075815848693
4.31900e-06;0.0016143975466081663
4.31925e-06;0.0016724875116312667
4.31950e-06;0.0017246965487935622
4.31975e-06;0.001774912065033137
4.32000e-06;0.0018251275812725418
4.32025e-06;0.0018678664423608736
4.32050e-06;0.0019080708618048783
4.32075e-06;0.0019482752812488829
4.32100e-06;0.0019809055531859075
4.32125e-06;0.002010968335453637
4.32150e-06;0.0020410311177213665
4.32175e-06;0.0020634819611526725
4.32200e-06;0.0020833525043842394
4.32225e-06;0.0021032230476158062
4.32250e-06;0.0021149388943294957
4.32275e-06;0.0021238904564758413
4.32300e-06;0.0021328420186221874
4.32325e-06;0.0021346985484892752
4.32350e-06;0.0021341499994928267
4.32375e-06;0.002133601450496378
4.32400e-06;0.002126324653779325
4.32425e-06;0.0021167671110777627
4.32450e-06;0.002107209568376201
4.32475e-06;0.0020885996650194163
4.32500e-06;0.0020669211862962902
4.32525e-06;0.002045242707573091
4.32550e-06;0.0020235642288499653
4.32575e-06;0.0020018857501268392
4.32600e-06;0.0019802072714036403
4.32625e-06;0.0019585287926805143
4.32650e-06;0.0019295063176332017
4.32675e-06;0.0018979943697213302
4.32700e-06;0.0018664824218095652
4.32725e-06;0.0018349704738978003
4.32750e-06;0.0018034585259859286
4.32775e-06;0.0017719465780741638
4.32800e-06;0.001740434630162399
4.32825e-06;0.0017099712725503887
4.32850e-06;0.001679863366790864
4.32875e-06;0.001649755461031339
4.32900e-06;0.001619647555271712
4.32925e-06;0.0015895396495121871
4.32950e-06;0.0015594317437525602
4.32975e-06;0.0015293238379930352
4.33000e-06;0.0014992159322335104
4.33025e-06;0.0014714829073439097
4.33050e-06;0.0014509962622720836
4.33075e-06;0.0014305096172002574
4.33100e-06;0.001410022972128362
4.33125e-06;0.0013895363270565357
4.33150e-06;0.0013690496819847096
4.33175e-06;0.001348563036912814
4.33200e-06;0.001328076391840988
4.33225e-06;0.0013075897467691618
4.33250e-06;0.0012914372088043123
4.33275e-06;0.0012767538494116053
4.33300e-06;0.0012620704900188986
4.33325e-06;0.0012473871306261423
4.33350e-06;0.0012327037712334355
4.33375e-06;0.001218020411840679
4.33400e-06;0.0012033370524479723
4.33425e-06;0.0011886536930552655
4.33450e-06;0.001173970333662509
4.33475e-06;0.0011592869742698022
4.33500e-06;0.0011446036148770955
4.33525e-06;0.001129920255484339
4.33550e-06;0.0011152368960916322
4.33575e-06;0.0011005535366989255
4.33600e-06;0.001085870177306169
4.33625e-06;0.0010721209226810646
4.33650e-06;0.0010612218648889844
4.33675e-06;0.0010503228070968672
4.33700e-06;0.0010394237493047869
4.33725e-06;0.0010285246915127067
4.33750e-06;0.0010176256337205895
4.33775e-06;0.0010067265759285092
4.33800e-06;0.000995827518136392
4.33825e-06;0.0009849284603443119
4.33850e-06;0.0009740294025522315
4.33875e-06;0.0009631303447601143
4.33900e-06;0.0009522312869680341
4.33925e-06;0.0009413322291759538
4.33950e-06;0.0009304331713838366
4.33975e-06;0.0009195341135917564
4.34000e-06;0.0009086350557996762
4.34025e-06;0.0009032542415724198
4.34050e-06;0.0008997440052979687
4.34075e-06;0.0008962337690235178
4.34100e-06;0.0008927235327490548
4.34125e-06;0.0008892132964746038
4.34150e-06;0.0008857030602001528
4.34175e-06;0.0008821928239256899
4.34200e-06;0.0008786825876512389
4.34225e-06;0.000875172351376776
4.34250e-06;0.000871662115102325
4.34275e-06;0.000875983773925388
4.34300e-06;0.0008829602938695578
4.34325e-06;0.0008899368138137042
4.34350e-06;0.0008969133337578504
4.34375e-06;0.0009038898537020203
4.34400e-06;0.0009108663736461666
4.34425e-06;0.0009178428935903128
4.34450e-06;0.0009248194135344828
4.34475e-06;0.000931795933478629
4.34500e-06;0.0009387724534227753
4.34525e-06;0.0009496493472074714
4.34550e-06;0.0009637420277791376
4.34575e-06;0.0009784766141694905
4.34600e-06;0.0009932112005598933
4.34625e-06;0.0010079457869502462
4.34650e-06;0.001022680373340649
4.34675e-06;0.0010374149597310019
4.34700e-06;0.0010521495461213548
4.34725e-06;0.0010672092641224953
4.34750e-06;0.0010832610433131982
4.34775e-06;0.001099312822503901
4.34800e-06;0.0011153646016946583
4.34825e-06;0.0011314163808853611
4.34850e-06;0.001147468160076064
4.34875e-06;0.0011635199392668212
4.34900e-06;0.0011795717184575243
4.34925e-06;0.0011901253854369347
4.34950e-06;0.0011988152986039172
4.34975e-06;0.0012075052117708701
4.35000e-06;0.001216195124937823
4.35025e-06;0.0012248850381048055
4.35050e-06;0.0012335749512717585
4.35075e-06;0.001242264864438741
4.35100e-06;0.001250954777605694
4.35125e-06;0.0012596446907726469
4.35150e-06;0.0012683346039396293
4.35175e-06;0.0012770245171065822
4.35200e-06;0.0012857144302735354
4.35225e-06;0.0012944043434405176
4.35250e-06;0.0013030942566074708
4.35275e-06;0.0013006059329856649
4.35300e-06;0.0012943284030637288
4.35325e-06;0.001288050873141814
4.35350e-06;0.001281773343219899
4.35375e-06;0.001275495813297963
4.35400e-06;0.0012692182833760482
4.35425e-06;0.0012629407534541332
4.35450e-06;0.0012566632235321972
4.35475e-06;0.0012503856936102824
4.35500e-06;0.0012441081636883461
4.35525e-06;0.0012378306337664314
4.35550e-06;0.0012315531038445166
4.35575e-06;0.0012252755739225803
4.35600e-06;0.0012189980440006655
4.35625e-06;0.0012071687450521424
4.35650e-06;0.0011934575036677455
4.35675e-06;0.001179746262283395
4.35700e-06;0.0011660350208990448
4.35725e-06;0.001152323779514648
4.35750e-06;0.0011386125381302975
4.35775e-06;0.0011249012967459472
4.35800e-06;0.0011112405840081187
4.35825e-06;0.0010977340473256748
4.35850e-06;0.0010842275106432311
4.35875e-06;0.0010707209739607415
4.35900e-06;0.0010572144372782979
4.35925e-06;0.0010437079005958083
4.35950e-06;0.0010302013639133646
4.35975e-06;0.0010166948272309208
4.36000e-06;0.0010087265620508116
4.36025e-06;0.0010026356639064424
4.36050e-06;0.0009965447657620731
4.36075e-06;0.000990453867617683
4.36100e-06;0.0009843629694733138
4.36125e-06;0.0009782720713289446
4.36150e-06;0.0009721811731845545
4.36175e-06;0.0009660902750401851
4.36200e-06;0.0009599993768958159
4.36225e-06;0.0009539084787514259
4.36250e-06;0.0009478175806070566
4.36275e-06;0.0009417266824626872
4.36300e-06;0.0009443639657108109
4.36325e-06;0.0009499599338157099
4.36350e-06;0.0009555559019206278
4.36375e-06;0.0009611518700255267
4.36400e-06;0.0009667478381304256
4.36425e-06;0.0009723438062353435
4.36450e-06;0.0009779397743402425
4.36475e-06;0.0009835357424451414
4.36500e-06;0.0009891317105500592
4.36525e-06;0.0009947276786549581
4.36550e-06;0.001000323646759857
4.36575e-06;0.001005919614864775
4.36600e-06;0.0010162122351910167
4.36625e-06;0.0010280969298771762
4.36650e-06;0.001039981624563376
4.36675e-06;0.0010518663192495353
4.36700e-06;0.0010637510139356948
4.36725e-06;0.0010756357086218946
4.36750e-06;0.001087520403308054
4.36775e-06;0.001099405097994254
4.36800e-06;0.0011113363616546514
4.36825e-06;0.0011232834112975645
4.36850e-06;0.0011352304609405178
4.36875e-06;0.0011471775105834309
4.36900e-06;0.001159124560226344
4.36925e-06;0.0011710716098692975
4.36950e-06;0.0011830186595122106
4.36975e-06;0.0011949657091551236
4.37000e-06;0.0012016920163337383
4.37025e-06;0.0012066485926860565
4.37050e-06;0.0012116051690383746
4.37075e-06;0.0012165617453907096
4.37100e-06;0.0012215183217430276
4.37125e-06;0.0012264748980953457
4.37150e-06;0.0012314314744476806
4.37175e-06;0.001236388050799999
4.37200e-06;0.0012413446271523337
4.37225e-06;0.0012348567485761573
4.37250e-06;0.001224489420895967
4.37275e-06;0.0012141220932157415
4.37300e-06;0.001203754765535551
4.37325e-06;0.0011933874378553607
4.37350e-06;0.0011830201101751352
4.37375e-06;0.0011726527824949446
4.37400e-06;0.0011622854548147543
4.37425e-06;0.0011519181271345289
4.37450e-06;0.001133979347185161
4.37475e-06;0.001113473991203672
4.37500e-06;0.0010929686352221136
4.37525e-06;0.0010681923301151463
4.37550e-06;0.0010419682557731686
4.37575e-06;0.0010157441814311022
4.37600e-06;0.0009895201070891245
4.37625e-06;0.0009632960327470581
4.37650e-06;0.0009370719584050804
4.37675e-06;0.0009080354295655958
4.37700e-06;0.0008780455329905053
4.37725e-06;0.0008480556364155163
4.37750e-06;0.0008180657398405274
4.37775e-06;0.0007880758432654367
4.37800e-06;0.0007580859466904477
4.37825e-06;0.0007288102526258985
4.37850e-06;0.0006997766594132463
4.37875e-06;0.0006707430662006924
4.37900e-06;0.0006417094729881385
4.37925e-06;0.00061380239120022
4.37950e-06;0.00058933258904412
4.37975e-06;0.0005648627868880201
4.38000e-06;0.0005403929847318372
4.38025e-06;0.0005159231825757372
4.38050e-06;0.0004953820303770008
4.38075e-06;0.00047617261460872765
4.38100e-06;0.0004588924585227002
4.38125e-06;0.00044226628419379515
4.38150e-06;0.00042736250983758093
4.38175e-06;0.00041304259579369993
4.38200e-06;0.00040072533239657456
4.38225e-06;0.0003890869288756552
4.38250e-06;0.0003796054567852836
4.38275e-06;0.0003708551427758781
4.38300e-06;0.0003637707917068908
4.38325e-06;0.00035725116988670176
4.38350e-06;0.0003521873583219558
4.38375e-06;0.0003476170383061826
4.38400e-06;0.00034459749230245144
4.38425e-06;0.00034210362872635116
4.38450e-06;0.000341176601926353
4.38475e-06;0.0003407807025206487
4.38500e-06;0.0003418061512426937
4.38525e-06;0.0003433134095182175
4.38550e-06;0.00034482066779374643
4.38575e-06;0.00034776177228812845
4.38600e-06;0.0003511889229473916
4.38625e-06;0.0003546160736066663
4.38650e-06;0.0003595870991341107
4.38675e-06;0.0003650814684126863
4.38700e-06;0.00037057583769128043
4.38725e-06;0.000376070206969856
4.38750e-06;0.00038156457624843155
4.38775e-06;0.0003873030804155383
4.38800e-06;0.0003937865036851481
4.38825e-06;0.0004002699269547579
4.38850e-06;0.0004067533502243897
4.38875e-06;0.00041323677349399947
4.38900e-06;0.00041972019676363127
4.38925e-06;0.0004257590510062024
4.38950e-06;0.0004316472049381295
4.38975e-06;0.0004375353588700766
4.39000e-06;0.0004432278193865623
4.39025e-06;0.00044832316834608245
4.39050e-06;0.0004534185173056198
4.39075e-06;0.00045851386626513994
4.39100e-06;0.00046526459593047945
4.39125e-06;0.00047446141890390746
4.39150e-06;0.00048692156396388657
4.39175e-06;0.0005002713163714075
4.39200e-06;0.0005159817951699958
4.39225e-06;0.0005345639590909542
4.39250e-06;0.0005538483026707382
4.39275e-06;0.0005765452989322052
4.39300e-06;0.0006003991185166792
4.39325e-06;0.0006287352100232984
4.39350e-06;0.0006585907051092382
4.39375e-06;0.0006923668405067261
4.39400e-06;0.0007274719972190791
4.39425e-06;0.0007657515603927946
4.39450e-06;0.0008051071860240822
4.39475e-06;0.0008475569912400135
4.39500e-06;0.000891055663552139
4.39525e-06;0.0009385483128008686
4.39550e-06;0.000987394843063415
4.39575e-06;0.0010362413733257959
4.39600e-06;0.001088984766898934
4.39625e-06;0.0011430491218430586
4.39650e-06;0.0011971134767870002
4.39675e-06;0.0012511778317309417
4.39700e-06;0.0013052421866750663
4.39725e-06;0.001359648928685555
4.39750e-06;0.0014151003827724972
4.39775e-06;0.0014705518368592514
4.39800e-06;0.0015260032909460057
4.39825e-06;0.001581454745032948
4.39850e-06;0.001636906199119702
4.39875e-06;0.0016859120097875583
4.39900e-06;0.0017327328718734084
4.39925e-06;0.0017795537339590998
4.39950e-06;0.0018263745960447914
4.39975e-06;0.0018731954581306415
4.40000e-06;0.0019200163202163331
4.40025e-06;0.0019668371823020245
4.40050e-06;0.0019983925126137066
4.40075e-06;0.0020247731226007443
4.40100e-06;0.0020511537325877817
4.40125e-06;0.0020775343425749088
4.40150e-06;0.002103914952561946
4.40175e-06;0.0021302955625490732
4.40200e-06;0.0021566761725361106
4.40225e-06;0.002170074094625455
4.40250e-06;0.0021790711363575584
4.40275e-06;0.002188068178089631
4.40300e-06;0.0021895234151968353
4.40325e-06;0.0021884221262523486
4.40350e-06;0.002187320837307866
4.40375e-06;0.002179330571565114
4.40400e-06;0.0021690050757905317
4.40425e-06;0.002158679580015984
4.40450e-06;0.002138588263193773
4.40475e-06;0.0021151865217230842
4.40500e-06;0.0020917847802524752
4.40525e-06;0.0020683830387818658
4.40550e-06;0.002044981297311177
4.40575e-06;0.0020215795558405675
4.40600e-06;0.0019981778143698787
4.40625e-06;0.001966415337452917
4.40650e-06;0.001931818732758704
4.40675e-06;0.0018972221280643736
4.40700e-06;0.0018626255233701605
4.40725e-06;0.0018280289186759474
4.40750e-06;0.001793432313981617
4.40775e-06;0.0017588357092874038
4.40800e-06;0.001723969282450412
4.40825e-06;0.0016890113911201786
4.40850e-06;0.0016540534997900634
4.40875e-06;0.0016190956084599483
4.40900e-06;0.001584137717129715
4.40925e-06;0.0015491798257995998
4.40950e-06;0.001514221934469485
4.40975e-06;0.0014815194606218518
4.41000e-06;0.0014556988526814901
4.41025e-06;0.001429878244741041
4.41050e-06;0.001404057636800679
4.41075e-06;0.0013782370288603174
4.41100e-06;0.001352416420919868
4.41125e-06;0.0013265958129795063
4.41150e-06;0.0013007752050391444
4.41175e-06;0.0012767280905596565
4.41200e-06;0.0012532821560974946
4.41225e-06;0.0012298362216353325
4.41250e-06;0.001206390287173091
4.41275e-06;0.001182944352710929
4.41300e-06;0.001159498418248767
4.41325e-06;0.0011360524837865254
4.41350e-06;0.0011126065493243635
4.41375e-06;0.0010891606148622016
4.41400e-06;0.00106571468039996
4.41425e-06;0.001042268745937798
4.41450e-06;0.0010182693191972032
4.41475e-06;0.0009925810434213752
4.41500e-06;0.0009668927676455473
4.41525e-06;0.0009412044918696324
4.41550e-06;0.0009155162160938045
4.41575e-06;0.0008898279403179766
4.41600e-06;0.0008641396645420617
4.41625e-06;0.0008384513887662338
4.41650e-06;0.0008127631129904059
4.41675e-06;0.000787074837214491
4.41700e-06;0.0007613865614386631
4.41725e-06;0.0007356982856628352
4.41750e-06;0.0007105704752381223
4.41775e-06;0.0006856326517386617
4.41800e-06;0.0006606948282392012
4.41825e-06;0.0006357570047396561
4.41850e-06;0.0006108191812401956
4.41875e-06;0.0005868512685190813
4.41900e-06;0.0005658428060856255
4.41925e-06;0.0005448343436521699
4.41950e-06;0.000523825881218643
4.41975e-06;0.0005028174187851872
4.42000e-06;0.0004818089563517315
4.42025e-06;0.00046402382274997274
4.42050e-06;0.00044733133534342835
4.42075e-06;0.0004327571548324883
4.42100e-06;0.00041890103943071884
4.42125e-06;0.0004069652068219548
4.42150e-06;0.00039568031297767815
4.42175e-06;0.00038642842384020736
4.42200e-06;0.00037786568401812514
4.42225e-06;0.00037149064266707183
4.42250e-06;0.00036585718882852555
4.42275e-06;0.00036236312562193325
4.42300e-06;0.0003595942745037616
4.42325e-06;0.0003587091574130256
4.42350e-06;0.00035846258976139617
4.42375e-06;0.00036003873284888333
4.42400e-06;0.0003622327396597794
4.42425e-06;0.0003662147016486106
4.42450e-06;0.0003708027458971475
4.42475e-06;0.0003770168896098249
4.42500e-06;0.0003837822496224754
4.42525e-06;0.00039217936765534393
4.42550e-06;0.00040112962012931917
4.42575e-06;0.0004100798726032944
4.42600e-06;0.0004206622018893916
4.42625e-06;0.0004317977736808716
4.42650e-06;0.00044293334547235153
4.42675e-06;0.0004554510921919742
4.42700e-06;0.00046843736950672783
4.42725e-06;0.00048142364682152546
4.42750e-06;0.0004944099241362791
4.42775e-06;0.0005073962014510327
4.42800e-06;0.0005204165748395258
4.42825e-06;0.0005335409842252245
4.42850e-06;0.0005466653936109234
4.42875e-06;0.0005597898029966667
4.42900e-06;0.0005729142123823654
4.42925e-06;0.0005860386217680642
4.42950e-06;0.0005975118535041026
4.42975e-06;0.0006084253679198361
4.43000e-06;0.0006193388823355696
4.43025e-06;0.0006302523967513401
4.43050e-06;0.0006402730801420798
4.43075e-06;0.0006499911110660573
4.43100e-06;0.0006597091419900678
4.43125e-06;0.0006694271729140453
4.43150e-06;0.000683438836871066
4.43175e-06;0.0006989059594673579
4.43200e-06;0.0007143730820636498
4.43225e-06;0.0007298402046599942
4.43250e-06;0.000745307327256286
4.43275e-06;0.000760774449852578
4.43300e-06;0.0007762415724489224
4.43325e-06;0.0007917086950452142
4.43350e-06;0.0008071758176415062
4.43375e-06;0.0008226429402378505
4.43400e-06;0.0008404227243330471
4.43425e-06;0.0008652590407273523
4.43450e-06;0.0008900953571217416
4.43475e-06;0.0009149316735160469
4.43500e-06;0.000939767989910352
4.43525e-06;0.0009646043063047413
4.43550e-06;0.0009894406226990465
4.43575e-06;0.001014276939093436
4.43600e-06;0.0010391132554877411
4.43625e-06;0.0010639495718820463
4.43650e-06;0.0010887858882764356
4.43675e-06;0.0011162244404409028
4.43700e-06;0.0011445451002525754
4.43725e-06;0.0011728657600643443
4.43750e-06;0.001201186419876017
4.43775e-06;0.0012295070796876897
4.43800e-06;0.0012578277394994584
4.43825e-06;0.0012854237233106411
4.43850e-06;0.0013108085319862488
4.43875e-06;0.0013361933406619423
4.43900e-06;0.00136157814933755
4.43925e-06;0.0013869629580131573
4.43950e-06;0.001412347766688851
4.43975e-06;0.0014377325753644585
4.44000e-06;0.0014530652805488915
4.44025e-06;0.0014649905168708773
4.44050e-06;0.001476915753192863
4.44075e-06;0.001488840989514889
4.44100e-06;0.0015007662258368748
4.44125e-06;0.0015126914621588605
4.44150e-06;0.0015246166984808865
4.44175e-06;0.0015365419348028723
4.44200e-06;0.001548467171124858
4.44225e-06;0.0015603924074468842
4.44250e-06;0.00157231764376887
4.44275e-06;0.0015842428800908557
4.44300e-06;0.0015813250211490603
4.44325e-06;0.0015733756397032152
4.44350e-06;0.0015654262582573703
4.44375e-06;0.0015574768768114983
4.44400e-06;0.0015495274953656534
4.44425e-06;0.0015415781139197816
4.44450e-06;0.0015336287324739365
4.44475e-06;0.0015256793510280916
4.44500e-06;0.0015177299695822196
4.44525e-06;0.0015097805881363747
4.44550e-06;0.0015018312066905298
4.44575e-06;0.0014938818252446578
4.44600e-06;0.0014782144383405555
4.44625e-06;0.0014599307967095058
4.44650e-06;0.001441647155078394
4.44675e-06;0.0014233635134473443
4.44700e-06;0.0014050798718162946
