Time(s);Current(A)
1.75000e-06;0.01139751777532897
1.75025e-06;0.011440756119169266
1.75050e-06;0.011483994463009562
1.75075e-06;0.011527232806849894
1.75100e-06;0.01157047115069019
1.75125e-06;0.011613709494530522
1.75150e-06;0.011656947838370818
1.75175e-06;0.01170018618221115
1.75200e-06;0.011743424526051444
1.75225e-06;0.01178666286989174
1.75250e-06;0.011824790836491201
1.75275e-06;0.011859497065287376
1.75300e-06;0.011894203294083581
1.75325e-06;0.011928909522879757
1.75350e-06;0.011963615751675932
1.75375e-06;0.011998321980472137
1.75400e-06;0.01203302820926831
1.75425e-06;0.012067734438064515
1.75450e-06;0.012101196289081361
1.75475e-06;0.012123327690907714
1.75500e-06;0.012145459092734085
1.75525e-06;0.012167590494560438
1.75550e-06;0.012189721896386809
1.75575e-06;0.012211853298213162
1.75600e-06;0.012233984700039533
1.75625e-06;0.012256116101865885
1.75650e-06;0.012278247503692238
1.75675e-06;0.012296768408426086
1.75700e-06;0.01231287184497559
1.75725e-06;0.012328975281525108
1.75750e-06;0.012345078718074613
1.75775e-06;0.012361182154624117
1.75800e-06;0.012377285591173636
1.75825e-06;0.012393389027723141
1.75850e-06;0.012409492464272658
1.75875e-06;0.012425595900822163
1.75900e-06;0.012441699337371668
1.75925e-06;0.012457802773921186
1.75950e-06;0.012473906210470691
1.75975e-06;0.012490009647020208
1.76000e-06;0.012506113083569713
1.76025e-06;0.012522216520119232
1.76050e-06;0.012534873205772363
1.76075e-06;0.01254522206222149
1.76100e-06;0.012555570918670626
1.76125e-06;0.012565919775119753
1.76150e-06;0.012576268631568889
1.76175e-06;0.012586617488018016
1.76200e-06;0.012596966344467143
1.76225e-06;0.01260731520091628
1.76250e-06;0.012617664057365406
1.76275e-06;0.012628012913814542
1.76300e-06;0.01263836177026367
1.76325e-06;0.012648710626712797
1.76350e-06;0.012659059483161933
1.76375e-06;0.01266940833961106
1.76400e-06;0.012679757196060196
1.76425e-06;0.01268252479219209
1.76450e-06;0.012680216229794133
1.76475e-06;0.012677907667396173
1.76500e-06;0.012675599104998218
1.76525e-06;0.012673290542600258
1.76550e-06;0.012670981980202303
1.76575e-06;0.012668673417804343
1.76600e-06;0.012666364855406386
1.76625e-06;0.01266405629300843
1.76650e-06;0.01266174773061047
1.76675e-06;0.012659439168212515
1.76700e-06;0.012657130605814556
1.76725e-06;0.01265337046754228
1.76750e-06;0.012636393276570904
1.76775e-06;0.012619416085599515
1.76800e-06;0.01260243889462814
1.76825e-06;0.01258546170365675
1.76850e-06;0.012568484512685376
1.76875e-06;0.012551507321714
1.76900e-06;0.012534530130742612
1.76925e-06;0.012517552939771236
1.76950e-06;0.012500575748799847
1.76975e-06;0.012483598557828471
1.77000e-06;0.012466621366857082
1.77025e-06;0.012449644175885706
1.77050e-06;0.012429547865225354
1.77075e-06;0.012407363096267585
1.77100e-06;0.012385178327309834
1.77125e-06;0.012362993558352063
1.77150e-06;0.012340808789394312
1.77175e-06;0.01231862402043656
1.77200e-06;0.012296439251478792
1.77225e-06;0.012275874878537815
1.77250e-06;0.012256395468613223
1.77275e-06;0.012236916058688648
1.77300e-06;0.012217436648764072
1.77325e-06;0.012197957238839482
1.77350e-06;0.012178477828914906
1.77375e-06;0.012158998418990314
1.77400e-06;0.012140031404613612
1.77425e-06;0.012121407473170606
1.77450e-06;0.012102783541727615
1.77475e-06;0.012084159610284624
1.77500e-06;0.012065535678841617
1.77525e-06;0.012046911747398626
1.77550e-06;0.01202828781595562
1.77575e-06;0.012009663884512628
1.77600e-06;0.011990031856139784
1.77625e-06;0.011961220789673542
1.77650e-06;0.011932409723207324
1.77675e-06;0.011903598656741081
1.77700e-06;0.011874787590274863
1.77725e-06;0.011845976523808645
1.77750e-06;0.011817165457342403
1.77775e-06;0.011788354390876185
1.77800e-06;0.011759543324409942
1.77825e-06;0.01172459055420959
1.77850e-06;0.011685525504455308
1.77875e-06;0.011646460454701059
1.77900e-06;0.01160739540494681
1.77925e-06;0.011568330355192528
1.77950e-06;0.01152926530543828
1.77975e-06;0.011490200255683997
1.78000e-06;0.01145113520592975
1.78025e-06;0.011412070156175501
1.78050e-06;0.011371817067471944
1.78075e-06;0.011330768507594336
1.78100e-06;0.011289719947716693
1.78125e-06;0.011248671387839086
1.78150e-06;0.01120762282796148
1.78175e-06;0.011166574268083837
1.78200e-06;0.011125525708206229
1.78225e-06;0.011084477148328586
1.78250e-06;0.011043428588450978
1.78275e-06;0.011004718732333418
1.78300e-06;0.01097307172101739
1.78325e-06;0.010945105268254906
1.78350e-06;0.010917138815492397
1.78375e-06;0.010889172362729913
1.78400e-06;0.010861205909967404
1.78425e-06;0.01083323945720492
1.78450e-06;0.010805273004442435
1.78475e-06;0.010777306551679928
1.78500e-06;0.010763655927969136
1.78525e-06;0.010759590704930936
1.78550e-06;0.01075552548189274
1.78575e-06;0.010751460258854543
1.78600e-06;0.010747395035816343
1.78625e-06;0.010743329812778146
1.78650e-06;0.010739264589739946
1.78675e-06;0.01073519936670175
1.78700e-06;0.01074869875183833
1.78725e-06;0.010773958811568196
1.78750e-06;0.01079921887129806
1.78775e-06;0.010824478931027948
1.78800e-06;0.010849738990757814
1.78825e-06;0.0108749990504877
1.78850e-06;0.010900259110217567
1.78875e-06;0.010925519169947431
1.78900e-06;0.010950779229677318
1.78925e-06;0.010976039289407184
1.78950e-06;0.01100129934913707
1.78975e-06;0.011028140262087193
1.79000e-06;0.011069375338431726
1.79025e-06;0.011110610414776293
1.79050e-06;0.011151845491120827
1.79075e-06;0.011193080567465395
1.79100e-06;0.011234315643809927
1.79125e-06;0.011275550720154496
1.79150e-06;0.01131678579649903
1.79175e-06;0.011358020872843561
1.79200e-06;0.01139925594918813
1.79225e-06;0.011440491025532663
1.79250e-06;0.01148172610187723
1.79275e-06;0.01151539847885677
1.79300e-06;0.011544007125100581
1.79325e-06;0.011572615771344417
1.79350e-06;0.011601224417588226
1.79375e-06;0.011629833063832062
1.79400e-06;0.011658441710075872
1.79425e-06;0.011687050356319683
1.79450e-06;0.011715659002563519
1.79475e-06;0.011744267648807328
1.79500e-06;0.011772876295051164
1.79525e-06;0.0117870872517232
1.79550e-06;0.011791657996654901
1.79575e-06;0.0117962287415866
1.79600e-06;0.011800799486518297
1.79625e-06;0.011805370231449999
1.79650e-06;0.011809940976381697
1.79675e-06;0.011814511721313398
1.79700e-06;0.011819082466245096
1.79725e-06;0.011823653211176795
1.79750e-06;0.011828223956108495
1.79775e-06;0.011819646805846767
1.79800e-06;0.011802266264390156
1.79825e-06;0.011784885722933559
1.79850e-06;0.011767505181476961
1.79875e-06;0.01175012464002035
1.79900e-06;0.011732744098563752
1.79925e-06;0.01171536355710714
1.79950e-06;0.011697983015650544
1.79975e-06;0.01168060247419393
1.80000e-06;0.011663221932737333
1.80025e-06;0.011645841391280738
1.80050e-06;0.011628460849824124
1.80075e-06;0.011611080308367527
1.80100e-06;0.011593699766910916
1.80125e-06;0.011574200175553512
1.80150e-06;0.011553281739205074
1.80175e-06;0.011532363302856619
1.80200e-06;0.01151144486650818
1.80225e-06;0.011490526430159725
1.80250e-06;0.011469607993811286
1.80275e-06;0.011448689557462848
1.80300e-06;0.01142777112111439
1.80325e-06;0.011406852684765953
1.80350e-06;0.011385934248417497
1.80375e-06;0.011365015812069059
1.80400e-06;0.01134409737572062
1.80425e-06;0.011323178939372165
1.80450e-06;0.011302260503023727
1.80475e-06;0.011292439310871167
1.80500e-06;0.011290048462541733
1.80525e-06;0.011287657614212297
1.80550e-06;0.011285266765882863
1.80575e-06;0.011282875917553429
1.80600e-06;0.011280485069223993
1.80625e-06;0.011278094220894559
1.80650e-06;0.011275703372565123
1.80675e-06;0.011273312524235688
1.80700e-06;0.011270921675906256
1.80725e-06;0.011268530827576818
1.80750e-06;0.011266139979247386
1.80775e-06;0.011263749130917948
1.80800e-06;0.011271490450150001
1.80825e-06;0.011286015930145289
1.80850e-06;0.011300541410140587
1.80875e-06;0.011315066890135875
1.80900e-06;0.011329592370131175
1.80925e-06;0.011344117850126463
1.80950e-06;0.011358643330121761
1.80975e-06;0.01137316881011705
1.81000e-06;0.011387694290112337
1.81025e-06;0.011402219770107637
1.81050e-06;0.011416745250102923
1.81075e-06;0.011431270730098224
1.81100e-06;0.011445796210093511
1.81125e-06;0.011461709954107653
1.81150e-06;0.011478553233310446
1.81175e-06;0.011495396512513224
1.81200e-06;0.011512239791716016
1.81225e-06;0.011529083070918796
1.81250e-06;0.011545926350121574
1.81275e-06;0.011562769629324367
1.81300e-06;0.011579612908527145
1.81325e-06;0.011596456187729937
1.81350e-06;0.011613299466932717
1.81375e-06;0.011629234172455415
1.81400e-06;0.011636896030230694
1.81425e-06;0.011644557888005974
1.81450e-06;0.01165221974578126
1.81475e-06;0.01165988160355654
1.81500e-06;0.011667543461331826
1.81525e-06;0.011675205319107106
1.81550e-06;0.011682867176882385
1.81575e-06;0.011690529034657672
1.81600e-06;0.011698190892432951
1.81625e-06;0.011705852750208239
1.81650e-06;0.011706292766281571
1.81675e-06;0.011701897278518938
1.81700e-06;0.011697501790756301
1.81725e-06;0.01169310630299367
1.81750e-06;0.011688710815231033
1.81775e-06;0.0116843153274684
1.81800e-06;0.011679919839705764
1.81825e-06;0.01167552435194313
1.81850e-06;0.011671128864180497
1.81875e-06;0.01166673337641786
1.81900e-06;0.01166233788865523
1.81925e-06;0.011657942400892593
1.81950e-06;0.01165354691312996
1.81975e-06;0.011649151425367326
1.82000e-06;0.01164475593760469
1.82025e-06;0.011640360449842057
1.82050e-06;0.01163596496207942
1.82075e-06;0.011631569474316787
1.82100e-06;0.011627173986554155
1.82125e-06;0.011622778498791519
1.82150e-06;0.011618383011028886
1.82175e-06;0.011613495868732332
1.82200e-06;0.011608279530991911
1.82225e-06;0.011603063193251486
1.82250e-06;0.011597846855511065
1.82275e-06;0.011592630517770644
1.82300e-06;0.011587414180030217
1.82325e-06;0.011582197842289796
1.82350e-06;0.011576981504549371
1.82375e-06;0.01157176516680895
1.82400e-06;0.011566548829068529
1.82425e-06;0.011561332491328102
1.82450e-06;0.01155611615358768
1.82475e-06;0.011550899815847254
1.82500e-06;0.011545683478106833
1.82525e-06;0.011540467140366412
1.82550e-06;0.011535250802625987
1.82575e-06;0.011530034464885566
1.82600e-06;0.011524818127145139
1.82625e-06;0.011519601789404718
1.82650e-06;0.011514385451664293
1.82675e-06;0.011509169113923872
1.82700e-06;0.011509490954119446
1.82725e-06;0.011513520973164324
1.82750e-06;0.011517550992209202
1.82775e-06;0.01152158101125408
1.82800e-06;0.011525611030298956
1.82825e-06;0.011529641049343833
1.82850e-06;0.011533671068388712
1.82875e-06;0.011537701087433587
1.82900e-06;0.011541731106478468
1.82925e-06;0.011545761125523343
1.82950e-06;0.01154979114456822
1.82975e-06;0.0115538211636131
1.83000e-06;0.011557851182657975
1.83025e-06;0.011561881201702855
1.83050e-06;0.01156591122074773
1.83075e-06;0.011570797869921986
1.83100e-06;0.011576258090000614
1.83125e-06;0.01158171831007924
1.83150e-06;0.011587178530157873
1.83175e-06;0.011592638750236499
1.83200e-06;0.011598098970315131
1.83225e-06;0.01160355919039376
1.83250e-06;0.011609019410472385
1.83275e-06;0.011614479630551018
1.83300e-06;0.011619939850629644
1.83325e-06;0.011625400070708277
1.83350e-06;0.011630860290786905
1.83375e-06;0.01163632051086553
1.83400e-06;0.011641780730944164
1.83425e-06;0.01164724095102279
1.83450e-06;0.011644947100609914
1.83475e-06;0.011637461383752221
1.83500e-06;0.011629975666894521
1.83525e-06;0.011622489950036827
1.83550e-06;0.011615004233179134
1.83575e-06;0.011607518516321434
1.83600e-06;0.011600032799463741
1.83625e-06;0.011592547082606042
1.83650e-06;0.011585061365748347
1.83675e-06;0.011577575648890654
1.83700e-06;0.011570089932032955
1.83725e-06;0.01155220705439989
1.83750e-06;0.011527362585405293
1.83775e-06;0.01150251811641072
1.83800e-06;0.011477673647416146
1.83825e-06;0.01145282917842155
1.83850e-06;0.011427984709426976
1.83875e-06;0.011403140240432381
1.83900e-06;0.011378295771437806
1.83925e-06;0.011353451302443212
1.83950e-06;0.011328606833448638
1.83975e-06;0.011303762364454063
1.84000e-06;0.011274624435568006
1.84025e-06;0.01124261174943462
1.84050e-06;0.011210599063301208
1.84075e-06;0.011178586377167822
1.84100e-06;0.011146573691034436
1.84125e-06;0.011114561004901023
1.84150e-06;0.011082548318767637
1.84175e-06;0.011050535632634225
1.84200e-06;0.011018522946500839
1.84225e-06;0.010986510260367453
1.84250e-06;0.01095449757423404
1.84275e-06;0.010922484888100653
1.84300e-06;0.01089203516813022
1.84325e-06;0.010875816744286837
1.84350e-06;0.010859598320443453
1.84375e-06;0.010843379896600057
1.84400e-06;0.010827161472756672
1.84425e-06;0.010810943048913276
1.84450e-06;0.010794724625069892
1.84475e-06;0.010778506201226496
1.84500e-06;0.010762287777383112
1.84525e-06;0.01074606935353973
1.84550e-06;0.010729850929696333
1.84575e-06;0.010713632505852949
1.84600e-06;0.010697414082009553
1.84625e-06;0.010699620355379351
1.84650e-06;0.010714163190212615
1.84675e-06;0.010728706025045892
1.84700e-06;0.010743248859879156
1.84725e-06;0.010757791694712433
1.84750e-06;0.010772334529545697
1.84775e-06;0.010786877364378961
1.84800e-06;0.010801420199212238
1.84825e-06;0.010815963034045502
1.84850e-06;0.010830505868878779
1.84875e-06;0.010845048703712043
1.84900e-06;0.010859591538545321
1.84925e-06;0.010884985656982836
1.84950e-06;0.01091764543224988
1.84975e-06;0.010950305207516952
1.85000e-06;0.010982964982783998
1.85025e-06;0.01101562475805107
1.85050e-06;0.011048284533318114
1.85075e-06;0.01108094430858516
1.85100e-06;0.011113604083852232
1.85125e-06;0.011146263859119276
1.85150e-06;0.01117892363438635
1.85175e-06;0.011211583409653393
1.85200e-06;0.011244243184920438
1.85225e-06;0.011273462802366364
1.85250e-06;0.011300379005112304
1.85275e-06;0.011327295207858268
1.85300e-06;0.011354211410604208
1.85325e-06;0.011381127613350172
1.85350e-06;0.011408043816096112
1.85375e-06;0.011434960018842054
1.85400e-06;0.011461876221588016
1.85425e-06;0.011488792424333958
1.85450e-06;0.011513507738367566
1.85475e-06;0.011518183271794002
1.85500e-06;0.011522858805220438
1.85525e-06;0.011527534338646877
1.85550e-06;0.011532209872073311
1.85575e-06;0.01153688540549975
1.85600e-06;0.011541560938926186
1.85625e-06;0.01154623647235262
1.85650e-06;0.01155091200577906
1.85675e-06;0.011555587539205495
1.85700e-06;0.011544115037358589
1.85725e-06;0.01152183035079319
1.85750e-06;0.011499545664227772
1.85775e-06;0.011477260977662372
1.85800e-06;0.011454976291096973
1.85825e-06;0.011432691604531557
1.85850e-06;0.011410406917966158
1.85875e-06;0.01138812223140074
1.85900e-06;0.01136583754483534
1.85925e-06;0.011343552858269941
1.85950e-06;0.011321268171704523
1.85975e-06;0.011298983485139124
1.86000e-06;0.011276698798573705
1.86025e-06;0.01124764767656356
1.86050e-06;0.011214065975527876
1.86075e-06;0.011180484274492164
1.86100e-06;0.011146902573456482
1.86125e-06;0.01111332087242077
1.86150e-06;0.011079739171385088
1.86175e-06;0.011046157470349377
1.86200e-06;0.011012575769313693
1.86225e-06;0.01097899406827801
1.86250e-06;0.010945412367242299
1.86275e-06;0.010911830666206617
1.86300e-06;0.010878248965170905
1.86325e-06;0.010844667264135221
1.86350e-06;0.010817455265152123
1.86375e-06;0.010794508205774723
1.86400e-06;0.010771561146397345
1.86425e-06;0.010748614087019945
1.86450e-06;0.010725667027642567
1.86475e-06;0.010702719968265188
1.86500e-06;0.010679772908887789
1.86525e-06;0.01065682584951041
1.86550e-06;0.01063387879013301
1.86575e-06;0.010610931730755632
1.86600e-06;0.010587984671378232
1.86625e-06;0.010565318071999615
1.86650e-06;0.010545205148693648
1.86675e-06;0.010525092225387661
1.86700e-06;0.010504979302081694
1.86725e-06;0.010484866378775708
1.86750e-06;0.01046475345546974
1.86775e-06;0.010444640532163771
1.86800e-06;0.010424527608857787
1.86825e-06;0.010404414685551817
1.86850e-06;0.010384301762245833
1.86875e-06;0.010364188838939864
1.86900e-06;0.010344075915633896
1.86925e-06;0.010324819892239758
1.86950e-06;0.010306137620387214
1.86975e-06;0.010287455348534652
1.87000e-06;0.010268773076682107
1.87025e-06;0.010250090804829547
1.87050e-06;0.010231408532977002
1.87075e-06;0.010212726261124457
1.87100e-06;0.010194043989271895
1.87125e-06;0.01017536171741935
1.87150e-06;0.01015667944556679
1.87175e-06;0.010137997173714245
1.87200e-06;0.0101193149018617
1.87225e-06;0.01010063263000914
1.87250e-06;0.010081950358156594
1.87275e-06;0.010063268086304034
1.87300e-06;0.010044585814451489
1.87325e-06;0.010025903542598944
1.87350e-06;0.010013983490342448
1.87375e-06;0.010009128943173715
1.87400e-06;0.01000427439600498
1.87425e-06;0.009999419848836247
1.87450e-06;0.009994565301667509
1.87475e-06;0.009989710754498777
1.87500e-06;0.009984856207330044
1.87525e-06;0.009980001660161308
1.87550e-06;0.009975147112992576
1.87575e-06;0.009970292565823838
1.87600e-06;0.009965438018655105
1.87625e-06;0.009960583471486373
1.87650e-06;0.009955728924317637
1.87675e-06;0.009950874377148904
1.87700e-06;0.009946019829980167
1.87725e-06;0.009941165282811434
1.87750e-06;0.009936310735642702
1.87775e-06;0.00993763058562124
1.87800e-06;0.009949062639376982
1.87825e-06;0.009960494693132732
1.87850e-06;0.009971926746888474
1.87875e-06;0.009983358800644215
1.87900e-06;0.009994790854399966
1.87925e-06;0.010006222908155707
1.87950e-06;0.010017654961911458
1.87975e-06;0.0100290870156672
1.88000e-06;0.010040519069422951
1.88025e-06;0.010051951123178691
1.88050e-06;0.010063383176934433
1.88075e-06;0.010074815230690183
1.88100e-06;0.010088536156677305
1.88125e-06;0.01010282450232212
1.88150e-06;0.010117112847966922
1.88175e-06;0.010131401193611724
1.88200e-06;0.010145689539256536
1.88225e-06;0.010159977884901339
1.88250e-06;0.010174266230546153
1.88275e-06;0.010188554576190955
1.88300e-06;0.010202842921835755
1.88325e-06;0.01021713126748057
1.88350e-06;0.010231419613125372
1.88375e-06;0.010245707958770186
1.88400e-06;0.01025998230831398
1.88425e-06;0.01027420805368067
1.88450e-06;0.010288433799047349
1.88475e-06;0.010302659544414028
1.88500e-06;0.01031688528978072
1.88525e-06;0.0103311110351474
1.88550e-06;0.010345336780514091
1.88575e-06;0.01035956252588077
1.88600e-06;0.010373788271247448
1.88625e-06;0.010390864072033216
1.88650e-06;0.010417837243399801
1.88675e-06;0.010444810414766411
1.88700e-06;0.010471783586132996
1.88725e-06;0.010498756757499582
1.88750e-06;0.01052572992886619
1.88775e-06;0.010552703100232775
1.88800e-06;0.010579676271599385
1.88825e-06;0.01060664944296597
1.88850e-06;0.010636270743703326
1.88875e-06;0.01067508818762873
1.88900e-06;0.010713905631554131
1.88925e-06;0.010752723075479568
1.88950e-06;0.010791540519404971
1.88975e-06;0.010830357963330406
1.89000e-06;0.010869175407255809
1.89025e-06;0.010907992851181212
1.89050e-06;0.010946810295106647
1.89075e-06;0.01098562773903205
1.89100e-06;0.011024445182957487
1.89125e-06;0.011063262626882888
1.89150e-06;0.011098523362479946
1.89175e-06;0.011132425366841127
1.89200e-06;0.011166327371202277
1.89225e-06;0.011200229375563458
1.89250e-06;0.011234131379924609
1.89275e-06;0.01126803338428579
1.89300e-06;0.01130193538864694
1.89325e-06;0.011335837393008091
1.89350e-06;0.011369739397369271
1.89375e-06;0.011403641401730424
1.89400e-06;0.011437543406091603
1.89425e-06;0.011465137788872126
1.89450e-06;0.01147082773153358
1.89475e-06;0.011476517674195039
1.89500e-06;0.011482207616856492
1.89525e-06;0.011487897559517951
1.89550e-06;0.011493587502179405
1.89575e-06;0.011499277444840859
1.89600e-06;0.011504967387502318
1.89625e-06;0.011510657330163772
1.89650e-06;0.011492142896326865
1.89675e-06;0.011464381923455367
1.89700e-06;0.011436620950583844
1.89725e-06;0.011408859977712345
1.89750e-06;0.011381099004840849
1.89775e-06;0.011353338031969326
1.89800e-06;0.011325577059097827
1.89825e-06;0.011297816086226306
1.89850e-06;0.011264032901068442
1.89875e-06;0.011209336414958665
1.89900e-06;0.011154639928848843
1.89925e-06;0.011099943442739065
1.89950e-06;0.011045246956629243
1.89975e-06;0.010990550470519465
1.90000e-06;0.010935853984409688
1.90025e-06;0.010881157498299866
1.90050e-06;0.010826461012190088
1.90075e-06;0.010771764526080266
1.90100e-06;0.010717068039970488
1.90125e-06;0.010661007224815802
1.90150e-06;0.010604425209630671
1.90175e-06;0.010547843194445539
1.90200e-06;0.01049126117926036
