Time(s);Current(A)
6.75000e-06;-0.0007099867021650899
6.75025e-06;-0.0007200624064772365
6.75050e-06;-0.0007311854248165504
6.75075e-06;-0.0007423084431558267
6.75100e-06;-0.0007560083833784533
6.75125e-06;-0.0007709288426506967
6.75150e-06;-0.0007858493019228894
6.75175e-06;-0.0008007697611950822
6.75200e-06;-0.0008156902204673255
6.75225e-06;-0.0008306106797395183
6.75250e-06;-0.0008459316366863654
6.75275e-06;-0.0008630945953479522
6.75300e-06;-0.0008802575540094808
6.75325e-06;-0.0008974205126710095
6.75350e-06;-0.0009145834713325962
6.75375e-06;-0.0009317464299941248
6.75400e-06;-0.0009489093886556534
6.75425e-06;-0.0009648935518704246
6.75450e-06;-0.000980319396919746
6.75475e-06;-0.0009957452419690677
6.75500e-06;-0.0010111710870184417
6.75525e-06;-0.0010265969320677633
6.75550e-06;-0.0010420227771171372
6.75575e-06;-0.001052990931829587
6.75600e-06;-0.0010618477707090728
6.75625e-06;-0.0010707046095885888
6.75650e-06;-0.0010795614484680747
6.75675e-06;-0.0010884182873475605
6.75700e-06;-0.0010972751262270765
6.75725e-06;-0.0011004856328341885
6.75750e-06;-0.0011010218418065233
6.75775e-06;-0.0011015580507788602
6.75800e-06;-0.0010981057431523572
6.75825e-06;-0.0010927643365511866
6.75850e-06;-0.0010874229299499979
6.75875e-06;-0.0010777989469681094
6.75900e-06;-0.001066146588160486
6.75925e-06;-0.0010544942293528232
6.75950e-06;-0.0010390210683504303
6.75975e-06;-0.0010217382436974816
6.76000e-06;-0.0010044554190445911
6.76025e-06;-0.0009837825725292754
6.76050e-06;-0.0009615040947809648
6.76075e-06;-0.0009392256170327297
6.76100e-06;-0.0009140590098204089
6.76125e-06;-0.0008875244849188594
6.76150e-06;-0.0008609899600173997
6.76175e-06;-0.0008320206954342573
6.76200e-06;-0.0008018982541945003
6.76225e-06;-0.0007717758129548453
6.76250e-06;-0.0007416533717151902
6.76275e-06;-0.0007115309304754332
6.76300e-06;-0.0006804875609899278
6.76325e-06;-0.0006490080081360753
6.76350e-06;-0.000617528455282116
6.76375e-06;-0.0005860489024282636
6.76400e-06;-0.0005545693495743044
6.76425e-06;-0.0005243715097487462
6.76450e-06;-0.0004947807334033641
6.76475e-06;-0.00046518995705788164
6.76500e-06;-0.00043739332852599656
6.76525e-06;-0.00041044647025590276
6.76550e-06;-0.00038499104965123923
6.76575e-06;-0.0003614230175663441
6.76600e-06;-0.00033975862680769007
6.76625e-06;-0.00032035755900275604
6.76650e-06;-0.00030368731071588154
6.76675e-06;-0.00029006266092249257
6.76700e-06;-0.0002795664559551268
6.76725e-06;-0.0002721958909280377
6.76750e-06;-0.00026794078885465883
6.76775e-06;-0.0002667909238949411
6.76800e-06;-0.00026875064652467375
6.76825e-06;-0.00027390583427137335
6.76850e-06;-0.0002824097978421228
6.76875e-06;-0.00029432021313078335
6.76900e-06;-0.0003095494765553418
6.76925e-06;-0.00032795632195243115
6.76950e-06;-0.0003493948414244577
6.76975e-06;-0.00037371916761467995
6.77000e-06;-0.00040079252633820763
6.77025e-06;-0.000430529204235015
6.77050e-06;-0.000462885783227698
6.77075e-06;-0.0004985226079622497
6.77100e-06;-0.0005353159032562961
6.77125e-06;-0.0005748507523667953
6.77150e-06;-0.0006156840958856932
6.77175e-06;-0.0006590480796520985
6.77200e-06;-0.0007036106618892745
6.77225e-06;-0.0007481732441262997
6.77250e-06;-0.0007948738229383171
6.77275e-06;-0.000842587030640141
6.77300e-06;-0.0008903002383419651
6.77325e-06;-0.0009380134460439508
6.77350e-06;-0.0009855602924732664
6.77375e-06;-0.00103234199651001
6.77400e-06;-0.001079123700546912
6.77425e-06;-0.0011259054045836554
6.77450e-06;-0.001172687108620399
6.77475e-06;-0.0012161721849045155
6.77500e-06;-0.0012580958646263676
6.77525e-06;-0.0013000195443482196
6.77550e-06;-0.001337146418314858
6.77575e-06;-0.0013720013596953788
6.77600e-06;-0.0014068563010758994
6.77625e-06;-0.0014351635604677637
6.77650e-06;-0.0014603696119241951
6.77675e-06;-0.0014855756633807122
6.77700e-06;-0.0015034467047012085
6.77725e-06;-0.0015178436323311166
6.77750e-06;-0.0015322405599610732
6.77775e-06;-0.001538971577909979
6.77800e-06;-0.0015420717567353377
6.77825e-06;-0.0015451719355607067
6.77850e-06;-0.0015405561721460914
6.77875e-06;-0.0015322858724630768
6.77900e-06;-0.0015240155727800342
6.77925e-06;-0.0015085876678817842
6.77950e-06;-0.001489769674379962
6.77975e-06;-0.001470951680878076
6.78000e-06;-0.0014456786182871957
6.78025e-06;-0.0014173482124235728
6.78050e-06;-0.001389017806559854
6.78075e-06;-0.0013552256095666177
6.78100e-06;-0.0013188465199875084
6.78125e-06;-0.0012824674304085222
6.78150e-06;-0.0012419169947265234
6.78175e-06;-0.001199390865714073
6.78200e-06;-0.0011568647367017663
6.78225e-06;-0.0011111502872601408
6.78250e-06;-0.0010639257393390074
6.78275e-06;-0.001016701191418034
6.78300e-06;-0.0009694766434970608
6.78325e-06;-0.0009221083943100727
6.78350e-06;-0.0008740792224897748
6.78375e-06;-0.0008260500506694768
6.78400e-06;-0.0007780208788490161
6.78425e-06;-0.0007299917070287182
6.78450e-06;-0.0006838670135922418
6.78475e-06;-0.000638644346779028
6.78500e-06;-0.0005957799317152548
6.78525e-06;-0.0005540324659854
6.78550e-06;-0.0005145965044785377
6.78575e-06;-0.00047808583173354884
6.78600e-06;-0.0004447508704248495
6.78625e-06;-0.0004125094045129594
6.78650e-06;-0.00038026793860106937
6.78675e-06;-0.0003464992551604539
6.78700e-06;-0.00031023514802246084
6.78725e-06;-0.0002731317223110675
6.78750e-06;-0.00023475825300709184
6.78775e-06;-0.00019527119694595513
6.78800e-06;-0.00015517574323505547
6.78825e-06;-0.0001140866712343794
6.78850e-06;-7.088377216915913e-05
6.78875e-06;-2.4780174740809574e-05
6.78900e-06;2.418610027433963e-05
6.78925e-06;7.564431336836317e-05
6.78950e-06;0.0001291931392218546
6.78975e-06;0.00018443132917261295
6.79000e-06;0.00024102328228019907
6.79025e-06;0.0002990407342546511
6.79050e-06;0.0003590157926742565
6.79075e-06;0.0004219405516098102
6.79100e-06;0.00048593181302334797
6.79125e-06;0.0005523149928316426
6.79150e-06;0.0006198310676579625
6.79175e-06;0.0006873471424845113
6.79200e-06;0.0007562267537617981
6.79225e-06;0.0008257521829128964
6.79250e-06;0.0008952776120642302
6.79275e-06;0.0009648030412153284
6.79300e-06;0.0010341567218845754
6.79325e-06;0.0011027204828674528
6.79350e-06;0.001171284243850098
6.79375e-06;0.0012398480048329756
6.79400e-06;0.0013084117658156208
6.79425e-06;0.0013730961426203759
6.79450e-06;0.0014359431093292887
6.79475e-06;0.0014987900760379887
6.79500e-06;0.0015566870320286284
6.79525e-06;0.0016122394922820553
6.79550e-06;0.001667791952535294
6.79575e-06;0.001717273712249588
6.79600e-06;0.0017638801788895327
6.79625e-06;0.0018040477711888613
6.79650e-06;0.001841165690607822
6.79675e-06;0.00187082750793085
6.79700e-06;0.0018969578582374801
6.79725e-06;0.0019154301460739508
6.79750e-06;0.00193027531149805
6.79775e-06;0.0019373464442468623
6.79800e-06;0.0019407355270958996
6.79825e-06;0.0019361240877752033
6.79850e-06;0.001927723325321528
6.79875e-06;0.0019113234626760534
6.79900e-06;0.00189113495039547
6.79925e-06;0.0018634596449937449
6.79950e-06;0.0018322383362481952
6.79975e-06;0.0017940963001201401
6.80000e-06;0.0017526763688983868
6.80025e-06;0.0017048324151059697
6.80050e-06;0.0016539458227438936
6.80075e-06;0.0015960271147232126
6.80100e-06;0.0015347777542808435
6.80125e-06;0.001473528393838682
6.80150e-06;0.0014057863608885118
6.80175e-06;0.00133496917439112
6.80200e-06;0.001264151987893968
6.80225e-06;0.0011886124816124356
6.80250e-06;0.0011108363218705198
6.80275e-06;0.001033060162128604
6.80300e-06;0.0009552840023864249
6.80325e-06;0.0008763109025454361
6.80350e-06;0.0007967708906067748
6.80375e-06;0.000717230878667844
6.80400e-06;0.0006376908667291827
6.80425e-06;0.0005603646967752627
6.80450e-06;0.0004840870787113905
6.80475e-06;0.00041001627174135145
6.80500e-06;0.00033892840809761316
6.80525e-06;0.00027105285540235223
6.80550e-06;0.00020691542268604923
6.80575e-06;0.00014704186492717707
6.80600e-06;9.178290180271041e-05
6.80625e-06;4.039191826407337e-05
6.80650e-06;-9.147961928877161e-06
6.80675e-06;-5.8356781530850495e-05
6.80700e-06;-0.0001074136179488389
6.80725e-06;-0.00015595064829027614
6.80750e-06;-0.00020354935635676186
6.80775e-06;-0.00024979128779486614
6.80800e-06;-0.0002939611314605581
6.80825e-06;-0.0003373765765188542
6.80850e-06;-0.00038079202157715035
6.80875e-06;-0.000425150425665757
6.80900e-06;-0.00046995544766112506
6.80925e-06;-0.0005147604696564931
6.80950e-06;-0.0005595654916520131
6.80975e-06;-0.0006043705136473813
6.81000e-06;-0.0006491755356427493
6.81025e-06;-0.0006942085395513026
6.81050e-06;-0.0007393495235538033
6.81075e-06;-0.000784490507556457
6.81100e-06;-0.0008296314915589579
6.81125e-06;-0.0008747724755614586
6.81150e-06;-0.0009199661912479482
6.81175e-06;-0.0009651848824777685
6.81200e-06;-0.0010104035737075888
6.81225e-06;-0.001055622264937562
6.81250e-06;-0.0011008409561673823
6.81275e-06;-0.0011445133964295721
6.81300e-06;-0.001187453478923887
6.81325e-06;-0.0012303935614180566
6.81350e-06;-0.001273333643912226
6.81375e-06;-0.001316273726406541
6.81400e-06;-0.0013592138089007105
6.81425e-06;-0.0013973016021636522
6.81450e-06;-0.0014330911839555815
6.81475e-06;-0.0014688807657473899
6.81500e-06;-0.0015046703475393192
6.81525e-06;-0.0015404599293311273
6.81550e-06;-0.0015762495111229357
6.81575e-06;-0.0016056977952299159
6.81600e-06;-0.0016321426221259077
6.81625e-06;-0.0016585874490218997
6.81650e-06;-0.0016777403464465414
6.81675e-06;-0.0016934395346715127
6.81700e-06;-0.001701869689903994
6.81725e-06;-0.0017068569804987376
6.81750e-06;-0.0017047945782060708
6.81775e-06;-0.0016993931983116056
6.81800e-06;-0.0016869778724764152
6.81825e-06;-0.0016712405000258847
6.81850e-06;-0.0016475875290900958
6.81875e-06;-0.0016201854578077354
6.81900e-06;-0.0015849546076964077
6.81925e-06;-0.0015460157780209588
6.81950e-06;-0.001500080974626698
6.81975e-06;-0.0014508326368810314
6.82000e-06;-0.0013953059503090935
6.82025e-06;-0.0013368056212765531
6.82050e-06;-0.001272157607395541
6.82075e-06;-0.0012045978380182
6.82100e-06;-0.0011316399636908763
6.82125e-06;-0.0010561253607503465
6.82150e-06;-0.0009764295895240521
6.82175e-06;-0.0008947534728451883
6.82200e-06;-0.0008100407221661606
6.82225e-06;-0.0007238897169312993
6.82250e-06;-0.0006351444445164387
6.82275e-06;-0.0005451704377232874
6.82300e-06;-0.00045519643092983126
6.82325e-06;-0.0003644591840331381
6.82350e-06;-0.00027336044030912407
6.82375e-06;-0.00018289828848250722
6.82400e-06;-9.36386197060469e-05
6.82425e-06;-6.003036785506312e-06
6.82450e-06;7.960614619972982e-05
6.82475e-06;0.00016273296081538872
6.82500e-06;0.0002428246057161182
6.82525e-06;0.0003192912208648198
6.82550e-06;0.00039153965980150585
6.82575e-06;0.00045897693510510955
6.82600e-06;0.0005210433822766462
6.82625e-06;0.0005774166318998599
6.82650e-06;0.0006281254686966932
6.82675e-06;0.0006732584952828861
6.82700e-06;0.0007127444963364003
6.82725e-06;0.0007464311729795499
6.82750e-06;0.0007741576787367228
6.82775e-06;0.000795763185841009
6.82800e-06;0.0008111079196992985
6.82825e-06;0.0008202006410832106
6.82850e-06;0.0008232701029942238
6.82875e-06;0.0008205825419132498
6.82900e-06;0.0008123040547484006
6.82925e-06;0.0007985499255458412
6.82950e-06;0.0007794301293682406
6.82975e-06;0.0007550545996959139
6.83000e-06;0.0007255465043871453
6.83025e-06;0.0006911220774368564
6.83050e-06;0.0006521352309190972
6.83075e-06;0.0006089634199771299
6.83100e-06;0.000561921288515074
6.83125e-06;0.0005112916797929624
6.83150e-06;0.0004573541069983154
6.83175e-06;0.00040038804381981345
6.83200e-06;0.00034068116110996
6.83225e-06;0.00027857943145053404
6.83250e-06;0.00021451511113117013
6.83275e-06;0.00014893513473100692
6.83300e-06;8.224707898312733e-05
6.83325e-06;1.4838542833545925e-05
6.83350e-06;-5.284584899598667e-05
6.83375e-06;-0.00012057007684305244
6.83400e-06;-0.00018785015784240333
6.83425e-06;-0.0002542341477858988
6.83450e-06;-0.0003192689953730044
6.83475e-06;-0.0003824644749409102
6.83500e-06;-0.00044335508284915303
6.83525e-06;-0.0005014877785701799
6.83550e-06;-0.0005564109309460193
6.83575e-06;-0.0006076730044428627
6.83600e-06;-0.000654816873321463
6.83625e-06;-0.0006973776993468391
6.83650e-06;-0.0007349543716011397
6.83675e-06;-0.0007673081557862709
6.83700e-06;-0.0007943333325534577
6.83725e-06;-0.0008159633125250493
6.83750e-06;-0.0008321342044805831
6.83775e-06;-0.0008427821151166782
6.83800e-06;-0.0008478397354741488
6.83825e-06;-0.000847234908732653
6.83850e-06;-0.0008409354578509166
6.83875e-06;-0.0008290108689127131
6.83900e-06;-0.0008116139426866126
6.83925e-06;-0.0007889221004006595
6.83950e-06;-0.0007611142890300781
6.83975e-06;-0.000728369538714345
6.84000e-06;-0.0006908647424601946
6.84025e-06;-0.0006487737311426743
6.84050e-06;-0.0006022952931133725
6.84075e-06;-0.000551692036053259
6.84100e-06;-0.0004972786710095938
6.84125e-06;-0.0004393852354942059
6.84150e-06;-0.00037834281468276053
6.84175e-06;-0.0003144824937503451
6.84200e-06;-0.0002481339655185581
6.84225e-06;-0.00017962500923748642
6.84250e-06;-0.00010929904935506378
6.84275e-06;-3.7539383884535624e-05
6.84300e-06;3.523802333697172e-05
6.84325e-06;0.00010853097870947435
6.84350e-06;0.0001819339435301875
6.84375e-06;0.00025533690835065196
6.84400e-06;0.0003275865740056558
6.84425e-06;0.0003992899866923734
6.84450e-06;0.0004686977837841235
6.84475e-06;0.000537018298185776
6.84500e-06;0.000602819403331215
6.84525e-06;0.0006653085611843324
6.84550e-06;0.0007243462306190025
6.84575e-06;0.0007794469971593452
6.84600e-06;0.0008289135676697509
6.84625e-06;0.0008763346505241825
6.84650e-06;0.0009200084263771539
6.84675e-06;0.0009619073484405642
6.84700e-06;0.001000819958724548
6.84725e-06;0.0010383181487922564
6.84750e-06;0.0010721173791103553
6.84775e-06;0.00110416465456427
6.84800e-06;0.0011313250656541526
6.84825e-06;0.0011561708892997443
6.84850e-06;0.0011810167129454202
6.84875e-06;0.0012021269477416228
6.84900e-06;0.001221467878869157
6.84925e-06;0.001240808809996626
6.84950e-06;0.0012562304011186796
6.84975e-06;0.001269795657689502
6.85000e-06;0.0012833609142602783
6.85025e-06;0.0012933574800651447
6.85050e-06;0.0013016637908877392
6.85075e-06;0.0013099701017103057
6.85100e-06;0.001314126247974983
6.85125e-06;0.0013163167332224013
6.85150e-06;0.0013185072184698121
6.85175e-06;0.001320697703717223
6.85200e-06;0.0013228881889646412
6.85225e-06;0.001325078674212052
6.85250e-06;0.0013272691594594628
6.85275e-06;0.0013294596447068813
6.85300e-06;0.0013280915707815004
6.85325e-06;0.0013250380405457152
6.85350e-06;0.0013219845103099404
6.85375e-06;0.0013189309800741655
6.85400e-06;0.0013158774498383803
6.85425e-06;0.0013128239196026055
6.85450e-06;0.0013097703893668307
6.85475e-06;0.0013067168591310457
6.85500e-06;0.0013034497230378678
6.85525e-06;0.0013000814158462767
6.85550e-06;0.0012967131086546741
6.85575e-06;0.001293344801463083
6.85600e-06;0.001289976494271492
6.85625e-06;0.0012866081870798894
6.85650e-06;0.001282643277204072
6.85675e-06;0.0012759344233976297
6.85700e-06;0.0012692255695911645
6.85725e-06;0.001262516715784722
6.85750e-06;0.001255807861978257
6.85775e-06;0.0012490990081718146
6.85800e-06;0.0012423901543653722
6.85825e-06;0.0012306703637891372
6.85850e-06;0.0012165772208002073
6.85875e-06;0.0012024840778112771
6.85900e-06;0.0011883909348222993
6.85925e-06;0.0011742977918333694
6.85950e-06;0.0011602046488444393
6.85975e-06;0.0011461115058554615
6.86000e-06;0.0011320183628665316
6.86025e-06;0.0011166441299896232
6.86050e-06;0.0010953778035717374
6.86075e-06;0.001074111477153924
6.86100e-06;0.0010528451507361104
6.86125e-06;0.0010315788243182248
6.86150e-06;0.0010103124979004112
6.86175e-06;0.0009890461714825256
6.86200e-06;0.0009677798450647121
6.86225e-06;0.0009465135186468985
6.86250e-06;0.0009236666125745003
6.86275e-06;0.0009000710894853299
6.86300e-06;0.0008764755663961594
6.86325e-06;0.000852880043306909
6.86350e-06;0.0008292845202177386
6.86375e-06;0.0008056889971285681
6.86400e-06;0.00078366256092074
6.86425e-06;0.0007623792983562497
6.86450e-06;0.0007410960357917595
6.86475e-06;0.0007198127732271972
6.86500e-06;0.000698529510662707
6.86525e-06;0.0006772462480982167
6.86550e-06;0.00065850525176957
6.86575e-06;0.0006409683603780692
6.86600e-06;0.0006255423163163018
6.86625e-06;0.0006111160423240167
6.86650e-06;0.0005991813700184768
6.86675e-06;0.0005904614986812198
6.86700e-06;0.0005847323574915746
6.86725e-06;0.0005829394478547136
6.86750e-06;0.0005825561504075971
6.86775e-06;0.000585084589894699
6.86800e-06;0.0005909142476302932
6.86825e-06;0.0005996967611985285
6.86850e-06;0.0006116850911720423
6.86875e-06;0.0006270122201677864
6.86900e-06;0.0006466265358647309
6.86925e-06;0.0006677602532470576
6.86950e-06;0.0006927828236905353
6.86975e-06;0.0007196472890166972
6.87000e-06;0.0007500047445308149
6.87025e-06;0.0007820166006230635
6.87050e-06;0.0008174432381137262
6.87075e-06;0.0008544872338033269
6.87100e-06;0.0008951376290092026
6.87125e-06;0.000937496139360632
6.87150e-06;0.0009798546497120613
6.87175e-06;0.0010260331447437766
6.87200e-06;0.0010740209162182642
6.87225e-06;0.0011220086876927518
6.87250e-06;0.0011699964591674018
6.87275e-06;0.0012179842306418893
6.87300e-06;0.0012662227618812111
6.87325e-06;0.0013156146079692397
6.87350e-06;0.0013650064540571007
6.87375e-06;0.001414398300144962
6.87400e-06;0.0014637901462329903
6.87425e-06;0.0015131819923208513
6.87450e-06;0.0015570624251788328
6.87475e-06;0.0015983324627186985
6.87500e-06;0.0016396025002585642
6.87525e-06;0.0016808725377985697
6.87550e-06;0.0017221425753384354
6.87575e-06;0.001763412612878301
6.87600e-06;0.0018012873171709626
6.87625e-06;0.0018235459267042784
6.87650e-06;0.0018458045362375942
6.87675e-06;0.0018680631457709852
6.87700e-06;0.001890321755304301
6.87725e-06;0.0019125803648376168
6.87750e-06;0.0019348389743710078
6.87775e-06;0.001945604236122671
6.87800e-06;0.0019509258521191312
6.87825e-06;0.001956247468115609
6.87850e-06;0.001954292375068559
6.87875e-06;0.0019488907817459854
6.87900e-06;0.0019434891884234301
6.87925e-06;0.0019313785449382218
6.87950e-06;0.0019160902639941404
6.87975e-06;0.0019008019830501109
6.88000e-06;0.0018793959577916356
6.88025e-06;0.0018550923579099242
6.88050e-06;0.001830788758028295
6.88075e-06;0.0017994132929326384
6.88100e-06;0.0017646883486613736
6.88125e-06;0.0017299634043902263
6.88150e-06;0.001695238460119079
6.88175e-06;0.001660513515847814
6.88200e-06;0.0016257885715766668
6.88225e-06;0.0015858360412138383
6.88250e-06;0.0015434075458512935
6.88275e-06;0.0015009790504888925
6.88300e-06;0.001458550555126348
6.88325e-06;0.0014161220597639467
6.88350e-06;0.0013736935644015457
6.88375e-06;0.0013316013510343073
6.88400e-06;0.0012896684124138592
6.88425e-06;0.0012477354737934112
6.88450e-06;0.001205802535172821
6.88475e-06;0.001163869596552373
6.88500e-06;0.0011272025110314456
6.88525e-06;0.0010930295150840283
6.88550e-06;0.001058856519136727
6.88575e-06;0.0010246835231894256
6.88600e-06;0.0009905105272420083
6.88625e-06;0.0009623289012653431
6.88650e-06;0.0009369849946653148
6.88675e-06;0.0009151057374423012
6.88700e-06;0.0008948674576116368
6.88725e-06;0.0008782606330763423
6.88750e-06;0.0008633737909670793
6.88775e-06;0.0008523476586050503
6.88800e-06;0.0008431500914810994
6.88825e-06;0.0008377917464370006
6.88850e-06;0.0008342517893308872
6.88875e-06;0.0008341928145991261
6.88900e-06;0.0008357825531301643
6.88925e-06;0.000840706277060659
6.88950e-06;0.0008472090914187813
6.88975e-06;0.0008569381170943883
6.89000e-06;0.0008681951876767484
6.89025e-06;0.0008830504024035517
6.89050e-06;0.0008996098222466094
6.89075e-06;0.0009161692420896672
6.89100e-06;0.0009350755534569984
6.89125e-06;0.0009550934335614825
6.89150e-06;0.0009714558854886249
6.89175e-06;0.0009940336876509042
6.89200e-06;0.0010205802264575364
6.89225e-06;0.0010475487463888172
6.89250e-06;0.0010766124079889536
6.89275e-06;0.0011056760695890898
6.89300e-06;0.0011347397311893246
6.89325e-06;0.001163803392789461
6.89350e-06;0.0011928070743522352
6.89375e-06;0.0012217829177803038
6.89400e-06;0.0012507587612082742
6.89425e-06;0.0012797346046362445
6.89450e-06;0.0013082678883792242
6.89475e-06;0.0013350126486180735
6.89500e-06;0.001361757408856923
