Time(s);Current(A)
7.55000e-06;0.0006446798779636475
7.55025e-06;0.0006071125444707315
7.55050e-06;0.0005695452109776881
7.55075e-06;0.0005324641723802588
7.55100e-06;0.000496771962303882
7.55125e-06;0.0004618187868725901
7.55150e-06;0.00042897624925155393
7.55175e-06;0.0003968528880312281
7.55200e-06;0.00036735080322351587
7.55225e-06;0.00034009747943584934
7.55250e-06;0.00031530506335619517
7.55275e-06;0.0002930916897184958
7.55300e-06;0.0002734949608686618
7.55325e-06;0.000256550568646169
7.55350e-06;0.0002423121881893502
7.55375e-06;0.00023083469908819203
7.55400e-06;0.00022217301217922848
7.55425e-06;0.00021637897338312376
7.55450e-06;0.00021348117586363023
7.55475e-06;0.00021344925146642426
7.55500e-06;0.00021620243489029045
7.55525e-06;0.0002216587375358367
7.55550e-06;0.00022974744688117617
7.55575e-06;0.00024039861887386864
7.55600e-06;0.0002535422992272114
7.55625e-06;0.0002691066563968547
7.55650e-06;0.00028700523081800475
7.55675e-06;0.00030711471162649356
7.55700e-06;0.00032928021757753487
7.55725e-06;0.0003535589531855796
7.55750e-06;0.00037977169643623273
7.55775e-06;0.00040675932257713354
7.55800e-06;0.00043595996692588157
7.55825e-06;0.00046589134963709257
7.55850e-06;0.0004979096764808708
7.55875e-06;0.0005299280033246492
7.55900e-06;0.0005624510259554869
7.55925e-06;0.0005964154289291516
7.55950e-06;0.0006303798319028163
7.55975e-06;0.000664344234876596
7.56000e-06;0.0006983086378502607
7.56025e-06;0.0007312926879259905
7.56050e-06;0.0007639660320456444
7.56075e-06;0.0007966393761651875
7.56100e-06;0.0008293127202847305
7.56125e-06;0.0008608578688846676
7.56150e-06;0.000889180959985569
7.56175e-06;0.0009175040510864703
7.56200e-06;0.0009443045711067364
7.56225e-06;0.0009667567211125836
7.56250e-06;0.0009892088711185069
7.56275e-06;0.0010100615682197816
7.56300e-06;0.0010263463255135424
7.56325e-06;0.0010412619885580819
7.56350e-06;0.0010522676020452957
7.56375e-06;0.0010618669408528237
7.56400e-06;0.0010674500450646798
7.56425e-06;0.0010715908565265902
7.56450e-06;0.001071612567984111
7.56475e-06;0.0010701932849121554
7.56500e-06;0.0010646586094741983
7.56525e-06;0.001057430526199055
7.56550e-06;0.0010453661735674454
7.56575e-06;0.0010333018209358765
7.56600e-06;0.0010193807111217989
7.56625e-06;0.0010001568161978084
7.56650e-06;0.000980932921273883
7.56675e-06;0.0009600935922505826
7.56700e-06;0.0009346406821042171
7.56725e-06;0.0009091877719578516
7.56750e-06;0.0008824690666628321
7.56775e-06;0.0008521353277335505
7.56800e-06;0.000821801588804269
7.56825e-06;0.0007904404324928341
7.56850e-06;0.0007561450348891696
7.56875e-06;0.0007218496372855052
7.56900e-06;0.0006875542396817245
7.56925e-06;0.00065325884207806
7.56950e-06;0.0006179643362903299
7.56975e-06;0.000582353180381641
7.57000e-06;0.0005467420244730729
7.57025e-06;0.0005111308685645047
7.57050e-06;0.00047591140162174
7.57075e-06;0.00044181057444282214
7.57100e-06;0.00040827443920282334
7.57125e-06;0.00037635102965144127
7.57150e-06;0.00034500360731195515
7.57175e-06;0.0003157667096209916
7.57200e-06;0.0002883860668589982
7.57225e-06;0.0002630736412412531
7.57250e-06;0.00023988494825426872
7.57275e-06;0.00021857159210452495
7.57300e-06;0.00019880596377368746
7.57325e-06;0.00018051533498954437
7.57350e-06;0.0001637978576799481
7.57375e-06;0.0001487597139400316
7.57400e-06;0.00013550709555562628
7.57425e-06;0.00012413119444833797
7.57450e-06;0.0001146252401880869
7.57475e-06;0.00010679207600001019
7.57500e-06;0.00010038494069705379
7.57525e-06;9.531675849659761e-05
7.57550e-06;9.160746958117911e-05
7.57575e-06;8.928208276037659e-05
7.57600e-06;8.836556534682568e-05
7.57625e-06;8.887350895045332e-05
7.57650e-06;9.076012270419926e-05
7.57675e-06;9.386038774887467e-05
7.57700e-06;9.797822489541421e-05
7.57725e-06;0.00010301757553592571
7.57750e-06;0.00010894943750956095
7.57775e-06;0.00011574796472788425
7.57800e-06;0.00012338730005266672
7.57825e-06;0.00013191883505302273
7.57850e-06;0.00014126042975791522
7.57875e-06;0.00015084897882898448
7.57900e-06;0.0001611428144866681
7.57925e-06;0.00017163028029341137
7.57950e-06;0.00018267074197965576
7.57975e-06;0.00019371120366586274
7.58000e-06;0.00020475166535206972
7.58025e-06;0.00021578394051286845
7.58050e-06;0.0002267928354569663
7.58075e-06;0.00023780173040106414
7.58100e-06;0.00024881062534519926
7.58125e-06;0.00025953768379578454
7.58150e-06;0.00026945983443467034
7.58175e-06;0.0002790765711603556
7.58200e-06;0.00028782106440364014
7.58225e-06;0.00029614264345951413
7.58250e-06;0.0003032564054265863
7.58275e-06;0.00030971633224020987
7.58300e-06;0.0003143089457901129
7.58325e-06;0.00031817784671504855
7.58350e-06;0.00031997986858543813
7.58375e-06;0.000321074805619762
7.58400e-06;0.0003201503515491343
7.58425e-06;0.0003185128800768009
7.58450e-06;0.0003148390744544045
7.58475e-06;0.00031057629186749286
7.58500e-06;0.00030403777422052266
7.58525e-06;0.00029580382037108224
7.58550e-06;0.0002870146395154459
7.58575e-06;0.0002762957811042213
7.58600e-06;0.00026427017653442276
7.58625e-06;0.00025085642132285143
7.58650e-06;0.00023612372765160258
7.58675e-06;0.00022093138468224155
7.58700e-06;0.00020413655160223044
7.58725e-06;0.0001862531191815978
7.58750e-06;0.00016739226098142046
7.58775e-06;0.00014766662283393925
7.58800e-06;0.00012718882255464398
7.58825e-06;0.00010606898123888432
7.58850e-06;8.440183928876726e-05
7.58875e-06;6.225700856051685e-05
7.58900e-06;3.970943472502289e-05
7.58925e-06;1.687237947916422e-05
7.58950e-06;-6.1087492038741316e-06
7.58975e-06;-2.909973844073374e-05
7.59000e-06;-5.202378536841545e-05
7.59025e-06;-7.466667939738737e-05
7.59050e-06;-9.69341420906143e-05
7.59075e-06;-0.00011871742466487208
7.59100e-06;-0.00013990444130879283
7.59125e-06;-0.00016035913258245288
7.59150e-06;-0.0001799319106664486
7.59175e-06;-0.00019847264722532552
7.59200e-06;-0.00021583122847536028
7.59225e-06;-0.00023185485684883278
7.59250e-06;-0.0002463778577123939
7.59275e-06;-0.0002592282230637671
7.59300e-06;-0.000270280182196372
7.59325e-06;-0.000279482486858632
7.59350e-06;-0.00028681724049676045
7.59375e-06;-0.00029226785284006764
7.59400e-06;-0.0002958176775848415
7.59425e-06;-0.000297448456398051
7.59450e-06;-0.00029713382773933946
7.59475e-06;-0.00029484346815856355
7.59500e-06;-0.00029057607013410487
7.59525e-06;-0.0002843769538183169
7.59550e-06;-0.00027631236285500366
7.59575e-06;-0.0002664493513821749
7.59600e-06;-0.00025485491750484174
7.59625e-06;-0.00024159506621782814
7.59650e-06;-0.0002267307047416439
7.59675e-06;-0.00021032029831642338
7.59700e-06;-0.00019244043260146693
7.59725e-06;-0.00017319693915879004
7.59750e-06;-0.00015270872766824455
7.59775e-06;-0.00013109518392924823
7.59800e-06;-0.00010847570290411002
7.59825e-06;-8.496901857977625e-05
7.59850e-06;-6.069067748289645e-05
7.59875e-06;-3.575468003326345e-05
7.59900e-06;-1.0286376367418882e-05
7.59925e-06;1.5579420214002305e-05
7.59950e-06;4.1675075116837626e-05
7.59975e-06;6.777073001958453e-05
7.60000e-06;9.386638492233142e-05
7.60025e-06;0.00011978370059599013
7.60050e-06;0.00014519169383068412
7.60075e-06;0.00017027099575718494
7.60100e-06;0.0001944115753831491
7.60125e-06;0.0002180499078517617
7.60150e-06;0.00024025385311559152
7.60175e-06;0.0002619692617887533
7.60200e-06;0.0002819040872047614
7.60225e-06;0.0003001841875134184
7.60250e-06;0.00031688157891539477
7.60275e-06;0.00033320955866352863
7.60300e-06;0.0003484825212915128
7.60325e-06;0.00036339144126265783
7.60350e-06;0.0003772606776412779
7.60375e-06;0.00039112991401994495
7.60400e-06;0.00040437726505447417
7.60425e-06;0.00041584854953027254
7.60450e-06;0.00042731983400610984
7.60475e-06;0.00043844771149234964
7.60500e-06;0.0004485948395913388
7.60525e-06;0.00045874196769029354
7.60550e-06;0.00046825590019104627
7.60575e-06;0.0004759614647382332
7.60600e-06;0.000483667029285394
7.60625e-06;0.0004913725938325549
7.60650e-06;0.0004990781583797417
7.60675e-06;0.0005067837229269026
7.60700e-06;0.0005144892874740634
7.60725e-06;0.0005221948520212502
7.60750e-06;0.0005299004165684111
7.60775e-06;0.0005376059811155718
7.60800e-06;0.0005453115456627588
7.60825e-06;0.0005523239723234677
7.60850e-06;0.0005573568395166897
7.60875e-06;0.0005623897067099288
7.60900e-06;0.0005674225739031508
7.60925e-06;0.0005724554410963899
7.60950e-06;0.000577488308289612
7.60975e-06;0.000582521175482834
7.61000e-06;0.0005875540426760732
7.61025e-06;0.0005925869098692952
7.61050e-06;0.0005976197770625173
7.61075e-06;0.0006026526442557563
7.61100e-06;0.0006070365258742303
7.61125e-06;0.0006095669443307921
7.61150e-06;0.0006120973627873625
7.61175e-06;0.0006146277812439243
7.61200e-06;0.0006171581997004861
7.61225e-06;0.0006196886181570565
7.61250e-06;0.0006222190366136184
7.61275e-06;0.0006247494550701802
7.61300e-06;0.0006272798735267506
7.61325e-06;0.0006298102919833125
7.61350e-06;0.0006323407104398828
7.61375e-06;0.0006348711288964447
7.61400e-06;0.0006374015473530065
7.61425e-06;0.0006399319658095769
7.61450e-06;0.0006424623842661388
7.61475e-06;0.0006449928027227005
7.61500e-06;0.0006460777120289333
7.61525e-06;0.0006467044921216496
7.61550e-06;0.0006473312722143659
7.61575e-06;0.0006479580523070842
7.61600e-06;0.0006485848323998006
7.61625e-06;0.0006492116124925169
7.61650e-06;0.0006498383925852353
7.61675e-06;0.0006504651726779515
7.61700e-06;0.0006510919527706678
7.61725e-06;0.0006517187328633862
7.61750e-06;0.0006523455129561025
7.61775e-06;0.0006529722930488209
7.61800e-06;0.0006535990731415372
7.61825e-06;0.0006542258532342535
7.61850e-06;0.000654852633326972
7.61875e-06;0.0006552966777465066
7.61900e-06;0.0006552188402448985
7.61925e-06;0.00065514100274329
7.61950e-06;0.0006550631652416819
7.61975e-06;0.0006549853277400737
7.62000e-06;0.0006549074902384652
7.62025e-06;0.0006548296527368571
7.62050e-06;0.0006547518152352488
7.62075e-06;0.0006546739777336404
7.62100e-06;0.0006545961402320323
7.62125e-06;0.000654518302730424
7.62150e-06;0.0006547197045190503
7.62175e-06;0.0006550096063883332
7.62200e-06;0.0006552995082576171
7.62225e-06;0.0006555894101268999
7.62250e-06;0.0006558793119961828
7.62275e-06;0.0006561692138654667
7.62300e-06;0.0006564591157347496
7.62325e-06;0.0006567490176040325
7.62350e-06;0.0006570389194733164
7.62375e-06;0.0006573288213425992
7.62400e-06;0.0006582363834092621
7.62425e-06;0.0006609079452728542
7.62450e-06;0.0006635795071364373
7.62475e-06;0.0006662510690000204
7.62500e-06;0.0006689226308636125
7.62525e-06;0.0006715941927271956
7.62550e-06;0.0006742657545907786
7.62575e-06;0.0006769373164543708
7.62600e-06;0.0006796088783179538
7.62625e-06;0.0006822804401815459
7.62650e-06;0.000684952002045129
7.62675e-06;0.0006876235639087121
7.62700e-06;0.000690831562547196
7.62725e-06;0.0006955715918489982
7.62750e-06;0.0007003116211508003
7.62775e-06;0.0007050516504526185
7.62800e-06;0.0007097916797544206
7.62825e-06;0.0007145317090562227
7.62850e-06;0.0007192717383580409
7.62875e-06;0.000724011767659843
7.62900e-06;0.0007287517969616451
7.62925e-06;0.0007334918262634633
7.62950e-06;0.0007382318555652654
7.62975e-06;0.0007429718848670836
7.63000e-06;0.0007477052497188593
7.63025e-06;0.000752419581308505
7.63050e-06;0.0007571339128981505
7.63075e-06;0.0007618482444877641
7.63100e-06;0.0007665625760774097
7.63125e-06;0.0007710164152009633
7.63150e-06;0.0007747263037523223
7.63175e-06;0.0007784361923037066
7.63200e-06;0.0007821460808550908
7.63225e-06;0.0007858559694064499
7.63250e-06;0.0007887846854904592
7.63275e-06;0.0007894824207218313
7.63300e-06;0.0007889251616956827
7.63325e-06;0.0007847837157255339
7.63350e-06;0.0007794370154565614
7.63375e-06;0.0007706481825275462
7.63400e-06;0.0007607589492461805
7.63425e-06;0.0007477270397710775
7.63450e-06;0.0007334254555802306
7.63475e-06;0.0007154977579534781
7.63500e-06;0.0006960690985767264
7.63525e-06;0.0006723537841213961
7.63550e-06;0.0006473083220295652
7.63575e-06;0.0006184640395328447
7.63600e-06;0.0005884949018330415
7.63625e-06;0.0005553132463797483
7.63650e-06;0.0005210403460473323
7.63675e-06;0.0004836509169940407
7.63700e-06;0.0004451649897979041
7.63725e-06;0.00040354753087884086
7.63750e-06;0.0003610802017409797
7.63775e-06;0.0003161856951685382
7.63800e-06;0.00027070950846019804
7.63825e-06;0.00022357207881351605
7.63850e-06;0.00017611235272676183
7.63875e-06;0.00012753461740726025
7.63900e-06;7.824319611456436e-05
7.63925e-06;2.845174352905369e-05
7.63950e-06;-2.154382931480821e-05
7.63975e-06;-7.144397164946224e-05
7.64000e-06;-0.00012094917730657369
7.64025e-06;-0.0001697664086977976
7.64050e-06;-0.00021764295010066575
7.64075e-06;-0.0002643971574262995
7.64100e-06;-0.0003098472913042491
7.64125e-06;-0.0003537251457673777
7.64150e-06;-0.00039571098696719316
7.64175e-06;-0.0004354828392270955
7.64200e-06;-0.0004727187570624486
7.64225e-06;-0.0005067940109049435
7.64250e-06;-0.000537711068206583
7.64275e-06;-0.0005675433490887329
7.64300e-06;-0.0005942775747735098
7.64325e-06;-0.0006200169559971627
7.64350e-06;-0.0006429151222047593
7.64375e-06;-0.0006646583854439192
7.64400e-06;-0.0006831033163455451
7.64425e-06;-0.0007003190739915321
7.64450e-06;-0.000714024387895743
7.64475e-06;-0.0007267860389262219
7.64500e-06;-0.0007368526464275797
7.64525e-06;-0.000745857717165299
7.64550e-06;-0.0007518311037435338
7.64575e-06;-0.0007578044903218092
7.64600e-06;-0.000762433026162235
7.64625e-06;-0.0007632207504373734
7.64650e-06;-0.0007640084747125171
7.64675e-06;-0.0007637680989489114
7.64700e-06;-0.0007605915322698879
7.64725e-06;-0.0007574149655908428
7.64750e-06;-0.0007534146981509931
7.64775e-06;-0.0007470619916491548
7.64800e-06;-0.0007407092851472735
7.64825e-06;-0.000733455419912491
7.64850e-06;-0.0007236279003784018
7.64875e-06;-0.0007138003808442461
7.64900e-06;-0.0007039728613100904
7.64925e-06;-0.0006941453417760013
7.64950e-06;-0.0006843178222418456
7.64975e-06;-0.0006741281872541595
7.65000e-06;-0.0006629043726487346
7.65025e-06;-0.0006516805580433859
7.65050e-06;-0.0006404567434379611
7.65075e-06;-0.0006292329288325364
7.65100e-06;-0.0006180091142271876
7.65125e-06;-0.00060723486380995
7.65150e-06;-0.000597744541255466
7.65175e-06;-0.0005882542187010463
7.65200e-06;-0.0005787638961465623
7.65225e-06;-0.0005695228130528085
7.65250e-06;-0.0005609935426358094
7.65275e-06;-0.0005524642722187524
7.65300e-06;-0.0005439350018016955
7.65325e-06;-0.0005348368151970163
7.65350e-06;-0.0005241138387086446
7.65375e-06;-0.0005133908622202729
7.65400e-06;-0.0005022800398507013
7.65425e-06;-0.0004900615533330335
7.65450e-06;-0.00047784306681536583
7.65475e-06;-0.00046491812444437704
7.65500e-06;-0.00044997558730489675
7.65525e-06;-0.0004350330501654164
7.65550e-06;-0.00041948124885066466
7.65575e-06;-0.00040218942626352476
7.65600e-06;-0.0003844755650329361
7.65625e-06;-0.0003655563872140209
7.65650e-06;-0.0003466372093949775
7.65675e-06;-0.0003272237228104208
7.65700e-06;-0.0003063985205829918
7.65725e-06;-0.0002851397001389108
7.65750e-06;-0.00026264249255287815
7.65775e-06;-0.00024014528496699795
7.65800e-06;-0.00021739633205286908
7.65825e-06;-0.00019392840985769775
7.65850e-06;-0.00017046048766252645
7.65875e-06;-0.00014684274805780285
7.65900e-06;-0.0001227971390812574
7.65925e-06;-9.875153010471197e-05
7.65950e-06;-7.474112560933216e-05
7.65975e-06;-5.0831262961334946e-05
7.66000e-06;-2.7056991704891306e-05
7.66025e-06;-3.806117747876132e-06
7.66050e-06;1.890484336873791e-05
7.66075e-06;4.102652467207107e-05
7.66100e-06;6.25145324878389e-05
7.66125e-06;8.3258898109075e-05
7.66150e-06;0.00010310939275304495
7.66175e-06;0.00012191397666604444
7.66200e-06;0.00013952064404391094
7.66225e-06;0.00015577126081750935
7.66250e-06;0.00017047336186616315
7.66275e-06;0.00018339024480265828
7.66300e-06;0.00019433117559848308
7.66325e-06;0.00020322576186969818
7.66350e-06;0.00021006437536422285
7.66375e-06;0.00021483983552732943
7.66400e-06;0.00021754501515074522
7.66425e-06;0.00021816893173485152
7.66450e-06;0.00021667911773640928
7.66475e-06;0.00021301538396714288
7.66500e-06;0.0002071463595300914
7.66525e-06;0.0001991160637540336
7.66550e-06;0.0001890065566791358
7.66575e-06;0.00017690146384446545
7.66600e-06;0.00016288438331652093
7.66625e-06;0.00014703656576629172
7.66650e-06;0.00012942573050950165
7.66675e-06;0.00011010226673225888
7.66700e-06;8.913463386401121e-05
7.66725e-06;6.663846978831203e-05
7.66750e-06;4.2753265493698426e-05
7.66775e-06;1.7619452623119132e-05
7.66800e-06;-8.622524105192097e-06
7.66825e-06;-3.583374115178371e-05
7.66850e-06;-6.388372327135241e-05
7.66875e-06;-9.27142386813688e-05
7.66900e-06;-0.00012218554501538566
7.66925e-06;-0.00015180625601158925
7.66950e-06;-0.00018185365759766704
7.66975e-06;-0.00021190105918394845
7.67000e-06;-0.00024194846077022985
7.67025e-06;-0.0002711693395668556
7.67050e-06;-0.00030012826620943534
7.67075e-06;-0.000329087192852015
7.67100e-06;-0.00035745485069648135
7.67125e-06;-0.00038413388096679706
7.67150e-06;-0.00041013349661193443
7.67175e-06;-0.00043419274558352425
7.67200e-06;-0.00045735831694426147
7.67225e-06;-0.0004779715996303609
7.67250e-06;-0.0004976943408134964
7.67275e-06;-0.0005141074374846534
7.67300e-06;-0.0005275145215133652
7.67325e-06;-0.000537771810800965
7.67350e-06;-0.0005448905638565542
7.67375e-06;-0.0005488885620330822
7.67400e-06;-0.0005497835306506711
7.67425e-06;-0.0005475823218575084
7.67450e-06;-0.0005422262516450035
7.67475e-06;-0.0005335538762770749
7.67500e-06;-0.0005214398990062133
7.67525e-06;-0.0005059362946101188
7.67550e-06;-0.00048719193934926584
7.67575e-06;-0.00046535994738850715
7.67600e-06;-0.00044059336176366436
7.67625e-06;-0.0004130383850354791
7.67650e-06;-0.00038280013247346225
7.67675e-06;-0.0003499194120664631
7.67700e-06;-0.0003144596627542413
7.67725e-06;-0.00027659530279695307
7.67750e-06;-0.00023656155178095127
7.67775e-06;-0.00019459613734145261
7.67800e-06;-0.00015093680678281325
7.67825e-06;-0.00010581699034248474
7.67850e-06;-5.9444374961205086e-05
7.67875e-06;-1.1986342964214378e-05
7.67900e-06;3.6375548109527725e-05
7.67925e-06;8.540956704801437e-05
7.67950e-06;0.00013482399453299652
7.67975e-06;0.0001842384220183135
7.68000e-06;0.00023311067578733814
7.68025e-06;0.0002818110873581979
7.68050e-06;0.00032997637245211526
7.68075e-06;0.00037661336901005134
7.68100e-06;0.000422471010609932
7.68125e-06;0.00046610286205022756
7.68150e-06;0.0005086243575999885
7.68175e-06;0.0005479747445415274
7.68200e-06;0.0005859093918709194
7.68225e-06;0.0006198007733339554
7.68250e-06;0.0006526424529742333
7.68275e-06;0.0006824862483203294
7.68300e-06;0.0007119664136226795
7.68325e-06;0.0007404080737286689
7.68350e-06;0.0007681708802625302
7.68375e-06;0.00079399492245488
7.68400e-06;0.0008198189646472298
7.68425e-06;0.0008444183050235456
7.68450e-06;0.0008655199718125818
7.68475e-06;0.0008866216386016181
7.68500e-06;0.0009077233053905113
7.68525e-06;0.0009288249721795476
7.68550e-06;0.0009499266389685838
7.68575e-06;0.000971028305757477
7.68600e-06;0.0009921299725465132
7.68625e-06;0.0010123700190904738
7.68650e-06;0.0010301493308376435
7.68675e-06;0.0010479286425849337
7.68700e-06;0.0010657079543322239
7.68725e-06;0.0010834872660793937
7.68750e-06;0.001101266577826684
7.68775e-06;0.001119045889573974
7.68800e-06;0.0011368252013211437
7.68825e-06;0.0011538680597686871
7.68850e-06;0.001168807652570653
7.68875e-06;0.0011837472453725174
7.68900e-06;0.0011986868381744832
7.68925e-06;0.001213626430976449
7.68950e-06;0.0012285660237783135
7.68975e-06;0.0012435056165802792
7.69000e-06;0.001258445209382245
7.69025e-06;0.001272452279854719
7.69050e-06;0.0012837961235075857
7.69075e-06;0.0012951399671604525
7.69100e-06;0.0013064838108132425
7.69125e-06;0.0013178276544661093
7.69150e-06;0.001329171498118976
7.69175e-06;0.0013405153417717659
7.69200e-06;0.0013518591854246326
7.69225e-06;0.0013618492203685535
7.69250e-06;0.0013679728603222005
7.69275e-06;0.0013740965002758058
7.69300e-06;0.0013779914479156127
7.69325e-06;0.0013755213864221848
7.69350e-06;0.0013730513249287737
7.69375e-06;0.0013683622926793765
7.69400e-06;0.0013573360154725135
7.69425e-06;0.0013463097382657252
7.69450e-06;0.0013333219254090427
