Time(s);Current(A)
1.25000e-06;-0.014200093668521522
1.25025e-06;-0.014206264301460065
1.25050e-06;-0.014210194176073086
1.25075e-06;-0.014207686745261364
1.25100e-06;-0.014205179314449638
1.25125e-06;-0.014199909051227304
1.25150e-06;-0.014186701655355823
1.25175e-06;-0.014173494259484332
1.25200e-06;-0.014156234240117431
1.25225e-06;-0.014127331744668169
1.25250e-06;-0.014098429249218933
1.25275e-06;-0.014069526753769695
1.25300e-06;-0.014040624258320433
1.25325e-06;-0.014011721762871196
1.25350e-06;-0.01396737873416867
1.25375e-06;-0.013918111769971505
1.25400e-06;-0.013868844805774343
1.25425e-06;-0.013819577841577139
1.25450e-06;-0.013770310877379977
1.25475e-06;-0.013717197521205473
1.25500e-06;-0.013653034155907632
1.25525e-06;-0.013588870790609735
1.25550e-06;-0.013524707425311894
1.25575e-06;-0.013460544060014054
1.25600e-06;-0.013390568397632014
1.25625e-06;-0.013318739212742214
1.25650e-06;-0.013246910027852353
1.25675e-06;-0.013175080842962553
1.25700e-06;-0.013102640006559429
1.25725e-06;-0.013028442002701038
1.25750e-06;-0.012954329728649867
1.25775e-06;-0.012880667905682807
1.25800e-06;-0.01280790138277973
1.25825e-06;-0.012736408111436667
1.25850e-06;-0.01266647330846722
1.25875e-06;-0.012598369627650527
1.25900e-06;-0.012532480187344769
1.25925e-06;-0.01247020047578988
1.25950e-06;-0.012412850873408444
1.25975e-06;-0.012355501271027055
1.26000e-06;-0.01230082704783564
1.26025e-06;-0.012253838719537667
1.26050e-06;-0.012206850391239733
1.26075e-06;-0.012160639202240867
1.26100e-06;-0.012116660598063234
1.26125e-06;-0.012072681993885599
1.26150e-06;-0.012029738960889484
1.26175e-06;-0.011989770942159002
1.26200e-06;-0.011949802923428487
1.26225e-06;-0.011910646024029484
1.26250e-06;-0.011873819328121281
1.26275e-06;-0.011836992632213047
1.26300e-06;-0.011800165936304844
1.26325e-06;-0.01176333924039661
1.26350e-06;-0.011726512544488407
1.26375e-06;-0.011691027253251845
1.26400e-06;-0.011655969731572664
1.26425e-06;-0.011620912209893482
1.26450e-06;-0.01158585468821427
1.26475e-06;-0.011550797166535088
1.26500e-06;-0.011515938185990022
1.26525e-06;-0.011481649579280113
1.26550e-06;-0.011447360972570207
1.26575e-06;-0.01141307236586027
1.26600e-06;-0.011378783759150362
1.26625e-06;-0.011345863804037862
1.26650e-06;-0.011313380307438137
1.26675e-06;-0.011280896810838414
1.26700e-06;-0.011248413314238662
1.26725e-06;-0.011216254313709706
1.26750e-06;-0.011185027533444108
1.26775e-06;-0.011154109885484586
1.26800e-06;-0.011124341718145697
1.26825e-06;-0.011095575798440107
1.26850e-06;-0.011067739103658904
1.26875e-06;-0.01104070593036595
1.26900e-06;-0.011014519953502975
1.26925e-06;-0.010989345899020106
1.26950e-06;-0.010965358615085094
1.26975e-06;-0.01094273273997201
1.27000e-06;-0.010921652229365907
1.27025e-06;-0.010902359427373371
1.27050e-06;-0.010885208061447037
1.27075e-06;-0.010870522320691734
1.27100e-06;-0.010858425477382935
1.27125e-06;-0.010848921165062846
1.27150e-06;-0.010842004486642293
1.27175e-06;-0.01083800495793415
1.27200e-06;-0.010836880385925302
1.27225e-06;-0.01083715069679569
1.27250e-06;-0.010841428261380903
1.27275e-06;-0.010847480140394867
1.27300e-06;-0.010858629313376457
1.27325e-06;-0.010869778486358037
1.27350e-06;-0.010882834796854387
1.27375e-06;-0.010901369978734384
1.27400e-06;-0.010919905160614382
1.27425e-06;-0.01094062468507614
1.27450e-06;-0.0109676194424304
1.27475e-06;-0.010994614199784682
1.27500e-06;-0.011021608957138941
1.27525e-06;-0.011048603714493201
1.27550e-06;-0.01107749996618468
1.27575e-06;-0.011111858877400939
1.27600e-06;-0.011146217788617227
1.27625e-06;-0.011180576699833486
1.27650e-06;-0.011214935611049744
1.27675e-06;-0.011250030075194043
1.27700e-06;-0.011287237653813365
1.27725e-06;-0.011324445232432718
1.27750e-06;-0.011361596699911304
1.27775e-06;-0.011398586969929913
1.27800e-06;-0.01143557723994849
1.27825e-06;-0.011472136937120701
1.27850e-06;-0.01150745967406946
1.27875e-06;-0.01154217280355349
1.27900e-06;-0.011575134637775595
1.27925e-06;-0.01160722234058379
1.27950e-06;-0.011636798817247142
1.27975e-06;-0.011664903137974553
1.28000e-06;-0.011688778213056538
1.28025e-06;-0.011712653288138542
1.28050e-06;-0.011734477340709096
1.28075e-06;-0.011750409165552185
1.28100e-06;-0.011766340990395287
1.28125e-06;-0.011780100833139268
1.28150e-06;-0.011787620952488436
1.28175e-06;-0.011795141071837599
1.28200e-06;-0.011800391094750128
1.28225e-06;-0.01179911952899492
1.28250e-06;-0.011797847963239712
1.28275e-06;-0.011793735249952706
1.28300e-06;-0.011781460418419274
1.28325e-06;-0.011769185586885831
1.28350e-06;-0.0117569107553524
1.28375e-06;-0.011744635923818967
1.28400e-06;-0.011729298434001837
1.28425e-06;-0.011705162464422617
1.28450e-06;-0.011681026494843377
1.28475e-06;-0.011656890525264156
1.28500e-06;-0.011632754555684936
1.28525e-06;-0.011606758293377454
1.28550e-06;-0.011575417736537353
1.28575e-06;-0.011544077179697226
1.28600e-06;-0.011511908101784752
1.28625e-06;-0.011477358828234212
1.28650e-06;-0.011442367559212236
1.28675e-06;-0.011406106514769582
1.28700e-06;-0.011369646355936052
1.28725e-06;-0.011332550931130128
1.28750e-06;-0.0112952622708953
1.28775e-06;-0.011257981090537808
1.28800e-06;-0.011220909727532629
1.28825e-06;-0.01118425505782208
1.28850e-06;-0.011148238618033442
1.28875e-06;-0.011113093990821957
1.28900e-06;-0.01107905815190888
1.28925e-06;-0.01104636369146152
1.28950e-06;-0.011015242749277248
1.28975e-06;-0.010985928155999768
1.29000e-06;-0.01095864216131472
1.29025e-06;-0.010933524674787948
1.29050e-06;-0.010910522376027574
1.29075e-06;-0.01088973976278396
1.29100e-06;-0.010871110517323927
1.29125e-06;-0.010853543575996223
1.29150e-06;-0.010839028448009554
1.29175e-06;-0.010825652696814965
1.29200e-06;-0.010815550175186824
1.29225e-06;-0.010806815843566832
1.29250e-06;-0.01080201208172696
1.29275e-06;-0.010797208319887093
1.29300e-06;-0.010794453328826004
1.29325e-06;-0.010797584096659107
1.29350e-06;-0.010800714864492208
1.29375e-06;-0.010803845632325313
1.29400e-06;-0.010806976400158416
1.29425e-06;-0.010810107167991521
1.29450e-06;-0.01081969383097334
1.29475e-06;-0.01083133925777772
1.29500e-06;-0.01084298468458209
1.29525e-06;-0.01085463011138646
1.29550e-06;-0.01086627553819084
1.29575e-06;-0.01087935832838046
1.29600e-06;-0.010896570411322802
1.29625e-06;-0.01091378249426513
1.29650e-06;-0.010930994577207457
1.29675e-06;-0.010948206660149798
1.29700e-06;-0.010965418743092125
1.29725e-06;-0.010982990819081703
1.29750e-06;-0.01100159709191823
1.29775e-06;-0.011020203364754757
1.29800e-06;-0.0110388096375913
1.29825e-06;-0.011057415910427824
1.29850e-06;-0.011076022183264367
1.29875e-06;-0.011094085861369927
1.29900e-06;-0.011110590760037276
1.29925e-06;-0.011127095658704612
1.29950e-06;-0.0111418783346938
1.29975e-06;-0.011151713367173912
1.30000e-06;-0.011161548399654015
1.30025e-06;-0.011171383432134127
1.30050e-06;-0.01118121846461423
1.30075e-06;-0.011191053497094334
1.30100e-06;-0.011200888529574446
1.30125e-06;-0.01121072356205455
1.30150e-06;-0.011220558594534661
1.30175e-06;-0.011230393627014765
1.30200e-06;-0.01124022865949487
1.30225e-06;-0.011250063691974982
1.30250e-06;-0.011259898724455085
1.30275e-06;-0.011269733756935197
1.30300e-06;-0.011278288338909186
1.30325e-06;-0.011283164411294672
1.30350e-06;-0.011288040483680152
1.30375e-06;-0.011292916556065635
1.30400e-06;-0.01129779262845112
1.30425e-06;-0.0113026687008366
1.30450e-06;-0.011307544773222086
1.30475e-06;-0.011312420845607568
1.30500e-06;-0.01131729691799305
1.30525e-06;-0.011322172990378535
1.30550e-06;-0.011327049062764017
1.30575e-06;-0.011331925135149502
1.30600e-06;-0.011336801207534985
1.30625e-06;-0.011341677279920465
1.30650e-06;-0.011346058396472335
1.30675e-06;-0.011349017591777654
1.30700e-06;-0.011351976787082977
1.30725e-06;-0.011354935982388296
1.30750e-06;-0.011357895177693618
1.30775e-06;-0.011360854372998937
1.30800e-06;-0.011363813568304256
1.30825e-06;-0.011366772763609579
1.30850e-06;-0.011369731958914898
1.30875e-06;-0.01137135372959676
1.30900e-06;-0.01137254899994576
1.30925e-06;-0.011373744270294757
1.30950e-06;-0.011374939540643754
1.30975e-06;-0.011376134810992753
1.31000e-06;-0.01137733008134175
1.31025e-06;-0.011378525351690748
1.31050e-06;-0.011379720622039747
1.31075e-06;-0.011379936947878588
1.31100e-06;-0.011377340937941991
1.31125e-06;-0.01137474492800539
1.31150e-06;-0.011372148918068793
1.31175e-06;-0.011369552908132196
1.31200e-06;-0.011366956898195595
1.31225e-06;-0.011364360888258998
1.31250e-06;-0.011361764878322397
1.31275e-06;-0.0113591688683858
1.31300e-06;-0.011355417690378795
1.31325e-06;-0.011348347917234604
1.31350e-06;-0.011341278144090411
1.31375e-06;-0.011334208370946213
1.31400e-06;-0.011327138597802022
1.31425e-06;-0.011320068824657824
1.31450e-06;-0.01131299905151363
1.31475e-06;-0.011305929278369438
1.31500e-06;-0.01129885950522524
1.31525e-06;-0.011291034285272386
1.31550e-06;-0.011281038799217276
1.31575e-06;-0.011271043313162175
1.31600e-06;-0.011261047827107074
1.31625e-06;-0.011251052341051964
1.31650e-06;-0.011241056854996863
1.31675e-06;-0.011231061368941753
1.31700e-06;-0.011221065882886651
1.31725e-06;-0.011211070396831542
1.31750e-06;-0.01120107491077644
1.31775e-06;-0.01119107942472134
1.31800e-06;-0.011181820137557629
1.31825e-06;-0.011172795621809603
1.31850e-06;-0.011163771106061572
1.31875e-06;-0.011154746590313548
1.31900e-06;-0.011145722074565522
1.31925e-06;-0.011136697558817492
1.31950e-06;-0.011127673043069466
1.31975e-06;-0.011118648527321435
1.32000e-06;-0.011109624011573411
1.32025e-06;-0.011100599495825385
1.32050e-06;-0.0110924003635065
1.32075e-06;-0.01108657241292672
1.32100e-06;-0.011080744462346937
1.32125e-06;-0.011074916511767157
1.32150e-06;-0.011069088561187372
1.32175e-06;-0.011063260610607592
1.32200e-06;-0.011057432660027814
1.32225e-06;-0.01105160470944803
1.32250e-06;-0.01104577675886825
1.32275e-06;-0.011039948808288466
1.32300e-06;-0.011034120857708687
1.32325e-06;-0.011028292907128907
1.32350e-06;-0.011022464956549122
1.32375e-06;-0.011016637005969344
1.32400e-06;-0.01101080905538956
1.32425e-06;-0.01100498110480978
1.32450e-06;-0.01099915315423
1.32475e-06;-0.010993325203650216
1.32500e-06;-0.01098869877646805
1.32525e-06;-0.010984455511162798
1.32550e-06;-0.010980212245857553
1.32575e-06;-0.010975968980552302
1.32600e-06;-0.010971725715247056
1.32625e-06;-0.010967482449941808
1.32650e-06;-0.010963239184636557
1.32675e-06;-0.010958995919331312
1.32700e-06;-0.01095475265402606
1.32725e-06;-0.010950509388720815
1.32750e-06;-0.010946266123415567
1.32775e-06;-0.010942022858110318
1.32800e-06;-0.01093777959280507
1.32825e-06;-0.01093353632749982
1.32850e-06;-0.010929293062194574
1.32875e-06;-0.010925049796889326
1.32900e-06;-0.010920806531584077
1.32925e-06;-0.010916729837353211
1.32950e-06;-0.01091313167258618
1.32975e-06;-0.010909598075710403
1.33000e-06;-0.010906249971054658
1.33025e-06;-0.010903335565437532
1.33050e-06;-0.010901667101045108
1.33075e-06;-0.010900947556201551
1.33100e-06;-0.01090295409068856
1.33125e-06;-0.010906085453150699
1.33150e-06;-0.010912448248980472
1.33175e-06;-0.010918811044810245
1.33200e-06;-0.010926486119904648
1.33225e-06;-0.010937931143024097
1.33250e-06;-0.010949376166143557
1.33275e-06;-0.010963200942901047
1.33300e-06;-0.010983862334218891
1.33325e-06;-0.011004523725536753
1.33350e-06;-0.011025185116854597
1.33375e-06;-0.011045846508172459
1.33400e-06;-0.011066507899490303
1.33425e-06;-0.011089711245722387
1.33450e-06;-0.011120217182315205
1.33475e-06;-0.011150723118908022
1.33500e-06;-0.011181229055500865
1.33525e-06;-0.011211734992093682
1.33550e-06;-0.011242240928686524
1.33575e-06;-0.011274234572017617
1.33600e-06;-0.01131050213571829
1.33625e-06;-0.011346769699418995
1.33650e-06;-0.011383037263119669
1.33675e-06;-0.011419304826820372
1.33700e-06;-0.011455572390521047
1.33725e-06;-0.01149183995422172
1.33750e-06;-0.011527431798552892
1.33775e-06;-0.011562808158189861
1.33800e-06;-0.01159818451782686
1.33825e-06;-0.01163356087746383
1.33850e-06;-0.01166893723710083
1.33875e-06;-0.011704313596737799
1.33900e-06;-0.011738470121756
1.33925e-06;-0.011769122275993058
1.33950e-06;-0.011798787274946692
1.33975e-06;-0.01182561635001495
1.34000e-06;-0.011851136632725108
1.34025e-06;-0.011872896984680999
1.34050e-06;-0.01189282923567115
1.34075e-06;-0.011907509673414814
1.34100e-06;-0.01191968106142029
1.34125e-06;-0.011924644389861273
1.34150e-06;-0.011929607718302258
1.34175e-06;-0.011931562848328643
1.34200e-06;-0.011924875952242904
1.34225e-06;-0.01191818905615716
1.34250e-06;-0.011908298694886982
1.34275e-06;-0.011889205340343916
1.34300e-06;-0.011870111985800867
1.34325e-06;-0.011847340305505041
1.34350e-06;-0.011814001440860648
1.34375e-06;-0.011780662576216282
1.34400e-06;-0.011747323711571889
1.34425e-06;-0.011713984846927523
1.34450e-06;-0.011669729879509845
1.34475e-06;-0.011621993802664737
1.34500e-06;-0.01157425772581967
1.34525e-06;-0.011526521648974561
1.34550e-06;-0.011476733039960463
1.34575e-06;-0.011421047866240342
1.34600e-06;-0.011364508761116648
1.34625e-06;-0.011305516460934067
1.34650e-06;-0.01124602553310705
1.34675e-06;-0.011184861178295844
1.34700e-06;-0.011122853816883946
1.34725e-06;-0.011060354378171005
1.34750e-06;-0.010997717905951677
1.34775e-06;-0.010935297852434274
1.34800e-06;-0.010873446646756652
1.34825e-06;-0.010812500911970141
1.34850e-06;-0.010752768824098957
1.34875e-06;-0.010694563976162173
1.34900e-06;-0.010638249679897174
1.34925e-06;-0.010584219193906862
1.34950e-06;-0.010532867429545479
1.34975e-06;-0.01048459134012352
1.35000e-06;-0.010439754304014979
1.35025e-06;-0.010398479381988368
1.35050e-06;-0.010360348137535435
1.35075e-06;-0.010324737189427842
1.35100e-06;-0.010291465775136644
1.35125e-06;-0.010260691113051237
1.35150e-06;-0.010232597635624069
1.35175e-06;-0.010207774013904802
1.35200e-06;-0.010186334502575849
1.35225e-06;-0.010166336646770512
1.35250e-06;-0.010150480414276384
1.35275e-06;-0.01013601553767612
1.35300e-06;-0.010125547782378301
1.35325e-06;-0.010115080027080474
1.35350e-06;-0.010106854248522765
1.35375e-06;-0.010105069275676256
1.35400e-06;-0.010103284302829748
1.35425e-06;-0.01010149932998324
1.35450e-06;-0.01009971435713673
1.35475e-06;-0.01010006183208359
1.35500e-06;-0.010106535455299747
1.35525e-06;-0.0101130090785159
1.35550e-06;-0.010119482701732052
1.35575e-06;-0.01012595632494821
1.35600e-06;-0.010133692288513881
1.35625e-06;-0.010145054734365057
1.35650e-06;-0.010156417180216225
1.35675e-06;-0.010168260819178794
1.35700e-06;-0.010181486841501766
1.35725e-06;-0.010194712863824739
1.35750e-06;-0.010208177518813493
1.35775e-06;-0.010222327723571343
1.35800e-06;-0.010236477928329204
1.35825e-06;-0.010250615588239155
1.35850e-06;-0.010264717209002695
1.35875e-06;-0.01027848100061949
1.35900e-06;-0.010291274268386125
1.35925e-06;-0.01030406753615277
1.35950e-06;-0.010316465300535824
1.35975e-06;-0.010327480605358912
1.36000e-06;-0.010337579028742187
1.36025e-06;-0.010347196444146946
1.36050e-06;-0.010357786143274693
1.36075e-06;-0.010371009831578444
1.36100e-06;-0.010387786509881189
1.36125e-06;-0.010407861633638313
1.36150e-06;-0.010429236291415438
1.36175e-06;-0.010454344282365805
1.36200e-06;-0.010480648522757773
1.36225e-06;-0.01051038937785557
1.36250e-06;-0.010542483854831922
1.36275e-06;-0.010581339874408312
1.36300e-06;-0.010620195893984736
1.36325e-06;-0.010662556251054977
1.36350e-06;-0.010714983954739053
1.36375e-06;-0.010767411658423083
1.36400e-06;-0.010819839362107113
1.36425e-06;-0.010872267065791188
1.36450e-06;-0.010924694769475218
1.36475e-06;-0.01098779863180143
1.36500e-06;-0.011054307086156753
1.36525e-06;-0.01112081554051213
1.36550e-06;-0.011187323994867451
1.36575e-06;-0.011253832449222774
1.36600e-06;-0.011321930313581093
1.36625e-06;-0.011394594273938598
1.36650e-06;-0.011467258234296169
1.36675e-06;-0.011540407235386173
1.36700e-06;-0.01161494967337668
1.36725e-06;-0.01168949211136725
1.36750e-06;-0.011763565219744669
1.36775e-06;-0.011836290026510446
1.36800e-06;-0.01190901483327616
1.36825e-06;-0.011980415256802346
1.36850e-06;-0.012048010959708854
1.36875e-06;-0.012115606662615304
1.36900e-06;-0.012177606401453572
1.36925e-06;-0.012223529917607862
1.36950e-06;-0.01226945343376219
1.36975e-06;-0.01231537694991648
1.37000e-06;-0.01236130046607077
1.37025e-06;-0.012407223982225097
1.37050e-06;-0.012453147498379386
1.37075e-06;-0.012499071014533713
1.37100e-06;-0.012544994530688003
1.37125e-06;-0.012590918046842292
1.37150e-06;-0.012636841562996621
1.37175e-06;-0.01268276507915091
1.37200e-06;-0.012723328097631183
1.37225e-06;-0.01274849134705429
1.37250e-06;-0.012773654596477396
1.37275e-06;-0.012798817845900524
1.37300e-06;-0.01282398109532363
1.37325e-06;-0.012849144344746759
1.37350e-06;-0.012874307594169866
1.37375e-06;-0.012899470843592994
1.37400e-06;-0.012924634093016099
1.37425e-06;-0.012949797342439206
1.37450e-06;-0.012974960591862334
1.37475e-06;-0.01300012384128544
1.37500e-06;-0.013023207883949782
1.37525e-06;-0.013040318730494348
1.37550e-06;-0.013057429577038914
1.37575e-06;-0.013074540423583495
1.37600e-06;-0.013091651270128062
1.37625e-06;-0.013108762116672642
1.37650e-06;-0.013125872963217208
1.37675e-06;-0.013142983809761774
1.37700e-06;-0.013160094656306355
1.37725e-06;-0.013177205502850921
1.37750e-06;-0.013189968994648542
1.37775e-06;-0.013201346129253999
1.37800e-06;-0.013212723263859468
1.37825e-06;-0.013224100398464927
1.37850e-06;-0.013235477533070385
1.37875e-06;-0.013246854667675853
1.37900e-06;-0.013258231802281311
1.37925e-06;-0.013269608936886779
1.37950e-06;-0.013280986071492237
1.37975e-06;-0.013289989920006334
1.38000e-06;-0.013292175734088958
1.38025e-06;-0.01329436154817158
1.38050e-06;-0.013296547362254205
1.38075e-06;-0.013298733176336827
1.38100e-06;-0.01330091899041945
1.38125e-06;-0.013303104804502074
1.38150e-06;-0.013305290618584696
1.38175e-06;-0.013303143470258268
1.38200e-06;-0.013288548481360825
1.38225e-06;-0.01327395349246337
1.38250e-06;-0.013259358503565927
1.38275e-06;-0.013244763514668485
1.38300e-06;-0.01323016852577103
1.38325e-06;-0.013215573536873587
1.38350e-06;-0.013200978547976132
1.38375e-06;-0.013184214956814154
1.38400e-06;-0.013161221351933596
1.38425e-06;-0.013138227747053017
1.38450e-06;-0.013113761842857374
1.38475e-06;-0.0130838767026911
1.38500e-06;-0.01305399156252485
1.38525e-06;-0.0130224530717707
1.38550e-06;-0.012982788733581465
1.38575e-06;-0.012943124395392264
1.38600e-06;-0.012903460057203029
1.38625e-06;-0.012863795719013827
1.38650e-06;-0.012824131380824626
1.38675e-06;-0.01278446704263539
1.38700e-06;-0.012744923442224991
1.38725e-06;-0.012706097226787292
1.38750e-06;-0.012667271011349627
1.38775e-06;-0.01262844479591193
1.38800e-06;-0.012589618580474264
1.38825e-06;-0.012550792365036598
1.38850e-06;-0.0125119661495989
1.38875e-06;-0.012473643361524468
1.38900e-06;-0.012439045969640905
1.38925e-06;-0.012404448577757373
1.38950e-06;-0.012370492093309099
1.38975e-06;-0.012341278366788536
1.39000e-06;-0.012312064640267998
1.39025e-06;-0.012282950623599836
1.39050e-06;-0.012254574466514736
1.39075e-06;-0.012226198309429635
1.39100e-06;-0.012197155485914752
1.39125e-06;-0.012163179286188487
1.39150e-06;-0.012129203086462197
1.39175e-06;-0.012094812192794563
1.39200e-06;-0.012057352536198346
1.39225e-06;-0.012019892879602163
1.39250e-06;-0.0119812974841779
1.39275e-06;-0.011934297545391829
1.39300e-06;-0.0118872976066058
1.39325e-06;-0.01184029766781973
1.39350e-06;-0.011793297729033701
1.39375e-06;-0.011745094109761805
1.39400e-06;-0.011687983174312156
1.39425e-06;-0.011630872238862555
1.39450e-06;-0.011573761303412906
1.39475e-06;-0.011516650367963307
1.39500e-06;-0.011458665001499687
1.39525e-06;-0.011394208786992212
1.39550e-06;-0.01132975257248479
1.39575e-06;-0.011265040006090278
1.39600e-06;-0.011198430418569917
1.39625e-06;-0.011131701811190463
1.39650e-06;-0.011064092448886252
1.39675e-06;-0.010996388181133195
1.39700e-06;-0.010927971628328426
1.39725e-06;-0.010859514717865767
1.39750e-06;-0.010791393726150355
