Time(s);Current(A)
3.50000e-06;0.003495516196138173
3.50025e-06;0.0035279760862975953
3.50050e-06;0.003560435976457072
3.50075e-06;0.0035928958666165494
3.50100e-06;0.003625355756775971
3.50125e-06;0.0036578156469354484
3.50150e-06;0.003690275537094925
3.50175e-06;0.0037227354272544025
3.50200e-06;0.003755195317413824
3.50225e-06;0.0037876552075733014
3.50250e-06;0.0038201150977327783
3.50275e-06;0.0038407817962422086
3.50300e-06;0.003839996943545005
3.50325e-06;0.0038392120908478013
3.50350e-06;0.0038384272381505975
3.50375e-06;0.003837642385453395
3.50400e-06;0.003836857532756191
3.50425e-06;0.0038360726800589873
3.50450e-06;0.003835287827361785
3.50475e-06;0.0038345029746645813
3.50500e-06;0.0038337181219673775
3.50525e-06;0.003832933269270175
3.50550e-06;0.003832148416572971
3.50575e-06;0.0038252702211048696
3.50600e-06;0.0038073083717498346
3.50625e-06;0.0037893465223948295
3.50650e-06;0.003771384673039794
3.50675e-06;0.0037534228236847586
3.50700e-06;0.003735460974329754
3.50725e-06;0.0037174991249747185
3.50750e-06;0.003699537275619683
3.50775e-06;0.003681575426264648
3.50800e-06;0.003663178288157817
3.50825e-06;0.0036439893695705827
3.50850e-06;0.0036248004509833484
3.50875e-06;0.0036056115323961466
3.50900e-06;0.0035864226138089123
3.50925e-06;0.0035672336952216784
3.50950e-06;0.0035480447766344765
3.50975e-06;0.003528855858047242
3.51000e-06;0.003509666939460008
3.51025e-06;0.003489891946935237
3.51050e-06;0.0034690508990579167
3.51075e-06;0.0034482098511805616
3.51100e-06;0.003427368803303206
3.51125e-06;0.003406527755425886
3.51150e-06;0.0033856867075485303
3.51175e-06;0.003364845659671175
3.51200e-06;0.0033440046117938194
3.51225e-06;0.0033231635639164995
3.51250e-06;0.003302322516039144
3.51275e-06;0.0032814814681617886
3.51300e-06;0.003244794786076597
3.51325e-06;0.003205415163644146
3.51350e-06;0.0031660355412116955
3.51375e-06;0.003126655918779311
3.51400e-06;0.0030872762963468606
3.51425e-06;0.0030478966739144095
3.51450e-06;0.003008517051481959
3.51475e-06;0.0029691374290495747
3.51500e-06;0.002929757806617124
3.51525e-06;0.0028903781841846735
3.51550e-06;0.0028466290243319595
3.51575e-06;0.0027949317738763415
3.51600e-06;0.0027432345234207236
3.51625e-06;0.0026915372729651057
3.51650e-06;0.0026398400225095754
3.51675e-06;0.0025881427720539575
3.51700e-06;0.0025364455215983396
3.51725e-06;0.0024848141457600413
3.51750e-06;0.002433302594373498
3.51775e-06;0.002381791042986954
3.51800e-06;0.0023302794916004975
3.51825e-06;0.002278767940213954
3.51850e-06;0.0022272563888274103
3.51875e-06;0.0021757448374408665
3.51900e-06;0.0021272506914672314
3.51925e-06;0.002084245138289562
3.51950e-06;0.0020412395851118923
3.51975e-06;0.0019982340319342957
3.52000e-06;0.001955228478756626
3.52025e-06;0.0019200937443891186
3.52050e-06;0.0018862966431679742
3.52075e-06;0.001852499541946887
3.52100e-06;0.0018187024407257425
3.52125e-06;0.0017851780694921613
3.52150e-06;0.0017521497879914472
3.52175e-06;0.0017191215064906772
3.52200e-06;0.0016860932249899072
3.52225e-06;0.0016530649434891931
3.52250e-06;0.0016200366619884233
3.52275e-06;0.0015870083804876533
3.52300e-06;0.0015539800989868833
3.52325e-06;0.0015209518174861692
3.52350e-06;0.0014865862289460987
3.52375e-06;0.0014497881088837144
3.52400e-06;0.0014129899888213923
3.52425e-06;0.001376191868759008
3.52450e-06;0.0013393937486966237
3.52475e-06;0.0013025956286342394
3.52500e-06;0.0012657975085719174
3.52525e-06;0.0012289993885095329
3.52550e-06;0.0011922012684471486
3.52575e-06;0.0011544748852270544
3.52600e-06;0.001115060012134359
3.52625e-06;0.0010756451390416637
3.52650e-06;0.0010362302659490351
3.52675e-06;0.0009968153928563398
3.52700e-06;0.0009574005197636443
3.52725e-06;0.0009190747794781603
3.52750e-06;0.0008809341355822038
3.52775e-06;0.0008427934916861825
3.52800e-06;0.0008046528477901614
3.52825e-06;0.0007665122038942049
3.52850e-06;0.0007297168980528435
3.52875e-06;0.0006953687319707891
3.52900e-06;0.0006610205658887929
3.52925e-06;0.0006277859528081389
3.52950e-06;0.0005965768676714869
3.52975e-06;0.0005666336595268772
3.53000e-06;0.0005389930532502331
3.53025e-06;0.0005128622601922882
3.53050e-06;0.0004894777835296747
3.53075e-06;0.0004673324750233045
3.53100e-06;0.0004474411856112605
3.53125e-06;0.00042869064327620245
3.53150e-06;0.0004120150942989839
3.53175e-06;0.0003966239182084383
3.53200e-06;0.000383568987603444
3.53225e-06;0.0003715575806092614
3.53250e-06;0.00036238293857002743
3.53275e-06;0.000354915623270591
3.53300e-06;0.0003484846097687938
3.53325e-06;0.0003439386060033711
3.53350e-06;0.0003404187604595484
3.53375e-06;0.00033876547371470655
3.53400e-06;0.00033816355184886835
3.53425e-06;0.0003394740391266731
3.53450e-06;0.00034173343342235377
3.53475e-06;0.00034571886830935656
3.53500e-06;0.0003504301496218584
3.53525e-06;0.0003564617293091185
3.53550e-06;0.00036330352003416107
3.53575e-06;0.000371619066472259
3.53600e-06;0.0003799346129103429
3.53625e-06;0.0003890715498287117
3.53650e-06;0.0003997025776153937
3.53675e-06;0.0004103336054020578
3.53700e-06;0.00042148530328287254
3.53725e-06;0.0004335840883916727
3.53750e-06;0.00044568287350045234
3.53775e-06;0.00045778165860925246
3.53800e-06;0.0004698804437180526
3.53825e-06;0.0004819792288268527
3.53850e-06;0.00049372241140922
3.53875e-06;0.0005054051599074475
3.53900e-06;0.0005170879084056751
3.53925e-06;0.0005287706569038829
3.53950e-06;0.0005404534054021104
3.53975e-06;0.0005512920550748644
3.54000e-06;0.0005605953079084493
3.54025e-06;0.0005698985607420185
3.54050e-06;0.000578199552552317
3.54075e-06;0.0005846774540315463
3.54100e-06;0.000589873919873407
3.54125e-06;0.0005927394830201794
3.54150e-06;0.0005943194188839173
3.54175e-06;0.0005935608275430632
3.54200e-06;0.0005915628202640347
3.54225e-06;0.0005873103431806759
3.54250e-06;0.0005817280406982459
3.54275e-06;0.0005737268156290875
3.54300e-06;0.0005642629540034977
3.54325e-06;0.000552138589273527
3.54350e-06;0.0005386759642319234
3.54375e-06;0.0005227790736866595
3.54400e-06;0.000505699855145898
3.54425e-06;0.00048647000848864416
3.54450e-06;0.0004661281987646398
3.54475e-06;0.00044376375315187394
3.54500e-06;0.0004203311141319627
3.54525e-06;0.0003949554552529491
3.54550e-06;0.0003687164980405032
3.54575e-06;0.00034090722051440025
3.54600e-06;0.0003124592693712536
3.54625e-06;0.0002828495852373514
3.54650e-06;0.0002526838094447252
3.54675e-06;0.00022150651539220876
3.54700e-06;0.00019032922133974516
3.54725e-06;0.00015887217881690367
3.54750e-06;0.00012690628009837397
3.54775e-06;9.494038137989843e-05
3.54800e-06;6.30954949211984e-05
3.54825e-06;3.164085004843878e-05
3.54850e-06;7.189493909244058e-07
3.54875e-06;-2.952684548729503e-05
3.54900e-06;-5.8951295222391874e-05
3.54925e-06;-8.7371933618307e-05
3.54950e-06;-0.0001145829599630881
3.54975e-06;-0.0001403764311373518
3.55000e-06;-0.00016454444134712096
3.55025e-06;-0.0001868826445509905
3.55050e-06;-0.0002072180649633018
3.55075e-06;-0.0002254564455473178
3.55100e-06;-0.00024156958885213396
3.55125e-06;-0.0002555304752552861
3.55150e-06;-0.0002672956193233048
3.55175e-06;-0.0002768191074048755
3.55200e-06;-0.0002840551009670227
3.55225e-06;-0.000288959981190635
3.55250e-06;-0.0002915097564844005
3.55275e-06;-0.00029172977129973395
3.55300e-06;-0.0002896867720093286
3.55325e-06;-0.00028544819835178475
3.55350e-06;-0.00027907120954159624
3.55375e-06;-0.0002706114502336856
3.55400e-06;-0.00026012453971696256
3.55425e-06;-0.00024766754739290154
3.55450e-06;-0.00023330983948507213
3.55475e-06;-0.0002171516707564252
3.55500e-06;-0.00019931921231100384
3.55525e-06;-0.00017993906813929992
3.55550e-06;-0.0001591313907375678
3.55575e-06;-0.0001370153748433717
3.55600e-06;-0.0001137102203565068
3.55625e-06;-8.933600122253854e-05
3.55650e-06;-6.402048387616886e-05
3.55675e-06;-3.79107870326864e-05
3.55700e-06;-1.117024865915427e-05
3.55725e-06;1.603752985180897e-05
3.55750e-06;4.355060108171923e-05
3.55775e-06;7.11916730196975e-05
3.55800e-06;9.883274495762893e-05
3.55825e-06;0.00012627688979574005
3.55850e-06;0.0001533628389095654
3.55875e-06;0.00018000132081450758
3.55900e-06;0.0002058258698985712
3.55925e-06;0.0002309393001004144
3.55950e-06;0.0002547592209983639
3.55975e-06;0.0002778827892732122
3.56000e-06;0.00029893010583163153
3.56025e-06;0.0003185047746721367
3.56050e-06;0.00033785855101285336
3.56075e-06;0.0003577581504974181
3.56100e-06;0.0003807372743771952
3.56125e-06;0.00040746073970349903
3.56150e-06;0.0004376601282896016
3.56175e-06;0.0004709771532031049
3.56200e-06;0.0005070535462910374
3.56225e-06;0.0005455932946304114
3.56250e-06;0.0005867395214546891
3.56275e-06;0.0006314508609506872
3.56300e-06;0.0006807766043867196
3.56325e-06;0.0007348897576257165
3.56350e-06;0.0007940184317501647
3.56375e-06;0.0008569393415907783
3.56400e-06;0.0009221064366485442
3.56425e-06;0.0009913592922586466
3.56450e-06;0.0010628091483570316
3.56475e-06;0.0011382552990881992
3.56500e-06;0.0012167074241561033
3.56525e-06;0.001300627349150413
3.56550e-06;0.0013845472741447226
3.56575e-06;0.0014711599178225333
3.56600e-06;0.0015626705564171608
3.56625e-06;0.0016541811950117882
3.56650e-06;0.0017456918336062606
3.56675e-06;0.0018372024722008878
3.56700e-06;0.001929637255098637
3.56725e-06;0.002023753035764948
3.56750e-06;0.0021178688164314187
3.56775e-06;0.002211984597097889
3.56800e-06;0.00230610037776436
3.56825e-06;0.002397020715077367
3.56850e-06;0.002482128612570352
3.56875e-06;0.0025672365100633376
3.56900e-06;0.002652344407556179
3.56925e-06;0.0027374523050491643
3.56950e-06;0.0028225602025421497
3.56975e-06;0.0028876495711013467
3.57000e-06;0.0029493368224848405
3.57025e-06;0.0030110240738684393
3.57050e-06;0.0030727113252520376
3.57075e-06;0.003134398576635532
3.57100e-06;0.0031862468398997836
3.57125e-06;0.003220198204357391
3.57150e-06;0.0032541495688149405
3.57175e-06;0.0032804454052305916
3.57200e-06;0.003292816007768794
3.57225e-06;0.003305186610306996
3.57250e-06;0.0033096854812338264
3.57275e-06;0.0032998658488377188
3.57300e-06;0.003290046216441611
3.57325e-06;0.003272735665852126
3.57350e-06;0.0032417993030093902
3.57375e-06;0.003210862940166654
3.57400e-06;0.0031731405989488017
3.57425e-06;0.0031230747152031367
3.57450e-06;0.003073008831457387
3.57475e-06;0.0030170176263824315
3.57500e-06;0.002950248394650852
3.57525e-06;0.0028834791629191586
3.57550e-06;0.0028120415804634103
3.57575e-06;0.0027321123727014635
3.57600e-06;0.002652183164939381
3.57625e-06;0.002568284880322931
3.57650e-06;0.0024771669338918903
3.57675e-06;0.002386048987461004
3.57700e-06;0.0022949310410299633
3.57725e-06;0.0022038130945989222
3.57750e-06;0.0021116507304773276
3.57775e-06;0.002017588593991155
3.57800e-06;0.0019235264575049823
3.57825e-06;0.0018294643210188097
3.57850e-06;0.0017354021845327964
3.57875e-06;0.0016439186713739476
3.57900e-06;0.0015571256162369492
3.57925e-06;0.0014703325611000978
3.57950e-06;0.0013869372649542384
3.57975e-06;0.0013097224162384265
3.58000e-06;0.0012362338992247142
3.58025e-06;0.0011695234960356514
3.58050e-06;0.0011065033103206086
3.58075e-06;0.0010501955474593568
3.58100e-06;0.0009959997752084057
3.58125e-06;0.0009470715487530536
3.58150e-06;0.0009022635757091207
3.58175e-06;0.0008618597311011039
3.58200e-06;0.0008261437566273203
3.58225e-06;0.0007953650179702564
3.58250e-06;0.0007695203711274839
3.58275e-06;0.0007481043174113979
3.58300e-06;0.0007304620574371642
3.58325e-06;0.0007163387260809593
3.58350e-06;0.0007057743430870977
3.58375e-06;0.0006988385867635072
3.58400e-06;0.0006956012067986479
3.58425e-06;0.0006967179544858772
3.58450e-06;0.0007013611504931179
3.58475e-06;0.0007080493740223702
3.58500e-06;0.0007184574567664857
3.58525e-06;0.0007305491769710978
3.58550e-06;0.0007457033959707667
3.58575e-06;0.0007624448858775884
3.58600e-06;0.0007820735859793033
3.58625e-06;0.0008033884461000785
3.58650e-06;0.0008277703934932971
3.58675e-06;0.0008521523408865159
3.58700e-06;0.000877830727805804
3.58725e-06;0.0009058673091581571
3.58750e-06;0.0009339038905105102
3.58775e-06;0.0009619404718628159
3.58800e-06;0.000989977053215169
3.58825e-06;0.0010180130811877
3.58850e-06;0.001046048102574693
3.58875e-06;0.0010740831239617337
3.58900e-06;0.0011021181453487743
3.58925e-06;0.0011301531667358149
3.58950e-06;0.0011566034982782964
3.58975e-06;0.001180171314520872
3.59000e-06;0.0012037391307634477
3.59025e-06;0.0012265898865177485
3.59050e-06;0.0012481363253197821
3.59075e-06;0.0012696827641218158
3.59100e-06;0.0012912292029238495
3.59125e-06;0.0013154230169896731
3.59150e-06;0.0013444323473089138
3.59175e-06;0.0013734416776281545
3.59200e-06;0.0014024510079473462
3.59225e-06;0.0014336608524411645
3.59250e-06;0.0014688733828852303
3.59275e-06;0.0015040859133292363
3.59300e-06;0.001542509698621942
3.59325e-06;0.00158677468449127
3.59350e-06;0.0016310396703605983
3.59375e-06;0.0016778637075313524
3.59400e-06;0.0017293426016483304
3.59425e-06;0.001780821495765308
3.59450e-06;0.0018345384395898317
3.59475e-06;0.0018923263456578983
3.59500e-06;0.0019501142517259651
3.59525e-06;0.002010833703814846
3.59550e-06;0.002076885572393288
3.59575e-06;0.0021429374409718416
3.59600e-06;0.0022089893095503955
3.59625e-06;0.0022750411781288374
3.59650e-06;0.0023410930467073912
3.59675e-06;0.0024071449152859446
3.59700e-06;0.002475180416966874
3.59725e-06;0.0025435530339410896
3.59750e-06;0.0026119256509153058
3.59775e-06;0.0026802982678895216
3.59800e-06;0.002748670884863622
3.59825e-06;0.0028170435018378378
3.59850e-06;0.002882109744261926
3.59875e-06;0.002941161765504504
3.59900e-06;0.003000213786747182
3.59925e-06;0.00305926580798986
3.59950e-06;0.0031183178292325383
3.59975e-06;0.0031773698504751167
3.60000e-06;0.0032281596218941325
3.60025e-06;0.0032639205461142177
3.60050e-06;0.003299681470334242
3.60075e-06;0.0033354423945543272
3.60100e-06;0.0033712033187744124
3.60125e-06;0.003406964242994437
3.60150e-06;0.0034334002767100916
3.60175e-06;0.003442874543651451
3.60200e-06;0.0034523488105928104
3.60225e-06;0.003455229405530962
3.60250e-06;0.0034461162589179153
3.60275e-06;0.0034370031123048686
3.60300e-06;0.0034211386767990064
3.60325e-06;0.0033929937981532527
3.60350e-06;0.003364848919507499
3.60375e-06;0.0033306108609873065
3.60400e-06;0.003285289444877506
3.60425e-06;0.003239968028767706
3.60450e-06;0.0031892283359157537
3.60475e-06;0.0031286329191415043
3.60500e-06;0.003068037502367152
3.60525e-06;0.0030015494890096306
3.60550e-06;0.0029243429745726595
3.60575e-06;0.0028471364601355574
3.60600e-06;0.002769929945698455
3.60625e-06;0.0026927234312613527
3.60650e-06;0.0026155169168243816
3.60675e-06;0.0025288679526625384
3.60700e-06;0.00244061425917675
3.60725e-06;0.002352360565691111
3.60750e-06;0.002264106872205323
3.60775e-06;0.0021758531787195346
3.60800e-06;0.0020883325670815666
3.60825e-06;0.0020021454148895536
3.60850e-06;0.001915958262697541
3.60875e-06;0.0018297711105055281
3.60900e-06;0.0017435839583136614
3.60925e-06;0.0016687210558616855
3.60950e-06;0.0015957826916556104
3.60975e-06;0.0015228443274496587
3.61000e-06;0.0014499059632435835
3.61025e-06;0.0013825450183638924
3.61050e-06;0.0013253292742000514
3.61075e-06;0.001271121231963549
3.61100e-06;0.0012223841321036852
3.61125e-06;0.0011764064772456385
3.61150e-06;0.0011354481909826592
3.61175e-06;0.0010976049375541282
3.61200e-06;0.0010654278590164852
3.61225e-06;0.001036585554659182
3.61250e-06;0.001013809129774386
3.61275e-06;0.0009937871323056797
3.61300e-06;0.0009787753765560965
3.61325e-06;0.0009662099416175499
3.61350e-06;0.0009580943093908523
3.61375e-06;0.0009524950789869833
3.61400e-06;0.0009514731270843264
3.61425e-06;0.0009529525552201459
3.61450e-06;0.0009589819375682116
3.61475e-06;0.0009669965597038852
3.61500e-06;0.0009786222885066309
3.61525e-06;0.000992274808763493
3.61550e-06;0.001009614017237255
3.61575e-06;0.0010269532257109876
3.61600e-06;0.0010464723927765453
3.61625e-06;0.001069956855648693
3.61650e-06;0.0010934413185208008
3.61675e-06;0.0011185770607753044
3.61700e-06;0.0011467164432067618
3.61725e-06;0.0011748558256382189
3.61750e-06;0.0012029952080696285
3.61775e-06;0.0012311345905010858
3.61800e-06;0.0012592739729325431
3.61825e-06;0.0012877094812397342
3.61850e-06;0.0013161953156689398
3.61875e-06;0.0013446811500981452
3.61900e-06;0.0013731669845273508
3.61925e-06;0.001401652818956508
3.61950e-06;0.0014253186344182968
3.61975e-06;0.001440216943436764
3.62000e-06;0.001455115252455206
3.62025e-06;0.001470013561473673
3.62050e-06;0.00148491187049214
3.62075e-06;0.0014998101795105818
3.62100e-06;0.001514708488529049
3.62125e-06;0.001529606797547516
3.62150e-06;0.0015445051065659833
3.62175e-06;0.0015594034155844252
3.62200e-06;0.0015743017246028922
3.62225e-06;0.0015892000336213592
3.62250e-06;0.0015955223113154416
3.62275e-06;0.001586244980293514
3.62300e-06;0.0015769676492715867
3.62325e-06;0.0015676903182496593
3.62350e-06;0.0015584129872277476
3.62375e-06;0.00154913565620582
3.62400e-06;0.0015398583251838927
3.62425e-06;0.001530580994161981
3.62450e-06;0.0015213036631400534
3.62475e-06;0.001512026332118126
3.62500e-06;0.0015027490010962143
3.62525e-06;0.001493471670074287
3.62550e-06;0.0014794218849414897
3.62575e-06;0.0014566911127728965
3.62600e-06;0.0014339603406043414
3.62625e-06;0.001411229568435748
3.62650e-06;0.0013884987962671546
3.62675e-06;0.0013657680240985997
3.62700e-06;0.0013430372519300062
3.62725e-06;0.0013179732332000173
3.62750e-06;0.0012925126829250342
3.62775e-06;0.001267052132650094
3.62800e-06;0.001241591582375111
3.62825e-06;0.0012161310321001277
3.62850e-06;0.0011906704818251878
3.62875e-06;0.0011661218801778711
3.62900e-06;0.0011432320926396914
3.62925e-06;0.0011203423051015504
3.62950e-06;0.0010974525175633707
3.62975e-06;0.001074562730025191
3.63000e-06;0.001057257497944316
3.63025e-06;0.0010409013521882286
3.63050e-06;0.0010245452064321133
3.63075e-06;0.001008189060675998
3.63100e-06;0.0009949064947416607
3.63125e-06;0.000987214701597905
3.63150e-06;0.0009816882754385627
3.63175e-06;0.0009801006032794856
3.63200e-06;0.000980630021909898
3.63225e-06;0.0009850103812242838
3.63250e-06;0.000991636595379306
3.63275e-06;0.001002347969140593
3.63300e-06;0.001015468444790045
3.63325e-06;0.0010329710227654373
3.63350e-06;0.0010526901966557561
3.63375e-06;0.0010764413088225483
3.63400e-06;0.001102637843590428
3.63425e-06;0.001133282547246863
3.63450e-06;0.001163927250903246
3.63475e-06;0.0011972897102381236
3.63500e-06;0.0012355957062239892
3.63525e-06;0.00127390170220979
3.63550e-06;0.001315061121407331
3.63575e-06;0.0013614108534573822
3.63600e-06;0.0014077605855074334
3.63625e-06;0.0014541103175574064
3.63650e-06;0.0015004600496074576
3.63675e-06;0.0015468097816575088
3.63700e-06;0.0015945227208490227
3.63725e-06;0.0016447153032700275
3.63750e-06;0.0016949078856910323
3.63775e-06;0.001745100468111952
3.63800e-06;0.0017952930505329568
3.63825e-06;0.0018454856329539616
3.63850e-06;0.0018934912775900794
3.63875e-06;0.0019375189314232353
3.63900e-06;0.0019815465852564655
3.63925e-06;0.002025574239089696
3.63950e-06;0.0020696018929228515
3.63975e-06;0.002113629546756082
3.64000e-06;0.0021537413913618447
3.64025e-06;0.0021867304667692305
3.64050e-06;0.0022197195421765604
3.64075e-06;0.002252708617583946
3.64100e-06;0.002285697692991332
3.64125e-06;0.002318686768398662
3.64150e-06;0.002351316697548397
3.64175e-06;0.0023832933477069594
3.64200e-06;0.002415269997865467
3.64225e-06;0.0024472466480240295
3.64250e-06;0.002479223298182592
3.64275e-06;0.002511199948341154
3.64300e-06;0.002543176598499662
3.64325e-06;0.0025751532486582244
3.64350e-06;0.0026071298988167868
3.64375e-06;0.0026391065489752945
3.64400e-06;0.002671083199133857
3.64425e-06;0.0027030598492924192
3.64450e-06;0.002735036499450981
3.64475e-06;0.0027670131496094893
3.64500e-06;0.0028016904447584904
3.64525e-06;0.002836826710231726
3.64550e-06;0.002871962975704902
3.64575e-06;0.0029070992411781376
3.64600e-06;0.0029422355066513733
3.64625e-06;0.002977371772124549
3.64650e-06;0.003012508037597785
3.64675e-06;0.00304764430307102
3.64700e-06;0.0030827805685442558
3.64725e-06;0.0031179168340174316
