Time(s);Current(A)
6.00000e-06;0.0032352690543543876
6.00025e-06;0.0032077247783324405
6.00050e-06;0.0031801805023105867
6.00075e-06;0.0031526362262887333
6.00100e-06;0.0031250919502667862
6.00125e-06;0.0030977862493933917
6.00150e-06;0.0030877501233037992
6.00175e-06;0.0030777139972141725
6.00200e-06;0.0030676778711245796
6.00225e-06;0.0030576417450349867
6.00250e-06;0.00304760561894536
6.00275e-06;0.0030375694928557674
6.00300e-06;0.0030275333667661745
6.00325e-06;0.0030174972406765478
6.00350e-06;0.003007461114586955
6.00375e-06;0.002997424988497328
6.00400e-06;0.0029873888624077356
6.00425e-06;0.0029775965111641127
6.00450e-06;0.002985450121605228
6.00475e-06;0.0029933037320463165
6.00500e-06;0.003001157342487405
6.00525e-06;0.0030090109529285203
6.00550e-06;0.0030168645633696094
6.00575e-06;0.003024718173810698
6.00600e-06;0.003032571784251813
6.00625e-06;0.003040425394692902
6.00650e-06;0.0030482790051339905
6.00675e-06;0.0030561326155751057
6.00700e-06;0.0030639862260161944
6.00725e-06;0.00307192656753866
6.00750e-06;0.0030861450520386505
6.00775e-06;0.0031003635365385923
6.00800e-06;0.0031145820210385826
6.00825e-06;0.0031288005055385244
6.00850e-06;0.003143018990038466
6.00875e-06;0.0031572374745384565
6.00900e-06;0.0031714559590383983
6.00925e-06;0.0031856744435383405
6.00950e-06;0.0031998929280383304
6.00975e-06;0.0032141114125382726
6.01000e-06;0.0032283298970382144
6.01025e-06;0.0032425483815382047
6.01050e-06;0.0032567668660381465
6.01075e-06;0.0032683772781409645
6.01100e-06;0.0032775180022502734
6.01125e-06;0.003286658726359551
6.01150e-06;0.0032957994504688283
6.01175e-06;0.0033049401745781372
6.01200e-06;0.003314080898687415
6.01225e-06;0.0033232216227967234
6.01250e-06;0.003332362346906001
6.01275e-06;0.0033415030710152787
6.01300e-06;0.003350643795124587
6.01325e-06;0.003359784519233865
6.01350e-06;0.0033689252433431426
6.01375e-06;0.003378065967452451
6.01400e-06;0.0033871813898116343
6.01425e-06;0.0033944653118395604
6.01450e-06;0.0034017492338675108
6.01475e-06;0.0034090331558954364
6.01500e-06;0.0034163170779233625
6.01525e-06;0.003423600999951313
6.01550e-06;0.0034308849219792385
6.01575e-06;0.0034381688440071646
6.01600e-06;0.003445452766035115
6.01625e-06;0.0034527366880630407
6.01650e-06;0.0034600206100909915
6.01675e-06;0.003467304532118917
6.01700e-06;0.0034745884541468428
6.01725e-06;0.0034818723761747936
6.01750e-06;0.0034891562982027192
6.01775e-06;0.003495533075199083
6.01800e-06;0.003501050840307982
6.01825e-06;0.0035065686054168627
6.01850e-06;0.0035120863705257435
6.01875e-06;0.003517604135634643
6.01900e-06;0.0035231219007435238
6.01925e-06;0.003528639665852404
6.01950e-06;0.0035341574309613035
6.01975e-06;0.0035396751960701843
6.02000e-06;0.003545192961179065
6.02025e-06;0.0035507107262879646
6.02050e-06;0.003556228491396845
6.02075e-06;0.0035617462565057443
6.02100e-06;0.003567264021614625
6.02125e-06;0.0035729139204467232
6.02150e-06;0.0035881284919331256
6.02175e-06;0.0036033430634194764
6.02200e-06;0.0036185576349058272
6.02225e-06;0.0036337722063922297
6.02250e-06;0.003648986777878581
6.02275e-06;0.0036642013493649317
6.02300e-06;0.003679415920851334
6.02325e-06;0.0036946304923376853
6.02350e-06;0.003709845063824036
6.02375e-06;0.0037250596353104386
6.02400e-06;0.0037402742067967894
6.02425e-06;0.0037668844533401717
6.02450e-06;0.0038042857200602767
6.02475e-06;0.003841686986780255
6.02500e-06;0.0038790882535003606
6.02525e-06;0.003916489520220339
6.02550e-06;0.003953890786940317
6.02575e-06;0.003991292053660423
6.02600e-06;0.004028693320380401
6.02625e-06;0.00406609458710038
6.02650e-06;0.004103495853820484
6.02675e-06;0.004140897120540463
6.02700e-06;0.004178425583631283
6.02725e-06;0.004225161322638167
6.02750e-06;0.004271897061644892
6.02775e-06;0.004318632800651616
6.02800e-06;0.0043653685396585
6.02825e-06;0.004412104278665225
6.02850e-06;0.00445884001767195
6.02875e-06;0.004505575756678834
6.02900e-06;0.004552311495685558
6.02925e-06;0.00459454808114341
6.02950e-06;0.004632524238282732
6.02975e-06;0.004670500395422054
6.03000e-06;0.004708476552561504
6.03025e-06;0.004746452709700826
6.03050e-06;0.004784428866840148
6.03075e-06;0.004822405023979598
6.03100e-06;0.00486038118111892
6.03125e-06;0.004897916821388447
6.03150e-06;0.004903565071060038
6.03175e-06;0.00490921332073161
6.03200e-06;0.004914861570403182
6.03225e-06;0.004920509820074773
6.03250e-06;0.004926158069746345
6.03275e-06;0.004931806319417916
6.03300e-06;0.004937454569089507
6.03325e-06;0.004943102818761079
6.03350e-06;0.0049487510684326705
6.03375e-06;0.004954399318104242
6.03400e-06;0.004938992723464514
6.03425e-06;0.004903648455224709
6.03450e-06;0.004868304186985023
6.03475e-06;0.004832959918745338
6.03500e-06;0.004797615650505533
6.03525e-06;0.004762271382265847
6.03550e-06;0.0047269271140261615
6.03575e-06;0.0046915828457863564
6.03600e-06;0.004656238577546671
6.03625e-06;0.004620894309306985
6.03650e-06;0.004585253651195384
6.03675e-06;0.004528158424053222
6.03700e-06;0.0044710631969110595
6.03725e-06;0.004413967969768704
6.03750e-06;0.004356872742626542
6.03775e-06;0.004299777515484186
6.03800e-06;0.004242682288342024
6.03825e-06;0.004185587061199862
6.03850e-06;0.004128654505618378
6.03875e-06;0.004071875990239731
6.03900e-06;0.004015097474861084
6.03925e-06;0.003958318959482245
6.03950e-06;0.003901540444103598
6.03975e-06;0.0038447619287249506
6.04000e-06;0.0037879834133461117
6.04025e-06;0.0037314767287041795
6.04050e-06;0.003694646867911912
6.04075e-06;0.0036578170071195192
6.04100e-06;0.0036209871463272515
6.04125e-06;0.0035841572855349843
6.04150e-06;0.0035473274247425917
6.04175e-06;0.003510497563950324
6.04200e-06;0.0034736677031579318
6.04225e-06;0.003436837842365664
6.04250e-06;0.0034000079815733964
6.04275e-06;0.0033631781207810038
6.04300e-06;0.0033349453041482905
6.04325e-06;0.0033148533722361265
6.04350e-06;0.003294761440323894
6.04375e-06;0.00327466950841173
6.04400e-06;0.0032545775764995654
6.04425e-06;0.003234485644587333
6.04450e-06;0.0032143937126751687
6.04475e-06;0.0031943017807630047
6.04500e-06;0.003174209848850772
6.04525e-06;0.0031541179169386076
6.04550e-06;0.0031341503869032816
6.04575e-06;0.003123187849615876
6.04600e-06;0.0031122253123285074
6.04625e-06;0.003101262775041102
6.04650e-06;0.0030903002377537336
6.04675e-06;0.003079337700466365
6.04700e-06;0.0030683751631789594
6.04725e-06;0.0030574126258915914
6.04750e-06;0.003046450088604223
6.04775e-06;0.003035487551316817
6.04800e-06;0.0030245250140294487
6.04825e-06;0.0030135624767420803
6.04850e-06;0.0030052549072924935
6.04875e-06;0.0029994614330018108
6.04900e-06;0.002993667958711128
6.04925e-06;0.0029878744844204254
6.04950e-06;0.0029820810101297427
6.04975e-06;0.00297628753583906
6.05000e-06;0.0029704940615483577
6.05025e-06;0.002964700587257675
6.05050e-06;0.0029589071129669724
6.05075e-06;0.0029531136386762896
6.05100e-06;0.002947320164385607
6.05125e-06;0.002941775483315605
6.05150e-06;0.0029542400252574865
6.05175e-06;0.0029667045671993675
6.05200e-06;0.002979169109141291
6.05225e-06;0.0029916336510831722
6.05250e-06;0.0030040981930250536
6.05275e-06;0.003016562734966977
6.05300e-06;0.003029027276908858
6.05325e-06;0.0030414918188507393
6.05350e-06;0.0030539563607926627
6.05375e-06;0.0030668540919891133
6.05400e-06;0.0031111087945050134
6.05425e-06;0.0031553634970210636
6.05450e-06;0.0031996181995369638
6.05475e-06;0.003243872902053014
6.05500e-06;0.003288127604568914
6.05525e-06;0.0033323823070848142
6.05550e-06;0.0033766370096008644
6.05575e-06;0.0034208917121167646
6.05600e-06;0.0034651464146326647
6.05625e-06;0.0035096613901019307
6.05650e-06;0.0035730165640175697
6.05675e-06;0.0036363717379332083
6.05700e-06;0.003699726911849062
6.05725e-06;0.003763082085764701
6.05750e-06;0.00382643725968034
6.05775e-06;0.0038897924335961932
6.05800e-06;0.003953147607511832
6.05825e-06;0.004016324977999133
6.05850e-06;0.004079333979313972
6.05875e-06;0.004142342980628598
6.05900e-06;0.0042053519819434376
6.05925e-06;0.004268360983258063
6.05950e-06;0.004331369984572689
6.05975e-06;0.004394378985887528
6.06000e-06;0.004457018132187887
6.06025e-06;0.004492884839130405
6.06050e-06;0.0045287515460730446
6.06075e-06;0.004564618253015564
6.06100e-06;0.004600484959958082
6.06125e-06;0.004636351666900722
6.06150e-06;0.004672218373843241
6.06175e-06;0.004708085080785759
6.06200e-06;0.0047439517877284
6.06225e-06;0.004779818494670918
6.06250e-06;0.004815685201613436
6.06275e-06;0.004851551908556077
6.06300e-06;0.00488685722980141
6.06325e-06;0.004881525912528112
6.06350e-06;0.004876194595254834
6.06375e-06;0.004870863277981555
6.06400e-06;0.004865531960708258
6.06425e-06;0.004860200643434978
6.06450e-06;0.0048548693261617
6.06475e-06;0.004849538008888403
6.06500e-06;0.004844206691615123
6.06525e-06;0.004838875374341844
6.06550e-06;0.004833544057068547
6.06575e-06;0.004828212739795269
6.06600e-06;0.004822554249772655
6.06625e-06;0.004793212932059295
6.06650e-06;0.004763871614346034
6.06675e-06;0.004734530296632774
6.06700e-06;0.004705188978919413
6.06725e-06;0.004675847661206153
6.06750e-06;0.004646506343492793
6.06775e-06;0.0046171650257795325
6.06800e-06;0.004587823708066272
6.06825e-06;0.004558440912962045
6.06850e-06;0.004526055722634082
6.06875e-06;0.00449367053230612
6.06900e-06;0.004461285341978048
6.06925e-06;0.004428900151650086
6.06950e-06;0.004396514961322123
6.06975e-06;0.004364129770994052
6.07000e-06;0.004331744580666089
6.07025e-06;0.004299359390338127
6.07050e-06;0.004267137506232651
6.07075e-06;0.004246736756777411
6.07100e-06;0.0042263360073221705
6.07125e-06;0.004205935257866861
6.07150e-06;0.0041855345084116195
6.07175e-06;0.00416513375895631
6.07200e-06;0.0041447330095010695
6.07225e-06;0.004124332260045829
6.07250e-06;0.004103931510590519
6.07275e-06;0.004083530761135279
6.07300e-06;0.004063130011680038
6.07325e-06;0.004042729262224728
6.07350e-06;0.004022328512769488
6.07375e-06;0.0040019277633142475
6.07400e-06;0.003981527013858938
6.07425e-06;0.003963661991717488
6.07450e-06;0.003948198151115716
6.07475e-06;0.003932734310513893
6.07500e-06;0.003917270469912122
6.07525e-06;0.00390180662931035
6.07550e-06;0.0038863427887085265
6.07575e-06;0.0038708789481067553
6.07600e-06;0.0038554151075049317
6.07625e-06;0.0038399512669031605
6.07650e-06;0.0038244874263013893
6.07675e-06;0.0038090235856995656
6.07700e-06;0.003793559745097794
6.07725e-06;0.0037780959044960228
6.07750e-06;0.003762632063894199
6.07775e-06;0.003747242097814201
6.07800e-06;0.0037371996356627894
6.07825e-06;0.003727157173511344
6.07850e-06;0.003717114711359932
6.07875e-06;0.00370707224920852
6.07900e-06;0.0036970297870570746
6.07925e-06;0.0036869873249056628
6.07950e-06;0.003676944862754251
6.07975e-06;0.003666902400602805
6.08000e-06;0.0036568599384513936
6.08025e-06;0.0036468174762999475
6.08050e-06;0.0036367750141485357
6.08075e-06;0.003626732551997124
6.08100e-06;0.0036166900898456783
6.08125e-06;0.0036066476276942665
6.08150e-06;0.0035966051655428547
6.08175e-06;0.003586562703391409
6.08200e-06;0.0035765202412399973
6.08225e-06;0.0035664777790885855
6.08250e-06;0.00355643531693714
6.08275e-06;0.003546392854785728
6.08300e-06;0.0035363503926343163
6.08325e-06;0.0035301242670213663
6.08350e-06;0.003527511983004896
6.08375e-06;0.0035248996989884255
6.08400e-06;0.0035222874149719464
6.08425e-06;0.003519675130955476
6.08450e-06;0.003517062846938997
6.08475e-06;0.0035144505629225264
6.08500e-06;0.003511838278906056
6.08525e-06;0.003509225994889577
6.08550e-06;0.0035066137108731065
6.08575e-06;0.003504001426856636
6.08600e-06;0.003501389142840157
6.08625e-06;0.0034987768588236865
6.08650e-06;0.003496164574807216
6.08675e-06;0.003493552290790737
6.08700e-06;0.0034909400067742666
6.08725e-06;0.003488327722757796
6.08750e-06;0.003485715438741317
6.08775e-06;0.0034831031547248466
6.08800e-06;0.003480490870708376
6.08825e-06;0.003477878586691897
6.08850e-06;0.0034753096252133748
6.08875e-06;0.003475876622322952
6.08900e-06;0.0034764436194325275
6.08925e-06;0.003477010616542103
6.08950e-06;0.00347757761365168
6.08975e-06;0.0034781446107612557
6.09000e-06;0.003478711607870831
6.09025e-06;0.0034792786049804084
6.09050e-06;0.003479845602089984
6.09075e-06;0.0034804125991995593
6.09100e-06;0.0034809795963091365
6.09125e-06;0.003481546593418712
6.09150e-06;0.0034821135905282875
6.09175e-06;0.0034826805876378647
6.09200e-06;0.0034832475847474402
6.09225e-06;0.0034838145818570157
6.09250e-06;0.003484381578966593
6.09275e-06;0.0034849485760761684
6.09300e-06;0.0034855155731857456
6.09325e-06;0.003486082570295321
6.09350e-06;0.0034866495674048966
6.09375e-06;0.0034872165645144742
6.09400e-06;0.0034877835616240493
6.09425e-06;0.0034883505587336248
6.09450e-06;0.00349130462378805
6.09475e-06;0.003496519098883322
6.09500e-06;0.0035017335739785946
6.09525e-06;0.003506948049073885
6.09550e-06;0.0035121625241691574
6.09575e-06;0.00351737699926443
6.09600e-06;0.0035225914743597197
6.09625e-06;0.0035278059494549922
6.09650e-06;0.0035330204245502647
6.09675e-06;0.003538234899645555
6.09700e-06;0.003543449374740827
6.09725e-06;0.0035486638498361174
6.09750e-06;0.00355387832493139
6.09775e-06;0.0035590928000266624
6.09800e-06;0.003564307275121952
6.09825e-06;0.0035695217502172247
6.09850e-06;0.003574736225312497
6.09875e-06;0.0035799507004077875
6.09900e-06;0.00358516517550306
6.09925e-06;0.0035903796505983325
6.09950e-06;0.0035955941256936223
6.09975e-06;0.003600808600788895
6.10000e-06;0.0036060230758841673
6.10025e-06;0.003611210971889192
6.10050e-06;0.0036144749056802464
6.10075e-06;0.0036177388394713007
6.10100e-06;0.003621002773262366
6.10125e-06;0.0036242667070534207
6.10150e-06;0.003627530640844486
6.10175e-06;0.0036307945746355402
6.10200e-06;0.0036340585084265946
6.10225e-06;0.00363732244221766
6.10250e-06;0.0036405863760087145
6.10275e-06;0.003643850309799769
6.10300e-06;0.0036471142435908345
6.10325e-06;0.003650378177381889
6.10350e-06;0.003653642111172943
6.10375e-06;0.0036569060449640083
6.10400e-06;0.0036601699787550627
6.10425e-06;0.0036634339125461175
6.10450e-06;0.0036666978463371826
6.10475e-06;0.003669961780128237
6.10500e-06;0.0036732257139192913
6.10525e-06;0.003676489647710357
6.10550e-06;0.0036797535815014113
6.10575e-06;0.0036830175152924765
6.10600e-06;0.00368577673991671
6.10625e-06;0.003688058035259288
6.10650e-06;0.0036903393306018735
6.10675e-06;0.003692620625944452
6.10700e-06;0.0036949019212870297
6.10725e-06;0.0036971832166296154
6.10750e-06;0.0036994645119721933
6.10775e-06;0.0037017458073147712
6.10800e-06;0.0037040271026573574
6.10825e-06;0.0037063083979999353
6.10850e-06;0.003708589693342513
6.10875e-06;0.003710870988685099
6.10900e-06;0.0037131522840276768
6.10925e-06;0.003715433579370255
6.10950e-06;0.003717714874712841
6.10975e-06;0.0037199961700554187
6.11000e-06;0.0037222774653980044
6.11025e-06;0.0037245587607405823
6.11050e-06;0.00372684005608316
6.11075e-06;0.003729121351425746
6.11100e-06;0.003731402646768324
6.11125e-06;0.003733683942110902
6.11150e-06;0.0037361283542171222
6.11175e-06;0.0037503801865659183
6.11200e-06;0.0037646320189147144
6.11225e-06;0.0037788838512635586
6.11250e-06;0.0037931356836123547
6.11275e-06;0.0038073875159611507
6.11300e-06;0.003821639348309995
6.11325e-06;0.003835891180658791
6.11350e-06;0.003850143013007587
6.11375e-06;0.0038643948453564313
6.11400e-06;0.0038786466777052274
6.11425e-06;0.0038928985100540716
6.11450e-06;0.003907150342402868
6.11475e-06;0.003921665256817901
6.11500e-06;0.0039552237106094314
6.11525e-06;0.003988782164400848
6.11550e-06;0.004022340618192265
6.11575e-06;0.004055899071983795
6.11600e-06;0.004089457525775211
6.11625e-06;0.004123015979566628
6.11650e-06;0.004156574433358158
6.11675e-06;0.004190132887149575
6.11700e-06;0.0042236913409409915
6.11725e-06;0.004257249794732522
6.11750e-06;0.0042908082485239385
6.11775e-06;0.004324366702315355
6.11800e-06;0.00435796460550582
6.11825e-06;0.004394418105019341
6.11850e-06;0.004430871604532986
6.11875e-06;0.004467325104046507
6.11900e-06;0.004503778603560028
6.11925e-06;0.004540232103073673
6.11950e-06;0.004576685602587194
6.11975e-06;0.0046131391021007155
6.12000e-06;0.00464959260161436
6.12025e-06;0.004678194966468946
6.12050e-06;0.004699362778132653
6.12075e-06;0.004720530589796433
6.12100e-06;0.00474169840146014
6.12125e-06;0.004762866213123848
6.12150e-06;0.004784034024787627
6.12175e-06;0.004805201836451335
6.12200e-06;0.004826369648115042
6.12225e-06;0.004847068929622434
6.12250e-06;0.004833853043193482
6.12275e-06;0.004820637156764484
6.12300e-06;0.004807421270335533
6.12325e-06;0.00479420538390658
6.12350e-06;0.004780989497477583
6.12375e-06;0.004767773611048631
6.12400e-06;0.004754557724619679
6.12425e-06;0.004741341838190681
6.12450e-06;0.00472812595176173
6.12475e-06;0.004714448409272674
6.12500e-06;0.004667353289319359
6.12525e-06;0.004620258169366204
6.12550e-06;0.004573163049413048
6.12575e-06;0.004526067929459733
6.12600e-06;0.0044789728095065776
6.12625e-06;0.004431877689553422
6.12650e-06;0.004384782569600107
6.12675e-06;0.004337687449646951
6.12700e-06;0.004290592329693636
6.12725e-06;0.004243317275757041
6.12750e-06;0.004183017465202742
6.12775e-06;0.004122717654648237
6.12800e-06;0.0040624178440939376
6.12825e-06;0.004002118033539637
6.12850e-06;0.003941818222985133
6.12875e-06;0.003881518412430833
6.12900e-06;0.003821308208996704
6.12925e-06;0.0037675843340954996
6.12950e-06;0.0037138604591944774
6.12975e-06;0.0036601365842934552
6.13000e-06;0.003606412709392251
6.13025e-06;0.0035526888344912287
6.13050e-06;0.0034989649595902066
6.13075e-06;0.0034454312407180042
6.13100e-06;0.0034056622145776324
6.13125e-06;0.0033658931884371257
6.13150e-06;0.003326274381176746
6.13175e-06;0.0032975293639083054
6.13200e-06;0.003268784346639767
6.13225e-06;0.0032400393293713263
6.13250e-06;0.003211294312102885
6.13275e-06;0.003182549294834347
6.13300e-06;0.003153804277565906
6.13325e-06;0.003125059260297465
6.13350e-06;0.0030963142430289266
6.13375e-06;0.003067569225760486
6.13400e-06;0.0030388242084920447
6.13425e-06;0.0030102323141556107
6.13450e-06;0.0029927244234082585
6.13475e-06;0.0029752165326609064
6.13500e-06;0.002957708641913495
6.13525e-06;0.0029402007511661428
6.13550e-06;0.0029226928604187317
6.13575e-06;0.0029051849696713795
6.13600e-06;0.0028876770789240274
6.13625e-06;0.002870169188176616
6.13650e-06;0.0028526612974292638
6.13675e-06;0.0028351534066819116
6.13700e-06;0.0028177630986007934
6.13725e-06;0.0028088841655043192
6.13750e-06;0.0028000052324078455
6.13775e-06;0.0027911262993113414
6.13800e-06;0.0027822473662148677
6.13825e-06;0.0027733684331183936
6.13850e-06;0.00276448950002189
6.13875e-06;0.002755610566925416
6.13900e-06;0.002746731633828942
6.13925e-06;0.002737852700732438
6.13950e-06;0.0027289737676359643
6.13975e-06;0.0027200948345394603
6.14000e-06;0.0027112159014429866
6.14025e-06;0.0027023369683465124
6.14050e-06;0.0026934580352500088
6.14075e-06;0.0026845791021535346
6.14100e-06;0.002675700169057061
6.14125e-06;0.002666821235960557
6.14150e-06;0.002657942302864083
6.14175e-06;0.002649063369767609
6.14200e-06;0.0026401844366711054
6.14225e-06;0.0026313055035746312
6.14250e-06;0.0026225511748435106
6.14275e-06;0.002622816495945166
6.14300e-06;0.002623081817046821
6.14325e-06;0.0026233471381484756
6.14350e-06;0.002623612459250131
6.14375e-06;0.0026238777803517855
6.14400e-06;0.0026241431014534414
6.14425e-06;0.002624408422555096
6.14450e-06;0.0026246737436567504
6.14475e-06;0.0026249390647584063
6.14500e-06;0.002625204385860061
6.14525e-06;0.0026254697069617154
6.14550e-06;0.002625735028063371
6.14575e-06;0.0026260003491650257
6.14600e-06;0.0026262656702666803
6.14625e-06;0.0026265309913683357
6.14650e-06;0.0026267963124699907
6.14675e-06;0.002627061633571645
6.14700e-06;0.0026273269546733006
6.14725e-06;0.0026275922757749556
6.14750e-06;0.00262785759687661
6.14775e-06;0.0026281229179782655
6.14800e-06;0.002628425050253322
6.14825e-06;0.00263139180741859
6.14850e-06;0.002634358564583868
6.14875e-06;0.0026373253217491363
6.14900e-06;0.0026402920789144143
6.14925e-06;0.0026432588360796824
