Time(s);Current(A)
5.50000e-06;-0.001247142747496074
5.50025e-06;-0.0012819878323793467
5.50050e-06;-0.001309506100849313
5.50075e-06;-0.0013367036304112229
5.50100e-06;-0.001356019467598308
5.50125e-06;-0.0013749902756125816
5.50150e-06;-0.0013858769033510683
5.50175e-06;-0.0013964096378010211
5.50200e-06;-0.0013986625633447107
5.50225e-06;-0.0014005530317558646
5.50250e-06;-0.0013940287922707057
5.50275e-06;-0.0013871361903112984
5.50300e-06;-0.0013721297961025415
5.50325e-06;-0.0013567682123108683
5.50350e-06;-0.0013338143639070837
5.50375e-06;-0.0013105281563280074
5.50400e-06;-0.0012801754500227172
5.50425e-06;-0.0012495134004832258
5.50450e-06;-0.001212348650807535
5.50475e-06;-0.001174899238759672
5.50500e-06;-0.0011317838460653087
5.50525e-06;-0.0010884204192533155
5.50550e-06;-0.0010403658647277576
5.50575e-06;-0.0009921059512718992
5.50600e-06;-0.0009409396031069589
5.50625e-06;-0.0008880312500824177
5.50650e-06;-0.0008336876042255589
5.50675e-06;-0.0007782027430627198
5.50700e-06;-0.0007218986201751852
5.50725e-06;-0.0006651041459970344
5.50750e-06;-0.0006081484290846894
5.50775e-06;-0.0005513603524868585
5.50800e-06;-0.0004950689010209459
5.50825e-06;-0.0004396007779626818
5.50850e-06;-0.00038528830255616693
5.50875e-06;-0.00033248445478515503
5.50900e-06;-0.0002815598101692526
5.50925e-06;-0.00023288911895420864
5.50950e-06;-0.00018684732395721085
5.50975e-06;-0.00014380928617621863
5.51000e-06;-0.00010413169703336733
5.51025e-06;-6.745278061248339e-05
5.51050e-06;-3.232372053055198e-05
5.51075e-06;2.4278077098481245e-06
5.51100e-06;3.692801540733801e-05
5.51125e-06;7.090470974089274e-05
5.51150e-06;0.00010407027815550964
5.51175e-06;0.00013613714523851882
5.51200e-06;0.00016682915421758736
5.51225e-06;0.00019617210056122714
5.51250e-06;0.000225458535726204
5.51275e-06;0.0002551182434790045
5.51300e-06;0.0002847942916223057
5.51325e-06;0.00031425193597097605
5.51350e-06;0.00034370001946949866
5.51375e-06;0.0003731481029679214
5.51400e-06;0.00040259618646634423
5.51425e-06;0.0004318089103262913
5.51450e-06;0.0004607431753992553
5.51475e-06;0.0004896774404722192
5.51500e-06;0.0005186117055452813
5.51525e-06;0.0005475459706182453
5.51550e-06;0.0005764361492315252
5.51575e-06;0.000605324397914887
5.51600e-06;0.0006342126465981508
5.51625e-06;0.000662098437966647
5.51650e-06;0.0006899403457373303
5.51675e-06;0.0007177822535080137
5.51700e-06;0.000745257785139357
5.51725e-06;0.0007727172782791157
5.51750e-06;0.0007992506025779005
5.51775e-06;0.0008257433828852981
5.51800e-06;0.000850691182180151
5.51825e-06;0.0008755713483456816
5.51850e-06;0.0008992723891516091
5.51875e-06;0.0009222271301376218
5.51900e-06;0.0009443540565307318
5.51925e-06;0.0009654916333184573
5.51950e-06;0.0009848415488393305
5.51975e-06;0.0010041150366903542
5.52000e-06;0.0010206071181642113
5.52025e-06;0.0010369774407195148
5.52050e-06;0.0010507907052386305
5.52075e-06;0.0010644920319180689
5.52100e-06;0.0010759154673012686
5.52125e-06;0.001087239185655413
5.52150e-06;0.0010953833253342967
5.52175e-06;0.0011033882756937604
5.52200e-06;0.0011113932260532512
5.52225e-06;0.0011138861482855524
5.52250e-06;0.0011161377758301145
5.52275e-06;0.0011183894033746841
5.52300e-06;0.001120641030919246
5.52325e-06;0.0011228926584638081
5.52350e-06;0.0011251442860083778
5.52375e-06;0.0011213095098031836
5.52400e-06;0.0011172082950279888
5.52425e-06;0.0011131070802527802
5.52450e-06;0.0011090058654775856
5.52475e-06;0.0011049046507023768
5.52500e-06;0.0011008034359271822
5.52525e-06;0.001092304593579945
5.52550e-06;0.0010836132405729086
5.52575e-06;0.0010749218875659016
5.52600e-06;0.0010662305345588944
5.52625e-06;0.0010575391815518579
5.52650e-06;0.0010488478285448509
5.52675e-06;0.0010392148264173086
5.52700e-06;0.001028467740017252
5.52725e-06;0.0010177206536172321
5.52750e-06;0.001006973567217212
5.52775e-06;0.0009962264808171554
5.52800e-06;0.0009854793944171355
5.52825e-06;0.0009747323080171154
5.52850e-06;0.0009643677349879588
5.52875e-06;0.0009540199068741745
5.52900e-06;0.000943672078760355
5.52925e-06;0.0009340692529508975
5.52950e-06;0.0009249888926879035
5.52975e-06;0.0009164895365537062
5.53000e-06;0.00090862364514461
5.53025e-06;0.0009006590490649721
5.53050e-06;0.0008907302250671194
5.53075e-06;0.0008773964931692407
5.53100e-06;0.0008604479532107841
5.53125e-06;0.0008401288610229743
5.53150e-06;0.0008167010904311561
5.53175e-06;0.0007904263504024367
5.53200e-06;0.000761553906666676
5.53225e-06;0.0007298414571580511
5.53250e-06;0.0006943367124335426
5.53275e-06;0.0006543538094577639
5.53300e-06;0.0006099776776648475
5.53325e-06;0.0005615778712236624
5.53350e-06;0.0005095348402887213
5.53375e-06;0.0004542290301316033
5.53400e-06;0.00039603291142459605
5.53425e-06;0.00033501113754192487
5.53450e-06;0.00027078366033120315
5.53475e-06;0.00020313728367755304
5.53500e-06;0.00013234169553767117
5.53525e-06;5.884482320149241e-05
5.53550e-06;-1.6898596870420045e-05
5.53575e-06;-9.44338737034083e-05
5.53600e-06;-0.00017331130924982821
5.53625e-06;-0.00025380509792150946
5.53650e-06;-0.00033436721455793844
5.53675e-06;-0.00041687426205986634
5.53700e-06;-0.0004994664509064661
5.53725e-06;-0.000582058639752786
5.53750e-06;-0.00066355983278482
5.53775e-06;-0.0007450132663558585
5.53800e-06;-0.0008264666999266209
5.53825e-06;-0.0009041490496116797
5.53850e-06;-0.0009816663162297676
5.53875e-06;-0.0010548426961863983
5.53900e-06;-0.0011278290493753988
5.53925e-06;-0.0011946600157421248
5.53950e-06;-0.0012612215237345712
5.53975e-06;-0.0013196012602003366
5.54000e-06;-0.0013776228312218637
5.54025e-06;-0.0014264593369050771
5.54050e-06;-0.0014748937569283548
5.54075e-06;-0.0015152977555109185
5.54100e-06;-0.0015553502141548317
5.54125e-06;-0.001587152252798688
5.54150e-06;-0.0016185931208410973
5.54175e-06;-0.0016410373025399008
5.54200e-06;-0.0016630876450625372
5.54225e-06;-0.001676036014224844
5.54250e-06;-0.0016885859351637956
5.54275e-06;-0.001693280318181197
5.54300e-06;-0.0016976308169655305
5.54325e-06;-0.0016926545479171093
5.54350e-06;-0.001687269990036648
5.54375e-06;-0.0016818854321561869
5.54400e-06;-0.0016656887676253077
5.54425e-06;-0.0016490187920316216
5.54450e-06;-0.0016323488164379355
5.54475e-06;-0.0016093542268700428
5.54500e-06;-0.0015860827708358827
5.54525e-06;-0.0015679315861703974
5.54550e-06;-0.0015332937836198136
5.54575e-06;-0.001506467894290883
5.54600e-06;-0.0014639596102476611
5.54625e-06;-0.0014252243211960757
5.54650e-06;-0.0013853371603675495
5.54675e-06;-0.0013481230603846527
5.54700e-06;-0.0013061145955141934
5.54725e-06;-0.0012700486862520718
5.54750e-06;-0.0012278742558757354
5.54775e-06;-0.0011854775043964993
5.54800e-06;-0.0011421794103605122
5.54825e-06;-0.0010991459578474105
5.54850e-06;-0.0010592601477366925
5.54875e-06;-0.001019607181595864
5.54900e-06;-0.0009821144920368903
5.54925e-06;-0.0009469219947294556
5.54950e-06;-0.0009120735862080837
5.54975e-06;-0.0008801147021362471
5.55000e-06;-0.0008495468442206566
5.55025e-06;-0.0008224416708141549
5.55050e-06;-0.0007953364974075615
5.55075e-06;-0.0007684004126916343
5.55100e-06;-0.0007428256157032292
5.55125e-06;-0.0007172508187149109
5.55150e-06;-0.0006917929978722681
5.55175e-06;-0.0006672810173418356
5.55200e-06;-0.0006429469983950422
5.55225e-06;-0.0006197801747284995
5.55250e-06;-0.0005966133510618783
5.55275e-06;-0.000573398991155257
5.55300e-06;-0.0005498019297207623
5.55325e-06;-0.0005262048682861878
5.55350e-06;-0.0005026078068516932
5.55375e-06;-0.0004790107454171986
5.55400e-06;-0.00045541368398262406
5.55425e-06;-0.0004318166225481295
5.55450e-06;-0.000408193383336198
5.55475e-06;-0.0003843593938544095
5.55500e-06;-0.00036052540437270177
5.55525e-06;-0.0003366914148909132
5.55550e-06;-0.00031285742540920546
5.55575e-06;-0.00028902343592749767
5.55600e-06;-0.00026518944644570916
5.55625e-06;-0.0002414276558825459
5.55650e-06;-0.0002182471194612196
5.55675e-06;-0.00019506658303981476
5.55700e-06;-0.00017193327676095967
5.55725e-06;-0.00014918020770010506
5.55750e-06;-0.00012649989072312403
5.55775e-06;-0.00010445215876918168
5.55800e-06;-8.285611813685671e-05
5.55825e-06;-6.195326052689583e-05
5.55850e-06;-4.1887273328135516e-05
5.55875e-06;-2.247174115436249e-05
5.55900e-06;-3.7488687355343363e-06
5.55925e-06;1.4142929272078952e-05
5.55950e-06;3.1067542543218447e-05
5.55975e-06;4.690244211939505e-05
5.56000e-06;6.163232774107039e-05
5.56025e-06;7.519697133970324e-05
5.56050e-06;8.779417033857699e-05
5.56075e-06;9.981407681175433e-05
5.56100e-06;0.0001113195492164242
5.56125e-06;0.00012222837705486356
5.56150e-06;0.00013245981050874768
5.56175e-06;0.00014194161297811635
5.56200e-06;0.00015063060202200369
5.56225e-06;0.0001583011493695195
5.56250e-06;0.00016586758256653341
5.56275e-06;0.00017259582064343634
5.56300e-06;0.00017923381037838448
5.56325e-06;0.00018514523490162398
5.56350e-06;0.00019094875002371658
5.56375e-06;0.00019588351548044332
5.56400e-06;0.00020068973306886268
5.56425e-06;0.00020446104622455353
5.56450e-06;0.00020823235938025714
5.56475e-06;0.0002119111485978498
5.56500e-06;0.0002148450523891706
5.56525e-06;0.00021777895618050138
5.56550e-06;0.00022061421668452872
5.56575e-06;0.00022265532652212037
5.56600e-06;0.00022469643635971893
5.56625e-06;0.0002266346470200212
5.56650e-06;0.0002277444439842742
5.56675e-06;0.00022885424094853094
5.56700e-06;0.00022996403791278392
5.56725e-06;0.0002310738348770369
5.56750e-06;0.00023218363184129365
5.56775e-06;0.00023321621235137925
5.56800e-06;0.0002336271438855145
5.56825e-06;0.00023403807541964836
5.56850e-06;0.0002344490069537822
5.56875e-06;0.00023485993848791745
5.56900e-06;0.0002352708700220513
5.56925e-06;0.00023566719615206722
5.56950e-06;0.00023594366142025436
5.56975e-06;0.0002362006000212772
5.57000e-06;0.00023639606891504063
5.57025e-06;0.00023598218135391307
5.57050e-06;0.00023370573832717198
5.57075e-06;0.00022854460417711512
5.57100e-06;0.00022031016446888224
5.57125e-06;0.00020917260376956555
5.57150e-06;0.00019530221831960662
5.57175e-06;0.00017887010963072106
5.57200e-06;0.00016002178058199508
5.57225e-06;0.0001385857785379409
5.57250e-06;0.00011394890014809995
5.57275e-06;8.56427446860874e-05
5.57300e-06;5.372106480980005e-05
5.57325e-06;1.8462333395228932e-05
5.57350e-06;-1.9854902825742934e-05
5.57375e-06;-6.095162314170708e-05
5.57400e-06;-0.00010456486556730077
5.57425e-06;-0.0001506301974368601
5.57450e-06;-0.00019935989342984625
5.57475e-06;-0.0002508754863728846
5.57500e-06;-0.00030497146275055767
5.57525e-06;-0.0003613887931817663
5.57550e-06;-0.0004202219972751555
5.57575e-06;-0.0004793872556492898
5.57600e-06;-0.0005412257940354269
5.57625e-06;-0.0006030643324213546
5.57650e-06;-0.0006651608074321891
5.57675e-06;-0.0007293338610718195
5.57700e-06;-0.00079350691471145
5.57725e-06;-0.0008576213666593686
5.57750e-06;-0.0009212640320927555
5.57775e-06;-0.0009849066975261426
5.57800e-06;-0.0010481473273985297
5.57825e-06;-0.0011081512767277867
5.57850e-06;-0.0011681552260570437
5.57875e-06;-0.0012274699495172033
5.57900e-06;-0.0012812359002416858
5.57925e-06;-0.0013350018509661683
5.57950e-06;-0.001387899561544184
5.57975e-06;-0.0014338073034223656
5.58000e-06;-0.0014786663009667127
5.58025e-06;-0.0015150821389824124
5.58050e-06;-0.0015514979769979886
5.58075e-06;-0.0015867089860079888
5.58100e-06;-0.0016122202396331433
5.58125e-06;-0.0016377314932582978
5.58150e-06;-0.0016619379202730965
5.58175e-06;-0.0016756395379908394
5.58200e-06;-0.0016893411557085823
5.58225e-06;-0.0017017664244598667
5.58250e-06;-0.001703916149792723
5.58275e-06;-0.001706065875125579
5.58300e-06;-0.0017070722414890237
5.58325e-06;-0.001698873731254469
5.58350e-06;-0.0016906752210199144
5.58375e-06;-0.0016813950147902387
5.58400e-06;-0.0016634063640411116
5.58425e-06;-0.0016454177132919847
5.58450e-06;-0.0016265411019919438
5.58475e-06;-0.0016005157583056015
5.58500e-06;-0.001574490414619171
5.58525e-06;-0.0015478646865660357
5.58550e-06;-0.0015164054249027776
5.58575e-06;-0.0014845473990484864
5.58600e-06;-0.0014494790295779495
5.58625e-06;-0.0014141186549250886
5.58650e-06;-0.001376407424818309
5.58675e-06;-0.0013385270395644075
5.58700e-06;-0.0012992848315604097
5.58725e-06;-0.0012599736418016801
5.58750e-06;-0.0012201070984267245
5.58775e-06;-0.0011802714251265473
5.58800e-06;-0.0011406842785238421
5.58825e-06;-0.00110125072340583
5.58850e-06;-0.0010630536921611945
5.58875e-06;-0.0010252393705247641
5.58900e-06;-0.0009905061413632134
5.58925e-06;-0.0009557729122015452
5.58950e-06;-0.0009215947291283181
5.58975e-06;-0.0008918850733367971
5.59000e-06;-0.0008625594026878734
5.59025e-06;-0.0008363250934988518
5.59050e-06;-0.0008099636414049536
5.59075e-06;-0.0007825785958634104
5.59100e-06;-0.0007549845952876383
5.59125e-06;-0.0007257083537392788
5.59150e-06;-0.0006964321121908203
5.59175e-06;-0.0006671026583510517
5.59200e-06;-0.0006373448066162942
5.59225e-06;-0.0006073797137793785
5.59250e-06;-0.0005757461783793455
5.59275e-06;-0.0005437385539464908
5.59300e-06;-0.0005087192389820702
5.59325e-06;-0.0004734310070787882
5.59350e-06;-0.0004359777969809237
5.59375e-06;-0.00039836614461652534
5.59400e-06;-0.0003594789160326083
5.59425e-06;-0.0003203678078585173
5.59450e-06;-0.00027945430511458393
5.59475e-06;-0.00023831756590716636
5.59500e-06;-0.00019522703900077618
5.59525e-06;-0.00015087600280606426
5.59550e-06;-0.0001064310050173054
5.59575e-06;-6.120861706670287e-05
5.59600e-06;-1.5811615547067133e-05
5.59625e-06;2.9674857054394093e-05
5.59650e-06;7.548581414454713e-05
5.59675e-06;0.00012132796147597144
5.59700e-06;0.00016742119661756913
5.59725e-06;0.00021346442384597675
5.59750e-06;0.0002590296602574461
5.59775e-06;0.0003038810473782892
5.59800e-06;0.0003477436996610204
5.59825e-06;0.0003904450354533309
5.59850e-06;0.0004319670434466273
5.59875e-06;0.00047226198657030735
5.59900e-06;0.0005111164556939073
5.59925e-06;0.0005482437780875483
5.59950e-06;0.0005833572874522497
5.59975e-06;0.0006161703499720033
5.60000e-06;0.0006463654221895673
5.60025e-06;0.0006733261601883674
5.60050e-06;0.0006960437975530303
5.60075e-06;0.0007137395972329887
5.60100e-06;0.0007262322016552244
5.60125e-06;0.0007335831170235879
5.60150e-06;0.0007358537263690026
5.60175e-06;0.0007331056330167802
5.60200e-06;0.0007253808744246762
5.60225e-06;0.0007125344096639913
5.60250e-06;0.0006941754983865243
5.60275e-06;0.0006700574211175536
5.60300e-06;0.0006403077337559355
5.60325e-06;0.0006052060269907545
5.60350e-06;0.000565032021115148
5.60375e-06;0.0005200652357483736
5.60400e-06;0.0004705731772314302
5.60425e-06;0.00041670612168266766
5.60450e-06;0.00035846032581695773
5.60475e-06;0.00029592235022897343
5.60500e-06;0.0002294132162872099
5.60525e-06;0.0001593491225156671
5.60550e-06;8.614626016170176e-05
5.60575e-06;1.022080638384485e-05
5.60600e-06;-6.801872152609203e-05
5.60625e-06;-0.00014823724082411145
5.60650e-06;-0.0002302546394056421
5.60675e-06;-0.0003140711318118278
5.60700e-06;-0.0003979953176362936
5.60725e-06;-0.0004827865143017098
5.60750e-06;-0.000567577710967126
5.60775e-06;-0.0006521557519100496
5.60800e-06;-0.0007350177332647034
5.60825e-06;-0.0008174819665680138
5.60850e-06;-0.0008967440369260819
5.60875e-06;-0.0009754025844588755
5.60900e-06;-0.0010492023315012335
5.60925e-06;-0.0011221556725427352
5.60950e-06;-0.0011882948257475935
5.60975e-06;-0.0012533768653969852
5.61000e-06;-0.0013099483671700277
5.61025e-06;-0.0013657256526619697
5.61050e-06;-0.001415108915765801
5.61075e-06;-0.0014639989072303334
5.61100e-06;-0.0015089177009495953
5.61125e-06;-0.0015530466902362438
5.61150e-06;-0.0015908171757417055
5.61175e-06;-0.0016285876612471672
5.61200e-06;-0.0016653779875774046
5.61225e-06;-0.0016942773151187955
5.61250e-06;-0.0017231766426601867
5.61275e-06;-0.001751376331040499
5.61300e-06;-0.00177394341207282
5.61325e-06;-0.0017965104931051408
5.61350e-06;-0.001819077574137538
5.61375e-06;-0.0018407816757971813
5.61400e-06;-0.0018555381618498286
5.61425e-06;-0.001870294647902526
5.61450e-06;-0.0018850511339551731
5.61475e-06;-0.0018989390629414137
5.61500e-06;-0.0019058344718035807
5.61525e-06;-0.0019127298806657475
5.61550e-06;-0.001919625289527938
5.61575e-06;-0.0019265206983901048
5.61600e-06;-0.0019334161072522718
5.61625e-06;-0.001940311516114462
5.61650e-06;-0.001947206924976629
5.61675e-06;-0.001954102333838796
5.61700e-06;-0.001960306838984811
5.61725e-06;-0.0019609490635102227
5.61750e-06;-0.0019615912880356348
5.61775e-06;-0.001962233512561049
5.61800e-06;-0.0019628757370864607
5.61825e-06;-0.0019635179616118727
5.61850e-06;-0.001964160186137287
5.61875e-06;-0.0019648024106626986
5.61900e-06;-0.001965444635188113
5.61925e-06;-0.001965988684300573
5.61950e-06;-0.001965742349479587
5.61975e-06;-0.0019654629579534785
5.62000e-06;-0.0019649174357553975
5.62025e-06;-0.001963907974920335
5.62050e-06;-0.001959163468479262
5.62075e-06;-0.0019535969369645283
5.62100e-06;-0.0019414125019284949
5.62125e-06;-0.0019284723610294649
5.62150e-06;-0.0019094482347977945
5.62175e-06;-0.0018895422834412266
5.62200e-06;-0.0018625369943807608
5.62225e-06;-0.0018355317053203868
5.62250e-06;-0.0018071304328888382
5.62275e-06;-0.0017674904725351306
5.62300e-06;-0.0017278505121815575
5.62325e-06;-0.0016871167564765713
5.62350e-06;-0.0016375771475956938
5.62375e-06;-0.0015873297650742255
5.62400e-06;-0.0015313842866943096
5.62425e-06;-0.0014747158826122428
5.62450e-06;-0.0014122273974845553
5.62475e-06;-0.0013491856563030706
5.62500e-06;-0.0012813772908801255
5.62525e-06;-0.0012107882059262149
5.62550e-06;-0.0011378502501823975
5.62575e-06;-0.0010629957129792524
5.62600e-06;-0.000986641148855732
5.62625e-06;-0.0009090539763176904
5.62650e-06;-0.0008302847861615642
5.62675e-06;-0.0007504487942990206
5.62700e-06;-0.0006699193766722662
5.62725e-06;-0.00058918122204301
5.62750e-06;-0.0005087189609642086
5.62775e-06;-0.0004290171464884493
5.62800e-06;-0.00035055064809207326
5.62825e-06;-0.0002737008374896606
5.62850e-06;-0.00019871322770766308
5.62875e-06;-0.0001258737455379048
5.62900e-06;-5.563016453132397e-05
5.62925e-06;1.1500182268291175e-05
5.62950e-06;7.500002121099248e-05
5.62975e-06;0.0001343521608420814
5.63000e-06;0.00018905540659122188
5.63025e-06;0.00023877285282530332
5.63050e-06;0.0002834809313126544
5.63075e-06;0.00032326796840478146
5.63100e-06;0.0003580830988635937
5.63125e-06;0.00038778976430104025
5.63150e-06;0.0004122513933031309
5.63175e-06;0.00043133153408716856
5.63200e-06;0.00044490376846018933
5.63225e-06;0.0004529445696499686
5.63250e-06;0.00045562676166963946
5.63275e-06;0.0004531931299625167
5.63300e-06;0.00044579941449017534
5.63325e-06;0.00043354751740988686
5.63350e-06;0.000416539428190566
5.63375e-06;0.00039487721718121764
5.63400e-06;0.00036866918679027787
5.63425e-06;0.0003380881093675026
5.63450e-06;0.0003034297547402132
5.63475e-06;0.0002650336737847025
5.63500e-06;0.0002231848343420099
5.63525e-06;0.00017813456093209937
5.63550e-06;0.000130134165130794
5.63575e-06;7.943496574959475e-05
5.63600e-06;2.629222312632123e-05
5.63625e-06;-2.8998458218775426e-05
5.63650e-06;-8.606446895275607e-05
5.63675e-06;-0.00014454458718457283
5.63700e-06;-0.00020426912518952994
5.63725e-06;-0.000264060862952726
5.63750e-06;-0.00032439360795613397
5.63775e-06;-0.0003847263529593375
5.63800e-06;-0.00044489644696818736
5.63825e-06;-0.0005037570814219814
5.63850e-06;-0.0005622750741229423
5.63875e-06;-0.0006180345499222197
5.63900e-06;-0.0006732687553199902
5.63925e-06;-0.0007242741495179907
5.63950e-06;-0.0007745761980012838
5.63975e-06;-0.0008192157986751255
5.64000e-06;-0.000863210726070096
5.64025e-06;-0.0009015144246325335
5.64050e-06;-0.0009352453381448684
5.64075e-06;-0.000964091480282833
5.64100e-06;-0.0009879427337030143
5.64125e-06;-0.0010067556623014203
5.64150e-06;-0.001020487128096402
5.64175e-06;-0.0010290935267924124
5.64200e-06;-0.0010325279896210896
5.64225e-06;-0.0010307113948971303
5.64250e-06;-0.0010235543386271208
5.64275e-06;-0.0010110705765415426
5.64300e-06;-0.0009934001397707117
5.64325e-06;-0.0009707250954466084
5.64350e-06;-0.0009432274332000138
5.64375e-06;-0.0009108504352869488
