Time(s);Current(A)
4.00000e-06;-0.012523974507169536
4.00025e-06;-0.012522832132571474
4.00050e-06;-0.01252168975797341
4.00075e-06;-0.012520547383375344
4.00100e-06;-0.012519405008777282
4.00125e-06;-0.012518262634179218
4.00150e-06;-0.012517305070813053
4.00175e-06;-0.012516383759956114
4.00200e-06;-0.012515462449099176
4.00225e-06;-0.012514541138242234
4.00250e-06;-0.012514067713505352
4.00275e-06;-0.012513913388336963
4.00300e-06;-0.012513872161261869
4.00325e-06;-0.012513278962439627
4.00350e-06;-0.01251131122473253
4.00375e-06;-0.012507634966239318
4.00400e-06;-0.012502310428016817
4.00425e-06;-0.012495459002407429
4.00450e-06;-0.012486674806028915
4.00475e-06;-0.012477559951991153
4.00500e-06;-0.012466150581837185
4.00525e-06;-0.012454291120172031
4.00550e-06;-0.012438275783994006
4.00575e-06;-0.012421445232866356
4.00600e-06;-0.012404614681738764
4.00625e-06;-0.012382130812473448
4.00650e-06;-0.012358537990219663
4.00675e-06;-0.012334945167965959
4.00700e-06;-0.012311352345712255
4.00725e-06;-0.012287759523458472
4.00750e-06;-0.012258295480597689
4.00775e-06;-0.012227679741073324
4.00800e-06;-0.012197064001548855
4.00825e-06;-0.01216644826202449
4.00850e-06;-0.012135832522500023
4.00875e-06;-0.012102293993517716
4.00900e-06;-0.012068182131136418
4.00925e-06;-0.012034070268755002
4.00950e-06;-0.011998858772306916
4.00975e-06;-0.011963431572009402
4.01000e-06;-0.011928004371711766
4.01025e-06;-0.011892846564891082
4.01050e-06;-0.011857741602204385
4.01075e-06;-0.011822636639517568
4.01100e-06;-0.011788974151728972
4.01125e-06;-0.011755594619332179
4.01150e-06;-0.011723919428902862
4.01175e-06;-0.011692578561621902
4.01200e-06;-0.011663644327973571
4.01225e-06;-0.01163518217877065
4.01250e-06;-0.011610925993619431
4.01275e-06;-0.0115874948489646
4.01300e-06;-0.01156406370430985
4.01325e-06;-0.01154635626267833
4.01350e-06;-0.011529771580710379
4.01375e-06;-0.011513186898742485
4.01400e-06;-0.011502315019483752
4.01425e-06;-0.011492563761686636
4.01450e-06;-0.011482812503889554
4.01475e-06;-0.0114792362740254
4.01500e-06;-0.011476871335567585
4.01525e-06;-0.011474506397109778
4.01550e-06;-0.01147970388894377
4.01575e-06;-0.011486384824565054
4.01600e-06;-0.011493065760186315
4.01625e-06;-0.011499746695807578
4.01650e-06;-0.011506427631428862
4.01675e-06;-0.011521395452979026
4.01700e-06;-0.011537988827291007
4.01725e-06;-0.011554582201602931
4.01750e-06;-0.011571175575914855
4.01775e-06;-0.011587768950226835
4.01800e-06;-0.011609474831379142
4.01825e-06;-0.011632183580156849
4.01850e-06;-0.011654892328934633
4.01875e-06;-0.011680028863145031
4.01900e-06;-0.011705641630930819
4.01925e-06;-0.01173265898204683
4.01950e-06;-0.011759951855757223
4.01975e-06;-0.011788069649666222
4.02000e-06;-0.011816349259644516
4.02025e-06;-0.011844942642949793
4.02050e-06;-0.011873648184526703
4.02075e-06;-0.011902295137209912
4.02100e-06;-0.011930731665518944
4.02125e-06;-0.011958779186225446
4.02150e-06;-0.011986237878311172
4.02175e-06;-0.012012922621113536
4.02200e-06;-0.01203866114985703
4.02225e-06;-0.012062737238211855
4.02250e-06;-0.012086518560154661
4.02275e-06;-0.012108515344961884
4.02300e-06;-0.012128974719921486
4.02325e-06;-0.012148546386157588
4.02350e-06;-0.01216797014270131
4.02375e-06;-0.012187541128236754
4.02400e-06;-0.012207173665490526
4.02425e-06;-0.01222672526210877
4.02450e-06;-0.012246052647143575
4.02475e-06;-0.012265010839730792
4.02500e-06;-0.012283576792785446
4.02525e-06;-0.012302051974861391
4.02550e-06;-0.012320861431085755
4.02575e-06;-0.012340307018439451
4.02600e-06;-0.012359864326845089
4.02625e-06;-0.012379825920114542
4.02650e-06;-0.01239986681776705
4.02675e-06;-0.012419907715419556
4.02700e-06;-0.01243994861307213
4.02725e-06;-0.01246054893041574
4.02750e-06;-0.012481258983338107
4.02775e-06;-0.012501969036260547
4.02800e-06;-0.012522679089182915
4.02825e-06;-0.012543919948471894
4.02850e-06;-0.012565264930559579
4.02875e-06;-0.01258660991264719
4.02900e-06;-0.012607773741895836
4.02925e-06;-0.012628902036264492
4.02950e-06;-0.012650030330633078
4.02975e-06;-0.012671071422488921
4.03000e-06;-0.012692095408729221
4.03025e-06;-0.01271311939496945
4.03050e-06;-0.012733356482344771
4.03075e-06;-0.012753439211902922
4.03100e-06;-0.012773521941461072
4.03125e-06;-0.012792595872903137
4.03150e-06;-0.012811471918845444
4.03175e-06;-0.012829458810595329
4.03200e-06;-0.012847271286157485
4.03225e-06;-0.01286347311054673
4.03250e-06;-0.012879358990142803
4.03275e-06;-0.012895244869738932
4.03300e-06;-0.012908719444138904
4.03325e-06;-0.012921721017721394
4.03350e-06;-0.012934722591303929
4.03375e-06;-0.012945448854085178
4.03400e-06;-0.012955728792663783
4.03425e-06;-0.012966008731242424
4.03450e-06;-0.012972543617969328
4.03475e-06;-0.012978343876582754
4.03500e-06;-0.012984144135196161
4.03525e-06;-0.012989944393809568
4.03550e-06;-0.012995744652422996
4.03575e-06;-0.013000657928056727
4.03600e-06;-0.013001822104554415
4.03625e-06;-0.013002986281052106
4.03650e-06;-0.013004150457549794
4.03675e-06;-0.01300531463404748
4.03700e-06;-0.013006478810545173
4.03725e-06;-0.01300538862524741
4.03750e-06;-0.013002428726884854
4.03775e-06;-0.012999468828522287
4.03800e-06;-0.01299650893015973
4.03825e-06;-0.012993549031797173
4.03850e-06;-0.012990589133434606
4.03875e-06;-0.01298625663524113
4.03900e-06;-0.012980785735996963
4.03925e-06;-0.012975314836752813
4.03950e-06;-0.012969843937508663
4.03975e-06;-0.012964373038264495
4.04000e-06;-0.012958902139020345
4.04025e-06;-0.012953043225989532
4.04050e-06;-0.012946862503723075
4.04075e-06;-0.012940771381841227
4.04100e-06;-0.012934754572347924
4.04125e-06;-0.012928908054494627
4.04150e-06;-0.012923202772402533
4.04175e-06;-0.012917945492233381
4.04200e-06;-0.01291305977400693
4.04225e-06;-0.012908174055780498
4.04250e-06;-0.012903790303345002
4.04275e-06;-0.012900253052841775
4.04300e-06;-0.012897072586249463
4.04325e-06;-0.012893691536978
4.04350e-06;-0.01289014412929129
4.04375e-06;-0.01288588780947082
4.04400e-06;-0.012881043535098943
4.04425e-06;-0.012875628058275315
4.04450e-06;-0.012869738839974734
4.04475e-06;-0.012863466020027602
4.04500e-06;-0.012856875050167048
4.04525e-06;-0.012849270645653504
4.04550e-06;-0.012840825722987722
4.04575e-06;-0.012832380800321966
4.04600e-06;-0.01282261562956507
4.04625e-06;-0.01281175547702244
4.04650e-06;-0.012800895324479849
4.04675e-06;-0.01278912559227549
4.04700e-06;-0.012776601476732876
4.04725e-06;-0.012764077361190304
4.04750e-06;-0.012750511471479094
4.04775e-06;-0.012736081559508002
4.04800e-06;-0.01272165164753691
4.04825e-06;-0.012706648496741605
4.04850e-06;-0.012691003442109666
4.04875e-06;-0.012675117481632612
4.04900e-06;-0.012659062739533015
4.04925e-06;-0.01264283235134199
4.04950e-06;-0.012626407316732872
4.04975e-06;-0.012609838035921937
4.05000e-06;-0.012593225873519883
4.05025e-06;-0.012576686921571201
4.05050e-06;-0.012560351328822624
4.05075e-06;-0.012544347345110125
4.05100e-06;-0.012528769569527448
4.05125e-06;-0.012513663154208267
4.05150e-06;-0.012499065214594214
4.05175e-06;-0.012485057183646581
4.05200e-06;-0.012471752185715067
4.05225e-06;-0.012459271640188776
4.05250e-06;-0.012447746962502896
4.05275e-06;-0.012437307929772655
4.05300e-06;-0.012428046335035492
4.05325e-06;-0.01241997697065527
4.05350e-06;-0.012413068246439533
4.05375e-06;-0.012407311244971318
4.05400e-06;-0.012402729695721638
4.05425e-06;-0.012399358740446106
4.05450e-06;-0.012397237159326972
4.05475e-06;-0.012396402962862568
4.05500e-06;-0.012397211164910348
4.05525e-06;-0.012398891270834954
4.05550e-06;-0.012401867273231145
4.05575e-06;-0.012405918060769435
4.05600e-06;-0.012411935786043538
4.05625e-06;-0.012419584841829145
4.05650e-06;-0.012427233897614751
4.05675e-06;-0.012434882953400382
4.05700e-06;-0.012442732866816165
4.05725e-06;-0.012454688979068502
4.05750e-06;-0.01246664509132088
4.05775e-06;-0.012478601203573216
4.05800e-06;-0.012490557315825553
4.05825e-06;-0.012504318877884602
4.05850e-06;-0.012519577836278484
4.05875e-06;-0.012534836794672365
4.05900e-06;-0.0125500957530663
4.05925e-06;-0.012565354711460181
4.05950e-06;-0.012580685900897491
4.05975e-06;-0.012597493733398694
4.06000e-06;-0.01261430156589984
4.06025e-06;-0.012631109398401043
4.06050e-06;-0.01264791723090219
4.06075e-06;-0.012664725063403336
4.06100e-06;-0.012681297556051385
4.06125e-06;-0.012697674863525998
4.06150e-06;-0.012714052171000611
4.06175e-06;-0.012729846821428805
4.06200e-06;-0.01274515823021677
4.06225e-06;-0.01275976810872073
4.06250e-06;-0.012773796155000924
4.06275e-06;-0.01278666508115409
4.06300e-06;-0.012798572661152266
4.06325e-06;-0.01281048024115048
4.06350e-06;-0.012820748880780245
4.06375e-06;-0.012829658222969876
4.06400e-06;-0.012838567565159536
4.06425e-06;-0.012845739712013535
4.06450e-06;-0.012851471071137738
4.06475e-06;-0.012857202430261921
4.06500e-06;-0.012860276577980112
4.06525e-06;-0.012861146898926094
4.06550e-06;-0.012862017219872072
4.06575e-06;-0.01286288754081805
4.06600e-06;-0.012863757861764032
4.06625e-06;-0.01286462818271001
4.06650e-06;-0.01286238268422079
4.06675e-06;-0.012857553000569247
4.06700e-06;-0.012852723316917721
4.06725e-06;-0.012847893633266194
4.06750e-06;-0.01284306394961465
4.06775e-06;-0.012838234265963124
4.06800e-06;-0.012831267880026873
4.06825e-06;-0.012822529364974918
4.06850e-06;-0.012813790849922992
4.06875e-06;-0.012805052334871038
4.06900e-06;-0.012796313819819112
4.06925e-06;-0.012787496164118018
4.06950e-06;-0.012777060610003726
4.06975e-06;-0.012766625055889467
4.07000e-06;-0.01275618950177521
4.07025e-06;-0.012745753947660915
4.07050e-06;-0.012735318393546658
4.07075e-06;-0.012724930740464463
4.07100e-06;-0.012714582815337876
4.07125e-06;-0.012704545436998897
4.07150e-06;-0.01269476561864286
4.07175e-06;-0.012685491584276063
4.07200e-06;-0.012676637034897907
4.07225e-06;-0.012668488852188214
4.07250e-06;-0.01266092651288231
4.07275e-06;-0.012654265522900053
4.07300e-06;-0.012648352090212511
4.07325e-06;-0.01264345862553961
4.07350e-06;-0.01263941109763033
4.07375e-06;-0.012636692642092811
4.07400e-06;-0.012635076486984994
4.07425e-06;-0.012633460331877178
4.07450e-06;-0.012633521129422311
4.07475e-06;-0.01263497275087528
4.07500e-06;-0.012636424372328247
4.07525e-06;-0.01264047014943893
4.07550e-06;-0.012646667456411213
4.07575e-06;-0.012652864763383495
4.07600e-06;-0.012659062070355798
4.07625e-06;-0.01266525937732808
4.07650e-06;-0.012671456684300362
4.07675e-06;-0.012677906223162857
4.07700e-06;-0.01268951222180732
4.07725e-06;-0.012701118220451826
4.07750e-06;-0.012712724219096291
4.07775e-06;-0.012724330217740755
4.07800e-06;-0.01273593621638526
4.07825e-06;-0.012747542215029726
4.07850e-06;-0.012760765680757163
4.07875e-06;-0.012775330634501625
4.07900e-06;-0.012789895588246036
4.07925e-06;-0.012804460541990447
4.07950e-06;-0.01281959809819286
4.07975e-06;-0.01283521055700307
4.08000e-06;-0.01285082301581328
4.08025e-06;-0.012866435474623543
4.08050e-06;-0.01288211271553002
4.08075e-06;-0.012897682472324614
4.08100e-06;-0.012913118523117202
4.08125e-06;-0.012928554573909738
4.08150e-06;-0.012943364270498471
4.08175e-06;-0.012957654484083364
4.08200e-06;-0.012971944697668257
4.08225e-06;-0.012986137624005238
4.08250e-06;-0.012998341675023005
4.08275e-06;-0.013010545726040771
4.08300e-06;-0.01302274977705858
4.08325e-06;-0.013034835888176133
4.08350e-06;-0.01304682418279744
4.08375e-06;-0.01305881247741879
4.08400e-06;-0.013071983531056644
4.08425e-06;-0.013086135536371467
4.08450e-06;-0.013100287541686339
4.08475e-06;-0.013114439547001162
4.08500e-06;-0.013128591552315987
4.08525e-06;-0.013142743557630858
4.08550e-06;-0.013156895562945681
4.08575e-06;-0.013171230103459608
4.08600e-06;-0.013189296271291034
4.08625e-06;-0.01320736243912246
4.08650e-06;-0.013225428606953945
4.08675e-06;-0.01324349477478537
4.08700e-06;-0.013261560942616794
4.08725e-06;-0.013279627110448281
4.08750e-06;-0.013297693278279706
4.08775e-06;-0.013317190890597567
4.08800e-06;-0.013337875708296918
4.08825e-06;-0.0133585605259962
4.08850e-06;-0.013379091490102532
4.08875e-06;-0.013399612191626345
4.08900e-06;-0.013420132893150088
4.08925e-06;-0.013440653594673831
4.08950e-06;-0.013461174296197646
4.08975e-06;-0.013481694997721389
4.09000e-06;-0.013502215699245201
4.09025e-06;-0.013522167656327811
4.09050e-06;-0.013539654529500757
4.09075e-06;-0.013557141402673764
4.09100e-06;-0.01357462827584671
4.09125e-06;-0.013592115149019656
4.09150e-06;-0.013609602022192663
4.09175e-06;-0.013627088895365609
4.09200e-06;-0.013644575768538555
4.09225e-06;-0.013660068553745455
4.09250e-06;-0.013672997173726267
4.09275e-06;-0.013685925793707079
4.09300e-06;-0.01369692662183716
4.09325e-06;-0.01370544853383575
4.09350e-06;-0.01371397044583434
4.09375e-06;-0.013719686296880439
4.09400e-06;-0.013721793879866793
4.09425e-06;-0.013723901462853157
4.09450e-06;-0.013722034494497092
4.09475e-06;-0.013715056715327214
4.09500e-06;-0.013708078936157313
4.09525e-06;-0.013701101156987435
4.09550e-06;-0.01369412337781756
4.09575e-06;-0.013687145598647659
4.09600e-06;-0.01367489793325166
4.09625e-06;-0.01365587380701999
4.09650e-06;-0.013636849680788255
4.09675e-06;-0.013617825554556585
4.09700e-06;-0.013598801428324914
4.09725e-06;-0.01357977730209318
4.09750e-06;-0.013556886646050365
4.09775e-06;-0.013529024082321078
4.09800e-06;-0.013501161518591697
4.09825e-06;-0.013473298954862411
4.09850e-06;-0.01344543639113303
4.09875e-06;-0.013415571504227189
4.09900e-06;-0.013383131862572697
4.09925e-06;-0.013350692220918095
4.09950e-06;-0.013318252579263605
4.09975e-06;-0.013285812937609113
4.10000e-06;-0.013252808321887655
4.10025e-06;-0.013219077215218944
4.10050e-06;-0.013185524356299747
4.10075e-06;-0.013152200703257318
4.10100e-06;-0.013119213174542657
4.10125e-06;-0.013086940614483056
4.10150e-06;-0.013055367357335704
4.10175e-06;-0.013024683737018181
4.10200e-06;-0.012995464328575965
4.10225e-06;-0.012967370517451306
4.10250e-06;-0.012940745060359337
4.10275e-06;-0.012916007735793605
4.10300e-06;-0.012892897864108988
4.10325e-06;-0.01287188070756764
4.10350e-06;-0.012852627422851566
4.10375e-06;-0.012835642272176588
4.10400e-06;-0.012818657121501608
4.10425e-06;-0.012803998494405276
4.10450e-06;-0.01279233150607221
4.10475e-06;-0.012780664517739144
4.10500e-06;-0.012772410719169756
4.10525e-06;-0.01276854588570553
4.10550e-06;-0.012764681052241305
4.10575e-06;-0.012760816218777067
4.10600e-06;-0.012756951385312841
4.10625e-06;-0.012753086551848617
4.10650e-06;-0.01275304416498106
4.10675e-06;-0.012757916999911877
4.10700e-06;-0.01276278983484271
4.10725e-06;-0.012767662669773527
4.10750e-06;-0.012772535504704346
4.10775e-06;-0.012777408339635178
4.10800e-06;-0.012785099138103367
4.10825e-06;-0.012796413509970206
4.10850e-06;-0.012807727881837084
4.10875e-06;-0.012819042253703923
4.10900e-06;-0.012830356625570763
4.10925e-06;-0.01284167099743764
4.10950e-06;-0.01285298536930448
4.10975e-06;-0.012865376910510281
4.11000e-06;-0.012879153566218368
4.11025e-06;-0.012892930221926408
4.11050e-06;-0.012906706877634448
4.11075e-06;-0.012920483533342535
4.11100e-06;-0.012934260189050577
4.11125e-06;-0.012948036844758664
4.11150e-06;-0.012961202404127672
4.11175e-06;-0.012973582164671177
4.11200e-06;-0.012985961925214725
4.11225e-06;-0.012996149619899101
4.11250e-06;-0.013003518572811545
4.11275e-06;-0.013010887525724015
4.11300e-06;-0.01301825647863646
4.11325e-06;-0.013025625431548903
4.11350e-06;-0.013032994384461373
4.11375e-06;-0.013040363337373817
4.11400e-06;-0.013047732290286261
4.11425e-06;-0.013055101243198731
4.11450e-06;-0.013055019393870658
4.11475e-06;-0.013054440549498694
4.11500e-06;-0.013053861705126728
4.11525e-06;-0.013053282860754764
4.11550e-06;-0.013052704016382798
4.11575e-06;-0.013052125172010834
4.11600e-06;-0.01305154632763887
4.11625e-06;-0.013050967483266904
4.11650e-06;-0.01304753429327263
4.11675e-06;-0.013040430746750072
4.11700e-06;-0.01303332720022749
4.11725e-06;-0.013026223653704932
4.11750e-06;-0.013019120107182374
4.11775e-06;-0.013012016560659792
4.11800e-06;-0.013004913014137235
4.11825e-06;-0.012997809467614677
4.11850e-06;-0.01298913092397708
4.11875e-06;-0.012978427117211703
4.11900e-06;-0.012967723310446325
4.11925e-06;-0.012957019503680911
4.11950e-06;-0.012946315696915534
4.11975e-06;-0.01293561189015012
4.12000e-06;-0.012924908083384742
4.12025e-06;-0.012914204276619365
4.12050e-06;-0.012903263717231937
4.12075e-06;-0.012892018721505461
4.12100e-06;-0.012880773725778985
4.12125e-06;-0.012869528730052473
4.12150e-06;-0.012858283734325997
4.12175e-06;-0.012848157645166313
4.12200e-06;-0.01283810619105931
4.12225e-06;-0.012828054736952338
4.12250e-06;-0.012818003282845368
4.12275e-06;-0.012808693203568713
4.12300e-06;-0.012800336446106689
4.12325e-06;-0.012793204403467907
4.12350e-06;-0.012787647201665158
4.12375e-06;-0.012782089999862427
4.12400e-06;-0.012778245606149164
4.12425e-06;-0.012776603684450117
4.12450e-06;-0.01277496176275107
4.12475e-06;-0.012776104893582087
4.12500e-06;-0.01278082927808252
4.12525e-06;-0.01278555366258295
4.12550e-06;-0.012790278047083397
4.12575e-06;-0.01279500243158383
4.12600e-06;-0.01279972681608426
4.12625e-06;-0.012804451200584708
4.12650e-06;-0.012816946442009782
4.12675e-06;-0.012829960027265474
4.12700e-06;-0.012842973612521211
4.12725e-06;-0.012855987197776905
4.12750e-06;-0.012869000783032597
4.12775e-06;-0.012882014368288335
4.12800e-06;-0.012897577980959817
4.12825e-06;-0.012916420632335583
4.12850e-06;-0.012935263283711286
4.12875e-06;-0.012954105935086987
4.12900e-06;-0.012972948586462755
4.12925e-06;-0.012991791237838456
4.12950e-06;-0.01301063388921416
4.12975e-06;-0.01303003133489161
4.13000e-06;-0.013050142181521776
4.13025e-06;-0.01307025302815194
4.13050e-06;-0.013090363874782173
4.13075e-06;-0.013110474721412337
4.13100e-06;-0.013130585568042502
4.13125e-06;-0.013150696414672734
4.13150e-06;-0.013169736203315092
4.13175e-06;-0.013187398735942674
4.13200e-06;-0.013205061268570318
4.13225e-06;-0.013221597886555726
4.13250e-06;-0.01323668670924841
4.13275e-06;-0.013250515982414607
4.13300e-06;-0.013262725621367816
4.13325e-06;-0.013272397827213931
4.13350e-06;-0.013278807189172435
4.13375e-06;-0.013285216551130938
4.13400e-06;-0.013288172592117044
4.13425e-06;-0.013286688063933107
4.13450e-06;-0.01328520353574917
4.13475e-06;-0.013280271933752003
4.13500e-06;-0.013270907795705103
4.13525e-06;-0.013261543657658203
4.13550e-06;-0.013247282806081
4.13575e-06;-0.013226725350362482
4.13600e-06;-0.013206167894643964
4.13625e-06;-0.013185610438925377
4.13650e-06;-0.013165052983206861
4.13675e-06;-0.013139276107441688
4.13700e-06;-0.013106787664484287
4.13725e-06;-0.013074299221526886
4.13750e-06;-0.013041810778569375
4.13775e-06;-0.013009322335611972
4.13800e-06;-0.012973532893720826
4.13825e-06;-0.012933498751087411
4.13850e-06;-0.012893464608454131
4.13875e-06;-0.01285207612244351
4.13900e-06;-0.012808946108351633
4.13925e-06;-0.012765212496451867
4.13950e-06;-0.012720389826773423
4.13975e-06;-0.012674956201754992
4.14000e-06;-0.012629157373597684
4.14025e-06;-0.012583248932110217
4.14050e-06;-0.012537486991000458
4.14075e-06;-0.012492126034283022
4.14100e-06;-0.012447407449942782
4.14125e-06;-0.01240354381344485
4.14150e-06;-0.01236074350712799
4.14175e-06;-0.012319253330024794
4.14200e-06;-0.012279350524831896
4.14225e-06;-0.012241318330087554
4.14250e-06;-0.012206003014267334
4.14275e-06;-0.01217271335449899
4.14300e-06;-0.012141442274102928
4.14325e-06;-0.01211276685203042
4.14350e-06;-0.012085363405899137
4.14375e-06;-0.012059595572904676
4.14400e-06;-0.0120355378318438
4.14425e-06;-0.012013679070135858
4.14450e-06;-0.011991820308427917
4.14475e-06;-0.01197233356591572
4.14500e-06;-0.01195589696423719
4.14525e-06;-0.011939460362558604
4.14550e-06;-0.011925508500557565
4.14575e-06;-0.011914751724820757
4.14600e-06;-0.011903994949083911
4.14625e-06;-0.011893238173347103
4.14650e-06;-0.011882481397610294
4.14675e-06;-0.011871724621873449
4.14700e-06;-0.011863785450754573
4.14725e-06;-0.011859469391502946
4.14750e-06;-0.011855153332251305
