Time(s);Current(A)
2.25000e-06;0.005953634454626724
2.25025e-06;0.005954339301464665
2.25050e-06;0.005955044148302607
2.25075e-06;0.005955748995140547
2.25100e-06;0.005956453841978488
2.25125e-06;0.00595715868881643
2.25150e-06;0.00595786353565437
2.25175e-06;0.005958568382492311
2.25200e-06;0.005959273229330253
2.25225e-06;0.0059599780761681945
2.25250e-06;0.005960682923006134
2.25275e-06;0.005961387769844076
2.25300e-06;0.0059620926166820175
2.25325e-06;0.005962797463519957
2.25350e-06;0.005963502310357899
2.25375e-06;0.005964742079151554
2.25400e-06;0.005966693851871172
2.25425e-06;0.005968645624590794
2.25450e-06;0.005970597397310416
2.25475e-06;0.0059725491700300375
2.25500e-06;0.005974500942749656
2.25525e-06;0.005976452715469278
2.25550e-06;0.0059784044881888996
2.25575e-06;0.005980356260908519
2.25600e-06;0.005982308033628141
2.25625e-06;0.0059842598063477625
2.25650e-06;0.005986211579067384
2.25675e-06;0.005988163351787003
2.25700e-06;0.0059901151245066245
2.25725e-06;0.005992066897226246
2.25750e-06;0.00599407066217868
2.25775e-06;0.005996143631009344
2.25800e-06;0.005998216599840009
2.25825e-06;0.006000289568670671
2.25850e-06;0.006002362537501336
2.25875e-06;0.0060044355063320004
2.25900e-06;0.006006508475162666
2.25925e-06;0.006008581443993327
2.25950e-06;0.006010654412823992
2.25975e-06;0.006012727381654657
2.26000e-06;0.0060148003504853186
2.26025e-06;0.006016873319315983
2.26050e-06;0.006018946288146649
2.26075e-06;0.006021019256977313
2.26100e-06;0.006023092225807975
2.26125e-06;0.0060191577307137645
2.26150e-06;0.0060072270450459994
2.26175e-06;0.0059952963593782535
2.26200e-06;0.0059833656737104885
2.26225e-06;0.005971434988042723
2.26250e-06;0.0059595043023749775
2.26275e-06;0.005947573616707212
2.26300e-06;0.005935642931039447
2.26325e-06;0.005923712245371681
2.26350e-06;0.005911781559703936
2.26375e-06;0.00589985087403617
2.26400e-06;0.005863834238425016
2.26425e-06;0.005825976596648668
2.26450e-06;0.005788118954872256
2.26475e-06;0.005750261313095844
2.26500e-06;0.005712403671319432
2.26525e-06;0.005674546029543084
2.26550e-06;0.005636688387766673
2.26575e-06;0.005598830745990261
2.26600e-06;0.005560973104213913
2.26625e-06;0.005523115462437501
2.26650e-06;0.005478980366461957
2.26675e-06;0.005426489711348382
2.26700e-06;0.005373999056234718
2.26725e-06;0.005321508401121054
2.26750e-06;0.00526901774600739
2.26775e-06;0.005216527090893815
2.26800e-06;0.005164036435780152
2.26825e-06;0.005111545780666488
2.26850e-06;0.005059055125552913
2.26875e-06;0.005010399865532872
2.26900e-06;0.004962037763392469
2.26925e-06;0.004913675661252065
2.26950e-06;0.0048653135591117435
2.26975e-06;0.00481695145697134
2.27000e-06;0.004768589354830937
2.27025e-06;0.004720227252690615
2.27050e-06;0.004671865150550212
2.27075e-06;0.004634754023132648
2.27100e-06;0.004612618422685023
2.27125e-06;0.004590482822237361
2.27150e-06;0.004568347221789699
2.27175e-06;0.0045462116213420365
2.27200e-06;0.004524076020894412
2.27225e-06;0.00450194042044675
2.27250e-06;0.004479804819999087
2.27275e-06;0.004457669219551463
2.27300e-06;0.0044355336191038005
2.27325e-06;0.004413398018656138
2.27350e-06;0.0043912624182084765
2.27375e-06;0.004369126817760851
2.27400e-06;0.004374610734022726
2.27425e-06;0.004382205744124523
2.27450e-06;0.004389800754226307
2.27475e-06;0.0043973957643281035
2.27500e-06;0.0044049907744299005
2.27525e-06;0.0044125857845316845
2.27550e-06;0.0044201807946334815
2.27575e-06;0.004427775804735278
2.27600e-06;0.004435370814837075
2.27625e-06;0.004442965824938859
2.27650e-06;0.004450560835040656
2.27675e-06;0.004458155845142452
2.27700e-06;0.004470990824075486
2.27725e-06;0.004490800424895887
2.27750e-06;0.004510610025716289
2.27775e-06;0.004530419626536691
2.27800e-06;0.00455022922735706
2.27825e-06;0.004570038828177461
2.27850e-06;0.004589848428997863
2.27875e-06;0.004609658029818231
2.27900e-06;0.004629560632881997
2.27925e-06;0.004649494464707547
2.27950e-06;0.0046694282965330635
2.27975e-06;0.004689362128358613
2.28000e-06;0.004709295960184163
2.28025e-06;0.004729229792009713
2.28050e-06;0.004749163623835229
2.28075e-06;0.004768321809557876
2.28100e-06;0.004776891581188774
2.28125e-06;0.004785461352819658
2.28150e-06;0.004794031124450556
2.28175e-06;0.004802600896081454
2.28200e-06;0.0048111706677123525
2.28225e-06;0.004819740439343236
2.28250e-06;0.004828310210974134
2.28275e-06;0.004836879982605032
2.28300e-06;0.004845449754235915
2.28325e-06;0.004854019525866813
2.28350e-06;0.004862589297497712
2.28375e-06;0.004871159069128595
2.28400e-06;0.004879728840759493
2.28425e-06;0.004888298612390391
2.28450e-06;0.004896868384021289
2.28475e-06;0.004905438155652172
2.28500e-06;0.004914007927283071
2.28525e-06;0.004921955611440581
2.28550e-06;0.004921411124045361
2.28575e-06;0.004920866636650141
2.28600e-06;0.0049203221492549205
2.28625e-06;0.0049197776618597
2.28650e-06;0.0049192331744644805
2.28675e-06;0.00491868868706926
2.28700e-06;0.00491814419967404
2.28725e-06;0.00491759971227882
2.28750e-06;0.0049170552248836
2.28775e-06;0.004916510737488379
2.28800e-06;0.0049159662500931605
2.28825e-06;0.00491542176269794
2.28850e-06;0.00491487727530272
2.28875e-06;0.004914332787907499
2.28900e-06;0.00491378830051228
2.28925e-06;0.004913243813117059
2.28950e-06;0.004912699325721839
2.28975e-06;0.004912173387466457
2.29000e-06;0.004911900665172524
2.29025e-06;0.00491162794287859
2.29050e-06;0.004911355220584657
2.29075e-06;0.004911082498290724
2.29100e-06;0.004910809775996791
2.29125e-06;0.004910537053702858
2.29150e-06;0.004910264331408925
2.29175e-06;0.004909991609114991
2.29200e-06;0.004909718886821058
2.29225e-06;0.004909446164527125
2.29250e-06;0.004909173442233191
2.29275e-06;0.004909627876995314
2.29300e-06;0.004920008797550224
2.29325e-06;0.0049303897181051165
2.29350e-06;0.004940770638660027
2.29375e-06;0.004951151559214937
2.29400e-06;0.00496153247976983
2.29425e-06;0.004971913400324741
2.29450e-06;0.004982294320879651
2.29475e-06;0.004992675241434562
2.29500e-06;0.0050030561619894545
2.29525e-06;0.0050134370825443645
2.29550e-06;0.005023818003099275
2.29575e-06;0.005034198923654168
2.29600e-06;0.005044579844209078
2.29625e-06;0.005055443316090044
2.29650e-06;0.005072894139139474
2.29675e-06;0.0050903449621889345
2.29700e-06;0.005107795785238394
2.29725e-06;0.005125246608287855
2.29750e-06;0.005142697431337285
2.29775e-06;0.005160148254386745
2.29800e-06;0.005177599077436206
2.29825e-06;0.005195049900485636
2.29850e-06;0.0052125007235350965
2.29875e-06;0.005229951546584556
2.29900e-06;0.005247402369634016
2.29925e-06;0.005264853192683447
2.29950e-06;0.005282304015732907
2.29975e-06;0.005299077477470623
2.30000e-06;0.005306604219558082
2.30025e-06;0.005314130961645553
2.30050e-06;0.0053216577037330254
2.30075e-06;0.0053291844458204845
2.30100e-06;0.005336711187907956
2.30125e-06;0.005344237929995427
2.30150e-06;0.005351764672082899
2.30175e-06;0.005359291414170358
2.30200e-06;0.005366818156257829
2.30225e-06;0.005374344898345301
2.30250e-06;0.00538187164043276
2.30275e-06;0.005389398382520231
2.30300e-06;0.005396925124607703
2.30325e-06;0.005404451866695174
2.30350e-06;0.005411978608782633
2.30375e-06;0.0054195053508701045
2.30400e-06;0.005427032092957577
2.30425e-06;0.0054336052803583244
2.30450e-06;0.005427161407724416
2.30475e-06;0.005420717535090507
2.30500e-06;0.005414273662456609
2.30525e-06;0.005407829789822701
2.30550e-06;0.005401385917188792
2.30575e-06;0.005394942044554883
2.30600e-06;0.005388498171920985
2.30625e-06;0.005382054299287076
2.30650e-06;0.005375610426653167
2.30675e-06;0.0053691665540192696
2.30700e-06;0.005362722681385361
2.30725e-06;0.005356278808751452
2.30750e-06;0.005349834936117543
2.30775e-06;0.005343391063483646
2.30800e-06;0.005336947190849737
2.30825e-06;0.005330503318215828
2.30850e-06;0.00532405944558193
2.30875e-06;0.005317483133577895
2.30900e-06;0.005309098879925572
2.30925e-06;0.005300714626273262
2.30950e-06;0.005292330372620939
2.30975e-06;0.005283946118968616
2.31000e-06;0.0052755618653162915
2.31025e-06;0.005267177611663982
2.31050e-06;0.005258793358011659
2.31075e-06;0.0052504091043593356
2.31100e-06;0.005242024850707026
2.31125e-06;0.005233640597054702
2.31150e-06;0.005221406763635203
2.31175e-06;0.005206248113923823
2.31200e-06;0.005191089464212468
2.31225e-06;0.005175930814501087
2.31250e-06;0.005160772164789706
2.31275e-06;0.005145613515078352
2.31300e-06;0.005130454865366971
2.31325e-06;0.005115296215655591
2.31350e-06;0.005100137565944235
2.31375e-06;0.005084978916232855
2.31400e-06;0.005068703679690294
2.31425e-06;0.005037185816771466
2.31450e-06;0.0050056679538526905
2.31475e-06;0.004974150090933862
2.31500e-06;0.004942632228015034
2.31525e-06;0.004911114365096259
2.31550e-06;0.00487959650217743
2.31575e-06;0.004848078639258601
2.31600e-06;0.004816560776339827
2.31625e-06;0.004785042913420998
2.31650e-06;0.00475352505050217
2.31675e-06;0.004717598012137411
2.31700e-06;0.004678320990408664
2.31725e-06;0.00463904396867985
2.31750e-06;0.004599766946951036
2.31775e-06;0.004560489925222289
2.31800e-06;0.004521212903493475
2.31825e-06;0.004481935881764661
2.31850e-06;0.004442658860035847
2.31875e-06;0.004403381838307099
2.31900e-06;0.004364104816578285
2.31925e-06;0.0043255919480043896
2.31950e-06;0.004297510602274334
2.31975e-06;0.004269429256544231
2.32000e-06;0.0042413479108141285
2.32025e-06;0.004213266565084073
2.32050e-06;0.00418518521935397
2.32075e-06;0.0041571038736238665
2.32100e-06;0.004129022527893764
2.32125e-06;0.004100941182163708
2.32150e-06;0.004072859836433605
2.32175e-06;0.004044778490703503
2.32200e-06;0.004016697144973447
2.32225e-06;0.003988615799243344
2.32250e-06;0.003961565357562471
2.32275e-06;0.003948587878966591
2.32300e-06;0.003935610400370732
2.32325e-06;0.003922632921774852
2.32350e-06;0.0039096554431789715
2.32375e-06;0.0038966779645831133
2.32400e-06;0.003883700485987233
2.32425e-06;0.0038707230073913527
2.32450e-06;0.0038577455287954945
2.32475e-06;0.003844768050199614
2.32500e-06;0.003831790571603734
2.32525e-06;0.003818813093007853
2.32550e-06;0.003805835614411995
2.32575e-06;0.0037933230492493146
2.32600e-06;0.003787157058812696
2.32625e-06;0.003780991068376087
2.32650e-06;0.003774825077939468
2.32675e-06;0.0037686590875028493
2.32700e-06;0.00376249309706623
2.32725e-06;0.0037563271066296216
2.32750e-06;0.003750161116193003
2.32775e-06;0.0037439951257563836
2.32800e-06;0.003737829135319775
2.32825e-06;0.0037316631448831563
2.32850e-06;0.003725702472259505
2.32875e-06;0.0037225446114060546
2.32900e-06;0.0037193867505525987
2.32925e-06;0.0037162288896991427
2.32950e-06;0.003713071028845687
2.32975e-06;0.003709913167992237
2.33000e-06;0.003706755307138781
2.33025e-06;0.0037035974462853254
2.33050e-06;0.0037004395854318747
2.33075e-06;0.003697281724578419
2.33100e-06;0.003694123863724963
2.33125e-06;0.0036920835773263027
2.33150e-06;0.0037052993994496296
2.33175e-06;0.0037185152215729786
2.33200e-06;0.0037317310436963277
2.33225e-06;0.003744946865819654
2.33250e-06;0.0037581626879430036
2.33275e-06;0.0037713785100663526
2.33300e-06;0.003784594332189679
2.33325e-06;0.003797810154313028
2.33350e-06;0.003811025976436377
2.33375e-06;0.0038242417985597265
2.33400e-06;0.003854073895146281
2.33425e-06;0.0038965306295396154
2.33450e-06;0.0039389873639329494
2.33475e-06;0.003981444098326212
2.33500e-06;0.0040239008327195465
2.33525e-06;0.0040663575671128814
2.33550e-06;0.0041088143015062155
2.33575e-06;0.0041512710358994785
2.33600e-06;0.004193727770292813
2.33625e-06;0.004236184504686147
2.33650e-06;0.004279720244888542
2.33675e-06;0.004337985589593974
2.33700e-06;0.004396250934299407
2.33725e-06;0.004454516279004741
2.33750e-06;0.004512781623710173
2.33775e-06;0.004571046968415606
2.33800e-06;0.004629312313121039
2.33825e-06;0.004687577657826373
2.33850e-06;0.004745561683769982
2.33875e-06;0.004799705402213793
2.33900e-06;0.004853849120657513
2.33925e-06;0.004907992839101324
2.33950e-06;0.004962136557545135
2.33975e-06;0.005016280275988946
2.34000e-06;0.005070423994432665
2.34025e-06;0.005124567712876476
2.34050e-06;0.005177169282463385
2.34075e-06;0.005208718840506809
2.34100e-06;0.005240268398550288
2.34125e-06;0.005271817956593765
2.34150e-06;0.0053033675146371894
2.34175e-06;0.005334917072680667
2.34200e-06;0.005366466630724145
2.34225e-06;0.0053980161887676225
2.34250e-06;0.005429565746811047
2.34275e-06;0.005461115304854525
2.34300e-06;0.005492664862898003
2.34325e-06;0.005524214420941427
2.34350e-06;0.0055557639789849044
2.34375e-06;0.005578491093440207
2.34400e-06;0.005594515131635817
2.34425e-06;0.005610539169831402
2.34450e-06;0.0056265632080270125
2.34475e-06;0.005642587246222624
2.34500e-06;0.005658611284418208
2.34525e-06;0.005674635322613819
2.34550e-06;0.00569065936080943
2.34575e-06;0.005706683399005014
2.34600e-06;0.005722707437200625
2.34625e-06;0.005738731475396237
2.34650e-06;0.005754755513591847
2.34675e-06;0.005770309816963644
2.34700e-06;0.005779451728373049
2.34725e-06;0.005788593639782454
2.34750e-06;0.005797735551191845
2.34775e-06;0.00580687746260125
2.34800e-06;0.005816019374010656
2.34825e-06;0.005825161285420061
2.34850e-06;0.005834303196829452
2.34875e-06;0.005843445108238857
2.34900e-06;0.005852587019648262
2.34925e-06;0.005859309968828474
2.34950e-06;0.005864195049834198
2.34975e-06;0.005869080130839923
2.35000e-06;0.005873965211845639
2.35025e-06;0.0058788502928513635
2.35050e-06;0.005883735373857088
2.35075e-06;0.005888620454862812
2.35100e-06;0.005893505535868528
2.35125e-06;0.005898390616874252
2.35150e-06;0.005901808792608607
2.35175e-06;0.005885202113688498
2.35200e-06;0.005868595434768361
2.35225e-06;0.005851988755848224
2.35250e-06;0.005835382076928088
2.35275e-06;0.005818775398007979
2.35300e-06;0.005802168719087842
2.35325e-06;0.005785562040167705
2.35350e-06;0.005768955361247597
2.35375e-06;0.00575234868232746
2.35400e-06;0.005735742003407323
2.35425e-06;0.005701247768601132
2.35450e-06;0.005653163007540709
2.35475e-06;0.005605078246480285
2.35500e-06;0.005556993485419862
2.35525e-06;0.005508908724359519
2.35550e-06;0.005460823963299096
2.35575e-06;0.005412739202238673
2.35600e-06;0.005364654441178331
2.35625e-06;0.0053165696801179075
2.35650e-06;0.005268484919057484
2.35675e-06;0.005219365814851918
2.35700e-06;0.005156126800144519
2.35725e-06;0.005092887785437013
2.35750e-06;0.005029648770729507
2.35775e-06;0.004966409756022109
2.35800e-06;0.0049031707413146036
2.35825e-06;0.004839931726607098
2.35850e-06;0.004776692711899699
2.35875e-06;0.004713903289141622
2.35900e-06;0.004657251286173728
2.35925e-06;0.004600599283205834
2.35950e-06;0.004543947280238036
2.35975e-06;0.004487295277270142
2.36000e-06;0.004430643274302248
2.36025e-06;0.00437399127133445
2.36050e-06;0.004317339268366556
2.36075e-06;0.004262897105736377
2.36100e-06;0.0042386216706016
2.36125e-06;0.004214346235466865
2.36150e-06;0.004190070800332088
2.36175e-06;0.004165795365197311
2.36200e-06;0.004141519930062575
2.36225e-06;0.004117244494927798
2.36250e-06;0.004092969059793022
2.36275e-06;0.004068693624658286
2.36300e-06;0.00404441818952351
2.36325e-06;0.00402320075833769
2.36350e-06;0.004043728411733827
2.36375e-06;0.004064256065129928
2.36400e-06;0.004084783718526065
2.36425e-06;0.004105311371922202
2.36450e-06;0.004125839025318303
2.36475e-06;0.00414636667871444
2.36500e-06;0.004166894332110576
2.36525e-06;0.004187421985506713
2.36550e-06;0.004207949638902815
2.36575e-06;0.004230487709342447
2.36600e-06;0.004280470162107555
2.36625e-06;0.004330452614872578
2.36650e-06;0.004380435067637685
2.36675e-06;0.004430417520402792
2.36700e-06;0.004480399973167814
2.36725e-06;0.004530382425932921
2.36750e-06;0.004580364878698028
2.36775e-06;0.004630815242564158
2.36800e-06;0.004687653102593252
2.36825e-06;0.004744490962622443
2.36850e-06;0.004801328822651634
2.36875e-06;0.0048581666826807285
2.36900e-06;0.004915004542709919
2.36925e-06;0.00497184240273911
2.36950e-06;0.005028680262768301
2.36975e-06;0.005084024957802447
2.37000e-06;0.005118986324345517
2.37025e-06;0.0051539476908885875
2.37050e-06;0.005188909057431598
2.37075e-06;0.005223870423974668
2.37100e-06;0.0052588317905177375
2.37125e-06;0.005293793157060749
2.37150e-06;0.005328754523603819
2.37175e-06;0.005363715890146888
2.37200e-06;0.0053986772566899585
2.37225e-06;0.00543363862323297
2.37250e-06;0.005468599989776039
2.37275e-06;0.005503561356319109
2.37300e-06;0.00553852272286212
2.37325e-06;0.005557043952685347
2.37350e-06;0.005563074369836269
2.37375e-06;0.005569104786987191
2.37400e-06;0.005575135204138103
2.37425e-06;0.005581165621289025
2.37450e-06;0.005587196038439948
2.37475e-06;0.005593226455590861
2.37500e-06;0.005599256872741783
2.37525e-06;0.005605287289892705
2.37550e-06;0.0056113177070436174
2.37575e-06;0.0056173481241945395
2.37600e-06;0.0056233785413454624
2.37625e-06;0.0056294089584963845
2.37650e-06;0.0056344895055217515
2.37675e-06;0.005626603290761908
2.37700e-06;0.0056187170760020645
2.37725e-06;0.0056108308612422345
2.37750e-06;0.0056029446464823905
2.37775e-06;0.005595058431722547
2.37800e-06;0.0055871722169627035
2.37825e-06;0.0055792860022028734
2.37850e-06;0.0055713997874430295
2.37875e-06;0.005563513572683186
2.37900e-06;0.0055556273579233555
2.37925e-06;0.005547741143163512
2.37950e-06;0.0055398549284036685
2.37975e-06;0.005531968713643838
2.38000e-06;0.005524082498883995
2.38025e-06;0.005517697028931488
2.38050e-06;0.005512451788076681
2.38075e-06;0.005507206547221883
2.38100e-06;0.0055019613063670755
2.38125e-06;0.005496716065512269
2.38150e-06;0.005491470824657471
2.38175e-06;0.005486225583802664
2.38200e-06;0.0054809803429478575
2.38225e-06;0.005475735102093051
2.38250e-06;0.005470489861238253
2.38275e-06;0.005465244620383446
2.38300e-06;0.005459999379528639
2.38325e-06;0.005454754138673841
2.38350e-06;0.005449508897819034
2.38375e-06;0.005444787159084763
2.38400e-06;0.00544721179448057
2.38425e-06;0.005449636429876382
2.38450e-06;0.005452061065272192
2.38475e-06;0.005454485700668003
2.38500e-06;0.00545691033606381
2.38525e-06;0.005459334971459621
2.38550e-06;0.005461759606855432
2.38575e-06;0.005464184242251239
2.38600e-06;0.00546660887764705
2.38625e-06;0.005469033513042861
2.38650e-06;0.005471458148438672
2.38675e-06;0.0054738827838344785
2.38700e-06;0.00547630741923029
2.38725e-06;0.0054787320546261006
2.38750e-06;0.005481156690021908
2.38775e-06;0.005483581325417718
2.38800e-06;0.00548600596081353
2.38825e-06;0.005488430596209336
2.38850e-06;0.005491006576529176
2.38875e-06;0.005493697545010446
2.38900e-06;0.005496388513491717
2.38925e-06;0.005499079481972983
2.38950e-06;0.005501770450454253
2.38975e-06;0.005504461418935524
2.39000e-06;0.00550715238741679
2.39025e-06;0.0055098433558980605
2.39050e-06;0.005512534324379332
2.39075e-06;0.005515225292860598
2.39100e-06;0.005517916261341869
2.39125e-06;0.005520607229823139
2.39150e-06;0.00552329819830441
2.39175e-06;0.005525989166785676
2.39200e-06;0.005528680135266946
2.39225e-06;0.005531371103748217
2.39250e-06;0.005534062072229483
2.39275e-06;0.0055367530407107535
2.39300e-06;0.005538969134158944
2.39325e-06;0.0055347026661831345
2.39350e-06;0.005530436198207332
2.39375e-06;0.005526169730231523
2.39400e-06;0.0055219032622557136
2.39425e-06;0.005517636794279912
2.39450e-06;0.005513370326304102
2.39475e-06;0.0055091038583282926
2.39500e-06;0.005504837390352491
2.39525e-06;0.005500570922376682
2.39550e-06;0.005496304454400872
2.39575e-06;0.005492037986425062
2.39600e-06;0.005487771518449261
2.39625e-06;0.0054835050504734514
2.39650e-06;0.005479238582497642
2.39675e-06;0.00547497211452184
2.39700e-06;0.0054707056465460304
2.39725e-06;0.005466439178570221
2.39750e-06;0.005462172710594412
2.39775e-06;0.0054579062426186094
2.39800e-06;0.0054536397746428
2.39825e-06;0.005449373306666991
2.39850e-06;0.0054451068386911885
2.39875e-06;0.005440840370715379
2.39900e-06;0.005435700755248355
2.39925e-06;0.005429897743732058
2.39950e-06;0.005424094732215751
2.39975e-06;0.005418291720699443
2.40000e-06;0.005412488709183136
2.40025e-06;0.005406685697666838
2.40050e-06;0.005400882686150531
