Time(s);Current(A)
1.10000e-05;-0.003486065324195386
1.10003e-05;-0.003517581287796944
1.10005e-05;-0.0035547332975026467
1.10008e-05;-0.003591885307208349
1.10010e-05;-0.003629324682337287
1.10013e-05;-0.0036691969300630123
1.10015e-05;-0.0037090691777887375
1.10018e-05;-0.0037490239375148142
1.10020e-05;-0.003789677254439784
1.10023e-05;-0.003830330571364753
1.10025e-05;-0.00387083916433924
1.10028e-05;-0.0039101225057569505
1.10030e-05;-0.00394940584717466
1.10033e-05;-0.003988405479801449
1.10035e-05;-0.004025003197354826
1.10038e-05;-0.0040607472797254095
1.10040e-05;-0.004089264376959942
1.10043e-05;-0.004117781474194668
1.10045e-05;-0.004146298571429394
1.10047e-05;-0.0041748156686639264
1.10050e-05;-0.004203332765898652
1.10053e-05;-0.004231849863133378
1.10055e-05;-0.004253940783997152
1.10058e-05;-0.004271847323139284
1.10060e-05;-0.004289753862281416
1.10062e-05;-0.004307660401423426
1.10065e-05;-0.004325566940565558
1.10068e-05;-0.00434347347970769
1.10070e-05;-0.004360249035122053
1.10073e-05;-0.0043674495369812
1.10075e-05;-0.004374650038840396
1.10078e-05;-0.0043818505406995915
1.10080e-05;-0.004389051042558739
1.10083e-05;-0.004396251544417935
1.10085e-05;-0.004403452046277131
1.10088e-05;-0.004410652548136278
1.10090e-05;-0.004417853049995473
1.10093e-05;-0.00442505355185467
1.10095e-05;-0.0044322540537138164
1.10098e-05;-0.004439454555573013
1.10100e-05;-0.004446655057432208
1.10103e-05;-0.004449163847011659
1.10105e-05;-0.004448617644948098
1.10108e-05;-0.004448071442884537
1.10110e-05;-0.00444752524082098
1.10113e-05;-0.004446979038757419
1.10115e-05;-0.0044464328366938585
1.10118e-05;-0.004445886634630301
1.10120e-05;-0.00444534043256674
1.10123e-05;-0.00444479423050318
1.10125e-05;-0.004444248028439623
1.10128e-05;-0.004443701826376062
1.10130e-05;-0.004443155624312501
1.10132e-05;-0.004442434828995
1.10135e-05;-0.004440235904756135
1.10138e-05;-0.00443803698051727
1.10140e-05;-0.0044358380562784195
1.10143e-05;-0.004433639132039554
1.10145e-05;-0.004431440207800689
1.10147e-05;-0.0044292412835618385
1.10150e-05;-0.004427042359322973
1.10153e-05;-0.004424843435084108
1.10155e-05;-0.004422644510845244
1.10158e-05;-0.004420445586606393
1.10160e-05;-0.004418246662367528
1.10163e-05;-0.0044160477381286626
1.10165e-05;-0.004413614064120154
1.10168e-05;-0.004409192968398157
1.10170e-05;-0.0044047718726761605
1.10173e-05;-0.004400350776954194
1.10175e-05;-0.004395929681232197
1.10178e-05;-0.0043915085855102
1.10180e-05;-0.004387087489788234
1.10183e-05;-0.004382666394066237
1.10185e-05;-0.00437824529834424
1.10188e-05;-0.004373824202622273
1.10190e-05;-0.004369403106900277
1.10193e-05;-0.0043649820111782795
1.10195e-05;-0.004360560915456313
1.10198e-05;-0.004355945500515694
1.10200e-05;-0.0043496849541012185
1.10203e-05;-0.004343424407686785
1.10205e-05;-0.004337163861272309
1.10208e-05;-0.004330903314857834
1.10210e-05;-0.0043246427684434
1.10213e-05;-0.004318382222028925
1.10215e-05;-0.004312121675614449
1.10217e-05;-0.0043058611292000155
1.10220e-05;-0.00429960058278554
1.10223e-05;-0.004293636843327053
1.10225e-05;-0.004287866368654775
1.10228e-05;-0.004282095893982457
1.10230e-05;-0.00427632541931014
1.10232e-05;-0.004270554944637861
1.10235e-05;-0.004264784469965544
1.10238e-05;-0.004259013995293226
1.10240e-05;-0.004253243520620909
1.10243e-05;-0.00424747304594863
1.10245e-05;-0.004241735674847067
1.10248e-05;-0.004236278562829267
1.10250e-05;-0.0042308214508115045
1.10253e-05;-0.004225364338793705
1.10255e-05;-0.004219907226775905
1.10258e-05;-0.004214450114758142
1.10260e-05;-0.004208993002740342
1.10263e-05;-0.004203535890722542
1.10265e-05;-0.0041980787787047795
1.10268e-05;-0.004190482107395375
1.10270e-05;-0.0041814922697173355
1.10273e-05;-0.004172502432039357
1.10275e-05;-0.004163512594361317
1.10278e-05;-0.004154522756683278
1.10280e-05;-0.0041455329190052985
1.10283e-05;-0.004136543081327259
1.10285e-05;-0.004127553243649219
1.10288e-05;-0.004118197914264639
1.10290e-05;-0.004105748285125484
1.10293e-05;-0.004093298655986329
1.10295e-05;-0.004080849026847259
1.10298e-05;-0.004068399397708104
1.10300e-05;-0.004055949768568948
1.10302e-05;-0.004043500139429878
1.10305e-05;-0.0040310505102907224
1.10308e-05;-0.004018469611314616
1.10310e-05;-0.004004777365030373
1.10313e-05;-0.003991085118746037
1.10315e-05;-0.003977392872461702
1.10317e-05;-0.0039637006261774585
1.10320e-05;-0.003950008379893123
1.10323e-05;-0.003936316133608787
1.10325e-05;-0.003922623887324451
1.10328e-05;-0.003909186896988055
1.10330e-05;-0.0038979109363077294
1.10333e-05;-0.003886634975627404
1.10335e-05;-0.0038753590149471547
1.10338e-05;-0.0038640830542668292
1.10340e-05;-0.0038528070935865038
1.10343e-05;-0.003841531132906255
1.10345e-05;-0.0038302551722259296
1.10348e-05;-0.003818979211545604
1.10350e-05;-0.00381255325038423
1.10353e-05;-0.003809285349037261
1.10355e-05;-0.0038060174476902916
1.10358e-05;-0.0038027495463433445
1.10360e-05;-0.0037994816449963753
1.10363e-05;-0.003796213743649406
1.10365e-05;-0.003792945842302459
1.10368e-05;-0.0037896779409554897
1.10370e-05;-0.0037874735529985467
1.10373e-05;-0.0037942730060696924
1.10375e-05;-0.0038010724591408846
1.10378e-05;-0.0038078719122120767
1.10380e-05;-0.003814671365283223
1.10383e-05;-0.003821470818354415
1.10385e-05;-0.0038282702714256068
1.10387e-05;-0.0038358650596925685
1.10390e-05;-0.0038501932579339047
1.10393e-05;-0.0038645214561752405
1.10395e-05;-0.0038788496544164795
1.10398e-05;-0.0038931778526578157
1.10400e-05;-0.003907506050899152
1.10402e-05;-0.0039218342491403905
1.10405e-05;-0.003936591557102151
1.10408e-05;-0.003954981763101366
1.10410e-05;-0.003973371969100581
1.10413e-05;-0.003991762175099672
1.10415e-05;-0.004010152381098887
1.10418e-05;-0.004028542587098103
1.10420e-05;-0.0040469327930971934
1.10423e-05;-0.0040653229990964095
1.10425e-05;-0.004082935724054153
1.10428e-05;-0.004100042195016402
1.10430e-05;-0.004117148665978768
1.10433e-05;-0.004134255136941133
1.10435e-05;-0.004151361607903382
1.10438e-05;-0.004168468078865748
1.10440e-05;-0.004185574549828114
1.10443e-05;-0.004202197302386935
1.10445e-05;-0.004214724832778947
1.10448e-05;-0.004227252363170958
1.10450e-05;-0.004239282411134625
1.10453e-05;-0.0042471007089280935
1.10455e-05;-0.004254919006721561
1.10458e-05;-0.004261828525950445
1.10460e-05;-0.004261044209062221
1.10463e-05;-0.004260259892173998
1.10465e-05;-0.004259475575285779
1.10468e-05;-0.0042586912583975544
1.10470e-05;-0.004257906941509331
1.10472e-05;-0.004257122624621112
1.10475e-05;-0.004249258792515299
1.10478e-05;-0.004236785159432259
1.10480e-05;-0.004224311526349304
1.10483e-05;-0.004211837893266265
1.10485e-05;-0.004199364260183225
1.10487e-05;-0.0041868906271002706
1.10490e-05;-0.0041734563370541666
1.10493e-05;-0.004151889001701865
1.10495e-05;-0.004130321666349563
1.10498e-05;-0.004108754330997408
1.10500e-05;-0.004087186995645107
1.10503e-05;-0.004065619660292805
1.10505e-05;-0.004043536797111775
1.10508e-05;-0.004017089409078703
1.10510e-05;-0.0039906420210456305
1.10513e-05;-0.003964194633012738
1.10515e-05;-0.003937747244979666
1.10518e-05;-0.003911299856946594
1.10520e-05;-0.0038847628568147666
1.10523e-05;-0.003857467189136649
1.10525e-05;-0.003830233725209182
1.10528e-05;-0.0038035268862290457
1.10530e-05;-0.0037769435200950105
1.10533e-05;-0.003751405490945836
1.10535e-05;-0.003726058967689481
1.10538e-05;-0.0037023337579317954
1.10540e-05;-0.0036796373916877863
1.10543e-05;-0.003665651346854155
1.10545e-05;-0.0036418314037055927
1.10548e-05;-0.003623191115558419
1.10550e-05;-0.0036084250564320975
1.10553e-05;-0.003594657638776673
1.10555e-05;-0.0035853098217491506
1.10557e-05;-0.003575962004721692
1.10560e-05;-0.00356661418769417
1.10563e-05;-0.0035572663706666483
1.10565e-05;-0.0035479185536391893
1.10568e-05;-0.003547053494051309
1.10570e-05;-0.0035499092655005117
1.10572e-05;-0.003552765036949695
1.10575e-05;-0.0035556208083988975
1.10578e-05;-0.0035584765798481
1.10580e-05;-0.003561332351297303
1.10583e-05;-0.0035731702225687257
1.10585e-05;-0.0035877806320187985
1.10588e-05;-0.003602391041468871
1.10590e-05;-0.0036170014509188443
1.10593e-05;-0.0036316118603689166
1.10595e-05;-0.0036462222698189894
1.10598e-05;-0.0036630813626913595
1.10600e-05;-0.0036862052425366853
1.10603e-05;-0.003709329122382011
1.10605e-05;-0.00373245300222718
1.10608e-05;-0.003755576882072506
1.10610e-05;-0.0037787007619178316
1.10613e-05;-0.003801824641763001
1.10615e-05;-0.003827311335262609
1.10618e-05;-0.0038535273672461036
1.10620e-05;-0.0038797433992294205
1.10623e-05;-0.003905921713563632
1.10625e-05;-0.0039320883854506725
1.10628e-05;-0.003958255057337535
1.10630e-05;-0.0039833687781820875
1.10633e-05;-0.004008157480709769
1.10635e-05;-0.004032946183237283
1.10638e-05;-0.004053239606180629
1.10640e-05;-0.0040721454544453235
1.10642e-05;-0.00409105130270989
1.10645e-05;-0.004109957150974584
1.10648e-05;-0.004128862999239279
1.10650e-05;-0.0041477688475038445
1.10653e-05;-0.004166674695768539
1.10655e-05;-0.004178235006419329
1.10657e-05;-0.0041875279426379025
1.10660e-05;-0.004196820878856539
1.10663e-05;-0.004206113815075175
1.10665e-05;-0.0042154067512938116
1.10668e-05;-0.004224699687512385
1.10670e-05;-0.0042339926237310215
1.10673e-05;-0.004235870686926693
1.10675e-05;-0.004235459973671289
1.10678e-05;-0.004235049260415883
1.10680e-05;-0.004234638547160477
1.10683e-05;-0.004234227833905074
1.10685e-05;-0.004233817120649668
1.10688e-05;-0.004233406407394262
1.10690e-05;-0.004232995694138858
1.10693e-05;-0.004232584980883453
1.10695e-05;-0.004226454350531864
1.10698e-05;-0.004218558132083028
1.10700e-05;-0.00421066191363414
1.10703e-05;-0.00420276569518525
1.10705e-05;-0.004194869476736415
1.10708e-05;-0.004186973258287525
1.10710e-05;-0.004179077039838636
1.10713e-05;-0.0041711808213898
1.10715e-05;-0.004163284602940911
1.10718e-05;-0.0041535165733637
1.10720e-05;-0.004143170764879432
1.10723e-05;-0.004132824956395095
1.10725e-05;-0.0041224791479107575
1.10727e-05;-0.00411213333942649
1.10730e-05;-0.004101997295432505
1.10733e-05;-0.004092445651107249
1.10735e-05;-0.004082894006782057
1.10738e-05;-0.0040733423624568004
1.10740e-05;-0.004063790718131544
1.10742e-05;-0.004054239073806353
1.10745e-05;-0.004046135407664756
1.10748e-05;-0.004038478694337984
1.10750e-05;-0.004030821981011264
1.10753e-05;-0.004021520364738975
1.10755e-05;-0.004011711010152714
1.10758e-05;-0.004001901655566454
1.10760e-05;-0.00399209230098026
1.10763e-05;-0.003982282946393999
1.10765e-05;-0.003972473591807738
1.10768e-05;-0.003962664237221544
1.10770e-05;-0.003949137660884897
1.10773e-05;-0.003934463675876214
1.10775e-05;-0.003919789690867632
1.10778e-05;-0.0039051157058589492
1.10780e-05;-0.0038904417208502668
1.10783e-05;-0.0038757677358416836
1.10785e-05;-0.003861093750833001
1.10788e-05;-0.0038428289760117705
1.10790e-05;-0.0038234558187353446
1.10793e-05;-0.0038040826614587873
1.10795e-05;-0.0037847095041822305
1.10798e-05;-0.0037653363469058046
1.10800e-05;-0.003745963189629248
1.10803e-05;-0.0037258952928424668
1.10805e-05;-0.0037038918656947506
1.10808e-05;-0.0036818884385468854
1.10810e-05;-0.00365988501139902
1.10812e-05;-0.003637881584251304
1.10815e-05;-0.0036158781571034387
1.10818e-05;-0.0035938747299555734
1.10820e-05;-0.0035718160310325027
1.10823e-05;-0.003549740271164676
1.10825e-05;-0.0035276645112968484
1.10827e-05;-0.0035063662628141245
1.10830e-05;-0.003485308011664172
1.10833e-05;-0.0034651017879782846
1.10835e-05;-0.0034451585627809254
1.10838e-05;-0.0034289057726592438
1.10840e-05;-0.003413792122867451
1.10843e-05;-0.003398678473075658
1.10845e-05;-0.003383564823283968
1.10848e-05;-0.0033684511734921752
1.10850e-05;-0.003353337523700382
1.10853e-05;-0.003338223873908692
1.10855e-05;-0.003323110224116899
1.10858e-05;-0.0033079965743251062
1.10860e-05;-0.003294045336068684
1.10863e-05;-0.0032833325530692817
1.10865e-05;-0.003272619770069879
1.10868e-05;-0.0032619069870705487
1.10870e-05;-0.0032511942040711465
1.10873e-05;-0.003240481421071744
1.10875e-05;-0.0032297686380724135
1.10878e-05;-0.0032190558550730113
1.10880e-05;-0.0032083430720736086
1.10883e-05;-0.0031976302890742783
1.10885e-05;-0.0031880485902492646
1.10888e-05;-0.0031788160273861004
1.10890e-05;-0.0031695834645229983
1.10893e-05;-0.0031603509016598337
1.10895e-05;-0.003151118338796669
1.10897e-05;-0.0031418857759335675
1.10900e-05;-0.003132653213070403
1.10903e-05;-0.0031234206502072383
1.10905e-05;-0.0031141880873441366
1.10908e-05;-0.0031057840871390463
1.10910e-05;-0.0030976358424534495
1.10912e-05;-0.003089487597767908
1.10915e-05;-0.0030813393530823106
1.10918e-05;-0.0030731911083967138
1.10920e-05;-0.003065042863711172
1.10923e-05;-0.0030568946190255753
1.10925e-05;-0.0030487463743399785
1.10928e-05;-0.0030405981296543817
1.10930e-05;-0.0030339270903767448
1.10933e-05;-0.00302771202559037
1.10935e-05;-0.0030214969608039956
1.10938e-05;-0.003015281896017663
1.10940e-05;-0.0030090668312312886
1.10943e-05;-0.003002851766444914
1.10945e-05;-0.0029966367016585815
1.10948e-05;-0.002990421636872207
1.10950e-05;-0.002985913228997795
1.10953e-05;-0.0029819316212645274
1.10955e-05;-0.002977950013531233
1.10958e-05;-0.0029739684057979387
1.10960e-05;-0.0029699867980646716
1.10963e-05;-0.0029660051903313773
1.10965e-05;-0.002962023582598083
1.10968e-05;-0.0029580419748648154
1.10970e-05;-0.0029557340257015366
1.10973e-05;-0.002953942690958407
1.10975e-05;-0.002952151356215289
1.10978e-05;-0.0029503600214721595
1.10980e-05;-0.0029485686867290295
1.10983e-05;-0.002946777351985912
1.10985e-05;-0.0029449860172427824
1.10988e-05;-0.0029431946824996524
1.10990e-05;-0.002941403347756535
1.10993e-05;-0.002939612013013405
1.10995e-05;-0.0029378206782702753
1.10997e-05;-0.0029360293435271574
1.11000e-05;-0.002934238008784028
1.11003e-05;-0.0029324466740408978
1.11005e-05;-0.002931010030754332
1.11008e-05;-0.0029305615507627973
1.11010e-05;-0.002930113070771263
1.11013e-05;-0.002929664590779728
1.11015e-05;-0.0029292161107881964
1.11018e-05;-0.002928767630796662
1.11020e-05;-0.002928319150805127
1.11023e-05;-0.0029278706708135956
1.11025e-05;-0.0029274221908220607
1.11028e-05;-0.002926973710830526
1.11030e-05;-0.0029265252308389943
1.11033e-05;-0.00292607675084746
1.11035e-05;-0.0029256282708559254
1.11038e-05;-0.0029251797908643935
1.11040e-05;-0.002924731310872859
1.11043e-05;-0.0029243634624792933
1.11045e-05;-0.0029240205029411933
1.11048e-05;-0.0029233213013918594
1.11050e-05;-0.0029225121372949475
1.11053e-05;-0.0029217029731980412
1.11055e-05;-0.0029194053852626385
1.11058e-05;-0.0029166483600009184
1.11060e-05;-0.0029138913347392173
1.11063e-05;-0.0029096685399503707
1.11065e-05;-0.002904993300625801
1.11068e-05;-0.002900318061301263
1.11070e-05;-0.002893236882354554
1.11073e-05;-0.0028854130530694307
1.11075e-05;-0.0028775892237843607
1.11078e-05;-0.0028697653944992378
1.11080e-05;-0.0028619415652141145
1.11082e-05;-0.0028530964981798566
1.11085e-05;-0.0028414062832262175
1.11088e-05;-0.002829716068272578
1.11090e-05;-0.002818025853319018
1.11093e-05;-0.002806335638365379
1.11095e-05;-0.0027946454234117394
1.11098e-05;-0.0027810778227094646
1.11100e-05;-0.0027669307223602935
1.11103e-05;-0.002752783622011026
1.11105e-05;-0.002737863665678725
1.11108e-05;-0.002722705149013528
1.11110e-05;-0.002707546632348228
1.11113e-05;-0.0026919668759616696
1.11115e-05;-0.0026762570939425187
1.11118e-05;-0.0026604142326701998
1.11120e-05;-0.0026445349190789267
1.11123e-05;-0.002628731756979825
1.11125e-05;-0.002613097193300039
1.11128e-05;-0.002597718557232652
1.11130e-05;-0.0025826601808418407
1.11133e-05;-0.00256796859758031
1.11135e-05;-0.00255370876447035
1.11138e-05;-0.002539971785915249
1.11140e-05;-0.0025268558197738614
1.11143e-05;-0.0025144593534085495
1.11145e-05;-0.002502881052095095
1.11148e-05;-0.002492270163443183
1.11150e-05;-0.002483000401927064
1.11153e-05;-0.002475604071027857
1.11155e-05;-0.002470393268697956
1.11158e-05;-0.0024674026454407855
1.11160e-05;-0.0024665905490823805
1.11163e-05;-0.002467910701241849
1.11165e-05;-0.0024713165907076853
1.11167e-05;-0.0024776484608923753
1.11170e-05;-0.00248473244964089
1.11173e-05;-0.0024955290470968553
1.11175e-05;-0.002507471629301712
1.11178e-05;-0.0025238964441029205
1.11180e-05;-0.0025417048063236447
1.11183e-05;-0.0025595131685443692
1.11185e-05;-0.0025833783210262333
1.11188e-05;-0.002609113045503167
1.11190e-05;-0.0026348477699801
1.11193e-05;-0.0026605824944568594
1.11195e-05;-0.002686317218933793
1.11198e-05;-0.0027180402251366707
1.11200e-05;-0.002751611656549736
1.11203e-05;-0.002785183087963029
1.11205e-05;-0.002818754519376322
1.11208e-05;-0.0028523259507893875
1.11210e-05;-0.0028886305714928367
1.11213e-05;-0.0029257788559082405
1.11215e-05;-0.002962927140323393
1.11218e-05;-0.0030007615775720403
1.11220e-05;-0.003038807812169803
1.11223e-05;-0.0030768540467673074
1.11225e-05;-0.003114325205822814
1.11228e-05;-0.0031516188541700725
1.11230e-05;-0.003187734270761311
1.11233e-05;-0.003223485998170972
1.11235e-05;-0.0032574769162658987
1.11238e-05;-0.0032909243187950908
1.11240e-05;-0.0033210745998039897
1.11243e-05;-0.003350207146040107
1.11245e-05;-0.0033793396922760276
1.11248e-05;-0.00340347239641508
1.11250e-05;-0.0034260617806828077
1.11252e-05;-0.003448651164950382
1.11255e-05;-0.0034635688284968993
1.11258e-05;-0.003476118433451388
1.11260e-05;-0.003488668038405791
1.11263e-05;-0.0035012176433602796
1.11265e-05;-0.003513767248314768
1.11268e-05;-0.0035263168532692563
1.11270e-05;-0.00353886645822366
1.11273e-05;-0.0035410114818831486
1.11275e-05;-0.0035399448847045684
1.11278e-05;-0.0035388782875259953
1.11280e-05;-0.0035378116903474147
1.11283e-05;-0.003536745093168834
1.11285e-05;-0.003535678495990261
1.11288e-05;-0.0035346118988116805
1.11290e-05;-0.0035259007762519718
1.11293e-05;-0.0035148299895871636
1.11295e-05;-0.0035037592029222805
1.11298e-05;-0.003492688416257397
1.11300e-05;-0.003481617629592589
1.11303e-05;-0.0034705468429277056
1.11305e-05;-0.0034551860591388373
1.11308e-05;-0.0034385010659687483
1.11310e-05;-0.0034218160727985465
1.11313e-05;-0.0034051310796283448
1.11315e-05;-0.003388446086458256
1.11318e-05;-0.0033717610932880544
1.11320e-05;-0.003353801617191176
1.11323e-05;-0.0033354487417052844
1.11325e-05;-0.003317095866219268
1.11328e-05;-0.0032988017021684164
1.11330e-05;-0.0032805256607949295
1.11333e-05;-0.0032628308626294405
1.11335e-05;-0.003245315478968647
1.11337e-05;-0.0032288127786078186
1.11340e-05;-0.003212622666970703
1.11343e-05;-0.003197813697367443
1.11345e-05;-0.0031834310500171103
1.11348e-05;-0.003170846929630498
1.11350e-05;-0.0031588179672567647
1.11353e-05;-0.003149134704631222
1.11355e-05;-0.0031401754978788035
1.11358e-05;-0.0031343888139341142
1.11360e-05;-0.003129581404414153
1.11363e-05;-0.003124773994894224
1.11365e-05;-0.003123817996216433
1.11368e-05;-0.0031240508268600875
1.11370e-05;-0.003124283657503741
1.11373e-05;-0.003130422769568046
1.11375e-05;-0.003138384995504399
1.11378e-05;-0.0031463472214406985
1.11380e-05;-0.0031543094473770517
1.11383e-05;-0.003162271673313405
1.11385e-05;-0.003170233899249704
1.11388e-05;-0.0031848462033942926
1.11390e-05;-0.003201511211934266
1.11393e-05;-0.003218176220474127
1.11395e-05;-0.0032348412290141002
1.11398e-05;-0.003251506237554074
1.11400e-05;-0.0032681712460939346
1.11403e-05;-0.0032892280661449215
1.11405e-05;-0.0033116405230035383
1.11408e-05;-0.003334052979862003
1.11410e-05;-0.0033564654367206196
1.11413e-05;-0.0033788778935792364
1.11415e-05;-0.003401290350437701
1.11418e-05;-0.0034239815640735747
1.11420e-05;-0.003447449388509726
1.11422e-05;-0.003470917212945718
1.11425e-05;-0.0034943850373818693
1.11428e-05;-0.0035178528618180203
1.11430e-05;-0.003541320686254012
1.11433e-05;-0.003564788510690163
1.11435e-05;-0.0035861697298083836
1.11438e-05;-0.00360690686869563
1.11440e-05;-0.0036276440075827363
1.11443e-05;-0.00364271335801591
1.11445e-05;-0.0036560332110882852
1.11448e-05;-0.0036693530641605703
1.11450e-05;-0.0036826729172329455
1.11453e-05;-0.0036959927703053203
