Time(s);Current(A)
5.00000e-07;0.002743204692018894
5.00250e-07;0.0027433479216698482
5.00500e-07;0.0027445932835087864
5.00750e-07;0.002745956429317165
5.01000e-07;0.0027473195751255438
5.01250e-07;0.002748682720933923
5.01500e-07;0.002750045866742301
5.01750e-07;0.00275140901255068
5.02000e-07;0.0027546322354661643
5.02250e-07;0.0027580542433073866
5.02500e-07;0.002761476251148609
5.02750e-07;0.0027648982589898318
5.03000e-07;0.0027683202668310524
5.03250e-07;0.002771742274672275
5.03500e-07;0.0027751642825134975
5.03750e-07;0.00277858629035472
5.04000e-07;0.002782008298195942
5.04250e-07;0.0027854303060371633
5.04500e-07;0.0027888523138783856
5.04750e-07;0.002792274321719608
5.05000e-07;0.0027956963295608303
5.05250e-07;0.002799118337402053
5.05500e-07;0.0028025403452432754
5.05750e-07;0.0028059623530844965
5.06000e-07;0.002809384360925719
5.06250e-07;0.0028142119447806015
5.06500e-07;0.002819189741399477
5.06750e-07;0.0028241675380183528
5.07000e-07;0.0028291453346372284
5.07250e-07;0.002834123131256102
5.07500e-07;0.0028391009278749776
5.07750e-07;0.0028440787244938532
5.08000e-07;0.0028490565211127293
5.08250e-07;0.002854034317731605
5.08500e-07;0.0028590121143504785
5.08750e-07;0.002863989910969354
5.09000e-07;0.00286896770758823
5.09250e-07;0.0028739455042071055
5.09500e-07;0.002878923300825981
5.09750e-07;0.002883901097444857
5.10000e-07;0.0028888788940637307
5.10250e-07;0.0028938566906826064
5.10500e-07;0.002898834487301482
5.10750e-07;0.0029038122839203577
5.11000e-07;0.0029099952900772637
5.11250e-07;0.0029163070959960765
5.11500e-07;0.0029226189019148866
5.11750e-07;0.0029289307078336994
5.12000e-07;0.002935242513752512
5.12250e-07;0.002941554319671325
5.12500e-07;0.0029478661255901376
5.12750e-07;0.0029541779315089478
5.13000e-07;0.0029637982637919463
5.13250e-07;0.0029737721755932994
5.13500e-07;0.0029837460873946525
5.13750e-07;0.0029937199991960056
5.14000e-07;0.0030036939109973587
5.14250e-07;0.0030136678227987075
5.14500e-07;0.0030236417346000606
5.14750e-07;0.0030336156464014137
5.15000e-07;0.0030469289203103834
5.15250e-07;0.0030605990691285005
5.15500e-07;0.003074269217946617
5.15750e-07;0.003087939366764728
5.16000e-07;0.0031016095155828446
5.16250e-07;0.0031152796644009616
5.16500e-07;0.0031289498132190782
5.16750e-07;0.003142619962037195
5.17000e-07;0.003156290110855306
5.17250e-07;0.0031704894912664375
5.17500e-07;0.0031854714079308996
5.17750e-07;0.0032004533245953612
5.18000e-07;0.0032154352412598233
5.18250e-07;0.0032304171579242854
5.18500e-07;0.003245399074588741
5.18750e-07;0.003260380991253203
5.19000e-07;0.003275362907917665
5.19250e-07;0.003290344824582127
5.19500e-07;0.003305326741246589
5.19750e-07;0.003318196800730221
5.20000e-07;0.003330841167756647
5.20250e-07;0.003343485534783078
5.20500e-07;0.0033561299018095092
5.20750e-07;0.0033687742688359406
5.21000e-07;0.0033814186358623716
5.21250e-07;0.0033940630028887974
5.21500e-07;0.0034016600062640252
5.21750e-07;0.0034087176019959816
5.22000e-07;0.0034157751977279384
5.22250e-07;0.003422832793459895
5.22500e-07;0.0034298903891918516
5.22750e-07;0.0034369479849238054
5.23000e-07;0.0034440055806557617
5.23250e-07;0.003444246102736538
5.23500e-07;0.0034437580897074393
5.23750e-07;0.0034432700766783408
5.24000e-07;0.0034427820636492423
5.24250e-07;0.0034422940506201437
5.24500e-07;0.0034418060375910452
5.24750e-07;0.0034413180245619467
5.25000e-07;0.0034408300115328482
5.25250e-07;0.0034344315661690387
5.25500e-07;0.0034274014777145568
5.25750e-07;0.003420371389260072
5.26000e-07;0.003413341300805587
5.26250e-07;0.003406311212351102
5.26500e-07;0.003399281123896617
5.26750e-07;0.003392251035442132
5.27000e-07;0.00338522094698765
5.27250e-07;0.003375612845350996
5.27500e-07;0.0033657292335448666
5.27750e-07;0.003355845621738738
5.28000e-07;0.003345962009932609
5.28250e-07;0.003336078398126484
5.28500e-07;0.0033261947863203554
5.28750e-07;0.003316311174514226
5.29000e-07;0.0033064275627080974
5.29250e-07;0.0032965439509019686
5.29500e-07;0.0032881818440820025
5.29750e-07;0.003282069475990848
5.30000e-07;0.0032759571078996917
5.30250e-07;0.003269844739808535
5.30500e-07;0.003263732371717378
5.30750e-07;0.0032576200036262214
5.31000e-07;0.0032515076355350645
5.31250e-07;0.00324539526744391
5.31500e-07;0.0032392828993527537
5.31750e-07;0.003233170531261597
5.32000e-07;0.0032348045749816252
5.32250e-07;0.0032372664714239406
5.32500e-07;0.0032397283678662547
5.32750e-07;0.0032421902643085697
5.33000e-07;0.0032446521607508846
5.33250e-07;0.0032471140571932
5.33500e-07;0.003249575953635515
5.33750e-07;0.00325203785007783
5.34000e-07;0.003257735984063137
5.34250e-07;0.0032682193070569347
5.34500e-07;0.003278702630050732
5.34750e-07;0.00328918595304453
5.35000e-07;0.0032996692760383275
5.35250e-07;0.0033101525990321254
5.35500e-07;0.0033206359220259185
5.35750e-07;0.0033311192450197163
5.36000e-07;0.0033416025680135138
5.36250e-07;0.003356890882462169
5.36500e-07;0.0033726927024348625
5.36750e-07;0.00338849452240755
5.37000e-07;0.0034042963423802437
5.37250e-07;0.003420098162352938
5.37500e-07;0.0034358999823256315
5.37750e-07;0.0034517018022983256
5.38000e-07;0.0034675036222710197
5.38250e-07;0.003483305442243707
5.38500e-07;0.0034991072622164005
5.38750e-07;0.003514457816957135
5.39000e-07;0.0035297601453499984
5.39250e-07;0.0035450624737428616
5.39500e-07;0.003560364802135725
5.39750e-07;0.0035756671305285817
5.40000e-07;0.003590969458921445
5.40250e-07;0.0036062717873143082
5.40500e-07;0.0036215741157071715
5.40750e-07;0.0036368764441000348
5.41000e-07;0.0036521787724928916
5.41250e-07;0.003661780963837494
5.41500e-07;0.0036707739861774028
5.41750e-07;0.003679767008517311
5.42000e-07;0.0036887600308572197
5.42250e-07;0.003697753053197128
5.42500e-07;0.0037067460755370327
5.42750e-07;0.0037157390978769414
5.43000e-07;0.0037247321202168496
5.43250e-07;0.0037337251425567583
5.43500e-07;0.0037399823036449883
5.43750e-07;0.0037421941457427216
5.44000e-07;0.003744405987840456
5.44250e-07;0.0037466178299381896
5.44500e-07;0.003748829672035924
5.44750e-07;0.003751041514133658
5.45000e-07;0.0037532533562313923
5.45250e-07;0.0037554651983291256
5.45500e-07;0.00375767704042686
5.45750e-07;0.003759888882524594
5.46000e-07;0.0037580154494515493
5.46250e-07;0.0037557054263476597
5.46500e-07;0.00375339540324377
5.46750e-07;0.0037510853801398813
5.47000e-07;0.0037487753570359912
5.47250e-07;0.0037464653339321016
5.47500e-07;0.003744155310828212
5.47750e-07;0.0037418452877243224
5.48000e-07;0.0037395352646204336
5.48250e-07;0.0037370029707735155
5.48500e-07;0.0037341420213497633
5.48750e-07;0.003731281071926011
5.49000e-07;0.003728420122502259
5.49250e-07;0.0037255591730785066
5.49500e-07;0.0037226982236547553
5.49750e-07;0.003719837274231003
5.50000e-07;0.003716976324807251
5.50250e-07;0.0037141153753834986
5.50500e-07;0.0037112544259597464
5.50750e-07;0.0037101213705153808
5.51000e-07;0.0037091729736935643
5.51250e-07;0.003708224576871748
5.51500e-07;0.00370611582981599
5.51750e-07;0.003703883077075607
5.52000e-07;0.003701650324335224
5.52250e-07;0.0036994175715948418
5.52500e-07;0.0036971848188544583
5.52750e-07;0.003694952066114075
5.53000e-07;0.003692719313373692
5.53250e-07;0.0036891162071354166
5.53500e-07;0.0036834868588772394
5.53750e-07;0.0036778575106190645
5.54000e-07;0.0036722281623608874
5.54250e-07;0.00366659881410271
5.54500e-07;0.0036609694658445327
5.54750e-07;0.0036553401175863556
5.55000e-07;0.003649710769328178
5.55250e-07;0.003640877448908087
5.55500e-07;0.003631701722592046
5.55750e-07;0.0036225259962760045
5.56000e-07;0.003613350269959963
5.56250e-07;0.0036041745436439215
5.56500e-07;0.003594998817327884
5.56750e-07;0.0035858230910118427
5.57000e-07;0.003576647364695801
5.57250e-07;0.0035674716383797597
5.57500e-07;0.003557562209024952
5.57750e-07;0.003547574369423846
5.58000e-07;0.0035375865298227444
5.58250e-07;0.003527598690221638
5.58500e-07;0.003517610850620532
5.58750e-07;0.003507623011019426
5.59000e-07;0.00349763517141832
5.59250e-07;0.003487647331817214
5.59500e-07;0.0034776594922161118
5.59750e-07;0.0034701123183911555
5.60000e-07;0.003462825976530265
5.60250e-07;0.003455539634669375
5.60500e-07;0.0034482532928084846
5.60750e-07;0.0034409669509475973
5.61000e-07;0.0034362085189601765
5.61250e-07;0.003431720242642461
5.61500e-07;0.0034272319663247452
5.61750e-07;0.0034227436900070296
5.62000e-07;0.003418255413689314
5.62250e-07;0.0034147576785440613
5.62500e-07;0.0034113658017273117
5.62750e-07;0.003407973924910562
5.63000e-07;0.0034045820480938125
5.63250e-07;0.003401190171277063
5.63500e-07;0.003397798294460315
5.63750e-07;0.0033944064176435656
5.64000e-07;0.003391014540826816
5.64250e-07;0.0033876226640100664
5.64500e-07;0.0033842716342256333
5.64750e-07;0.00338098100197614
5.65000e-07;0.0033776903697266478
5.65250e-07;0.0033743997374771546
5.65500e-07;0.003371109105227661
5.65750e-07;0.0033678184729781678
5.66000e-07;0.003364527840728674
5.66250e-07;0.003361237208479181
5.66500e-07;0.0033579465762296886
5.66750e-07;0.0033546559439801955
5.67000e-07;0.0033515821603622015
5.67250e-07;0.0033485315511808766
5.67500e-07;0.0033454809419995518
5.67750e-07;0.0033424303328182282
5.68000e-07;0.003339379723636904
5.68250e-07;0.003336329114455579
5.68500e-07;0.003333278505274254
5.68750e-07;0.0033307354599387733
5.69000e-07;0.003328942912335325
5.69250e-07;0.0033271503647318776
5.69500e-07;0.0033253578171284293
5.69750e-07;0.003323565269524981
5.70000e-07;0.003321772721921533
5.70250e-07;0.003319980174318085
5.70500e-07;0.0033181876267146366
5.70750e-07;0.0033180793426770827
5.71000e-07;0.003318151054515328
5.71250e-07;0.0033182227663535735
5.71500e-07;0.003321333764498987
5.71750e-07;0.0033247695686971722
5.72000e-07;0.0033282053728953564
5.72250e-07;0.0033373869048755928
5.72500e-07;0.0033471824781051837
5.72750e-07;0.0033569780513347746
5.73000e-07;0.003366773624564366
5.73250e-07;0.003376569197793957
5.73500e-07;0.003386364771023544
5.73750e-07;0.0034042203848552227
5.74000e-07;0.003422937368662806
5.74250e-07;0.00344165435247039
5.74500e-07;0.0034603713362779736
5.74750e-07;0.003479088320085557
5.75000e-07;0.003497805303893133
5.75250e-07;0.0035218838100354284
5.75500e-07;0.003546535297703784
5.75750e-07;0.003571186785372139
5.76000e-07;0.003598851265517427
5.76250e-07;0.0036268377417152543
5.76500e-07;0.003654824217913093
5.76750e-07;0.0036847648515736875
5.77000e-07;0.0037149143244510708
5.77250e-07;0.003745063797328454
5.77500e-07;0.0037762813255898136
5.77750e-07;0.0038076129960603364
5.78000e-07;0.003839342124068641
5.78250e-07;0.003871113728040361
5.78500e-07;0.003902702747654958
5.78750e-07;0.003934272254627986
5.79000e-07;0.003965098803133999
5.79250e-07;0.0039958459522736415
5.79500e-07;0.004025421448338199
5.79750e-07;0.00405487173079269
5.80000e-07;0.004082060463379809
5.80250e-07;0.0041090075059741615
5.80500e-07;0.004135954548568504
5.80750e-07;0.004156230138252809
5.81000e-07;0.004175792755197121
5.81250e-07;0.0041953553721414336
5.81500e-07;0.004214917989085746
5.81750e-07;0.004234480606030058
5.82000e-07;0.004254043222974363
5.82250e-07;0.004273605839918675
5.82500e-07;0.004289104414128254
5.82750e-07;0.004298593784017354
5.83000e-07;0.004308083153906455
5.83250e-07;0.004317572523795552
5.83500e-07;0.004327061893684652
5.83750e-07;0.004336551263573753
5.84000e-07;0.004346040633462854
5.84250e-07;0.004355530003351954
5.84500e-07;0.004356405023639288
5.84750e-07;0.004356359435399261
5.85000e-07;0.004356313847159234
5.85250e-07;0.004356268258919206
5.85500e-07;0.004356222670679179
5.85750e-07;0.004356177082439151
5.86000e-07;0.0043561314941991235
5.86250e-07;0.004356085905959097
5.86500e-07;0.004356040317719069
5.86750e-07;0.004355994729479042
5.87000e-07;0.00435099386909892
5.87250e-07;0.004345463442820209
5.87500e-07;0.0043399330165415015
5.87750e-07;0.004334402590262791
5.88000e-07;0.004328872163984081
5.88250e-07;0.00432334173770537
5.88500e-07;0.00431781131142666
5.88750e-07;0.00431228088514795
5.89000e-07;0.004306750458869241
5.89250e-07;0.004301220032590531
5.89500e-07;0.00429573735590752
5.89750e-07;0.004290259782184919
5.90000e-07;0.004284782208462318
5.90250e-07;0.0042805454230590845
5.90500e-07;0.004276441239693185
5.90750e-07;0.004272337056327283
5.91000e-07;0.004269269130339995
5.91250e-07;0.004266311948334947
5.91500e-07;0.004261407760788975
5.91750e-07;0.00425629549834627
5.92000e-07;0.004247365161403422
5.92250e-07;0.004238026789947753
5.92500e-07;0.004228688418492083
5.92750e-07;0.004215688403296927
5.93000e-07;0.00420229707121696
5.93250e-07;0.004188905739136999
5.93500e-07;0.004167722318114268
5.93750e-07;0.004145706162891216
5.94000e-07;0.004123690007668164
5.94250e-07;0.004101673852445113
5.94500e-07;0.004079657697222061
5.94750e-07;0.0040576415419990184
5.95000e-07;0.004026553980287943
5.95250e-07;0.0039944969647522114
5.95500e-07;0.003962439949216479
5.95750e-07;0.003930382933680747
5.96000e-07;0.003898325918145028
5.96250e-07;0.0038662689026092963
5.96500e-07;0.00382925276551674
5.96750e-07;0.003791706651141546
5.97000e-07;0.003754160536766352
5.97250e-07;0.0037151082416786653
5.97500e-07;0.0036758949822847113
5.97750e-07;0.0036366817228907413
5.98000e-07;0.0035969406937363816
5.98250e-07;0.003557143262257484
5.98500e-07;0.003517345830778586
5.98750e-07;0.0034786671842467988
5.99000e-07;0.0034401081013512814
5.99250e-07;0.003403330688392192
5.99500e-07;0.003366743681048423
5.99750e-07;0.0033324646409469785
6.00000e-07;0.0032984322514253797
6.00250e-07;0.003268756223696406
6.00500e-07;0.0032395457568048787
6.00750e-07;0.0032103352899133515
6.01000e-07;0.003187068911459081
6.01250e-07;0.0031644377728959248
6.01500e-07;0.0031418066343327686
6.01750e-07;0.0031224031761182746
6.02000e-07;0.0031033446574743858
6.02250e-07;0.003084286138830497
6.02500e-07;0.0030669924233017783
6.02750e-07;0.0030523081937447742
6.03000e-07;0.003037623964187776
6.03250e-07;0.003022939734630772
6.03500e-07;0.0030131445730372805
6.03750e-07;0.003003871902155966
6.04000e-07;0.002994599231274651
6.04250e-07;0.0029853265603933363
6.04500e-07;0.002976053889512026
6.04750e-07;0.002966781218630711
6.05000e-07;0.0029575085477493964
6.05250e-07;0.0029482358768680816
6.05500e-07;0.002938963205986767
6.05750e-07;0.002929690535105452
6.06000e-07;0.0029204178642241413
6.06250e-07;0.002915878101907116
6.06500e-07;0.002911844141674436
6.06750e-07;0.002907810181441755
6.07000e-07;0.0029037762212090748
6.07250e-07;0.002899742260976396
6.07500e-07;0.0028957083007437154
6.07750e-07;0.002891674340511035
6.08000e-07;0.0028876403802783547
6.08250e-07;0.002883606420045674
6.08500e-07;0.0028795724598129936
6.08750e-07;0.0028755384995803146
6.09000e-07;0.0028758434802825306
6.09250e-07;0.0028766121600693425
6.09500e-07;0.002877380839856155
6.09750e-07;0.002878149519642967
6.10000e-07;0.0028789181994297794
6.10250e-07;0.0028796868792165912
6.10500e-07;0.002880455559003403
6.10750e-07;0.0028812242387902154
6.11000e-07;0.0028819929185770277
6.11250e-07;0.0028827615983638396
6.11500e-07;0.0028835302781506514
6.11750e-07;0.0028842989579374637
6.12000e-07;0.002885067637724276
6.12250e-07;0.0028858363175110883
6.12500e-07;0.0028866049972979
6.12750e-07;0.0028873736770847125
6.13000e-07;0.0028881423568715243
6.13250e-07;0.0028889110366583366
6.13500e-07;0.0028896797164451485
6.13750e-07;0.0028904483962319608
6.14000e-07;0.002891217076018773
6.14250e-07;0.0028919857558055853
6.14500e-07;0.0028955576638595385
6.14750e-07;0.002899429150635793
6.15000e-07;0.0029033006374120473
6.15250e-07;0.002907172124188302
6.15500e-07;0.002911043610964556
6.15750e-07;0.002914915097740809
6.16000e-07;0.0029187865845170633
6.16250e-07;0.002922658071293318
6.16500e-07;0.002926529558069572
6.16750e-07;0.0029304010448458267
6.17000e-07;0.002934272531622081
6.17250e-07;0.002938144018398334
6.17500e-07;0.002942015505174588
6.17750e-07;0.0029458869919508426
6.18000e-07;0.002949758478727097
6.18250e-07;0.0029536299655033515
6.18500e-07;0.002957501452279604
6.18750e-07;0.0029613729390558586
6.19000e-07;0.0029652444258321128
6.19250e-07;0.0029691159126083674
6.19500e-07;0.0029729873993846216
6.19750e-07;0.002976858886160876
6.20000e-07;0.002981236600879511
6.20250e-07;0.0029856684157661406
6.20500e-07;0.0029901379885929813
6.20750e-07;0.0029946115965801467
6.21000e-07;0.002999577425069226
6.21250e-07;0.0030045958567625417
6.21500e-07;0.0030131199922528197
6.21750e-07;0.0030220187794532706
6.22000e-07;0.003035728285832683
6.22250e-07;0.003049951909853498
6.22500e-07;0.003069466764036126
6.22750e-07;0.0030895470876776162
6.23000e-07;0.0031096274113191153
6.23250e-07;0.003136741089138172
6.23500e-07;0.003164606415791096
6.23750e-07;0.0031924717424440204
6.24000e-07;0.0032285957157632402
6.24250e-07;0.003265602283926858
6.24500e-07;0.0033026088520904913
6.24750e-07;0.003345244929306457
6.25000e-07;0.003388482627570877
6.25250e-07;0.003434707830826077
6.25500e-07;0.003483474029786141
6.25750e-07;0.0035347025412640824
6.26000e-07;0.003588151799221852
6.26250e-07;0.003643517447407546
6.26500e-07;0.0037004907973476834
6.26750e-07;0.0037587637466607042
6.27000e-07;0.0038180471919627952
6.27250e-07;0.0038781954087017
6.27500e-07;0.003939194733843169
6.27750e-07;0.004000909168472563
6.28000e-07;0.004063033696272324
6.28250e-07;0.00412522511200746
6.28500e-07;0.004187137053600193
6.28750e-07;0.004248423489754103
6.29000e-07;0.00430875063446992
6.29250e-07;0.0043678739321567975
6.29500e-07;0.00442563184658929
6.29750e-07;0.004481786569285849
6.30000e-07;0.004535994117767647
6.30250e-07;0.004587886661354011
6.30500e-07;0.004637094509942799
6.30750e-07;0.004681707110020389
6.31000e-07;0.004725856689500679
6.31250e-07;0.004762330664210379
6.31500e-07;0.004797984353288299
6.31750e-07;0.004833638042366219
6.32000e-07;0.004865273876259096
6.32250e-07;0.004890968800000575
6.32500e-07;0.004916663723742053
6.32750e-07;0.004942358647483521
6.33000e-07;0.004958895004446137
6.33250e-07;0.004974452592834659
6.33500e-07;0.004990010181223182
6.33750e-07;0.004998401824412928
6.34000e-07;0.005006027648874308
6.34250e-07;0.005013653473335686
6.34500e-07;0.005014456224144497
6.34750e-07;0.0050145297986278915
6.35000e-07;0.005014603373111286
6.35250e-07;0.005008511149580989
6.35500e-07;0.005001759992237604
6.35750e-07;0.004995008834894217
6.36000e-07;0.004983595185457508
6.36250e-07;0.004971683259287318
6.36500e-07;0.0049597713331171285
6.36750e-07;0.004943950390852697
6.37000e-07;0.004927711695221279
6.37250e-07;0.0049114729995898545
6.37500e-07;0.004892748941008181
6.37750e-07;0.004873759273711771
6.38000e-07;0.004854769606415362
6.38250e-07;0.0048347388436756015
6.38500e-07;0.004814596819913535
6.38750e-07;0.004794454796151468
6.39000e-07;0.004774476705656276
6.39250e-07;0.00475451613457583
6.39500e-07;0.004734555563495384
6.39750e-07;0.004716013176442246
6.40000e-07;0.004697622349561314
6.40250e-07;0.004681152234391044
6.40500e-07;0.004664887384117316
6.40750e-07;0.004651162517843832
6.41000e-07;0.0046377090975922245
6.41250e-07;0.0046290969674795
6.41500e-07;0.004621002222101801
6.41750e-07;0.0046129074767241015
6.42000e-07;0.004614020760576162
6.42250e-07;0.004616118099014196
6.42500e-07;0.004618215437452229
6.42750e-07;0.004620312775890263
6.43000e-07;0.004627543742190668
6.43250e-07;0.004642365430524815
6.43500e-07;0.004657187118858964
6.43750e-07;0.004672008807193111
6.44000e-07;0.004686830495527252
6.44250e-07;0.004711224119701538
6.44500e-07;0.004736640688864939
6.44750e-07;0.004762057258028342
6.45000e-07;0.0047929944096700055
6.45250e-07;0.004824521541465889
6.45500e-07;0.004860208988256107
6.45750e-07;0.004896341044522176
6.46000e-07;0.0049353073653364225
6.46250e-07;0.004976213109688614
6.46500e-07;0.0050187375952605055
6.46750e-07;0.005062667549182491
6.47000e-07;0.00510779642980556
6.47250e-07;0.005153960484969072
6.47500e-07;0.005201028224797491
6.47750e-07;0.005248813911400941
6.48000e-07;0.005297073946071155
6.48250e-07;0.005345548682487313
6.48500e-07;0.005393978612432414
6.48750e-07;0.00544210478327069
6.49000e-07;0.005489671652936669
6.49250e-07;0.005536450543225778
