Time(s);Current(A)
1.22500e-05;0.0019574158461519685
1.22503e-05;0.0019553245825882698
1.22505e-05;0.0019481696581036627
1.22508e-05;0.001941014733619056
1.22510e-05;0.0019336992855285863
1.22513e-05;0.0019220429686000208
1.22515e-05;0.0019103866516714553
1.22518e-05;0.0018986412565961223
1.22520e-05;0.0018844488184080375
1.22523e-05;0.0018691890248353305
1.22525e-05;0.0018529680921437314
1.22528e-05;0.001835897196094909
1.22530e-05;0.0018181038770194841
1.22532e-05;0.0017997332299233063
1.22535e-05;0.0017809313146943803
1.22538e-05;0.0017618399127403977
1.22540e-05;0.0017426004686773783
1.22543e-05;0.001723354431272944
1.22545e-05;0.0017042434487390995
1.22548e-05;0.00168541189215866
1.22550e-05;0.0016670144311318968
1.22553e-05;0.0016492170863619052
1.22555e-05;0.0016322055030852278
1.22558e-05;0.001616609342420179
1.22560e-05;0.0016010771891589847
1.22563e-05;0.0015873263603173858
1.22565e-05;0.001574987171240607
1.22568e-05;0.0015639540319316839
1.22570e-05;0.0015533840523118073
1.22573e-05;0.0015421890917130879
1.22575e-05;0.0015300207695784283
1.22578e-05;0.0015170458332930351
1.22580e-05;0.0015034478532136345
1.22583e-05;0.001489405834456229
1.22585e-05;0.0014749985652652321
1.22588e-05;0.0014605402080530242
1.22590e-05;0.001444700331911625
1.22593e-05;0.0014287437834773456
1.22595e-05;0.0014096321905340055
1.22598e-05;0.0013905205975905358
1.22600e-05;0.0013712859688386886
1.22603e-05;0.0013487242138074942
1.22605e-05;0.001326162458776147
1.22608e-05;0.0013036007037447997
1.22610e-05;0.0012810389487136053
1.22613e-05;0.0012583363632787264
1.22615e-05;0.001231825451285044
1.22617e-05;0.0012053145392915412
1.22620e-05;0.0011788036272978588
1.22623e-05;0.0011522927153041764
1.22625e-05;0.0011257334870890673
1.22628e-05;0.0010978676947750446
1.22630e-05;0.0010700019024608332
1.22633e-05;0.001042122675289522
1.22635e-05;0.0010138801435915163
1.22638e-05;0.0009856376118933191
1.22640e-05;0.0009574260314987488
1.22643e-05;0.0009300514342326178
1.22645e-05;0.0009027315658289713
1.22648e-05;0.0008768916717502994
1.22650e-05;0.0008511153896478561
1.22653e-05;0.0008270592984417079
1.22655e-05;0.0008030887566304486
1.22658e-05;0.0007814316359613348
1.22660e-05;0.0007598901856960457
1.22663e-05;0.0007414766869311881
1.22665e-05;0.0007232072504911805
1.22668e-05;0.0007088335380167003
1.22670e-05;0.0006946194122985494
1.22673e-05;0.0006847208212104855
1.22675e-05;0.0006749879070888839
1.22678e-05;0.0006697352186642042
1.22680e-05;0.0006646540535173097
1.22683e-05;0.0006642112096330785
1.22685e-05;0.0006639446289704145
1.22688e-05;0.0006684445468202975
1.22690e-05;0.0006731174067137373
1.22693e-05;0.0006824669540403339
1.22695e-05;0.0006919802136490427
1.22698e-05;0.0007059205700880222
1.22700e-05;0.0007200152544054773
1.22702e-05;0.000738283263121758
1.22705e-05;0.000756728589533723
1.22708e-05;0.0007799689294759994
1.22710e-05;0.0008032092694182759
1.22713e-05;0.0008266031962009618
1.22715e-05;0.0008541504082857171
1.22718e-05;0.0008817756192745973
1.22720e-05;0.0009115557667878078
1.22723e-05;0.0009426125692213362
1.22725e-05;0.0009748133361152875
1.22728e-05;0.0010080223591236322
1.22730e-05;0.0010420899395661818
1.22733e-05;0.0010768475479309213
1.22735e-05;0.0011121198959547184
1.22738e-05;0.001147732585183013
1.22740e-05;0.0011835110092387156
1.22743e-05;0.001219281002497187
1.22745e-05;0.0012548681083832543
1.22748e-05;0.0012900957834963511
1.22750e-05;0.001324779190061856
1.22753e-05;0.001358721536542768
1.22755e-05;0.0013916977487582556
1.22758e-05;0.0014229346571566126
1.22760e-05;0.0014540929491196042
1.22763e-05;0.0014830633564468982
1.22765e-05;0.0015103031198732842
1.22768e-05;0.0015360333324521047
1.22770e-05;0.0015616240883828127
1.22773e-05;0.0015888124051731901
1.22775e-05;0.0016181589341112434
1.22778e-05;0.0016494110345837867
1.22780e-05;0.0016823096141614874
1.22783e-05;0.0017170392732531686
1.22785e-05;0.0017518252740544567
1.22787e-05;0.0017882448590267879
1.22790e-05;0.001827638930818109
1.22793e-05;0.001867273999050021
1.22795e-05;0.0019134260772861638
1.22798e-05;0.0019595781555219937
1.22800e-05;0.0020059137357635545
1.22803e-05;0.002057211565249984
1.22805e-05;0.0021086205919280464
1.22808e-05;0.0021630366058096105
1.22810e-05;0.002217599515395525
1.22813e-05;0.002276134769024217
1.22815e-05;0.002334773128625286
1.22818e-05;0.002396251516776336
1.22820e-05;0.0024591709378393423
1.22823e-05;0.0025231735228129254
1.22825e-05;0.002587904524253586
1.22828e-05;0.0026531099667292815
1.22830e-05;0.002718817800953122
1.22833e-05;0.002785146569996346
1.22835e-05;0.0028519250129789768
1.22838e-05;0.0029187828880119686
1.22840e-05;0.002985342585305588
1.22843e-05;0.003051227592799772
1.22845e-05;0.0031160628254977936
1.22848e-05;0.003179536446994706
1.22850e-05;0.0032415131875072663
1.22853e-05;0.0033019143600278365
1.22855e-05;0.0033604805981826
1.22858e-05;0.0034167734619674674
1.22860e-05;0.0034691249665317527
1.22863e-05;0.003521179452609744
1.22865e-05;0.003565201984168516
1.22868e-05;0.003609224515727586
1.22870e-05;0.0036529027421444375
1.22872e-05;0.003687270291377343
1.22875e-05;0.0037216378406104817
1.22878e-05;0.0037560053898436203
1.22880e-05;0.003789969303856816
1.22883e-05;0.003813018140594531
1.22885e-05;0.003836066977332402
1.22888e-05;0.003859115814070273
1.22890e-05;0.0038818429393633045
1.22893e-05;0.003895870364761734
1.22895e-05;0.003909897790160163
1.22898e-05;0.0039235187310448045
1.22900e-05;0.0039261475442320904
1.22903e-05;0.003928776357419376
1.22905e-05;0.003931405170606645
1.22908e-05;0.003934033983793931
1.22910e-05;0.003936662796981217
1.22913e-05;0.003939291610168485
1.22915e-05;0.003941920423355771
1.22918e-05;0.003938414029041896
1.22920e-05;0.003929589313030257
1.22923e-05;0.003920764597018558
1.22925e-05;0.003911939881006858
1.22928e-05;0.0039031151649952193
1.22930e-05;0.0038942904489835204
1.22933e-05;0.003885465732971821
1.22935e-05;0.003876505578213317
1.22938e-05;0.0038638828976982663
1.22940e-05;0.0038512602171832154
1.22943e-05;0.0038386199787071016
1.22945e-05;0.003825504938990937
1.22948e-05;0.003812389899274773
1.22950e-05;0.0037993134101325927
1.22953e-05;0.0037872794030949135
1.22955e-05;0.003775245396057234
1.22957e-05;0.0037632996603961587
1.22960e-05;0.0037537409535413784
1.22963e-05;0.0037441822466865978
1.22965e-05;0.0037346920128359094
1.22968e-05;0.003727053421494235
1.22970e-05;0.0037193324815435256
1.22973e-05;0.0037093846758780922
1.22975e-05;0.0036992982511612703
1.22978e-05;0.0036854632990949284
1.22980e-05;0.003671628347028586
1.22983e-05;0.0036576686266070755
1.22985e-05;0.0036403349284585464
1.22988e-05;0.003623001230310018
1.22990e-05;0.0036053929775706393
1.22993e-05;0.0035803602374843225
1.22995e-05;0.003555327497398005
1.22998e-05;0.003530294757311858
1.23000e-05;0.0035052620172255407
1.23003e-05;0.0034799362031061472
1.23005e-05;0.0034466851000926183
1.23008e-05;0.003413433997078865
1.23010e-05;0.003380182894065111
1.23013e-05;0.003346931791051582
1.23015e-05;0.0033134746316365667
1.23018e-05;0.0032744453084510828
1.23020e-05;0.003235415985265864
1.23023e-05;0.003196311182774653
1.23025e-05;0.0031551652738179264
1.23028e-05;0.003114019364861479
1.23030e-05;0.0030728317197676836
1.23033e-05;0.003030515448775524
1.23035e-05;0.002988191850434654
1.23038e-05;0.0029456701063994696
1.23040e-05;0.0029031687502458275
1.23042e-05;0.002861246146483877
1.23045e-05;0.002820101449882931
1.23048e-05;0.0027799786573155846
1.23050e-05;0.002740993970316446
1.23053e-05;0.002703224739815649
1.23055e-05;0.0026669544382711555
1.23058e-05;0.002634375222406815
1.23060e-05;0.0026017960065426956
1.23063e-05;0.002569389181958447
1.23065e-05;0.0025417363553426795
1.23068e-05;0.0025166303258171226
1.23070e-05;0.0024929687952404763
1.23073e-05;0.0024692852577080215
1.23075e-05;0.002445006609510535
1.23078e-05;0.002420729206754639
1.23080e-05;0.002396485483153536
1.23083e-05;0.0023722772048249273
1.23085e-05;0.002349027435241583
1.23088e-05;0.0023257731654620323
1.23090e-05;0.002302397201669986
1.23093e-05;0.002278951584471944
1.23095e-05;0.0022536224044101267
1.23098e-05;0.0022282453246586257
1.23100e-05;0.0022015729446135694
1.23103e-05;0.002174900564568513
1.23105e-05;0.002148207930319545
1.23108e-05;0.0021209675832023593
1.23110e-05;0.0020937272360851736
1.23113e-05;0.002065567715341489
1.23115e-05;0.0020366114063805744
1.23118e-05;0.0020076216813871206
1.23120e-05;0.0019777221946445335
1.23123e-05;0.0019476590572875731
1.23125e-05;0.001917658676560849
1.23127e-05;0.0018878589685564875
1.23130e-05;0.0018581445295722688
1.23133e-05;0.0018283102807009931
1.23135e-05;0.001798398013771308
1.23138e-05;0.0017686228390405253
1.23140e-05;0.0017392054716560865
1.23143e-05;0.0017103664146919495
1.23145e-05;0.001682324652305592
1.23148e-05;0.001655243212015029
1.23150e-05;0.0016291266873175042
1.23153e-05;0.0016039237016395515
1.23155e-05;0.0015797369979506043
1.23158e-05;0.001556778231586241
1.23160e-05;0.0015352625339098605
1.23163e-05;0.001515404924020594
1.23165e-05;0.0014974171496576667
1.23168e-05;0.0014814116593037479
1.23170e-05;0.0014672023588816288
1.23173e-05;0.0014544619257895119
1.23175e-05;0.001443125136673467
1.23178e-05;0.0014339470691159533
1.23180e-05;0.0014248866356076093
1.23183e-05;0.0014190072544017626
1.23185e-05;0.001413251441774968
1.23188e-05;0.001410837162623252
1.23190e-05;0.0014085009415333158
1.23193e-05;0.0014083209536706288
1.23195e-05;0.0014094143698708626
1.23198e-05;0.00141181950092639
1.23200e-05;0.0014161226768824153
1.23203e-05;0.0014205622204073154
1.23205e-05;0.0014286894068546423
1.23208e-05;0.0014368165933020243
1.23210e-05;0.0014449437797494063
1.23212e-05;0.0014532079990390253
1.23215e-05;0.0014651778515331012
1.23218e-05;0.001477147704027177
1.23220e-05;0.001489117556521172
1.23223e-05;0.0015011819024106819
1.23225e-05;0.0015158015325512449
1.23228e-05;0.0015304211626918076
1.23230e-05;0.0015450842497545185
1.23233e-05;0.001560922496081412
1.23235e-05;0.001576779314020547
1.23238e-05;0.0015931383442895223
1.23240e-05;0.0016095075622721286
1.23243e-05;0.0016261522757409783
1.23245e-05;0.001642796987133979
1.23248e-05;0.0016594416423951677
1.23250e-05;0.001676069039985169
1.23253e-05;0.0016922297567534136
1.23255e-05;0.0017083593935228933
1.23258e-05;0.0017236485669843901
1.23260e-05;0.0017389075467862936
1.23263e-05;0.0017533262353717752
1.23265e-05;0.0017670724253860304
1.23268e-05;0.0017799929375135661
1.23270e-05;0.0017917385820214087
1.23273e-05;0.001801929723442864
1.23275e-05;0.0018104348618802435
1.23278e-05;0.0018172529815214012
1.23280e-05;0.0018217327013129777
1.23283e-05;0.00182610019642422
1.23285e-05;0.0018274329190284993
1.23288e-05;0.0018286431731940622
1.23290e-05;0.0018265416438044495
1.23293e-05;0.0018243079439848764
1.23295e-05;0.001818500099994233
1.23297e-05;0.0018125724175227416
1.23300e-05;0.0018034040706446004
1.23303e-05;0.001794117145672622
1.23305e-05;0.0017816236395987548
1.23308e-05;0.0017691301335248032
1.23310e-05;0.0017547555018323595
1.23313e-05;0.0017387502111601764
1.23315e-05;0.0017226649315766136
1.23318e-05;0.001704378503137963
1.23320e-05;0.0016850289747747625
1.23323e-05;0.0016647601152581385
1.23325e-05;0.0016437149915858502
1.23328e-05;0.001622018948307769
1.23330e-05;0.0015997488117557852
1.23333e-05;0.0015769739621536558
1.23335e-05;0.001553824936351448
1.23338e-05;0.0015304710603478724
1.23340e-05;0.0015070832152291622
1.23343e-05;0.001483831841329576
1.23345e-05;0.0014608872257270672
1.23348e-05;0.00143840832689421
1.23350e-05;0.0014165237924129081
1.23353e-05;0.001395357594208996
1.23355e-05;0.0013750720887486787
1.23358e-05;0.0013558536984770698
1.23360e-05;0.0013378899643262721
1.23363e-05;0.0013213683066612464
1.23365e-05;0.0013064753152046285
1.23368e-05;0.0012933785778808083
1.23370e-05;0.0012821723618926363
1.23373e-05;0.001272877696898728
1.23375e-05;0.0012655152247297821
1.23378e-05;0.0012601254869779948
1.23380e-05;0.0012567498110827215
1.23382e-05;0.0012554295286346486
1.23385e-05;0.0012562056849469868
1.23388e-05;0.0012591069372321162
1.23390e-05;0.0012641166614676621
1.23393e-05;0.0012711716399825556
1.23395e-05;0.001280208991200615
1.23398e-05;0.0012912106633418655
1.23400e-05;0.0013049122810595156
1.23403e-05;0.001318785117364168
1.23405e-05;0.001337288035569259
1.23408e-05;0.0013557909537742245
1.23410e-05;0.0013742938719793153
1.23413e-05;0.0013955473802912944
1.23415e-05;0.001419185245295929
1.23418e-05;0.001442823110300724
1.23420e-05;0.0014665889483988115
1.23423e-05;0.0014938154265704724
1.23425e-05;0.0015210419047423176
1.23428e-05;0.0015483374897090453
1.23430e-05;0.0015775018561329313
1.23433e-05;0.0016066977841266096
1.23435e-05;0.0016367471980348826
1.23438e-05;0.0016668076382538794
1.23440e-05;0.0016971662512569247
1.23443e-05;0.001727515417584324
1.23445e-05;0.0017576091275223484
1.23448e-05;0.0017876716266904192
1.23450e-05;0.0018168901262391524
1.23453e-05;0.001846034899787805
1.23455e-05;0.0018731859796362136
1.23458e-05;0.0019003370594846223
1.23460e-05;0.001927405491818607
1.23463e-05;0.0019521878043902295
1.23465e-05;0.001975545576992117
1.23467e-05;0.001997820488286428
1.23470e-05;0.0020207283577621175
1.23473e-05;0.0020464015676134885
1.23475e-05;0.002075535205188378
1.23478e-05;0.0021078822876086337
1.23480e-05;0.0021442064291557175
1.23483e-05;0.002180693395605091
1.23485e-05;0.0022215834624892718
1.23488e-05;0.0022626943005289064
1.23490e-05;0.002309775217812799
1.23493e-05;0.002357159055588987
1.23495e-05;0.0024127344496606257
1.23498e-05;0.002468509077048161
1.23500e-05;0.0025297841460335587
1.23503e-05;0.002594206958152382
1.23505e-05;0.0026613624666009346
1.23508e-05;0.0027310277813423255
1.23510e-05;0.002803520032525649
1.23513e-05;0.0028793190230666814
1.23515e-05;0.0029583408306282483
1.23518e-05;0.003040114223290945
1.23520e-05;0.003124155844638012
1.23523e-05;0.0032099823465555778
1.23525e-05;0.0032971146074787057
1.23528e-05;0.0033851940580647364
1.23530e-05;0.0034741998120143094
1.23533e-05;0.003564213429021753
1.23535e-05;0.0036549630927151158
1.23538e-05;0.0037459346469572207
1.23540e-05;0.0038366058858273666
1.23543e-05;0.003926455468302016
1.23545e-05;0.004014963671039187
1.23548e-05;0.004101686574147857
1.23550e-05;0.004186393039391806
1.23552e-05;0.004268914908460499
1.23555e-05;0.004348862863663514
1.23558e-05;0.00442569562391965
1.23560e-05;0.004498867018356096
1.23563e-05;0.004567832173450002
1.23565e-05;0.004632044818693188
1.23568e-05;0.0046909593125126796
1.23570e-05;0.004744089595106735
1.23573e-05;0.004791121917956809
1.23575e-05;0.004831796909491826
1.23578e-05;0.004863277940820052
1.23580e-05;0.004894176836072355
1.23583e-05;0.004909333645312969
1.23585e-05;0.00492449045455348
1.23588e-05;0.00493893428437618
1.23590e-05;0.00493409777102575
1.23593e-05;0.004929261257675354
1.23595e-05;0.004923750168794912
1.23598e-05;0.004899997252190578
1.23600e-05;0.004876244335586405
1.23603e-05;0.004851881080569481
1.23605e-05;0.004811013093791063
1.23608e-05;0.004770145107012922
1.23610e-05;0.004728825171567489
1.23613e-05;0.004675283669583489
1.23615e-05;0.0046214385206002455
1.23618e-05;0.00455938216914718
1.23620e-05;0.004497076513469177
1.23623e-05;0.0044280291891102275
1.23625e-05;0.004358787094268313
1.23628e-05;0.004284278028670064
1.23630e-05;0.00420963394888461
1.23633e-05;0.004131338824189905
1.23635e-05;0.004052985072400961
1.23637e-05;0.003973030312692524
1.23640e-05;0.003892655192483162
1.23643e-05;0.0038123530965132094
1.23645e-05;0.0037326178170636643
1.23648e-05;0.003653942347590274
1.23650e-05;0.0035768293763634314
1.23653e-05;0.0035018079098186666
1.23655e-05;0.003429432890970375
1.23658e-05;0.003360268435255385
1.23660e-05;0.0032948777849100223
1.23663e-05;0.003233917400377856
1.23665e-05;0.0031801670493064984
1.23668e-05;0.003126741883073565
1.23670e-05;0.0030821103441612133
1.23673e-05;0.003037733058028346
1.23675e-05;0.003000231259085661
1.23678e-05;0.0029630873170698423
1.23680e-05;0.002935620518868639
1.23683e-05;0.0029081537206674356
1.23685e-05;0.0028811423472988517
1.23688e-05;0.002866446542732707
1.23690e-05;0.002851750738166562
1.23693e-05;0.002837411924253071
1.23695e-05;0.002832726828431232
1.23698e-05;0.002828041732609393
1.23700e-05;0.0028237108459536584
1.23703e-05;0.0028289584606105557
1.23705e-05;0.002834206075267453
1.23708e-05;0.002839723628350805
1.23710e-05;0.002852540838868672
1.23713e-05;0.002865517445171889
1.23715e-05;0.002882804421971141
1.23718e-05;0.0029002383941075754
1.23720e-05;0.0029216474046221924
1.23723e-05;0.002943194032297404
1.23725e-05;0.002968462094315262
1.23728e-05;0.00299383521764679
1.23730e-05;0.003022049402213931
1.23733e-05;0.0030503231977743756
1.23735e-05;0.003080208989947821
1.23738e-05;0.0031101327680943132
1.23740e-05;0.003141083760462265
1.23743e-05;0.0031720530027033755
1.23745e-05;0.0032035157568262884
1.23748e-05;0.0032349727445537377
1.23750e-05;0.0032662533227324477
1.23753e-05;0.003296932124949086
1.23755e-05;0.0033263104627344886
1.23758e-05;0.0033556277323601776
1.23760e-05;0.0033832442978747493
1.23763e-05;0.0034094718719418758
1.23765e-05;0.003434143070997249
1.23768e-05;0.003457491088202014
1.23770e-05;0.0034808754329603672
1.23773e-05;0.003506010782623621
1.23775e-05;0.003533451975320326
1.23778e-05;0.003562980630530656
1.23780e-05;0.0035949812234404095
1.23783e-05;0.0036270756686880524
1.23785e-05;0.0036617080627781126
1.23788e-05;0.003696480926090517
1.23790e-05;0.003735052349010148
1.23793e-05;0.0037738324622985
1.23795e-05;0.003818255967031049
1.23798e-05;0.0038628518948691888
1.23800e-05;0.003912110477162842
1.23803e-05;0.0039614691929724935
1.23805e-05;0.004013592123036693
1.23808e-05;0.00406730656912138
1.23810e-05;0.004122889308340275
1.23813e-05;0.004180756566621558
1.23815e-05;0.004240870143936773
1.23818e-05;0.004302876304463667
1.23820e-05;0.004366413146352144
1.23823e-05;0.004431116605504982
1.23825e-05;0.004496628101250007
1.23828e-05;0.004562686715099911
1.23830e-05;0.0046293081743317005
1.23833e-05;0.004696595804647331
1.23835e-05;0.004764367260629842
1.23838e-05;0.004832243743775629
1.23840e-05;0.004899840601255032
1.23843e-05;0.004966772764396141
1.23845e-05;0.005032658055343248
1.23848e-05;0.0050971745761559505
1.23850e-05;0.005160175523806521
1.23853e-05;0.005221567426366218
1.23855e-05;0.005281079342352727
1.23858e-05;0.005338316241542196
1.23860e-05;0.005392879102028669
1.23863e-05;0.00544437019925479
1.23865e-05;0.0054923878377674245
1.23868e-05;0.005536452745609576
1.23870e-05;0.005575908536851092
1.23873e-05;0.005610167643690683
1.23875e-05;0.005638907929705459
1.23878e-05;0.005659769089715417
1.23880e-05;0.00568014128376516
1.23883e-05;0.005687290891950087
1.23885e-05;0.005694440500134964
1.23888e-05;0.005700829150800212
1.23890e-05;0.005686640037454779
1.23893e-05;0.0056724509241094425
1.23895e-05;0.00565826181076401
1.23898e-05;0.005644072697418578
1.23900e-05;0.005617283159010122
1.23903e-05;0.005579570907035588
1.23905e-05;0.005541858655061054
1.23908e-05;0.0055041464030865205
1.23910e-05;0.005465840370620591
1.23913e-05;0.005411477364515566
1.23915e-05;0.00535711435841054
1.23918e-05;0.005302438134780247
1.23920e-05;0.005239291903084238
1.23923e-05;0.005175957103206679
1.23925e-05;0.00510752305476311
1.23928e-05;0.005038948595217955
1.23930e-05;0.004966577147759092
1.23933e-05;0.004894118751861794
1.23935e-05;0.004819309101902588
1.23938e-05;0.004744478329251572
1.23940e-05;0.004669076358135421
1.23943e-05;0.004593719887156767
1.23945e-05;0.004519593827967328
1.23948e-05;0.0044455417729261995
1.23950e-05;0.004373560960300853
1.23953e-05;0.0043035614435672515
1.23955e-05;0.004236100606913014
1.23958e-05;0.00417321025609438
1.23960e-05;0.0041106928458836695
1.23963e-05;0.004058260471476177
1.23965e-05;0.004005828097068329
1.23968e-05;0.003953847084582794
1.23970e-05;0.003914071772015313
1.23973e-05;0.0038742964594475618
1.23975e-05;0.003834905753125157
1.23978e-05;0.0038059155440227227
1.23980e-05;0.003776925334920092
1.23983e-05;0.00374837587657604
1.23985e-05;0.0037317451717510295
1.23988e-05;0.003715114466925906
