Time(s);Current(A)
5.00000e-06;-0.010745720948028522
5.00025e-06;-0.010757699101581796
5.00050e-06;-0.010769677255135111
5.00075e-06;-0.010781655408688385
5.00100e-06;-0.010793633562241658
5.00125e-06;-0.010805608228848762
5.00150e-06;-0.01081748497172169
5.00175e-06;-0.010829361714594617
5.00200e-06;-0.010841238457467584
5.00225e-06;-0.010853115200340512
5.00250e-06;-0.010864991943213437
5.00275e-06;-0.010876868686086404
5.00300e-06;-0.010888745428959332
5.00325e-06;-0.010900622171832259
5.00350e-06;-0.010912414996719109
5.00375e-06;-0.010921851157045113
5.00400e-06;-0.010931287317371148
5.00425e-06;-0.01094065549292035
5.00450e-06;-0.010948114455420445
5.00475e-06;-0.010955452915464074
5.00500e-06;-0.01095940731111589
5.00525e-06;-0.010963121395685855
5.00550e-06;-0.01096008683629689
5.00575e-06;-0.010957052276907934
5.00600e-06;-0.010953742640160124
5.00625e-06;-0.010942708019855182
5.00650e-06;-0.010931673399550281
5.00675e-06;-0.010920340111627933
5.00700e-06;-0.010900619356110383
5.00725e-06;-0.0108808986005929
5.00750e-06;-0.010860792633587801
5.00775e-06;-0.010829868791859603
5.00800e-06;-0.01079894495013151
5.00825e-06;-0.010768021108403313
5.00850e-06;-0.01073709726667522
5.00875e-06;-0.010700204642285837
5.00900e-06;-0.010658111345439925
5.00925e-06;-0.010616018048594154
5.00950e-06;-0.010573924751748384
5.00975e-06;-0.010531602020957778
5.01000e-06;-0.010482836108305763
5.01025e-06;-0.010433978545898042
5.01050e-06;-0.010382547188037302
5.01075e-06;-0.010331064081048422
5.01100e-06;-0.010278097412172511
5.01125e-06;-0.010224257045402205
5.01150e-06;-0.010169759519950953
5.01175e-06;-0.010114913391797552
5.01200e-06;-0.010060035214548258
5.01225e-06;-0.010005438907957041
5.01250e-06;-0.009951439389801942
5.01275e-06;-0.009898326757694545
5.01300e-06;-0.009846324467662914
5.01325e-06;-0.009795630947492365
5.01350e-06;-0.009746526744126452
5.01375e-06;-0.00969935095505109
5.01400e-06;-0.009654445439696967
5.01425e-06;-0.009612153760025492
5.01450e-06;-0.009572816876167746
5.01475e-06;-0.009536777357372484
5.01500e-06;-0.009504343578106212
5.01525e-06;-0.009475718481246292
5.01550e-06;-0.009450996648052868
5.01575e-06;-0.009430234825157197
5.01600e-06;-0.009413487896545145
5.01625e-06;-0.009400809043672362
5.01650e-06;-0.009392254113870424
5.01675e-06;-0.00938794929028012
5.01700e-06;-0.009389731376026647
5.01725e-06;-0.009391860425375233
5.01750e-06;-0.00940373323599733
5.01775e-06;-0.009415606046619385
5.01800e-06;-0.009427948979428152
5.01825e-06;-0.009453494329807643
5.01850e-06;-0.009479039680187047
5.01875e-06;-0.009504585030566452
5.01900e-06;-0.009530130380945943
5.01925e-06;-0.009562855545693316
5.01950e-06;-0.009601836569455291
5.01975e-06;-0.009640817593217398
5.02000e-06;-0.009679798616979375
5.02025e-06;-0.009719048882802995
5.02050e-06;-0.00976586025981191
5.02075e-06;-0.009812671636820664
5.02100e-06;-0.009859606259587912
5.02125e-06;-0.009910001986745505
5.02150e-06;-0.009960397713903097
5.02175e-06;-0.01001082386288758
5.02200e-06;-0.010062104346491057
5.02225e-06;-0.010113384830094534
5.02250e-06;-0.010164619793038518
5.02275e-06;-0.01021457640160218
5.02300e-06;-0.010264445107098107
5.02325e-06;-0.010311845235194609
5.02350e-06;-0.010359109665932275
5.02375e-06;-0.010402563314618684
5.02400e-06;-0.010445777356728211
5.02425e-06;-0.010482262539470488
5.02450e-06;-0.010518747722212765
5.02475e-06;-0.01055490142446139
5.02500e-06;-0.010581746176792963
5.02525e-06;-0.010608590929124629
5.02550e-06;-0.0106351076807924
5.02575e-06;-0.010652413206433045
5.02600e-06;-0.01066971873207375
5.02625e-06;-0.010686501498650663
5.02650e-06;-0.010688603648921999
5.02675e-06;-0.010690705799193343
5.02700e-06;-0.010692807949464679
5.02725e-06;-0.010694910099736015
5.02750e-06;-0.010697012250007359
5.02775e-06;-0.010698498657168279
5.02800e-06;-0.01068269318175448
5.02825e-06;-0.010666887706340627
5.02850e-06;-0.010651082230926827
5.02875e-06;-0.010635276755513028
5.02900e-06;-0.010619471280099175
5.02925e-06;-0.01060323457048778
5.02950e-06;-0.010574887532755083
5.02975e-06;-0.010546540495022481
5.03000e-06;-0.01051819345728988
5.03025e-06;-0.010489846419557183
5.03050e-06;-0.010461263327662758
5.03075e-06;-0.010426051138703636
5.03100e-06;-0.010390838949744395
5.03125e-06;-0.010355626760785273
5.03150e-06;-0.010320414571826152
5.03175e-06;-0.010285137674040244
5.03200e-06;-0.010248043561554596
5.03225e-06;-0.010210954700836938
5.03250e-06;-0.010174013325253403
5.03275e-06;-0.01013709515031577
5.03300e-06;-0.010100856570064242
5.03325e-06;-0.010065442826844087
5.03350e-06;-0.010031114725655694
5.03375e-06;-0.009998107891110216
5.03400e-06;-0.00996665791579627
5.03425e-06;-0.009936999493002554
5.03450e-06;-0.00990940752086358
5.03475e-06;-0.00988512002510147
5.03500e-06;-0.009860997928008073
5.03525e-06;-0.009841520713343786
5.03550e-06;-0.00982221430923116
5.03575e-06;-0.009807704769179939
5.03600e-06;-0.009793418786858184
5.03625e-06;-0.009785410964920782
5.03650e-06;-0.00977740314298338
5.03675e-06;-0.009769666705089485
5.03700e-06;-0.009769551531531091
5.03725e-06;-0.009769436357972698
5.03750e-06;-0.009769690137127238
5.03775e-06;-0.009780305196612276
5.03800e-06;-0.009790920256097351
5.03825e-06;-0.009801535315582388
5.03850e-06;-0.009812150375067427
5.03875e-06;-0.0098227654345525
5.03900e-06;-0.00983377298363759
5.03925e-06;-0.009855802798258402
5.03950e-06;-0.00987783261287929
5.03975e-06;-0.009899862427500104
5.04000e-06;-0.009921892242120915
5.04025e-06;-0.009943922056741803
5.04050e-06;-0.00996617608063665
5.04075e-06;-0.00999472656220366
5.04100e-06;-0.010023277043770765
5.04125e-06;-0.010051827525337773
5.04150e-06;-0.010080378006904782
5.04175e-06;-0.010108928488471888
5.04200e-06;-0.010137478970038897
5.04225e-06;-0.010165756950330375
5.04250e-06;-0.010193797496967697
5.04275e-06;-0.01022183804360502
5.04300e-06;-0.010249878590242437
5.04325e-06;-0.01027791913687976
5.04350e-06;-0.010305959683517081
5.04375e-06;-0.010333814700529355
5.04400e-06;-0.010356459498490272
5.04425e-06;-0.01037910429645119
5.04450e-06;-0.010401552195809585
5.04475e-06;-0.01041847060170005
5.04500e-06;-0.010435389007590515
5.04525e-06;-0.010451953523003009
5.04550e-06;-0.010458579750075315
5.04575e-06;-0.010465205977147623
5.04600e-06;-0.010471832204219952
5.04625e-06;-0.010478458431292258
5.04650e-06;-0.010485084658364589
5.04675e-06;-0.010491710885436895
5.04700e-06;-0.010497844795856996
5.04725e-06;-0.01049015300271322
5.04750e-06;-0.010482461209569471
5.04775e-06;-0.010474769416425722
5.04800e-06;-0.010467077623281947
5.04825e-06;-0.010459385830138198
5.04850e-06;-0.010451694036994448
5.04875e-06;-0.010443631898137715
5.04900e-06;-0.010425169359418538
5.04925e-06;-0.01040670682069936
5.04950e-06;-0.010388244281980121
5.04975e-06;-0.010369781743260944
5.05000e-06;-0.010351319204541767
5.05025e-06;-0.010332653031720568
5.05050e-06;-0.01030826821274941
5.05075e-06;-0.010283883393778172
5.05100e-06;-0.010259498574807015
5.05125e-06;-0.010235113755835858
5.05150e-06;-0.010210728936864618
5.05175e-06;-0.010186292443485127
5.05200e-06;-0.010160404780319399
5.05225e-06;-0.010134517117153583
5.05250e-06;-0.010108645086537124
5.05275e-06;-0.010083212064008237
5.05300e-06;-0.010057817533095974
5.05325e-06;-0.010033503960301775
5.05350e-06;-0.010009251663471445
5.05375e-06;-0.009986720176423696
5.05400e-06;-0.00996427183703226
5.05425e-06;-0.009944158529049577
5.05450e-06;-0.009924152305897356
5.05475e-06;-0.009907153340604187
5.05500e-06;-0.009890287815050455
5.05525e-06;-0.009877169670925709
5.05550e-06;-0.00986422962257999
5.05575e-06;-0.00985629102895394
5.05600e-06;-0.009848352435327917
5.05625e-06;-0.009840631832771429
5.05650e-06;-0.009839033062351666
5.05675e-06;-0.00983743429193191
5.05700e-06;-0.009836165053943049
5.05725e-06;-0.0098441500584774
5.05750e-06;-0.009852135063011724
5.05775e-06;-0.009860120067546049
5.05800e-06;-0.0098681050720804
5.05825e-06;-0.009876090076614724
5.05850e-06;-0.009884444978540819
5.05875e-06;-0.00990318769013459
5.05900e-06;-0.009921930401728297
5.05925e-06;-0.009940673113322068
5.05950e-06;-0.009959415824915776
5.05975e-06;-0.009978158536509484
5.06000e-06;-0.009997149454375357
5.06025e-06;-0.010023110736373174
5.06050e-06;-0.010049072018370991
5.06075e-06;-0.010075033300368895
5.06100e-06;-0.010100994582366712
5.06125e-06;-0.01012695586436453
5.06150e-06;-0.010152917146362435
5.06175e-06;-0.010178907066049922
5.06200e-06;-0.010205701216521609
5.06225e-06;-0.010232495366993387
5.06250e-06;-0.010259289517465074
5.06275e-06;-0.010286083667936761
5.06300e-06;-0.010312877818408539
5.06325e-06;-0.010339671968880226
5.06350e-06;-0.010366343551412594
5.06375e-06;-0.010389573064729941
5.06400e-06;-0.01041270023261702
5.06425e-06;-0.010432953238985963
5.06450e-06;-0.01045306912297297
5.06475e-06;-0.010469334206077341
5.06500e-06;-0.010485351778265537
5.06525e-06;-0.010494418513970278
5.06550e-06;-0.010503485249675018
5.06575e-06;-0.010512234979269126
5.06600e-06;-0.01051208224236689
5.06625e-06;-0.010511929505464652
5.06650e-06;-0.010511454179779629
5.06675e-06;-0.010501919609701572
5.06700e-06;-0.010492385039623518
5.06725e-06;-0.010482437599258636
5.06750e-06;-0.010460895543613045
5.06775e-06;-0.01043935348796738
5.06800e-06;-0.01041781143232179
5.06825e-06;-0.010396269376676199
5.06850e-06;-0.010369319452604948
5.06875e-06;-0.010337222722659661
5.06900e-06;-0.010305125992714376
5.06925e-06;-0.01027302926276898
5.06950e-06;-0.010240932532823694
5.06975e-06;-0.010215645715937327
5.07000e-06;-0.01017461313079845
5.07025e-06;-0.010124360206435631
5.07050e-06;-0.010074107282072814
5.07075e-06;-0.010024047719909734
5.07100e-06;-0.009976436647250241
5.07125e-06;-0.009928722304179634
5.07150e-06;-0.009879667762977119
5.07175e-06;-0.009830189566823615
5.07200e-06;-0.009780272251638222
5.07225e-06;-0.009726568108406669
5.07250e-06;-0.009671439951988981
5.07275e-06;-0.009620822297194652
5.07300e-06;-0.009573251498555944
5.07325e-06;-0.009526774533258025
5.07350e-06;-0.009481697513202427
5.07375e-06;-0.009438411251426193
5.07400e-06;-0.009397045511376635
5.07425e-06;-0.009355838648801927
5.07450e-06;-0.009318304952061061
5.07475e-06;-0.009281335084498897
5.07500e-06;-0.009251504822433861
5.07525e-06;-0.009221940541322249
5.07550e-06;-0.009195744299943465
5.07575e-06;-0.009169789636344862
5.07600e-06;-0.009146894002170515
5.07625e-06;-0.00912439631694679
5.07650e-06;-0.009106937743963048
5.07675e-06;-0.009089479170979306
5.07700e-06;-0.009072643765057422
5.07725e-06;-0.009063699343050813
5.07750e-06;-0.009054754921044203
5.07775e-06;-0.009045810499037563
5.07800e-06;-0.009036866077030952
5.07825e-06;-0.009027921655024343
5.07850e-06;-0.009023895814022298
5.07875e-06;-0.009023532428886821
5.07900e-06;-0.009023169043751344
5.07925e-06;-0.009022805658615865
5.07950e-06;-0.009022442273480388
5.07975e-06;-0.00902253945688457
5.08000e-06;-0.009028468686235783
5.08025e-06;-0.009034397915586974
5.08050e-06;-0.009040327144938187
5.08075e-06;-0.009046256374289378
5.08100e-06;-0.00905218560364057
5.08125e-06;-0.009058114832991782
5.08150e-06;-0.009065935943725555
5.08175e-06;-0.009075165780281181
5.08200e-06;-0.009084395616836837
5.08225e-06;-0.009093625453392463
5.08250e-06;-0.009102855289948088
5.08275e-06;-0.009112085126503744
5.08300e-06;-0.009121307774243236
5.08325e-06;-0.00913043939208734
5.08350e-06;-0.009139571009931477
5.08375e-06;-0.009148573477276734
5.08400e-06;-0.009155940549282801
5.08425e-06;-0.009163307621288893
5.08450e-06;-0.009170590872712573
5.08475e-06;-0.009176812728392722
5.08500e-06;-0.00918303458407289
5.08525e-06;-0.009189370593888555
5.08550e-06;-0.009197152104440352
5.08575e-06;-0.009204933614992122
5.08600e-06;-0.009212896237467958
5.08625e-06;-0.009223152227751823
5.08650e-06;-0.009233408218035652
5.08675e-06;-0.009243664208319482
5.08700e-06;-0.009253920198603348
5.08725e-06;-0.009264176188887177
5.08750e-06;-0.009274432179171007
5.08775e-06;-0.009285034458855507
5.08800e-06;-0.009300021700864464
5.08825e-06;-0.009315008942873423
5.08850e-06;-0.009329996184882432
5.08875e-06;-0.009344983426891391
5.08900e-06;-0.009359970668900349
5.08925e-06;-0.009374957910909358
5.08950e-06;-0.00939020729649077
5.08975e-06;-0.009408776130159864
5.09000e-06;-0.009427344963828894
5.09025e-06;-0.009445913797497926
5.09050e-06;-0.00946448263116702
5.09075e-06;-0.009483051464836051
5.09100e-06;-0.00950162029850508
5.09125e-06;-0.009520189132174174
5.09150e-06;-0.009538701593756853
5.09175e-06;-0.009557172079761997
5.09200e-06;-0.009575642565767201
5.09225e-06;-0.009594113051772345
5.09250e-06;-0.009612583537777488
5.09275e-06;-0.009631054023782695
5.09300e-06;-0.009649524509787837
5.09325e-06;-0.009667590386424936
5.09350e-06;-0.00968053281189337
5.09375e-06;-0.009693475237361762
5.09400e-06;-0.009706417662830197
5.09425e-06;-0.009719360088298589
5.09450e-06;-0.00973230251376698
5.09475e-06;-0.009745244939235415
5.09500e-06;-0.009758187364703807
5.09525e-06;-0.009771129790172198
5.09550e-06;-0.009779342637789866
5.09575e-06;-0.009784033764381883
5.09600e-06;-0.009788724890973903
5.09625e-06;-0.009793416017565936
5.09650e-06;-0.009798107144157953
5.09675e-06;-0.009802798270749973
5.09700e-06;-0.009807489397342006
5.09725e-06;-0.009812180523934025
5.09750e-06;-0.009816337346539536
5.09775e-06;-0.009813728432611257
5.09800e-06;-0.009811119518682987
5.09825e-06;-0.009808510604754708
5.09850e-06;-0.009805901690826438
5.09875e-06;-0.009803292776898167
5.09900e-06;-0.009800683862969888
5.09925e-06;-0.009798074949041618
5.09950e-06;-0.009795466035113347
5.09975e-06;-0.009792857121185067
5.10000e-06;-0.009789917503362095
5.10025e-06;-0.00978279027796308
5.10050e-06;-0.009775663052564037
5.10075e-06;-0.009768535827165019
5.10100e-06;-0.009761408601766003
5.10125e-06;-0.00975428137636696
5.10150e-06;-0.009747154150967944
5.10175e-06;-0.009740026925568926
5.10200e-06;-0.009732899700169885
5.10225e-06;-0.009725772474770867
5.10250e-06;-0.009718586204599354
5.10275e-06;-0.009710677435725321
5.10300e-06;-0.009703087363702774
5.10325e-06;-0.009695497291680202
5.10350e-06;-0.009687907219657656
5.10375e-06;-0.009680317147635108
5.10400e-06;-0.0096733905627316
5.10425e-06;-0.009666958021189019
5.10450e-06;-0.009660525479646439
5.10475e-06;-0.009654092938103835
5.10500e-06;-0.009647550958138086
5.10525e-06;-0.009639623191136993
5.10550e-06;-0.009631695424135875
5.10575e-06;-0.009623767657134782
5.10600e-06;-0.00961583989013369
5.10625e-06;-0.00960791212313257
5.10650e-06;-0.009599984356131477
5.10675e-06;-0.009592056589130359
5.10700e-06;-0.009583852599340865
5.10725e-06;-0.009572150880436787
5.10750e-06;-0.00956044916153267
5.10775e-06;-0.009548747442628592
5.10800e-06;-0.009537045723724514
5.10825e-06;-0.009525344004820396
5.10850e-06;-0.009513642285916318
5.10875e-06;-0.00950194056701224
5.10900e-06;-0.00948999445907724
5.10925e-06;-0.009474953723673539
5.10950e-06;-0.009459912988269838
5.10975e-06;-0.009444872252866087
5.11000e-06;-0.009429831517462387
5.11025e-06;-0.009414790782058688
5.11050e-06;-0.009399750046654937
5.11075e-06;-0.009384709311251236
5.11100e-06;-0.00936915588880452
5.11125e-06;-0.009353220711200165
5.11150e-06;-0.009337285533595812
5.11175e-06;-0.009321350355991404
5.11200e-06;-0.00930541517838705
5.11225e-06;-0.009289480000782696
5.11250e-06;-0.00927354482317829
5.11275e-06;-0.00925769793779937
5.11300e-06;-0.009242969071281826
5.11325e-06;-0.009228240204764234
5.11350e-06;-0.00921359886247655
5.11375e-06;-0.009200065814144813
5.11400e-06;-0.009186604612026642
5.11425e-06;-0.009174109823042923
5.11450e-06;-0.009162454231382027
5.11475e-06;-0.009152342396528105
5.11500e-06;-0.009142517980611322
5.11525e-06;-0.00913633306739328
5.11550e-06;-0.009130479505640535
5.11575e-06;-0.00912882175145772
5.11600e-06;-0.009127556174898906
5.11625e-06;-0.009131256629928712
5.11650e-06;-0.009134957084958517
5.11675e-06;-0.00913916703007313
5.11700e-06;-0.009149828500466469
5.11725e-06;-0.00916048997085981
5.11750e-06;-0.009171878651268109
5.11775e-06;-0.00919247578132831
5.11800e-06;-0.009213072911388513
5.11825e-06;-0.009233670041448785
5.11850e-06;-0.009254267171508988
5.11875e-06;-0.009274864301569189
5.11900e-06;-0.009301407483204259
5.11925e-06;-0.009332378192094645
5.11950e-06;-0.009363348900985134
5.11975e-06;-0.00939431960987552
5.12000e-06;-0.009425290318765905
5.12025e-06;-0.009456735389419503
5.12050e-06;-0.009494187165593911
5.12075e-06;-0.009531638941768318
5.12100e-06;-0.009569090717942853
5.12125e-06;-0.009606542494117262
5.12150e-06;-0.00964399427029167
5.12175e-06;-0.009681446046466206
5.12200e-06;-0.009718642817791893
5.12225e-06;-0.009755649708336407
5.12250e-06;-0.009792656598881047
5.12275e-06;-0.009829663489425563
5.12300e-06;-0.009866670379970077
5.12325e-06;-0.009903677270514718
5.12350e-06;-0.009940330052874532
5.12375e-06;-0.009972498865924434
5.12400e-06;-0.010004375590714714
5.12425e-06;-0.01003255368653228
5.12450e-06;-0.010060237652176474
5.12475e-06;-0.010081664590650652
5.12500e-06;-0.01010309152912483
5.12525e-06;-0.010123774693418778
5.12550e-06;-0.01013503966084047
5.12575e-06;-0.01014630462826216
5.12600e-06;-0.010156794442749258
5.12625e-06;-0.01015746872029328
5.12650e-06;-0.0101581429978373
5.12675e-06;-0.01015774947977608
5.12700e-06;-0.010143834775453265
5.12725e-06;-0.010129920071130451
5.12750e-06;-0.010116005366807589
5.12775e-06;-0.010102090662484773
5.12800e-06;-0.010086966815015122
5.12825e-06;-0.010056531938334749
5.12850e-06;-0.010026097061654375
5.12875e-06;-0.009995662184973898
5.12900e-06;-0.009965227308293523
5.12925e-06;-0.009933917322235959
5.12950e-06;-0.009891526079776398
5.12975e-06;-0.009849134837316982
5.13000e-06;-0.009806743594857566
5.13025e-06;-0.009763843958637814
5.13050e-06;-0.009714506679586272
5.13075e-06;-0.00966516940053473
5.13100e-06;-0.009615832121483021
5.13125e-06;-0.009566301014434673
5.13150e-06;-0.009514277006254417
5.13175e-06;-0.009461748545546237
5.13200e-06;-0.00940901265604651
5.13225e-06;-0.009356365498333604
5.13250e-06;-0.009304102960325451
5.13275e-06;-0.009252516250335116
5.13300e-06;-0.009201881517001537
5.13325e-06;-0.009152482996023803
5.13350e-06;-0.009104632658281873
5.13375e-06;-0.009058665575406593
5.13400e-06;-0.009014914434053271
5.13425e-06;-0.008973714442183325
5.13450e-06;-0.008935394355047295
5.13475e-06;-0.008900187882156017
5.13500e-06;-0.008868003248894035
5.13525e-06;-0.008838533554840268
5.13550e-06;-0.008811785774126736
5.13575e-06;-0.008788868253871885
5.13600e-06;-0.008766383242370298
5.13625e-06;-0.008749374963851383
5.13650e-06;-0.008732819711837508
5.13675e-06;-0.008722001003149488
5.13700e-06;-0.008711678208293697
5.13725e-06;-0.008707635026556419
5.13750e-06;-0.008703591844819156
5.13775e-06;-0.008700321165833316
5.13800e-06;-0.008706832465280917
5.13825e-06;-0.008713343764728494
5.13850e-06;-0.008719855064176073
5.13875e-06;-0.008726366363623672
5.13900e-06;-0.00873287766307125
5.13925e-06;-0.008745605712698041
5.13950e-06;-0.008762962856186904
5.13975e-06;-0.008780319999675707
5.14000e-06;-0.008797677143164508
5.14025e-06;-0.00881503428665337
5.14050e-06;-0.008832809345327122
5.14075e-06;-0.008855876342855276
5.14100e-06;-0.008878943340383352
5.14125e-06;-0.008902153780399514
5.14150e-06;-0.008927180591065524
5.14175e-06;-0.00895220740173145
5.14200e-06;-0.008977270249113059
5.14225e-06;-0.009002789418980185
5.14250e-06;-0.009028308588847223
5.14275e-06;-0.009053743801800983
5.14300e-06;-0.009078115892697037
5.14325e-06;-0.009102487983593007
5.14350e-06;-0.009126353385672059
5.14375e-06;-0.009143802734127498
5.14400e-06;-0.00916125208258288
5.14425e-06;-0.00917870143103826
5.14450e-06;-0.0091961507794937
5.14475e-06;-0.00921360012794908
5.14500e-06;-0.009231049476404522
5.14525e-06;-0.009248498824859902
5.14550e-06;-0.009265948173315282
5.14575e-06;-0.009283397521770723
5.14600e-06;-0.009300846870226103
5.14625e-06;-0.009315962938980894
5.14650e-06;-0.009329341609508763
5.14675e-06;-0.009342720280036586
5.14700e-06;-0.00935609895056441
5.14725e-06;-0.00936947762109228
