Time(s);Current(A)
1.15000e-05;0.00408443081223947
1.15003e-05;0.0041032377074806115
1.15005e-05;0.004122044602721753
1.15007e-05;0.004140851497962767
1.15010e-05;0.004148985452435793
1.15013e-05;0.004156755369215512
1.15015e-05;0.0041645252859951794
1.15018e-05;0.0041722952027749
1.15020e-05;0.004180065119554619
1.15023e-05;0.004187835036334339
1.15025e-05;0.0041956049531140065
1.15028e-05;0.004203374869893726
1.15030e-05;0.004211144786673446
1.15033e-05;0.004218914703453113
1.15035e-05;0.0042266846202328335
1.15038e-05;0.004234454537012553
1.15040e-05;0.00424222445379222
1.15043e-05;0.004247127400579581
1.15045e-05;0.004244570713343588
1.15048e-05;0.00424176292479275
1.15050e-05;0.004238955136241893
1.15053e-05;0.0042361473476910366
1.15055e-05;0.004233339559140199
1.15058e-05;0.0042305317705893415
1.15060e-05;0.004227723982038485
1.15063e-05;0.004224916193487647
1.15065e-05;0.00422210840493679
1.15068e-05;0.004219300616385933
1.15070e-05;0.004216492827835096
1.15073e-05;0.004213685039284239
1.15075e-05;0.0042013975973651
1.15078e-05;0.004178291484289022
1.15080e-05;0.004155185371212787
1.15083e-05;0.0041320792581365515
1.15085e-05;0.004108973145060473
1.15088e-05;0.004085867031984238
1.15090e-05;0.004062760918908003
1.15092e-05;0.004039654805831924
1.15095e-05;0.00401654869275569
1.15098e-05;0.0039934425796794544
1.15100e-05;0.003970336466603375
1.15103e-05;0.00394723035352714
1.15105e-05;0.003924124240450906
1.15108e-05;0.003891098320833078
1.15110e-05;0.0038577340517787057
1.15113e-05;0.0038243697827241075
1.15115e-05;0.0037910055136695093
1.15118e-05;0.003757641244615137
1.15120e-05;0.003724276975560539
1.15123e-05;0.0036909127065059403
1.15125e-05;0.003657548437451568
1.15128e-05;0.00362418416839697
1.15130e-05;0.0035956634495360414
1.15133e-05;0.0035673079367682034
1.15135e-05;0.0035389524240001732
1.15138e-05;0.003510596911232143
1.15140e-05;0.003482241398464305
1.15143e-05;0.003453885885696275
1.15145e-05;0.0034255303729282447
1.15148e-05;0.0033971748601604066
1.15150e-05;0.0033688193473923765
1.15153e-05;0.0033397255963832214
1.15155e-05;0.003310606665196368
1.15158e-05;0.0032814877340093173
1.15160e-05;0.003252368802822267
1.15163e-05;0.0032232498716354132
1.15165e-05;0.0031941309404483627
1.15168e-05;0.003165012009261312
1.15170e-05;0.0031358930780744586
1.15173e-05;0.0031067741468874077
1.15175e-05;0.003077655215700357
1.15177e-05;0.0030404617842609413
1.15180e-05;0.0029940533151374413
1.15183e-05;0.0029476448460139418
1.15185e-05;0.0029012363768907566
1.15188e-05;0.0028548279077672566
1.15190e-05;0.002808419438643757
1.15193e-05;0.002762010969520257
1.15195e-05;0.002715602500397072
1.15198e-05;0.0026691940312735724
1.15200e-05;0.0026227855621500725
1.15203e-05;0.0025763770930268873
1.15205e-05;0.002520400623217054
1.15208e-05;0.002464097803529467
1.15210e-05;0.0024077949838422624
1.15213e-05;0.0023514921641546757
1.15215e-05;0.002295189344467089
1.15218e-05;0.0022388865247798843
1.15220e-05;0.002183436344027534
1.15223e-05;0.0021289592389670845
1.15225e-05;0.0020744821339070047
1.15228e-05;0.002020005028846556
1.15230e-05;0.001965527923786107
1.15233e-05;0.001911050818726027
1.15235e-05;0.0018565737136655778
1.15238e-05;0.0018091792353361988
1.15240e-05;0.0017620263345786294
1.15243e-05;0.0017148734338207406
1.15245e-05;0.0016756830011600261
1.15248e-05;0.0016367641561152201
1.15250e-05;0.0015978453110701502
1.15253e-05;0.0015655417050839655
1.15255e-05;0.001533463734790522
1.15258e-05;0.001501385764496861
1.15260e-05;0.0014734212294634096
1.15262e-05;0.0014455969974192788
1.15265e-05;0.0014177727653749595
1.15268e-05;0.0013984022523979092
1.15270e-05;0.0013793200828564971
1.15273e-05;0.0013602379133149558
1.15275e-05;0.0013411557437734145
1.15278e-05;0.0013220735742318734
1.15280e-05;0.0013029914046904614
1.15283e-05;0.00128390923514892
1.15285e-05;0.001264827065607379
1.15288e-05;0.0012495107353320337
1.15290e-05;0.0012384921757762368
1.15293e-05;0.0012274736162204397
1.15295e-05;0.0012164550566647174
1.15298e-05;0.0012054364971089203
1.15300e-05;0.0011944179375531234
1.15303e-05;0.0011833993779974009
1.15305e-05;0.001172380818441604
1.15308e-05;0.0011613622588858069
1.15310e-05;0.001155386307509624
1.15313e-05;0.0011495823517907453
1.15315e-05;0.0011437783960718665
1.15318e-05;0.001137974440353027
1.15320e-05;0.001132170484634148
1.15323e-05;0.0011263665289152692
1.15325e-05;0.0011205625731964296
1.15328e-05;0.0011147586174775508
1.15330e-05;0.0011089546617586718
1.15333e-05;0.0011031507060398323
1.15335e-05;0.001100721078363929
1.15338e-05;0.001098406543859961
1.15340e-05;0.0010960920093560085
1.15343e-05;0.0010937774748520405
1.15345e-05;0.0010914629403480723
1.15347e-05;0.0010891484058441199
1.15350e-05;0.0010868338713401517
1.15353e-05;0.0010845193368361834
1.15355e-05;0.001082204802332231
1.15358e-05;0.001079890267828263
1.15360e-05;0.001083439084089123
1.15362e-05;0.0010871878902825856
1.15365e-05;0.0010909366964760735
1.15368e-05;0.0010983603436172367
1.15370e-05;0.0011059093339662116
1.15373e-05;0.0011134583243151354
1.15375e-05;0.0011255286111132212
1.15378e-05;0.0011377531124225169
1.15380e-05;0.0011499776137317294
1.15383e-05;0.0011690816139269546
1.15385e-05;0.0011884202633141157
1.15388e-05;0.0012077589127011455
1.15390e-05;0.0012270975620883064
1.15393e-05;0.0012464362114754674
1.15395e-05;0.0012657748608624973
1.15398e-05;0.0012851135102496581
1.15400e-05;0.0013076588497626684
1.15403e-05;0.0013338638300514334
1.15405e-05;0.0013600688103403763
1.15408e-05;0.0013862737906293189
1.15410e-05;0.001412478770918084
1.15413e-05;0.0014386837512070266
1.15415e-05;0.0014648887314959692
1.15418e-05;0.0014910937117847342
1.15420e-05;0.0015179190883814174
1.15423e-05;0.0015447656257479268
1.15425e-05;0.0015716121631142543
1.15428e-05;0.0015984587004807638
1.15430e-05;0.0016253052378472732
1.15432e-05;0.0016521517752136007
1.15435e-05;0.0016789983125801101
1.15438e-05;0.001702353975281274
1.15440e-05;0.0017217256710976596
1.15443e-05;0.0017410973669141764
1.15445e-05;0.0017604690627306932
1.15447e-05;0.0017798407585470789
1.15450e-05;0.0017992124543635957
1.15453e-05;0.0018185841501801125
1.15455e-05;0.0018379558459966296
1.15458e-05;0.0018425518443008794
1.15460e-05;0.001846643866146166
1.15463e-05;0.0018507358879914528
1.15465e-05;0.0018548279098367117
1.15468e-05;0.0018589199316819984
1.15470e-05;0.001863011953527285
1.15473e-05;0.001867103975372544
1.15475e-05;0.0018711959972178306
1.15478e-05;0.0018752880190631173
1.15480e-05;0.0018793800409083762
1.15483e-05;0.0018679019308982547
1.15485e-05;0.0018558927474876833
1.15488e-05;0.0018438835640771933
1.15490e-05;0.001831874380666622
1.15493e-05;0.0018198651972560504
1.15495e-05;0.0018078560138455604
1.15498e-05;0.001795846830434989
1.15500e-05;0.0017838376470244177
1.15503e-05;0.0017718284636139277
1.15505e-05;0.0017598192802033563
1.15508e-05;0.0017400480844599333
1.15510e-05;0.0017200121383392506
1.15513e-05;0.001699976192218432
1.15515e-05;0.0016799402460976136
1.15517e-05;0.0016599042999769311
1.15520e-05;0.0016398683538561127
1.15523e-05;0.0016198324077352942
1.15525e-05;0.001599985596599822
1.15528e-05;0.0015803546361005752
1.15530e-05;0.001560723675601328
1.15532e-05;0.0015410927151022144
1.15535e-05;0.0015214617546029673
1.15538e-05;0.0015018307941037205
1.15540e-05;0.0014821998336044737
1.15543e-05;0.0014625688731053597
1.15545e-05;0.0014499743684057284
1.15548e-05;0.0014376198664593225
1.15550e-05;0.001425265364513
1.15553e-05;0.0014129108625665942
1.15555e-05;0.0014005563606201883
1.15558e-05;0.001388201858673866
1.15560e-05;0.0013758473567274602
1.15563e-05;0.0013634928547810543
1.15565e-05;0.001351138352834732
1.15568e-05;0.001338783850888326
1.15570e-05;0.0013264293489419201
1.15573e-05;0.0013191905764202865
1.15575e-05;0.0013121262936108176
1.15578e-05;0.0013050620108013488
1.15580e-05;0.0012979977279919278
1.15583e-05;0.001290933445182459
1.15585e-05;0.00128386916237299
1.15588e-05;0.0012768048795635692
1.15590e-05;0.0012697405967541002
1.15593e-05;0.0012626763139446315
1.15595e-05;0.0012556120311352104
1.15598e-05;0.0012485477483257417
1.15600e-05;0.001244089417894797
1.15602e-05;0.0012397199725168633
1.15605e-05;0.0012353505271389
1.15608e-05;0.001230981081760937
1.15610e-05;0.0012266116363830032
1.15613e-05;0.0012222421910050398
1.15615e-05;0.0012178727456270766
1.15617e-05;0.001213503300249143
1.15620e-05;0.0012091338548711797
1.15623e-05;0.0012047644094932163
1.15625e-05;0.0012003949641152532
1.15628e-05;0.0011960255187373195
1.15630e-05;0.0011938344570060575
1.15633e-05;0.0011917176966118308
1.15635e-05;0.0011896009362176185
1.15638e-05;0.0011874841758233918
1.15640e-05;0.0011853674154291651
1.15643e-05;0.0011832506550349528
1.15645e-05;0.001181133894640726
1.15648e-05;0.0011790171342464992
1.15650e-05;0.0011769003738522868
1.15653e-05;0.0011747836134580602
1.15655e-05;0.0011726668530638335
1.15658e-05;0.0011705500926696211
1.15660e-05;0.0011759327584027553
1.15663e-05;0.0011815712181001245
1.15665e-05;0.0011872096777974556
1.15668e-05;0.0011928481374948248
1.15670e-05;0.001198486597192194
1.15673e-05;0.0012041250568895251
1.15675e-05;0.0012097635165868943
1.15678e-05;0.0012154019762842636
1.15680e-05;0.0012210404359815946
1.15683e-05;0.0012266788956789639
1.15685e-05;0.001232317355376333
1.15687e-05;0.0012464314127233708
1.15690e-05;0.0012608345597536626
1.15693e-05;0.0012752377067839545
1.15695e-05;0.001289640853814149
1.15698e-05;0.001304044000844441
1.15700e-05;0.001318447147874733
1.15702e-05;0.0013328502949049273
1.15705e-05;0.0013472534419352194
1.15708e-05;0.0013616565889655113
1.15710e-05;0.0013760597359958034
1.15713e-05;0.0013904628830259977
1.15715e-05;0.001407253922188104
1.15718e-05;0.0014241264087016259
1.15720e-05;0.0014409988952150334
1.15723e-05;0.0014578713817285554
1.15725e-05;0.0014747438682420773
1.15728e-05;0.0014916163547554848
1.15730e-05;0.0015084888412690068
1.15733e-05;0.0015253613277825288
1.15735e-05;0.0015422338142959363
1.15738e-05;0.001555500356094575
1.15740e-05;0.0015686439046295512
1.15743e-05;0.0015817874531644381
1.15745e-05;0.0015949310016994142
1.15748e-05;0.0016080745502343903
1.15750e-05;0.0016212180987692775
1.15753e-05;0.0016343616473042536
1.15755e-05;0.0016475051958392297
1.15758e-05;0.0016606487443741166
1.15760e-05;0.0016776039470907064
1.15763e-05;0.001694689159506589
1.15765e-05;0.0017117743719223557
1.15768e-05;0.0017288595843382383
1.15770e-05;0.0017459447967541207
1.15772e-05;0.0017630300091698876
1.15775e-05;0.00178011522158577
1.15778e-05;0.0018041771263199817
1.15780e-05;0.001828476995367561
1.15783e-05;0.001852776864415305
1.15785e-05;0.0018770767334630489
1.15787e-05;0.0019013766025106282
1.15790e-05;0.001925676471558372
1.15793e-05;0.0019499763406061162
1.15795e-05;0.0019602181367026597
1.15798e-05;0.0019996574740704536
1.15800e-05;0.0020225611895246264
1.15803e-05;0.0020658239096538467
1.15805e-05;0.002098314839542579
1.15808e-05;0.0021367421739673133
1.15810e-05;0.0021597311503219457
1.15813e-05;0.0022022743665857064
1.15815e-05;0.002236085912239602
1.15818e-05;0.0022698974578934977
1.15820e-05;0.002303709003547164
1.15823e-05;0.0023375205492010597
1.15825e-05;0.0023713320948549554
1.15828e-05;0.0024029660390719773
1.15830e-05;0.0024343234158857225
1.15833e-05;0.0024656807926994673
1.15835e-05;0.0024970381695129996
1.15838e-05;0.002528395546326745
1.15840e-05;0.002558546722816334
1.15843e-05;0.002582690872512004
1.15845e-05;0.0026068350222078376
1.15848e-05;0.0026309791719036713
1.15850e-05;0.002655123321599341
1.15853e-05;0.0026792674712951747
1.15855e-05;0.002703186543045549
1.15857e-05;0.0027259846987902647
1.15860e-05;0.0027487828545351353
1.15863e-05;0.002771581010280006
1.15865e-05;0.002794379166024722
1.15868e-05;0.0028171773217695924
1.15870e-05;0.002840941590156942
1.15872e-05;0.002869517218990675
1.15875e-05;0.002898092847824601
1.15878e-05;0.002926668476658527
1.15880e-05;0.0029552441054924534
1.15883e-05;0.002983819734326186
1.15885e-05;0.0030123953631601124
1.15888e-05;0.0030409709919940386
1.15890e-05;0.003069546620827771
1.15893e-05;0.0030981222496616976
1.15895e-05;0.003126697878495624
1.15898e-05;0.003155273507329356
1.15900e-05;0.003187544871534488
1.15903e-05;0.003221659500888654
1.15905e-05;0.0032557741302425888
1.15908e-05;0.0032898887595967548
1.15910e-05;0.0033240033889509204
1.15913e-05;0.0033581180183048552
1.15915e-05;0.0033922326476590213
1.15918e-05;0.0034263472770131873
1.15920e-05;0.0034604619063671217
1.15923e-05;0.0034945765357212877
1.15925e-05;0.0035286911650754538
1.15928e-05;0.0035619386226639553
1.15930e-05;0.003590867457608945
1.15933e-05;0.0036197962925539344
1.15935e-05;0.003648725127498728
1.15938e-05;0.003677653962443718
1.15940e-05;0.0037065827973887075
1.15942e-05;0.003735511632333501
1.15945e-05;0.0037644404672784906
1.15948e-05;0.003781610512069248
1.15950e-05;0.0037929158057583533
1.15953e-05;0.003804221099447535
1.15955e-05;0.003815526393136717
1.15957e-05;0.0038268316868258216
1.15960e-05;0.0038381369805150036
1.15963e-05;0.003849442274204185
1.15965e-05;0.003855391060605194
1.15968e-05;0.00383466377821532
1.15970e-05;0.003813936495825306
1.15973e-05;0.0037932092134352925
1.15975e-05;0.0037724819310454186
1.15978e-05;0.0037517546486554045
1.15980e-05;0.0037310273662653905
1.15983e-05;0.003710300083875517
1.15985e-05;0.003689572801485503
1.15988e-05;0.0036637691503360764
1.15990e-05;0.003612684554914434
1.15993e-05;0.0035615999594924455
1.15995e-05;0.003510515364070457
1.15998e-05;0.0034594307686488146
1.16000e-05;0.003408346173226826
1.16003e-05;0.0033572615778048377
1.16005e-05;0.0033061769823831953
1.16008e-05;0.003255092386961207
1.16010e-05;0.0032019231907472966
1.16013e-05;0.003138372424763394
1.16015e-05;0.0030748216587790605
1.16018e-05;0.003011270892794727
1.16020e-05;0.002947720126810824
1.16023e-05;0.002884169360826491
1.16025e-05;0.0028206185948421573
1.16027e-05;0.002760203807583752
1.16030e-05;0.002701353104252612
1.16033e-05;0.0026425024009214715
1.16035e-05;0.00258365169759073
1.16038e-05;0.00252480099425959
1.16040e-05;0.0024659502909284495
1.16042e-05;0.0024092357910264596
1.16045e-05;0.002363159848410792
1.16048e-05;0.0023170839057951235
1.16050e-05;0.002273025151100284
1.16053e-05;0.002239012241742768
1.16055e-05;0.0022049993323850214
1.16058e-05;0.0021731114583634107
1.16060e-05;0.0021518065231466515
1.16063e-05;0.0021305015879297478
1.16065e-05;0.0021114538173552704
1.16068e-05;0.0021036470058735735
1.16070e-05;0.002095840194391824
1.16073e-05;0.002090231523479779
1.16075e-05;0.002095569864477451
1.16078e-05;0.002100908205475159
1.16080e-05;0.0021082710150675085
1.16083e-05;0.0021257159286534105
1.16085e-05;0.002143160842239431
1.16088e-05;0.002162452191827505
1.16090e-05;0.002190939021078363
1.16093e-05;0.0022194258503294138
1.16095e-05;0.0022501129645196754
1.16098e-05;0.002291757769845305
1.16100e-05;0.0023334025751712163
1.16103e-05;0.002375047380497128
1.16105e-05;0.0024166921858227576
1.16108e-05;0.002458336991148669
1.16110e-05;0.002499981796474581
1.16113e-05;0.002547700859205677
1.16115e-05;0.002598449485978851
1.16118e-05;0.0026491981127520253
1.16120e-05;0.0026999467395248554
1.16123e-05;0.0027506953662980293
1.16125e-05;0.002801443993071203
1.16127e-05;0.0028515756942930565
1.16130e-05;0.0028986350299672874
1.16133e-05;0.0029456943656415184
1.16135e-05;0.002992753701315749
1.16138e-05;0.003039813036989661
1.16140e-05;0.003086872372663892
1.16143e-05;0.003133931708338123
1.16145e-05;0.0031683744733888826
1.16148e-05;0.003196524665349309
1.16150e-05;0.0032246748573097356
1.16153e-05;0.0032528250492699713
1.16155e-05;0.003280975241230398
1.16158e-05;0.0033091254331908244
1.16160e-05;0.003333594076977305
1.16163e-05;0.0033397281555048227
1.16165e-05;0.003345862234032341
1.16168e-05;0.0033495096574433034
1.16170e-05;0.003340773230811674
1.16173e-05;0.0033320368041800446
1.16175e-05;0.003320751142379397
1.16178e-05;0.0032967699741340674
1.16180e-05;0.0032727888058887373
1.16183e-05;0.0032465179889969906
1.16185e-05;0.003208844438649503
1.16188e-05;0.003171170888302016
1.16190e-05;0.003130490484529197
1.16193e-05;0.0030748355787927504
1.16195e-05;0.003019180673056304
1.16198e-05;0.002963525767320235
1.16200e-05;0.0029078708615837886
1.16203e-05;0.002852215955847342
1.16205e-05;0.0027965610501112727
1.16208e-05;0.0027312398979861432
1.16210e-05;0.00266109766065987
1.16212e-05;0.0025909554233340716
1.16215e-05;0.002520813186007798
1.16218e-05;0.0024506709486815242
1.16220e-05;0.002380528711355251
1.16223e-05;0.0023103179973598177
1.16225e-05;0.002239766261079496
1.16228e-05;0.0021692145247991738
1.16230e-05;0.0020986627885193295
1.16233e-05;0.002028111052239008
1.16235e-05;0.0019594183172866415
1.16238e-05;0.0018999836388815209
1.16240e-05;0.0018405489604759976
1.16243e-05;0.0017811142820704743
1.16245e-05;0.0017216796036653536
1.16248e-05;0.0016646881169586963
1.16250e-05;0.0016198640271037406
1.16253e-05;0.0015750399372490888
1.16255e-05;0.0015313511004211263
1.16258e-05;0.0014933159640840446
1.16260e-05;0.0014552808277472208
1.16263e-05;0.001418559256057135
1.16265e-05;0.0013883793987807549
1.16268e-05;0.0013581995415045793
1.16270e-05;0.001329220437364009
1.16273e-05;0.0013062212323583433
1.16275e-05;0.0012832220273528336
1.16278e-05;0.0012610289850210254
1.16280e-05;0.0012428507325177496
1.16283e-05;0.0012246724800145969
1.16285e-05;0.0012074462178003013
1.16288e-05;0.0011949609849752209
1.16290e-05;0.0011824757521502248
1.16293e-05;0.0011706532488300106
1.16295e-05;0.0011621312204160988
1.16297e-05;0.001153609192002245
1.16300e-05;0.0011459848343397297
1.16303e-05;0.0011428309880510033
1.16305e-05;0.0011396771417622768
1.16308e-05;0.0011365232954735718
1.16310e-05;0.0011333694491848453
1.16313e-05;0.0011302156028961188
1.16315e-05;0.0011270617566074138
1.16318e-05;0.0011239079103186873
1.16320e-05;0.001123658828664208
1.16323e-05;0.001124858511838693
1.16325e-05;0.001126058195013186
1.16328e-05;0.0011272578781876793
1.16330e-05;0.0011284575613621642
1.16333e-05;0.0011296572445366573
1.16335e-05;0.0011308569277111505
1.16338e-05;0.0011321870237886533
1.16340e-05;0.0011341665922538428
1.16343e-05;0.0011361461607190323
1.16345e-05;0.0011381257291842083
1.16348e-05;0.0011401052976493977
1.16350e-05;0.0011420848661145874
1.16353e-05;0.0011440644345797634
1.16355e-05;0.0011460440030449529
1.16358e-05;0.0011480235715101423
1.16360e-05;0.0011500031399753186
1.16363e-05;0.001151982708440508
1.16365e-05;0.0011545255133059327
1.16368e-05;0.0011598733051110825
1.16370e-05;0.0011652210969162686
1.16373e-05;0.0011705688887214546
1.16375e-05;0.0011759166805266044
1.16378e-05;0.0011812644723317904
1.16380e-05;0.0011866122641369765
1.16382e-05;0.0011919600559421263
1.16385e-05;0.0011973078477473123
1.16388e-05;0.0012026556395524984
1.16390e-05;0.0012080034313576844
1.16393e-05;0.0012139264827792046
1.16395e-05;0.0012227143982445822
1.16398e-05;0.0012315023137099597
1.16400e-05;0.001240290229175278
1.16403e-05;0.0012490781446406554
1.16405e-05;0.001257866060106033
1.16408e-05;0.001266653975571351
1.16410e-05;0.0012754418910367288
1.16413e-05;0.0012842298065021064
1.16415e-05;0.0012930177219674245
1.16418e-05;0.0013018056374328021
1.16420e-05;0.0013104295631053782
1.16423e-05;0.0013189716981083877
1.16425e-05;0.0013275138331114548
1.16428e-05;0.001336055968114522
1.16430e-05;0.0013445981031175312
1.16433e-05;0.0013531402381205984
1.16435e-05;0.0013616823731236658
1.16438e-05;0.001370224508126675
1.16440e-05;0.0013787666431297422
1.16443e-05;0.0013873087781328093
1.16445e-05;0.0013957012236303407
1.16448e-05;0.0014033481968751865
1.16450e-05;0.0014109951701200324
1.16453e-05;0.0014186421433648264
1.16455e-05;0.0014262891166096723
1.16458e-05;0.0014339360898545182
1.16460e-05;0.0014415830630993122
1.16463e-05;0.001449230036344158
1.16465e-05;0.001456877009589004
1.16467e-05;0.0014655814044609436
1.16470e-05;0.0014795518898319637
1.16473e-05;0.0014935223752029836
1.16475e-05;0.0015074928605740038
1.16478e-05;0.0015214633459449292
1.16480e-05;0.0015354338313159493
1.16483e-05;0.0015494043166869695
