Time(s);Current(A)
4.75000e-06;-0.011737863392195881
4.75025e-06;-0.01174398912820254
4.75050e-06;-0.011751905369405118
4.75075e-06;-0.01176176400140008
4.75100e-06;-0.01177308096766552
4.75125e-06;-0.011785732918561238
4.75150e-06;-0.011800621506900328
4.75175e-06;-0.011817696023788534
4.75200e-06;-0.011838432852234923
4.75225e-06;-0.011859169680681311
4.75250e-06;-0.01188273180306679
4.75275e-06;-0.011911027431793274
4.75300e-06;-0.011939323060519756
4.75325e-06;-0.011967618689246335
4.75350e-06;-0.011995914317972816
4.75375e-06;-0.012027165571341234
4.75400e-06;-0.012063368687519869
4.75425e-06;-0.012099571803698382
4.75450e-06;-0.012135774919876895
4.75475e-06;-0.01217197803605553
4.75500e-06;-0.012209569466628453
4.75525e-06;-0.012249486883499047
4.75550e-06;-0.012289404300369776
4.75575e-06;-0.01232982148071736
4.75600e-06;-0.012371075966364383
4.75625e-06;-0.012412330452011266
4.75650e-06;-0.012453314459676986
4.75675e-06;-0.012493845307683531
4.75700e-06;-0.012534376155689938
4.75725e-06;-0.012574106999217089
4.75750e-06;-0.012612497512726731
4.75775e-06;-0.012649645579653934
4.75800e-06;-0.012684712047674214
4.75825e-06;-0.012719778515694613
4.75850e-06;-0.01275256001914809
4.75875e-06;-0.012781513285788595
4.75900e-06;-0.012810466552429197
4.75925e-06;-0.01283761623800897
4.75950e-06;-0.012861744198214054
4.75975e-06;-0.012885872158419218
4.76000e-06;-0.012910000118624303
4.76025e-06;-0.012934128078829469
4.76050e-06;-0.012958256039034551
4.76075e-06;-0.012982383999239636
4.76100e-06;-0.0130065119594448
4.76125e-06;-0.013031089444428644
4.76150e-06;-0.013055731867223934
4.76175e-06;-0.013080374290019308
4.76200e-06;-0.013105016712814598
4.76225e-06;-0.013129659135609888
4.76250e-06;-0.013154301558405261
4.76275e-06;-0.013178943981200552
4.76300e-06;-0.013204523077599223
4.76325e-06;-0.013231671479895322
4.76350e-06;-0.013258819882191328
4.76375e-06;-0.013285968284487335
4.76400e-06;-0.013313116686783434
4.76425e-06;-0.01334026508907944
4.76450e-06;-0.013367413491375539
4.76475e-06;-0.013394561893671546
4.76500e-06;-0.013421928601635448
4.76525e-06;-0.013449661059601156
4.76550e-06;-0.013477393517566768
4.76575e-06;-0.01350512597553238
4.76600e-06;-0.013532858433498086
4.76625e-06;-0.013560590891463699
4.76650e-06;-0.013588323349429311
4.76675e-06;-0.013616055807395017
4.76700e-06;-0.013642169052581284
4.76725e-06;-0.01366556946359108
4.76750e-06;-0.013688969874600953
4.76775e-06;-0.013712370285610747
4.76800e-06;-0.013735770696620542
4.76825e-06;-0.013759171107630416
4.76850e-06;-0.013782571518640211
4.76875e-06;-0.013796924720788266
4.76900e-06;-0.013809970973974269
4.76925e-06;-0.013823017227160271
4.76950e-06;-0.01383606348034632
4.76975e-06;-0.01384910973353232
4.77000e-06;-0.013862155986718323
4.77025e-06;-0.013870357432378173
4.77050e-06;-0.013870441872291604
4.77075e-06;-0.013870526312205035
4.77100e-06;-0.013865565194822384
4.77125e-06;-0.013852150734898481
4.77150e-06;-0.013838736274974579
4.77175e-06;-0.01382532181505063
4.77200e-06;-0.013811907355126727
4.77225e-06;-0.013798492895202822
4.77250e-06;-0.0137787856159406
4.77275e-06;-0.013748535327394515
4.77300e-06;-0.013718285038848326
4.77325e-06;-0.01368803475030224
4.77350e-06;-0.013657784461756155
4.77375e-06;-0.013627534173209967
4.77400e-06;-0.013592923097319739
4.77425e-06;-0.013551005944616931
4.77450e-06;-0.013509088791913981
4.77475e-06;-0.013467171639211172
4.77500e-06;-0.013425254486508364
4.77525e-06;-0.013381272789647012
4.77550e-06;-0.013333832149018674
4.77575e-06;-0.013286391508390337
4.77600e-06;-0.01323895086776184
4.77625e-06;-0.013191510227133501
4.77650e-06;-0.013143780136773638
4.77675e-06;-0.013095565101424345
4.77700e-06;-0.013047775799113887
4.77725e-06;-0.013000699771273353
4.77750e-06;-0.012954163481026166
4.77775e-06;-0.012909014291180042
4.77800e-06;-0.012865266847085912
4.77825e-06;-0.012823625514968384
4.77850e-06;-0.012783848727806557
4.77875e-06;-0.012745924906274134
4.77900e-06;-0.012711105549176985
4.77925e-06;-0.01267836612250187
4.77950e-06;-0.01264911141778795
4.77975e-06;-0.012621809933090554
4.78000e-06;-0.0125977808793429
4.78025e-06;-0.012576328966720644
4.78050e-06;-0.012559194804433727
4.78075e-06;-0.012542060642146809
4.78100e-06;-0.012528203893236233
4.78125e-06;-0.012519838132989321
4.78150e-06;-0.012511472372742407
4.78175e-06;-0.012507475974839108
4.78200e-06;-0.012510800020328339
4.78225e-06;-0.012514124065817582
4.78250e-06;-0.012517448111306815
4.78275e-06;-0.012520772156796046
4.78300e-06;-0.01252409620228529
4.78325e-06;-0.012532261815242533
4.78350e-06;-0.012548539005540375
4.78375e-06;-0.012564816195838272
4.78400e-06;-0.012581093386136114
4.78425e-06;-0.012597370576433956
4.78450e-06;-0.012613647766731852
4.78475e-06;-0.012633029964458082
4.78500e-06;-0.012657614301380795
4.78525e-06;-0.01268219863830359
4.78550e-06;-0.012706782975226302
4.78575e-06;-0.012731367312149015
4.78600e-06;-0.01275595164907181
4.78625e-06;-0.012780535985994523
4.78650e-06;-0.012806506480760371
4.78675e-06;-0.012832677218228656
4.78700e-06;-0.012858847955696943
4.78725e-06;-0.012885018693165318
4.78750e-06;-0.012911189430633603
4.78775e-06;-0.01293736016810189
4.78800e-06;-0.012962138501381807
4.78825e-06;-0.012984583996311756
4.78850e-06;-0.013007029491241705
4.78875e-06;-0.01302765578677643
4.78900e-06;-0.013045234189931438
4.78925e-06;-0.013062812593086446
4.78950e-06;-0.01307808201239361
4.78975e-06;-0.013089482952911196
4.79000e-06;-0.01310088389342878
4.79025e-06;-0.013108288002515588
4.79050e-06;-0.013108995807672295
4.79075e-06;-0.013109703612829005
4.79100e-06;-0.013110411417985713
4.79125e-06;-0.01311111922314242
4.79150e-06;-0.01311182702829913
4.79175e-06;-0.013112534833455838
4.79200e-06;-0.01310082167780282
4.79225e-06;-0.013087314205021737
4.79250e-06;-0.013073806732240699
4.79275e-06;-0.01306029925945966
4.79300e-06;-0.013046791786678577
4.79325e-06;-0.013033284313897537
4.79350e-06;-0.013015716377783464
4.79375e-06;-0.012991345528650843
4.79400e-06;-0.012966974679518305
4.79425e-06;-0.012942603830385768
4.79450e-06;-0.012918232981253148
4.79475e-06;-0.01289386213212061
4.79500e-06;-0.01286729508532517
4.79525e-06;-0.012837048522069383
4.79550e-06;-0.012806801958813596
4.79575e-06;-0.012776555395557707
4.79600e-06;-0.01274630883230192
4.79625e-06;-0.012716062269046133
4.79650e-06;-0.012685401112127782
4.79675e-06;-0.012654045343685628
4.79700e-06;-0.012622898786655009
4.79725e-06;-0.012592102743080095
4.79750e-06;-0.012561779600840683
4.79775e-06;-0.012532248758983488
4.79800e-06;-0.012503731658389042
4.79825e-06;-0.012476912983089556
4.79850e-06;-0.01245009430779007
4.79875e-06;-0.012424926928995012
4.79900e-06;-0.012402526137548643
4.79925e-06;-0.0123801253461022
4.79950e-06;-0.012358193568813047
4.79975e-06;-0.012337047579315544
4.80000e-06;-0.01231590158981797
4.80025e-06;-0.012294588509675639
4.80050e-06;-0.01227299548534232
4.80075e-06;-0.012251402461008929
4.80100e-06;-0.012229598484736514
4.80125e-06;-0.012207441078922979
4.80150e-06;-0.012185283673109368
4.80175e-06;-0.012163126267295835
4.80200e-06;-0.012140968861482299
4.80225e-06;-0.012118811455668689
4.80250e-06;-0.012095673552668463
4.80275e-06;-0.012070892921603094
4.80300e-06;-0.01204611229053764
4.80325e-06;-0.012021331659472272
4.80350e-06;-0.01199655102840682
4.80375e-06;-0.011971770397341451
4.80400e-06;-0.011946222750595184
4.80425e-06;-0.011919390043368817
4.80450e-06;-0.01189255733614254
4.80475e-06;-0.011865724628916264
4.80500e-06;-0.011838891921689897
4.80525e-06;-0.011811973858992549
4.80550e-06;-0.011784912791470977
4.80575e-06;-0.011757851723949313
4.80600e-06;-0.01173079065642774
4.80625e-06;-0.011703729588906168
4.80650e-06;-0.011676917625687523
4.80675e-06;-0.011650523012600346
4.80700e-06;-0.011624449700898978
4.80725e-06;-0.011599167423148411
4.80750e-06;-0.011574547361366696
4.80775e-06;-0.011550579414880472
4.80800e-06;-0.011527335176920783
4.80825e-06;-0.011504954553614367
4.80850e-06;-0.011483590281863392
4.80875e-06;-0.011463394402359215
4.80900e-06;-0.01144453484652885
4.80925e-06;-0.011427355720171763
4.80950e-06;-0.011412575819739649
4.80975e-06;-0.011400969359228054
4.81000e-06;-0.011392859535637366
4.81025e-06;-0.011388225499131608
4.81050e-06;-0.011386992743904775
4.81075e-06;-0.011389085719834382
4.81100e-06;-0.011395079650925413
4.81125e-06;-0.011404170756237522
4.81150e-06;-0.011416085171289402
4.81175e-06;-0.01143272976834293
4.81200e-06;-0.011453783392430819
4.81225e-06;-0.011482223914253865
4.81250e-06;-0.011510664436076911
4.81275e-06;-0.011539104957900054
4.81300e-06;-0.0115675454797231
4.81325e-06;-0.0116080425895797
4.81350e-06;-0.011650281379707795
4.81375e-06;-0.011692520169835744
4.81400e-06;-0.011734758959963695
4.81425e-06;-0.011781178145646633
4.81450e-06;-0.011834601179165875
4.81475e-06;-0.011888024212685117
4.81500e-06;-0.011941447246204539
4.81525e-06;-0.01199487027972378
4.81550e-06;-0.012048293313243022
4.81575e-06;-0.012106011259961687
4.81600e-06;-0.012164349644698338
4.81625e-06;-0.012222688029435186
4.81650e-06;-0.012281026414171836
4.81675e-06;-0.012339364798908485
4.81700e-06;-0.012397091435680211
4.81725e-06;-0.012453793147990526
4.81750e-06;-0.012509426872595748
4.81775e-06;-0.012563271287247324
4.81800e-06;-0.012612779252100218
4.81825e-06;-0.012655021915347463
4.81850e-06;-0.01269726457859485
4.81875e-06;-0.012739507241842096
4.81900e-06;-0.01278174990508934
4.81925e-06;-0.012823992568336728
4.81950e-06;-0.012866235231583973
4.81975e-06;-0.01290250296212575
4.82000e-06;-0.012928760271656303
4.82025e-06;-0.012955017581186765
4.82050e-06;-0.012981274890717317
4.82075e-06;-0.013007532200247779
4.82100e-06;-0.013033789509778241
4.82125e-06;-0.013060046819308793
4.82150e-06;-0.013080715792167331
4.82175e-06;-0.013092022048223163
4.82200e-06;-0.013103328304279033
4.82225e-06;-0.013114634560334865
4.82250e-06;-0.013125940816390697
4.82275e-06;-0.013137247072446567
4.82300e-06;-0.0131485533285024
4.82325e-06;-0.013159859584558231
4.82350e-06;-0.013171165840614101
4.82375e-06;-0.013182472096669933
4.82400e-06;-0.013193778352725765
4.82425e-06;-0.013205084608781635
4.82450e-06;-0.013216390864837467
4.82475e-06;-0.013227697120893337
4.82500e-06;-0.013239003376949169
4.82525e-06;-0.013246580448295662
4.82550e-06;-0.013247909631874158
4.82575e-06;-0.01324923881545265
4.82600e-06;-0.01325056799903114
4.82625e-06;-0.013251897182609636
4.82650e-06;-0.013253226366188128
4.82675e-06;-0.013254555549766619
4.82700e-06;-0.013255884733345115
4.82725e-06;-0.013257213916923605
4.82750e-06;-0.013258543100502097
4.82775e-06;-0.013259872284080593
4.82800e-06;-0.013261201467659084
4.82825e-06;-0.013262530651237576
4.82850e-06;-0.013263859834816072
4.82875e-06;-0.013265189018394562
4.82900e-06;-0.0132645741806435
4.82925e-06;-0.013260702323454858
4.82950e-06;-0.013256830466266216
4.82975e-06;-0.013252958609077561
4.83000e-06;-0.01324908675188892
4.83025e-06;-0.013245214894700277
4.83050e-06;-0.013241343037511621
4.83075e-06;-0.01323747118032298
4.83100e-06;-0.013230132801437445
4.83125e-06;-0.013216986601220095
4.83150e-06;-0.013203840401002788
4.83175e-06;-0.013190694200785481
4.83200e-06;-0.01317754800056813
4.83225e-06;-0.013164401800350823
4.83250e-06;-0.013151255600133516
4.83275e-06;-0.013138109399916165
4.83300e-06;-0.013121820790339788
4.83325e-06;-0.013100267378259908
4.83350e-06;-0.013078713966180102
4.83375e-06;-0.013057160554100295
4.83400e-06;-0.013035607142020416
4.83425e-06;-0.013014053729940609
4.83450e-06;-0.012992500317860804
4.83475e-06;-0.012970946905780925
4.83500e-06;-0.012945650708943717
4.83525e-06;-0.012919813833902387
4.83550e-06;-0.012893976958860968
4.83575e-06;-0.012868140083819635
4.83600e-06;-0.012842303208778303
4.83625e-06;-0.012816466333736884
4.83650e-06;-0.012790629458695553
4.83675e-06;-0.012764884181817478
4.83700e-06;-0.012739292368789533
4.83725e-06;-0.012713700555761674
4.83750e-06;-0.012688754478455197
4.83775e-06;-0.01266489026880325
4.83800e-06;-0.012641026059151303
4.83825e-06;-0.012619963826426219
4.83850e-06;-0.01260359603463878
4.83875e-06;-0.012587228242851339
4.83900e-06;-0.012570860451063844
4.83925e-06;-0.012554492659276403
4.83950e-06;-0.012538124867488964
4.83975e-06;-0.012521757075701467
4.84000e-06;-0.012505389283914026
4.84025e-06;-0.012489021492126587
4.84050e-06;-0.01247265370033909
4.84075e-06;-0.012456285908551652
4.84100e-06;-0.01243991811676421
4.84125e-06;-0.012432008687832792
4.84150e-06;-0.012425321143870481
4.84175e-06;-0.012418633599908146
4.84200e-06;-0.012411946055945835
4.84225e-06;-0.012405258511983524
4.84250e-06;-0.012398570968021189
4.84275e-06;-0.012391883424058876
4.84300e-06;-0.012385195880096565
4.84325e-06;-0.01237850833613423
4.84350e-06;-0.012371820792171919
4.84375e-06;-0.012365133248209608
4.84400e-06;-0.012360418935154377
4.84425e-06;-0.012359010579353649
4.84450e-06;-0.01235760222355292
4.84475e-06;-0.012356193867752186
4.84500e-06;-0.012354785511951457
4.84525e-06;-0.012353377156150728
4.84550e-06;-0.012351968800349996
4.84575e-06;-0.012350560444549267
4.84600e-06;-0.012349152088748533
4.84625e-06;-0.012347743732947804
4.84650e-06;-0.012347680490833627
4.84675e-06;-0.01234781156223176
4.84700e-06;-0.012347942633629892
4.84725e-06;-0.012348073705028025
4.84750e-06;-0.01234820477642616
4.84775e-06;-0.012348335847824292
4.84800e-06;-0.012348466919222425
4.84825e-06;-0.012348597990620557
4.84850e-06;-0.01234872906201869
4.84875e-06;-0.012348717385729154
4.84900e-06;-0.012348466549515724
4.84925e-06;-0.012348215713302293
4.84950e-06;-0.012349187539676124
4.84975e-06;-0.012352207818785613
4.85000e-06;-0.01235522809789509
4.85025e-06;-0.012360097165369689
4.85050e-06;-0.01236806369867295
4.85075e-06;-0.01237603023197621
4.85100e-06;-0.012387004022005512
4.85125e-06;-0.012403016179390682
4.85150e-06;-0.012419028336775852
4.85175e-06;-0.012435040494161076
4.85200e-06;-0.012451052651546246
4.85225e-06;-0.012467064808931417
4.85250e-06;-0.01248307696631664
4.85275e-06;-0.012509011069277726
4.85300e-06;-0.012536378484614181
4.85325e-06;-0.012563745899950728
4.85350e-06;-0.012591113315287183
4.85375e-06;-0.01261848073062364
4.85400e-06;-0.012645848145960186
4.85425e-06;-0.012675916185267417
4.85450e-06;-0.012710508858450022
4.85475e-06;-0.012745101531632509
4.85500e-06;-0.012779694204814996
4.85525e-06;-0.012814286877997601
4.85550e-06;-0.012849598876406581
4.85575e-06;-0.012885950745870242
4.85600e-06;-0.01292202569014913
4.85625e-06;-0.012958100634427896
4.85650e-06;-0.012994175578706663
4.85675e-06;-0.01303025052298555
4.85700e-06;-0.013066325467264316
4.85725e-06;-0.013102400411543083
4.85750e-06;-0.01313847535582197
4.85775e-06;-0.013174550300100736
4.85800e-06;-0.013201175880062815
4.85825e-06;-0.013226436416172606
4.85850e-06;-0.01325169695228231
4.85875e-06;-0.013276957488392102
4.85900e-06;-0.013302218024501806
4.85925e-06;-0.013327478560611512
4.85950e-06;-0.013352739096721302
4.85975e-06;-0.013377999632831006
4.86000e-06;-0.013396753406607165
4.86025e-06;-0.013404605730352617
4.86050e-06;-0.01341245805409804
4.86075e-06;-0.013420310377843466
4.86100e-06;-0.013428162701588918
4.86125e-06;-0.013436015025334343
4.86150e-06;-0.013443867349079769
4.86175e-06;-0.01345171967282522
4.86200e-06;-0.013459571996570644
4.86225e-06;-0.01346742432031607
4.86250e-06;-0.013461899774122548
4.86275e-06;-0.013454442821318535
4.86300e-06;-0.013446985868514495
4.86325e-06;-0.01343952891571048
4.86350e-06;-0.013432071962906465
4.86375e-06;-0.013424615010102425
4.86400e-06;-0.013417158057298411
4.86425e-06;-0.013409701104494395
4.86450e-06;-0.013402244151690355
4.86475e-06;-0.013391614858406535
4.86500e-06;-0.01337567061592912
4.86525e-06;-0.013359726373451652
4.86550e-06;-0.013343782130974237
4.86575e-06;-0.013327837888496823
4.86600e-06;-0.013311893646019354
4.86625e-06;-0.013295949403541939
4.86650e-06;-0.013280005161064526
4.86675e-06;-0.013264060918587057
4.86700e-06;-0.013248116676109643
4.86725e-06;-0.013232172433632174
4.86750e-06;-0.0132180939646678
4.86775e-06;-0.013204285023110504
4.86800e-06;-0.013190476081553161
4.86825e-06;-0.013176667139995865
4.86850e-06;-0.013162858198438569
4.86875e-06;-0.013149049256881228
4.86900e-06;-0.013135240315323931
4.86925e-06;-0.013121431373766635
4.86950e-06;-0.013107622432209292
4.86975e-06;-0.013093813490651996
4.87000e-06;-0.01308391636688234
4.87025e-06;-0.013080573114907368
4.87050e-06;-0.01307722986293241
4.87075e-06;-0.013073886610957451
4.87100e-06;-0.013070543358982481
4.87125e-06;-0.013067200107007524
4.87150e-06;-0.013063856855032554
4.87175e-06;-0.013060513603057594
4.87200e-06;-0.013057170351082637
4.87225e-06;-0.013053827099107667
4.87250e-06;-0.013059312445950643
4.87275e-06;-0.013066073161604665
4.87300e-06;-0.01307283387725871
4.87325e-06;-0.013079594592912734
4.87350e-06;-0.013086355308566758
4.87375e-06;-0.013093116024220803
4.87400e-06;-0.013099876739874826
4.87425e-06;-0.01310663745552885
4.87450e-06;-0.013113398171182896
4.87475e-06;-0.013122177991481618
4.87500e-06;-0.013134340626036646
4.87525e-06;-0.013146503260591717
4.87550e-06;-0.013158665895146745
4.87575e-06;-0.013170828529701816
4.87600e-06;-0.013182991164256844
4.87625e-06;-0.013195153798811874
4.87650e-06;-0.013207316433366943
4.87675e-06;-0.013219479067921973
4.87700e-06;-0.01323074713342315
4.87725e-06;-0.013241885970550316
4.87750e-06;-0.013253024807677443
4.87775e-06;-0.013264163644804568
4.87800e-06;-0.013275302481931733
4.87825e-06;-0.01328644131905886
4.87850e-06;-0.013297580156185988
4.87875e-06;-0.013308718993313151
4.87900e-06;-0.013316598175560008
4.87925e-06;-0.013319016121794354
4.87950e-06;-0.013321434068028706
4.87975e-06;-0.013323852014263051
4.88000e-06;-0.013326269960497406
4.88025e-06;-0.013328687906731751
4.88050e-06;-0.013331105852966096
4.88075e-06;-0.01333352379920045
4.88100e-06;-0.013330763240835436
4.88125e-06;-0.013319326599619158
4.88150e-06;-0.01330788995840284
4.88175e-06;-0.013296453317186561
4.88200e-06;-0.013285016675970283
4.88225e-06;-0.013273580034753967
4.88250e-06;-0.013262143393537689
4.88275e-06;-0.013250706752321411
4.88300e-06;-0.01323480623810971
4.88325e-06;-0.013211426937078285
4.88350e-06;-0.01318804763604686
4.88375e-06;-0.013164668335015357
4.88400e-06;-0.01314128903398393
4.88425e-06;-0.013117909732952427
4.88450e-06;-0.013094530431921
4.88475e-06;-0.013071151130889575
4.88500e-06;-0.013042355072545562
4.88525e-06;-0.013012776515928453
4.88550e-06;-0.012983197959311346
4.88575e-06;-0.012953619402694138
4.88600e-06;-0.01292404084607703
4.88625e-06;-0.012894462289459922
4.88650e-06;-0.012864883732842714
4.88675e-06;-0.012835237899033958
4.88700e-06;-0.01280547934880727
4.88725e-06;-0.01277572079858048
4.88750e-06;-0.0127466856116045
4.88775e-06;-0.012718862349687863
4.88800e-06;-0.01269103908777113
4.88825e-06;-0.012664228986942657
4.88850e-06;-0.012639116339379353
4.88875e-06;-0.012615495846086691
4.88900e-06;-0.012594375312739561
4.88925e-06;-0.01257325477939236
4.88950e-06;-0.012554816166932955
4.88975e-06;-0.012540870853141522
4.89000e-06;-0.01252692553935004
4.89025e-06;-0.012516061655537192
4.89050e-06;-0.012510360409176254
4.89075e-06;-0.012504659162815297
4.89100e-06;-0.012503991245436396
4.89125e-06;-0.012511756183222353
4.89150e-06;-0.012519521121008337
4.89175e-06;-0.012527286058794294
4.89200e-06;-0.012535050996580253
4.89225e-06;-0.012542815934366236
4.89250e-06;-0.012550580872152195
4.89275e-06;-0.012573084754179585
4.89300e-06;-0.012597717806436969
4.89325e-06;-0.012622350858694354
4.89350e-06;-0.012646983910951823
4.89375e-06;-0.012671616963209207
4.89400e-06;-0.012696250015466592
4.89425e-06;-0.012725365249284793
4.89450e-06;-0.012761989944148757
4.89475e-06;-0.01279861463901272
4.89500e-06;-0.012835239333876808
4.89525e-06;-0.01287186402874077
4.89550e-06;-0.012908488723604734
4.89575e-06;-0.012945113418468822
4.89600e-06;-0.012981738113332785
4.89625e-06;-0.013020276353696186
4.89650e-06;-0.013059091022550387
4.89675e-06;-0.013097905691404456
4.89700e-06;-0.013136720360258656
4.89725e-06;-0.013175535029112725
4.89750e-06;-0.013214349697966794
