Time(s);Current(A)
5.50000e-06;-0.008324485371853584
5.50025e-06;-0.008353998487537782
5.50050e-06;-0.008381191901235461
5.50075e-06;-0.00840679616011964
5.50100e-06;-0.008432400419003729
5.50125e-06;-0.00845800467788782
5.50150e-06;-0.008483608936771999
5.50175e-06;-0.00850851345918843
5.50200e-06;-0.00852662971524122
5.50225e-06;-0.008544745971294074
5.50250e-06;-0.008562862227346866
5.50275e-06;-0.008580978483399657
5.50300e-06;-0.008599094739452511
5.50325e-06;-0.008611598478251792
5.50350e-06;-0.008620257258146425
5.50375e-06;-0.00862891603804103
5.50400e-06;-0.008637574817935634
5.50425e-06;-0.008646233597830268
5.50450e-06;-0.008654892377724873
5.50475e-06;-0.008663551157619477
5.50500e-06;-0.00867220993751411
5.50525e-06;-0.008680868717408715
5.50550e-06;-0.008689527497303319
5.50575e-06;-0.008698186277197954
5.50600e-06;-0.008706845057092558
5.50625e-06;-0.008715503836987161
5.50650e-06;-0.008724162616881796
5.50675e-06;-0.0087328213967764
5.50700e-06;-0.008741480176671005
5.50725e-06;-0.008750138956565639
5.50750e-06;-0.008754513924361862
5.50775e-06;-0.008755954187331669
5.50800e-06;-0.008757394450301471
5.50825e-06;-0.008758834713271274
5.50850e-06;-0.008760274976241081
5.50875e-06;-0.008761715239210884
5.50900e-06;-0.008763155502180686
5.50925e-06;-0.008764595765150493
5.50950e-06;-0.008766036028120296
5.50975e-06;-0.008767476291090098
5.51000e-06;-0.008768916554059905
5.51025e-06;-0.008770356817029708
5.51050e-06;-0.00877179707999951
5.51075e-06;-0.008773237342969318
5.51100e-06;-0.00877467760593912
5.51125e-06;-0.008776117868908922
5.51150e-06;-0.00877755813187873
5.51175e-06;-0.008778079561953896
5.51200e-06;-0.00877797152853524
5.51225e-06;-0.008777013179677379
5.51250e-06;-0.008775472306477678
5.51275e-06;-0.008770310476761889
5.51300e-06;-0.008762668043714594
5.51325e-06;-0.008749759937201037
5.51350e-06;-0.008733244483544466
5.51375e-06;-0.008716729029887951
5.51400e-06;-0.00869454867547519
5.51425e-06;-0.008668487475869638
5.51450e-06;-0.008642426276264173
5.51475e-06;-0.008609114320566968
5.51500e-06;-0.008570835100104993
5.51525e-06;-0.008532555879643147
5.51550e-06;-0.00848603455927446
5.51575e-06;-0.008433866835698075
5.51600e-06;-0.008381699112121867
5.51625e-06;-0.008329531388545482
5.51650e-06;-0.00827604748231409
5.51675e-06;-0.00820979505700107
5.51700e-06;-0.008143542631687824
5.51725e-06;-0.008077290206374802
5.51750e-06;-0.008011037781061782
5.51775e-06;-0.007940210454189661
5.51800e-06;-0.007866249006265286
5.51825e-06;-0.007791058096725959
5.51850e-06;-0.007714331294255213
5.51875e-06;-0.00763646110574962
5.51900e-06;-0.00755764236213237
5.51925e-06;-0.00747827212064088
5.51950e-06;-0.007398817961726445
5.51975e-06;-0.007319748079554037
5.52000e-06;-0.007241531190468215
5.52025e-06;-0.007164605090617747
5.52050e-06;-0.007089298843010417
5.52075e-06;-0.007015861615957012
5.52100e-06;-0.0069446236312969015
5.52125e-06;-0.006876041584188007
5.52150e-06;-0.00681061530325194
5.52175e-06;-0.006748846203409144
5.52200e-06;-0.006691235162144713
5.52225e-06;-0.0066381482720611834
5.52250e-06;-0.006589448052698982
5.52275e-06;-0.00654452454111341
5.52300e-06;-0.006502959554838194
5.52325e-06;-0.006464795245130465
5.52350e-06;-0.006430242874161356
5.52375e-06;-0.006399517664475771
5.52400e-06;-0.006372834664558388
5.52425e-06;-0.006351463908143852
5.52450e-06;-0.0063325822742660975
5.52475e-06;-0.0063176930054033836
5.52500e-06;-0.006305538780143364
5.52525e-06;-0.0062994239653506165
5.52550e-06;-0.006297446560564128
5.52575e-06;-0.006295469155777647
5.52600e-06;-0.006293491750991165
5.52625e-06;-0.006292689327632584
5.52650e-06;-0.006303285605445697
5.52675e-06;-0.006313881883258809
5.52700e-06;-0.006324478161071958
5.52725e-06;-0.006335074438885071
5.52750e-06;-0.00635023152463135
5.52775e-06;-0.006368513076330256
5.52800e-06;-0.0063867946280290995
5.52825e-06;-0.006407921157774004
5.52850e-06;-0.006430996692425759
5.52875e-06;-0.006454072227077436
5.52900e-06;-0.006478602813476514
5.52925e-06;-0.006504130210026296
5.52950e-06;-0.006529657606576077
5.52975e-06;-0.006555743589717222
5.53000e-06;-0.0065822122429490815
5.53025e-06;-0.006608680896180941
5.53050e-06;-0.006634815309398631
5.53075e-06;-0.006660720745303492
5.53100e-06;-0.006685590990556503
5.53125e-06;-0.00670975205927919
5.53150e-06;-0.006728985655502741
5.53175e-06;-0.006744843595421574
5.53200e-06;-0.006760701535340462
5.53225e-06;-0.006776559475259295
5.53250e-06;-0.006792417415178128
5.53275e-06;-0.006808275355097016
5.53300e-06;-0.006824133295015849
5.53325e-06;-0.006839991234934736
5.53350e-06;-0.00685584917485357
5.53375e-06;-0.006871707114772403
5.53400e-06;-0.006886531972111871
5.53425e-06;-0.0068913347139317755
5.53450e-06;-0.00689613745575168
5.53475e-06;-0.006900940197571601
5.53500e-06;-0.006905742939391506
5.53525e-06;-0.006910545681211411
5.53550e-06;-0.006915348423031331
5.53575e-06;-0.006920151164851236
5.53600e-06;-0.006924953906671141
5.53625e-06;-0.0069297566484910625
5.53650e-06;-0.006934559390310967
5.53675e-06;-0.00693492624693333
5.53700e-06;-0.006932254218237606
5.53725e-06;-0.00692958218954189
5.53750e-06;-0.0069269101608461755
5.53775e-06;-0.006924238132150451
5.53800e-06;-0.006921566103454736
5.53825e-06;-0.006918894074759012
5.53850e-06;-0.006916222046063296
5.53875e-06;-0.006913550017367581
5.53900e-06;-0.006910877988671857
5.53925e-06;-0.006908205959976142
5.53950e-06;-0.006905533931280426
5.53975e-06;-0.006902861902584702
5.54000e-06;-0.006900189873888987
5.54025e-06;-0.0068974132562234095
5.54050e-06;-0.006893622002594996
5.54075e-06;-0.006889830748966594
5.54100e-06;-0.006886039495338192
5.54125e-06;-0.006882248241709779
5.54150e-06;-0.006878456988081377
5.54175e-06;-0.006874665734452975
5.54200e-06;-0.006870874480824561
5.54225e-06;-0.00686708322719616
5.54250e-06;-0.006863291973567745
5.54275e-06;-0.0068595007199393435
5.54300e-06;-0.006855709466310942
5.54325e-06;-0.006851918212682528
5.54350e-06;-0.006848126959054126
5.54375e-06;-0.006844335705425725
5.54400e-06;-0.006842074076836817
5.54425e-06;-0.006840860346213493
5.54450e-06;-0.006839646615590169
5.54475e-06;-0.00683843288496684
5.54500e-06;-0.006837219154343515
5.54525e-06;-0.00683600542372019
5.54550e-06;-0.006834791693096861
5.54575e-06;-0.006833577962473536
5.54600e-06;-0.006832364231850211
5.54625e-06;-0.006831150501226883
5.54650e-06;-0.006829936770603558
5.54675e-06;-0.006828723039980229
5.54700e-06;-0.0068275093093569045
5.54725e-06;-0.00682629557873358
5.54750e-06;-0.0068250818481102515
5.54775e-06;-0.006824642474729932
5.54800e-06;-0.006824733589121815
5.54825e-06;-0.006824824703513699
5.54850e-06;-0.006824915817905582
5.54875e-06;-0.006825006932297466
5.54900e-06;-0.0068250980466893485
5.54925e-06;-0.006825189161081232
5.54950e-06;-0.006825280275473115
5.54975e-06;-0.006825371389864999
5.55000e-06;-0.006825462504256882
5.55025e-06;-0.006825553618648765
5.55050e-06;-0.006825644733040649
5.55075e-06;-0.006825735847432532
5.55100e-06;-0.006825826961824415
5.55125e-06;-0.006825918076216298
5.55150e-06;-0.006825374823909756
5.55175e-06;-0.006824396986946549
5.55200e-06;-0.006823419149983346
5.55225e-06;-0.006822441313020142
5.55250e-06;-0.006821463476056936
5.55275e-06;-0.006820485639093733
5.55300e-06;-0.006819507802130529
5.55325e-06;-0.006818529965167323
5.55350e-06;-0.00681755212820412
5.55375e-06;-0.006814197780411989
5.55400e-06;-0.006809215359858209
5.55425e-06;-0.0068042329393044445
5.55450e-06;-0.006799250518750681
5.55475e-06;-0.0067942680981969
5.55500e-06;-0.006789285677643137
5.55525e-06;-0.006784303257089356
5.55550e-06;-0.006779320836535593
5.55575e-06;-0.006774338415981828
5.55600e-06;-0.006767011974398814
5.55625e-06;-0.006758079717793338
5.55650e-06;-0.006749147461187862
5.55675e-06;-0.006740215204582355
5.55700e-06;-0.006731282947976879
5.55725e-06;-0.006722350691371403
5.55750e-06;-0.006713418434765897
5.55775e-06;-0.006704486178160421
5.55800e-06;-0.006694412855991345
5.55825e-06;-0.006683557825722878
5.55850e-06;-0.006672702795454447
5.55875e-06;-0.006661847765186016
5.55900e-06;-0.006650992734917548
5.55925e-06;-0.006640137704649118
5.55950e-06;-0.0066292826743806505
5.55975e-06;-0.00661842764411222
5.56000e-06;-0.006607884285633373
5.56025e-06;-0.006597554443686777
5.56050e-06;-0.006587224601740214
5.56075e-06;-0.006576894759793652
5.56100e-06;-0.006566564917847055
5.56125e-06;-0.006556235075900493
5.56150e-06;-0.006547509512330602
5.56175e-06;-0.0065398829893772645
5.56200e-06;-0.0065322564664239535
5.56225e-06;-0.0065246299434706416
5.56250e-06;-0.0065170034205173045
5.56275e-06;-0.006509376897563993
5.56300e-06;-0.006504179037997257
5.56325e-06;-0.006500644979267438
5.56350e-06;-0.00649711092053763
5.56375e-06;-0.006496770995952288
5.56400e-06;-0.006498619272124654
5.56425e-06;-0.006500467548297019
5.56450e-06;-0.006502315824469391
5.56475e-06;-0.006504164100641757
5.56500e-06;-0.006506012376814122
5.56525e-06;-0.006507860652986494
5.56550e-06;-0.006514000813337714
5.56575e-06;-0.006523081208440215
5.56600e-06;-0.006532161603542747
5.56625e-06;-0.006541241998645248
5.56650e-06;-0.006550322393747749
5.56675e-06;-0.00655940278885028
5.56700e-06;-0.006568483183952781
5.56725e-06;-0.006580632194392259
5.56750e-06;-0.006594883416605413
5.56775e-06;-0.006609134638818519
5.56800e-06;-0.006623385861031674
5.56825e-06;-0.006637637083244779
5.56850e-06;-0.0066518883054578854
5.56875e-06;-0.00666613952767104
5.56900e-06;-0.006680499432862163
5.56925e-06;-0.006695913690706456
5.56950e-06;-0.006711327948550801
5.56975e-06;-0.006726742206395093
5.57000e-06;-0.006742156464239386
5.57025e-06;-0.0067575707220837306
5.57050e-06;-0.006772984979928023
5.57075e-06;-0.006788399237772316
5.57100e-06;-0.006801467532774424
5.57125e-06;-0.006812928682479509
5.57150e-06;-0.006824389832184595
5.57175e-06;-0.00683585098188972
5.57200e-06;-0.006847312131594806
5.57225e-06;-0.00685877328129993
5.57250e-06;-0.006870234431005016
5.57275e-06;-0.006881695580710102
5.57300e-06;-0.006893156730415226
5.57325e-06;-0.006904680903532046
5.57350e-06;-0.006916816477832082
5.57375e-06;-0.006928952052132159
5.57400e-06;-0.0069410876264321955
5.57425e-06;-0.006953223200732231
5.57450e-06;-0.006965358775032309
5.57475e-06;-0.006977494349332344
5.57500e-06;-0.0069896299236323805
5.57525e-06;-0.0070017654979324575
5.57550e-06;-0.007013901072232494
5.57575e-06;-0.007028671616461164
5.57600e-06;-0.00704524729564423
5.57625e-06;-0.0070618229748272395
5.57650e-06;-0.007078398654010305
5.57675e-06;-0.0070949743331933145
5.57700e-06;-0.007111550012376324
5.57725e-06;-0.0071281256915593895
5.57750e-06;-0.007144701370742399
5.57775e-06;-0.0071614699901634445
5.57800e-06;-0.007180110356710751
5.57825e-06;-0.0071987507232579954
5.57850e-06;-0.00721739108980524
5.57875e-06;-0.007236031456352547
5.57900e-06;-0.007254671822899792
5.57925e-06;-0.007273312189447036
5.57950e-06;-0.007291952555994343
5.57975e-06;-0.007310592922541588
5.58000e-06;-0.00732759216172969
5.58025e-06;-0.007343467116223717
5.58050e-06;-0.007359342070717689
5.58075e-06;-0.007375217025211715
5.58100e-06;-0.007391091979705688
5.58125e-06;-0.00740696693419966
5.58150e-06;-0.007422841888693687
5.58175e-06;-0.007438716843187659
5.58200e-06;-0.007450591451980752
5.58225e-06;-0.007459467346179707
5.58250e-06;-0.007468343240378633
5.58275e-06;-0.0074772191345775585
5.58300e-06;-0.007486095028776514
5.58325e-06;-0.007494970922975439
5.58350e-06;-0.007503846817174365
5.58375e-06;-0.007512722711373321
5.58400e-06;-0.007517200621210464
5.58425e-06;-0.00751807525859738
5.58450e-06;-0.0075189498959842985
5.58475e-06;-0.007519824533371215
5.58500e-06;-0.007520699170758134
5.58525e-06;-0.007521573808145049
5.58550e-06;-0.007522448445531965
5.58575e-06;-0.007523323082918884
5.58600e-06;-0.0075241977203058
5.58625e-06;-0.0075250723576927156
5.58650e-06;-0.007522676090078238
5.58675e-06;-0.007517125048235366
5.58700e-06;-0.007511574006392493
5.58725e-06;-0.007506022964549602
5.58750e-06;-0.0075004719227067295
5.58775e-06;-0.007494920880863857
5.58800e-06;-0.007489369839020966
5.58825e-06;-0.007483818797178093
5.58850e-06;-0.007478267755335221
5.58875e-06;-0.007472716713492329
5.58900e-06;-0.007466190958169269
5.58925e-06;-0.007458559023667338
5.58950e-06;-0.007450927089165432
5.58975e-06;-0.007443295154663527
5.59000e-06;-0.007435663220161595
5.59025e-06;-0.007428031285659689
5.59050e-06;-0.00742065860734243
5.59075e-06;-0.007413294385747852
5.59100e-06;-0.007405930164153299
5.59125e-06;-0.0073985659425587465
5.59150e-06;-0.0073912017209641695
5.59175e-06;-0.007384354455993015
5.59200e-06;-0.007378093872815806
5.59225e-06;-0.0073717108147115734
5.59250e-06;-0.007365188762721541
5.59275e-06;-0.007356570277341653
5.59300e-06;-0.007345572599498839
5.59325e-06;-0.007334574921656064
5.59350e-06;-0.007320936089643832
5.59375e-06;-0.007304299874493476
5.59400e-06;-0.00728766365934312
5.59425e-06;-0.00726841544552682
5.59450e-06;-0.007246202936460953
5.59475e-06;-0.007223990427395087
5.59500e-06;-0.007197567819992346
5.59525e-06;-0.007166367271979283
5.59550e-06;-0.0071351667239662195
5.59575e-06;-0.0071039661759530505
5.59600e-06;-0.007072765627939987
5.59625e-06;-0.007033156335426206
5.59650e-06;-0.006993272756609037
5.59675e-06;-0.006953389177792002
5.59700e-06;-0.006913505598974968
5.59725e-06;-0.0068706773870061836
5.59750e-06;-0.006824507380810479
5.59775e-06;-0.006778337374614619
5.59800e-06;-0.006731046517439519
5.59825e-06;-0.00668248363310877
5.59850e-06;-0.006633458114191585
5.59875e-06;-0.006583616370769904
5.59900e-06;-0.006533239127314474
5.59925e-06;-0.00648256223282547
5.59950e-06;-0.006431883286470765
5.59975e-06;-0.0063815037598047115
5.60000e-06;-0.006331722158946044
5.60025e-06;-0.0062828050804649566
5.60050e-06;-0.006234946894689193
5.60075e-06;-0.006188294591303091
5.60100e-06;-0.006143039727694476
5.60125e-06;-0.006099458780983555
5.60150e-06;-0.006057866915603681
5.60175e-06;-0.006018581217472454
5.60200e-06;-0.00598191795886171
5.60225e-06;-0.005948208503995957
5.60250e-06;-0.005917833348978535
5.60275e-06;-0.005891157448313261
5.60300e-06;-0.005868393096543862
5.60325e-06;-0.005849609207362099
5.60350e-06;-0.005834836455574214
5.60375e-06;-0.005824106942389793
5.60400e-06;-0.005817451519131096
5.60425e-06;-0.005815902413279296
5.60450e-06;-0.005817681239396811
5.60475e-06;-0.005823422451131806
5.60500e-06;-0.005833660480194589
5.60525e-06;-0.005849822771859546
5.60550e-06;-0.0058727083684461355
5.60575e-06;-0.005895593965032803
5.60600e-06;-0.005918479561619392
5.60625e-06;-0.00594136515820606
5.60650e-06;-0.005978865896304792
5.60675e-06;-0.006016843368252476
5.60700e-06;-0.006054820840200289
5.60725e-06;-0.006092798312147973
5.60750e-06;-0.00613525998779056
5.60775e-06;-0.006182810679703292
5.60800e-06;-0.006230361371615864
5.60825e-06;-0.006280246830436453
5.60850e-06;-0.006332781960768545
5.60875e-06;-0.006385317091100458
5.60900e-06;-0.006439025930394641
5.60925e-06;-0.006494066784113744
5.60950e-06;-0.00654910763783266
5.60975e-06;-0.00660411428291212
5.61000e-06;-0.006659082105419331
5.61025e-06;-0.006713310279702769
5.61050e-06;-0.0067666990447847125
5.61075e-06;-0.006818735241705318
5.61100e-06;-0.006869236441144486
5.61125e-06;-0.006917704098741128
5.61150e-06;-0.006963863937998726
5.61175e-06;-0.007007291921114647
5.61200e-06;-0.007047619585579495
5.61225e-06;-0.007084589713887942
5.61250e-06;-0.0071177494541571264
5.61275e-06;-0.007146357009694287
5.61300e-06;-0.0071697983988973585
5.61325e-06;-0.00719323978810043
5.61350e-06;-0.0072109500487057025
5.61375e-06;-0.007222156187584763
5.61400e-06;-0.007233362326463824
5.61425e-06;-0.00723861608937014
5.61450e-06;-0.007237114642159432
5.61475e-06;-0.007235613194948717
5.61500e-06;-0.00722714212824835
5.61525e-06;-0.007210761405924291
5.61550e-06;-0.007194380683600176
5.61575e-06;-0.007177999961276116
5.61600e-06;-0.007161619238952056
5.61625e-06;-0.0071300994695465535
5.61650e-06;-0.007098085876925875
5.61675e-06;-0.007066072284305196
5.61700e-06;-0.0070340586916844096
5.61725e-06;-0.006998343077181978
5.61750e-06;-0.006956329837996268
5.61775e-06;-0.006911937571374925
5.61800e-06;-0.006867545304753732
5.61825e-06;-0.006821068819516695
5.61850e-06;-0.006772227004074684
5.61875e-06;-0.0067225100872841835
5.61900e-06;-0.00667140327670534
5.61925e-06;-0.006619587062579802
5.61950e-06;-0.006567354840937741
5.61975e-06;-0.006515000167091618
5.62000e-06;-0.006462816684612446
5.62025e-06;-0.006411100566264377
5.62050e-06;-0.006360161731481081
5.62075e-06;-0.006310331301994988
5.62100e-06;-0.006261951102610146
5.62125e-06;-0.006215361590566101
5.62150e-06;-0.006170901796699668
5.62175e-06;-0.006128909602403637
5.62200e-06;-0.00608972323705476
5.62225e-06;-0.006053612150899021
5.62250e-06;-0.0060205977262284055
5.62275e-06;-0.005990454157703543
5.62300e-06;-0.005963009400628392
5.62325e-06;-0.005938299154948799
5.62350e-06;-0.005917155537556353
5.62375e-06;-0.005898371226887646
5.62400e-06;-0.005882524569500116
5.62425e-06;-0.00587001178504887
5.62450e-06;-0.0058608985613953415
5.62475e-06;-0.005855643418547627
5.62500e-06;-0.00585038827569993
5.62525e-06;-0.005849969034806841
5.62550e-06;-0.005855037944183718
5.62575e-06;-0.005860106853560578
5.62600e-06;-0.0058651757629374374
5.62625e-06;-0.005870244672314314
5.62650e-06;-0.0058804231527615535
5.62675e-06;-0.005896400364058112
5.62700e-06;-0.005912377575354725
5.62725e-06;-0.005928354786651283
5.62750e-06;-0.005944331997947895
5.62775e-06;-0.005963985681889818
5.62800e-06;-0.005987811707316206
5.62825e-06;-0.006011637732742674
5.62850e-06;-0.006035463758169062
5.62875e-06;-0.00605928978359545
5.62900e-06;-0.006083115809021918
5.62925e-06;-0.006108255976964752
5.62950e-06;-0.006134887534036954
5.62975e-06;-0.006161519091109247
5.63000e-06;-0.006188150648181449
5.63025e-06;-0.006214782205253651
5.63050e-06;-0.006241413762325944
5.63075e-06;-0.006267293710874317
5.63100e-06;-0.0062923206767606715
5.63125e-06;-0.0063163177844671
5.63150e-06;-0.006339146130585431
5.63175e-06;-0.006360590171940632
5.63200e-06;-0.006380463198699064
5.63225e-06;-0.006398521022709618
5.63250e-06;-0.006414518816235129
5.63275e-06;-0.006428183042517337
5.63300e-06;-0.006439198958760533
5.63325e-06;-0.006447129299348195
5.63350e-06;-0.006451557893410921
5.63375e-06;-0.006455986487473646
5.63400e-06;-0.006456664418676734
5.63425e-06;-0.006453085811683774
5.63450e-06;-0.006449507204690814
5.63475e-06;-0.006442012962674616
5.63500e-06;-0.006430074959472337
5.63525e-06;-0.0064181369562700576
5.63550e-06;-0.006401770467162624
5.63575e-06;-0.0063803781945842705
5.63600e-06;-0.006358985922005844
5.63625e-06;-0.006337593649427491
5.63650e-06;-0.006316201376849137
5.63675e-06;-0.006285591152142762
5.63700e-06;-0.006254680245450428
5.63725e-06;-0.006223769338758093
5.63750e-06;-0.006192858432065654
5.63775e-06;-0.006159532744420522
5.63800e-06;-0.006123466579226607
5.63825e-06;-0.0060866054721417885
5.63850e-06;-0.0060484068349216085
5.63875e-06;-0.006009354643871013
5.63900e-06;-0.005969632543094303
5.63925e-06;-0.00592945849863102
5.63950e-06;-0.005889061615834384
5.63975e-06;-0.005848671436299563
5.64000e-06;-0.005808517560460813
5.64025e-06;-0.005768824949372708
5.64050e-06;-0.005729806880953236
5.64075e-06;-0.005691673510491399
5.64100e-06;-0.005654653526421554
5.64125e-06;-0.005618997449468392
5.64150e-06;-0.005584963285404294
5.64175e-06;-0.00555280832680006
5.64200e-06;-0.005522790054928452
5.64225e-06;-0.005495194801869183
5.64250e-06;-0.00547038557662145
5.64275e-06;-0.0054487344434234345
5.64300e-06;-0.005430465880084439
5.64325e-06;-0.005415644879166858
5.64350e-06;-0.005404285381090072
5.64375e-06;-0.005396400948870035
5.64400e-06;-0.005392005027845392
5.64425e-06;-0.005391129721314998
5.64450e-06;-0.005394724642091777
5.64475e-06;-0.005401252049186614
5.64500e-06;-0.005411969814672201
5.64525e-06;-0.005427443118367774
5.64550e-06;-0.005442916422063293
5.64575e-06;-0.005463956803150215
5.64600e-06;-0.005491315128141629
5.64625e-06;-0.005518673453132951
5.64650e-06;-0.005546031778124273
