Time(s);Current(A)
4.50000e-06;0.002451797436976969
4.50025e-06;0.002448704120034211
4.50050e-06;0.002444645726694895
4.50075e-06;0.002440587333355579
4.50100e-06;0.0024222026832239427
4.50125e-06;0.0024028616744862594
4.50150e-06;0.002383520665748576
4.50175e-06;0.0023511650731926435
4.50200e-06;0.002317940683614738
4.50225e-06;0.0022847162940368326
4.50250e-06;0.002239918494856874
4.50275e-06;0.0021943481051787932
4.50300e-06;0.002148777715500712
4.50325e-06;0.002093732782138305
4.50350e-06;0.002038055369439639
4.50375e-06;0.0019823779567409725
4.50400e-06;0.001918299361945209
4.50425e-06;0.0018536599407653184
4.50450e-06;0.0017890205195852087
4.50475e-06;0.0017243810984053183
4.50500e-06;0.0016597416772254276
4.50525e-06;0.0015916842089913844
4.50550e-06;0.0015233985667996168
4.50575e-06;0.0014551129246078492
4.50600e-06;0.00138682728241585
4.50625e-06;0.0013185416402240824
4.50650e-06;0.0012538731787097386
4.50675e-06;0.001189446184447878
4.50700e-06;0.0011250191901862358
4.50725e-06;0.0010661300837324125
4.50750e-06;0.0010076106625868944
4.50775e-06;0.0009554905307700007
4.50800e-06;0.0009037975876812904
4.50825e-06;0.0008579129389966874
4.50850e-06;0.0008165590479878423
4.50875e-06;0.0007795526677198419
4.50900e-06;0.0007468805833797154
4.50925e-06;0.0007186436705944449
4.50950e-06;0.0006949581584797146
4.50975e-06;0.0006759406479081009
4.51000e-06;0.000661707837954579
4.51025e-06;0.0006523459876366511
4.51050e-06;0.0006477961991034701
4.51075e-06;0.0006478536073204908
4.51100e-06;0.0006523439097757981
4.51125e-06;0.000661164422401794
4.51150e-06;0.0006742218670212899
4.51175e-06;0.0006914234496952562
4.51200e-06;0.0007126763328469623
4.51225e-06;0.0007378685774617592
4.51250e-06;0.0007684020250417966
4.51275e-06;0.0007992756012209434
4.51300e-06;0.0008360767511790367
4.51325e-06;0.0008732736001861961
4.51350e-06;0.0009155301918604213
4.51375e-06;0.0009581245499527396
4.51400e-06;0.0010057840162831246
4.51425e-06;0.0010537816072136363
4.51450e-06;0.0011017791981443104
4.51475e-06;0.0011541160955972614
4.51500e-06;0.0012067426662839592
4.51525e-06;0.0012593692369708355
4.51550e-06;0.0013119958076575336
4.51575e-06;0.0013646223783442314
4.51600e-06;0.0014161699563223175
4.51625e-06;0.001467645505439048
4.51650e-06;0.0015191210545557787
4.51675e-06;0.0015705966036726837
4.51700e-06;0.0016220721527894144
4.51725e-06;0.0016670384893041302
4.51750e-06;0.0017115702990910858
4.51775e-06;0.0017561021088780414
4.51800e-06;0.0017919402383688517
4.51825e-06;0.0018271980155680008
4.51850e-06;0.00186245579276715
4.51875e-06;0.0018855563862248679
4.51900e-06;0.0019078454189622818
4.51925e-06;0.001930134451699696
4.51950e-06;0.0019413464538228342
4.51975e-06;0.0019518190015514025
4.52000e-06;0.001953313948423283
4.52025e-06;0.0019542095897017615
4.52050e-06;0.0019458184640963228
4.52075e-06;0.0019368073943179698
4.52100e-06;0.0019162846280987105
4.52125e-06;0.0018949933910846753
4.52150e-06;0.0018737021540705676
4.52175e-06;0.0018399120100933116
4.52200e-06;0.0018052874934397938
4.52225e-06;0.0017706629767861586
4.52250e-06;0.0017249203783519108
4.52275e-06;0.0016784355851259865
4.52300e-06;0.0016319507918999049
4.52325e-06;0.0015762838513327282
4.52350e-06;0.0015200039505385001
4.52375e-06;0.0014637240497440817
4.52400e-06;0.0014008882576974817
4.52425e-06;0.0013376148228598226
4.52450e-06;0.001274341388021949
4.52475e-06;0.0012068085354686243
4.52500e-06;0.0011389913427111219
4.52525e-06;0.00107117414995339
4.52550e-06;0.0010033569571958878
4.52575e-06;0.0009358728709161942
4.52600e-06;0.0008684110213766534
4.52625e-06;0.0008009491718371127
4.52650e-06;0.0007334873222973434
4.52675e-06;0.0006699355963402091
4.52700e-06;0.0006066448932298122
4.52725e-06;0.0005466665663425457
4.52750e-06;0.0004896796309435999
4.52775e-06;0.0004360697960752437
4.52800e-06;0.0003862869596761016
4.52825e-06;0.0003405834284215942
4.52850e-06;0.0002983963483827742
4.52875e-06;0.0002586182979284
4.52900e-06;0.0002207802137520196
4.52925e-06;0.00018505262196577912
4.52950e-06;0.00015168289930119313
4.52975e-06;0.00012092088850168413
4.53000e-06;9.301634955189828e-05
4.53025e-06;6.809525597544152e-05
4.53050e-06;4.577293706155977e-05
4.53075e-06;2.5323707399939588e-05
4.53100e-06;6.421762967652373e-06
4.53125e-06;-1.085806157818658e-05
4.53150e-06;-2.6392774483188587e-05
4.53175e-06;-4.005787387695019e-05
4.53200e-06;-5.172890518296152e-05
4.53225e-06;-6.135898452701706e-05
4.53250e-06;-6.922106958407226e-05
4.53275e-06;-7.580170439978239e-05
4.53300e-06;-8.133690299388164e-05
4.53325e-06;-8.581172182837716e-05
4.53350e-06;-8.918104890943585e-05
4.53375e-06;-9.13988597073081e-05
4.53400e-06;-9.241912696942432e-05
4.53425e-06;-9.224443369821613e-05
4.53450e-06;-9.107770400633686e-05
4.53475e-06;-8.925562868248762e-05
4.53500e-06;-8.695793810027742e-05
4.53525e-06;-8.42071740019487e-05
4.53550e-06;-8.100696012380567e-05
4.53575e-06;-7.7360356456777e-05
4.53600e-06;-7.327042617904164e-05
4.53625e-06;-6.862279580423281e-05
4.53650e-06;-6.39397869695749e-05
4.53675e-06;-5.925677813493285e-05
4.53700e-06;-5.47258769895084e-05
4.53725e-06;-5.0205129891934744e-05
4.53750e-06;-4.5975915758768817e-05
4.53775e-06;-4.20026961169229e-05
4.53800e-06;-3.831344718463238e-05
4.53825e-06;-3.496074755450082e-05
4.53850e-06;-3.206754559482216e-05
4.53875e-06;-2.9786146975855798e-05
4.53900e-06;-2.818404728273179e-05
4.53925e-06;-2.725832253981546e-05
4.53950e-06;-2.6997961354669834e-05
4.53975e-06;-2.7391712481025085e-05
4.54000e-06;-2.8428327174584252e-05
4.54025e-06;-3.0108341167814916e-05
4.54050e-06;-3.247637088643962e-05
4.54075e-06;-3.5595412553032576e-05
4.54100e-06;-3.947533540645018e-05
4.54125e-06;-4.40818955747635e-05
4.54150e-06;-4.9375789213668986e-05
4.54175e-06;-5.531755516701214e-05
4.54200e-06;-6.186774250965009e-05
4.54225e-06;-6.899428775391222e-05
4.54250e-06;-7.669272915836887e-05
4.54275e-06;-8.497013064000116e-05
4.54300e-06;-9.380026520289448e-05
4.54325e-06;-0.00010333469830579486
4.54350e-06;-0.00011291384575086528
4.54375e-06;-0.00012320762588437578
4.54400e-06;-0.00013354911178843978
4.54425e-06;-0.00014451173757765607
4.54450e-06;-0.00015551582796440936
4.54475e-06;-0.00016651991835116265
4.54500e-06;-0.00017793689095195459
4.54525e-06;-0.00018938142577380865
4.54550e-06;-0.00020082596059566265
4.54575e-06;-0.00021227049541755548
4.54600e-06;-0.0002234476625462057
4.54625e-06;-0.00023428096195455796
4.54650e-06;-0.00024511426136294696
4.54675e-06;-0.0002559475607712992
4.54700e-06;-0.0002667808601796882
4.54725e-06;-0.00027650604183146417
4.54750e-06;-0.000286157250360713
4.54775e-06;-0.00029504471076376084
4.54800e-06;-0.0003032782692579871
4.54825e-06;-0.00031064052539393495
4.54850e-06;-0.00031628830574854385
4.54875e-06;-0.0003190709453936322
4.54900e-06;-0.0003184842014304216
4.54925e-06;-0.00031458899929697983
4.54950e-06;-0.00030751210722946697
4.54975e-06;-0.0002973823678853122
4.55000e-06;-0.00028432870576959785
4.55025e-06;-0.0002683810969878611
4.55050e-06;-0.00024918725827763593
4.55075e-06;-0.0002262023417062488
4.55100e-06;-0.0001992864186339545
4.55125e-06;-0.0001686536369280161
4.55150e-06;-0.0001345593656178327
4.55175e-06;-9.726025774282768e-05
4.55200e-06;-5.7012958611105475e-05
4.55225e-06;-1.4012178242852465e-05
4.55250e-06;3.178684724844434e-05
4.55275e-06;8.054949344731135e-05
4.55300e-06;0.00013218744697346692
4.55325e-06;0.00018639066244022508
4.55350e-06;0.00024282324537353153
4.55375e-06;0.0003011485613095517
4.55400e-06;0.0003616110857879616
4.55425e-06;0.0004222084622204367
4.55450e-06;0.0004853135519968477
4.55475e-06;0.0005485860458106555
4.55500e-06;0.0006118585396246776
4.55525e-06;0.0006759957588851242
4.55550e-06;0.000740190703456114
4.55575e-06;0.0008043856480268864
4.55600e-06;0.0008685805925976588
4.55625e-06;0.0009289272631606379
4.55650e-06;0.000989017039685912
4.55675e-06;0.0010491068162111858
4.55700e-06;0.0011091965927366634
4.55725e-06;0.0011619737778781557
4.55750e-06;0.001214262806219727
4.55775e-06;0.0012665518345614758
4.55800e-06;0.001310893469889626
4.55825e-06;0.0013547045718217045
4.55850e-06;0.0013928099254160288
4.55875e-06;0.0014305343880642615
4.55900e-06;0.0014682588507124944
4.55925e-06;0.0014989077583587513
4.55950e-06;0.0015290843327230626
4.55975e-06;0.0015592609070874761
4.56000e-06;0.0015894374814517875
4.56025e-06;0.0016196140558160988
4.56050e-06;0.0016497906301805125
4.56075e-06;0.0016799672045448239
4.56100e-06;0.001706507409670632
4.56125e-06;0.00172837079694743
4.56150e-06;0.001750234184224154
4.56175e-06;0.0017720975715008781
4.56200e-06;0.0017939609587776762
4.56225e-06;0.0018158243460544001
4.56250e-06;0.001837687733331124
4.56275e-06;0.0018595511206079222
4.56300e-06;0.0018763343570781408
4.56325e-06;0.0018927784647731383
4.56350e-06;0.0019092225724681915
4.56375e-06;0.001925666680163189
4.56400e-06;0.0019421107878582421
4.56425e-06;0.0019585548955532396
4.56450e-06;0.001974999003248237
4.56475e-06;0.0019914431109432904
4.56500e-06;0.002007887218638288
4.56525e-06;0.0020243313263332854
4.56550e-06;0.0020384010878134132
4.56575e-06;0.0020494171481898627
4.56600e-06;0.0020604332085663118
4.56625e-06;0.0020714492689427985
4.56650e-06;0.002082465329319248
4.56675e-06;0.0020934813896956975
4.56700e-06;0.002104497450072184
4.56725e-06;0.0021155135104486333
4.56750e-06;0.0021265295708250828
4.56775e-06;0.0021375456312015696
4.56800e-06;0.0021485616915780186
4.56825e-06;0.002154046240470152
4.56850e-06;0.0021591615297112277
4.56875e-06;0.0021642768189523032
4.56900e-06;0.002159982315127118
4.56925e-06;0.0021550596544385584
4.56950e-06;0.0021501369937499994
4.56975e-06;0.002135847100796606
4.57000e-06;0.002120931892153925
4.57025e-06;0.0021060166835112433
4.57050e-06;0.0020808473046018986
4.57075e-06;0.0020549934018795003
4.57100e-06;0.002029139499157102
4.57125e-06;0.001992071261761577
4.57150e-06;0.001954254404152921
4.57175e-06;0.001916437546544265
4.57200e-06;0.001869452983163044
4.57225e-06;0.0018218564236136727
4.57250e-06;0.00177425986406414
4.57275e-06;0.0017179517996068797
4.57300e-06;0.0016610621929671369
4.57325e-06;0.0016041725863272013
4.57350e-06;0.001540511410662428
4.57375e-06;0.0014763981944982164
4.57400e-06;0.0014122849783337879
4.57425e-06;0.0013434317863204655
4.57450e-06;0.0012742621741330133
4.57475e-06;0.0012050925619453267
4.57500e-06;0.0011359229497578745
4.57525e-06;0.0010663819137889286
4.57550e-06;0.0009963631811788169
4.57575e-06;0.0009263444485689423
4.57600e-06;0.0008563257159590677
4.57625e-06;0.0007863069833489559
4.57650e-06;0.0007199233615195831
4.57675e-06;0.0006537824038770123
4.57700e-06;0.0005916072671746496
4.57725e-06;0.0005296968714313242
4.57750e-06;0.00047178983743731277
4.57775e-06;0.00041738952767406584
4.57800e-06;0.0003668727664343301
4.57825e-06;0.0003205526428516351
4.57850e-06;0.0002781390121583871
4.57875e-06;0.00023890875246972563
4.57900e-06;0.00020256062722072543
4.57925e-06;0.00016924079376279136
4.57950e-06;0.00013914982438581285
4.57975e-06;0.00011249000208517933
4.58000e-06;8.94635511935842e-05
4.58025e-06;7.018292594120046e-05
4.58050e-06;5.4382685854137415e-05
4.58075e-06;4.1526267113028495e-05
4.58100e-06;3.134136086793393e-05
4.58125e-06;2.383591509066487e-05
4.58150e-06;1.9051967739904e-05
4.58175e-06;1.7032622729118355e-05
4.58200e-06;1.7820933267758127e-05
4.58225e-06;2.1403714895946157e-05
4.58250e-06;2.753108723355166e-05
4.58275e-06;3.578335726528897e-05
4.58300e-06;4.590638726949972e-05
4.58325e-06;5.782161052151048e-05
4.58350e-06;7.14718121144345e-05
4.58375e-06;8.680044171667381e-05
4.58400e-06;0.0001037509230754855
4.58425e-06;0.00012223146337349633
4.58450e-06;0.00014200199819594905
4.58475e-06;0.00016271612816854062
4.58500e-06;0.00018439382879886128
4.58525e-06;0.00020613200363601758
4.58550e-06;0.00022886704832291653
4.58575e-06;0.0002516686397056666
4.58600e-06;0.0002744702310884939
4.58625e-06;0.00029709581396262884
4.58650e-06;0.0003194950282585762
4.58675e-06;0.0003418942425545994
4.58700e-06;0.00036429345685054667
4.58725e-06;0.0003847052824382119
4.58750e-06;0.0004049844385988215
4.58775e-06;0.00042302943914759297
4.58800e-06;0.00044092529718394715
4.58825e-06;0.0004558149166585665
4.58850e-06;0.00047050385272072367
4.58875e-06;0.0004851927887828808
4.58900e-06;0.000497579340085172
4.58925e-06;0.0005098121941938086
4.58950e-06;0.0005220450483024866
4.58975e-06;0.0005316519828062956
4.59000e-06;0.0005410836223373021
4.59025e-06;0.0005505152618683404
4.59050e-06;0.0005575020379904623
4.59075e-06;0.0005643256056640263
4.59100e-06;0.0005711491733376133
4.59125e-06;0.0005747346756733481
4.59150e-06;0.0005781040188493666
4.59175e-06;0.0005814733620253964
4.59200e-06;0.0005848427052014149
4.59225e-06;0.0005882120483774333
4.59250e-06;0.0005915813915534632
4.59275e-06;0.0005949507347294817
4.59300e-06;0.0005983200779055001
4.59325e-06;0.0005981599915900614
4.59350e-06;0.0005977642959111716
4.59375e-06;0.0005973686002322806
4.59400e-06;0.0005969729045533908
4.59425e-06;0.0005965772088745011
4.59450e-06;0.0005961815131956099
4.59475e-06;0.0005957858175167202
4.59500e-06;0.0005953901218378304
4.59525e-06;0.0005935328809600516
4.59550e-06;0.0005915780736810409
4.59575e-06;0.0005896232664020304
4.59600e-06;0.0005876684591230131
4.59625e-06;0.0005857136518440025
4.59650e-06;0.0005837588445649919
4.59675e-06;0.0005817313929093954
4.59700e-06;0.0005796990918311553
4.59725e-06;0.0005776667907529153
4.59750e-06;0.0005756344896746683
4.59775e-06;0.0005736021885964283
4.59800e-06;0.0005715698875181813
4.59825e-06;0.0005706952766175328
4.59850e-06;0.0005698979480783401
4.59875e-06;0.0005691006195391447
4.59900e-06;0.0005714672682589286
4.59925e-06;0.0005740451303403569
4.59950e-06;0.0005766229924217941
4.59975e-06;0.000582322125453695
4.60000e-06;0.0005882296209598028
4.60025e-06;0.0005941371164659307
4.60050e-06;0.0006034992940559969
4.60075e-06;0.000613092091197519
4.60100e-06;0.0006226848883390737
4.60125e-06;0.0006361378774233222
4.60150e-06;0.0006498485561336141
4.60175e-06;0.0006635592348439522
4.60200e-06;0.0006803787254667039
4.60225e-06;0.0006974057468524909
4.60250e-06;0.0007144327682382202
4.60275e-06;0.0007344525233162548
4.60300e-06;0.0007546720602801735
4.60325e-06;0.0007748915972440238
4.60350e-06;0.0007982343876914702
4.60375e-06;0.0008217856729584324
4.60400e-06;0.0008453369582253148
4.60425e-06;0.0008688882434921971
4.60450e-06;0.0008924395287591593
4.60475e-06;0.0009159908140260416
4.60500e-06;0.0009399476468741442
4.60525e-06;0.0009644260637641267
4.60550e-06;0.0009889044806540262
4.60575e-06;0.0010133828975439259
4.60600e-06;0.0010378613144339083
4.60625e-06;0.0010623397313238078
4.60650e-06;0.0010868181482137902
4.60675e-06;0.00110656405949728
4.60700e-06;0.0011259940492883945
4.60725e-06;0.001145424039079575
4.60750e-06;0.0011648540288706896
4.60775e-06;0.0011842840186618042
4.60800e-06;0.0012037140084529847
4.60825e-06;0.0012231439982440992
4.60850e-06;0.0012366206023328929
4.60875e-06;0.0012486682084964815
4.60900e-06;0.0012607158146600292
4.60925e-06;0.0012727634208235768
4.60950e-06;0.0012848110269871654
4.60975e-06;0.0012968586331507132
4.61000e-06;0.0013089062393142608
4.61025e-06;0.0013162016133156209
4.61050e-06;0.0013212134715087649
4.61075e-06;0.0013262253297019258
4.61100e-06;0.0013312371878950698
4.61125e-06;0.0013362490460882138
4.61150e-06;0.0013412609042813748
4.61175e-06;0.0013462727624745186
4.61200e-06;0.0013512846206676626
4.61225e-06;0.0013562964788608235
4.61250e-06;0.0013613083370539675
4.61275e-06;0.0013613825348384907
4.61300e-06;0.0013606984328232222
4.61325e-06;0.001360014330807956
4.61350e-06;0.0013593302287926898
4.61375e-06;0.0013586461267774213
4.61400e-06;0.001357962024762155
4.61425e-06;0.0013572779227468887
4.61450e-06;0.0013565938207316202
4.61475e-06;0.001355909718716354
4.61500e-06;0.0013551101904197532
4.61525e-06;0.001352446229506557
4.61550e-06;0.0013497822685933608
4.61575e-06;0.0013471183076801555
4.61600e-06;0.0013444543467669592
4.61625e-06;0.001341790385853763
4.61650e-06;0.0013391264249405577
4.61675e-06;0.0013364624640273615
4.61700e-06;0.001333773754161468
4.61725e-06;0.0013306852847772195
4.61750e-06;0.0013275968153929813
4.61775e-06;0.0013245083460087432
4.61800e-06;0.0013214198766244947
4.61825e-06;0.0013183314072402566
4.61850e-06;0.0013152429378560184
4.61875e-06;0.00131215446847177
4.61900e-06;0.0013085700710084058
4.61925e-06;0.0012969751539713792
4.61950e-06;0.001285380236934392
4.61975e-06;0.001273785319897405
4.62000e-06;0.0012621904028603784
4.62025e-06;0.0012505954858233912
4.62050e-06;0.0012390005687864041
4.62075e-06;0.0012274056517493775
4.62100e-06;0.0012158107347123904
4.62125e-06;0.0012042158176754033
4.62150e-06;0.0011858856568158155
4.62175e-06;0.0011622269018255308
4.62200e-06;0.001138568146835246
4.62225e-06;0.0011149093918448808
4.62250e-06;0.001091250636854596
4.62275e-06;0.001067591881864311
4.62300e-06;0.0010439331268739462
4.62325e-06;0.0010202743718836613
4.62350e-06;0.0009966156168932962
4.62375e-06;0.0009726024750504868
4.62400e-06;0.0009428650700795266
4.62425e-06;0.0009131276651084657
4.62450e-06;0.0008833902601375055
4.62475e-06;0.0008536528551665453
4.62500e-06;0.0008239154501954843
4.62525e-06;0.0007941780452245242
4.62550e-06;0.000764440640253564
4.62575e-06;0.0007347032352825031
4.62600e-06;0.0007049658303115429
4.62625e-06;0.0006752284253405828
4.62650e-06;0.0006456503509370006
4.62675e-06;0.0006186458767838794
4.62700e-06;0.000591641402630758
4.62725e-06;0.0005648102639028332
4.62750e-06;0.0005407789400564036
4.62775e-06;0.000516936400359359
4.62800e-06;0.0004961432123452208
4.62825e-06;0.0004754974881136822
4.62850e-06;0.00045723368490071685
4.62875e-06;0.000439011507471623
4.62900e-06;0.0004214616939793994
4.62925e-06;0.0004039887307419078
4.62950e-06;0.0003877570976400074
4.62975e-06;0.000371525464538107
4.63000e-06;0.0003554119689709865
4.63025e-06;0.00034120669976591295
4.63050e-06;0.0003270014305608394
4.63075e-06;0.00031281654228061114
4.63100e-06;0.0002989608585857071
4.63125e-06;0.0002851051748908031
4.63150e-06;0.00027129278885462584
4.63175e-06;0.00025817977185467835
4.63200e-06;0.0002450667548547308
4.63225e-06;0.0002319954320745786
4.63250e-06;0.00021959757864980597
4.63275e-06;0.00020719972522499137
4.63300e-06;0.00019481360553729455
4.63325e-06;0.00018261701601406666
4.63350e-06;0.00017042042649079744
4.63375e-06;0.00015822383696756956
4.63400e-06;0.0001460756623922377
4.63425e-06;0.00013470951429126612
4.63450e-06;0.00012334336619033306
4.63475e-06;0.0001119772180894
4.63500e-06;0.0001006350125556025
4.63525e-06;8.96795413302868e-05
4.63550e-06;7.875515232336406e-05
4.63575e-06;6.833282143522413e-05
4.63600e-06;5.79434992252848e-05
4.63625e-06;4.810947162151839e-05
4.63650e-06;3.865043838364555e-05
4.63675e-06;2.9494554461345627e-05
4.63700e-06;2.0634404689868333e-05
4.63725e-06;1.2127105741790333e-05
4.63750e-06;4.036359188593602e-06
4.63775e-06;-3.5741758133358166e-06
4.63800e-06;-1.063875200851654e-05
4.63825e-06;-1.704961225155997e-05
4.63850e-06;-2.252622792522157e-05
4.63875e-06;-2.6701344798690024e-05
4.63900e-06;-2.9411579740511145e-05
4.63925e-06;-3.0669545005773476e-05
4.63950e-06;-3.050629565414079e-05
4.63975e-06;-2.8952902634495648e-05
4.64000e-06;-2.603913264726507e-05
4.64025e-06;-2.176844007298308e-05
4.64050e-06;-1.6036063577338747e-05
4.64075e-06;-8.682934837814775e-06
4.64100e-06;3.2230590487979226e-07
4.64125e-06;1.090076360230532e-05
4.64150e-06;2.296200512949383e-05
4.64175e-06;3.64155864301181e-05
4.64200e-06;5.11718863690059e-05
4.64225e-06;6.715776813386811e-05
4.64250e-06;8.436788293038202e-05
4.64275e-06;0.00010283090075328667
4.64300e-06;0.00012249548461253955
4.64325e-06;0.0001432412492538544
4.64350e-06;0.00016496114329859826
4.64375e-06;0.00018779817691032055
4.64400e-06;0.0002107187847571054
4.64425e-06;0.00023498933238869473
4.64450e-06;0.00025925988002020186
4.64475e-06;0.00028358796462126825
4.64500e-06;0.00030884541990989936
4.64525e-06;0.0003341028751984449
4.64550e-06;0.000359360330487076
4.64575e-06;0.0003846177857756215
