Time(s);Current(A)
1.20000e-05;0.00038744379819554884
1.20003e-05;0.000402731119864217
1.20005e-05;0.0004176574413194945
1.20008e-05;0.00043028738647273945
1.20010e-05;0.0004425657250177415
1.20013e-05;0.0004527086006863921
1.20015e-05;0.00046252450779212906
1.20018e-05;0.00047234041489793255
1.20020e-05;0.0004800542381573327
1.20023e-05;0.0004874462036396666
1.20025e-05;0.0004948381691220505
1.20028e-05;0.0005022301346044345
1.20030e-05;0.0005096221000867683
1.20033e-05;0.0005170140655691523
1.20035e-05;0.0005234437729528149
1.20038e-05;0.0005282153325236269
1.20040e-05;0.0005329868920944713
1.20043e-05;0.0005377584516653156
1.20045e-05;0.0005425300112361276
1.20048e-05;0.0005473015708069719
1.20050e-05;0.0005520731303778163
1.20052e-05;0.0005551334466692037
1.20055e-05;0.0005579317482179889
1.20058e-05;0.000560730049766774
1.20060e-05;0.0005635283513155402
1.20063e-05;0.0005663266528643253
1.20065e-05;0.0005691249544131106
1.20068e-05;0.0005719232559618957
1.20070e-05;0.0005747215575106619
1.20073e-05;0.0005775198590594471
1.20075e-05;0.0005803181606082322
1.20078e-05;0.0005831164621569985
1.20080e-05;0.000584084011965015
1.20083e-05;0.0005847712486509985
1.20085e-05;0.0005854584853369775
1.20088e-05;0.0005861457220229611
1.20090e-05;0.0005868329587089446
1.20093e-05;0.0005875201953949236
1.20095e-05;0.0005882074320809072
1.20098e-05;0.0005888946687668908
1.20100e-05;0.0005895819054528696
1.20103e-05;0.0005902691421388532
1.20105e-05;0.0005909563788248369
1.20108e-05;0.0005899261975940676
1.20110e-05;0.0005886330561992111
1.20113e-05;0.0005873399148043545
1.20115e-05;0.0005832926816387488
1.20118e-05;0.0005788237593682869
1.20120e-05;0.0005710959837243791
1.20123e-05;0.0005628692330730603
1.20125e-05;0.000551626481997963
1.20128e-05;0.0005399219400223307
1.20130e-05;0.0005253271652647675
1.20133e-05;0.0005102898563520432
1.20135e-05;0.0004916570264816389
1.20137e-05;0.0004724736731936697
1.20140e-05;0.000449582976042741
1.20143e-05;0.00042612463385842837
1.20145e-05;0.0004001978209184816
1.20148e-05;0.000372420386223039
1.20150e-05;0.00034305905972979625
1.20153e-05;0.00031212797914504227
1.20155e-05;0.0002795256983629878
1.20158e-05;0.0002452526514601155
1.20160e-05;0.00020945964060459376
1.20163e-05;0.00017233827224914284
1.20165e-05;0.00013408323157641084
1.20168e-05;9.488920672823776e-05
1.20170e-05;5.494119587136881e-05
1.20173e-05;1.4348998554689096e-05
1.20175e-05;-2.684994438196951e-05
1.20178e-05;-6.867689290116081e-05
1.20180e-05;-0.00011058773662112193
1.20183e-05;-0.00015246665362496605
1.20185e-05;-0.00019434068221177526
1.20188e-05;-0.00023621471079886822
1.20190e-05;-0.00027696465060031406
1.20193e-05;-0.0003175424770394421
1.20195e-05;-0.00035656578715960045
1.20198e-05;-0.00039535107957734277
1.20200e-05;-0.0004319026397403579
1.20203e-05;-0.0004681121849550184
1.20205e-05;-0.0005012579642912689
1.20208e-05;-0.0005339346391823107
1.20210e-05;-0.0005629059262600177
1.20213e-05;-0.0005913098678019279
1.20215e-05;-0.0006166511161373227
1.20218e-05;-0.0006415234242686301
1.20220e-05;-0.0006636550174807691
1.20222e-05;-0.0006853669697664631
1.20225e-05;-0.0007039866230977235
1.20228e-05;-0.000722132803179836
1.20230e-05;-0.0007377475277280381
1.20233e-05;-0.0007500328382391495
1.20235e-05;-0.0007618677168688439
1.20238e-05;-0.0007737025954985383
1.20240e-05;-0.0007818184738962071
1.20243e-05;-0.0007893649225106554
1.20245e-05;-0.0007969113711251037
1.20248e-05;-0.0008006881725611143
1.20250e-05;-0.0008038877894738738
1.20253e-05;-0.0008070874063866335
1.20255e-05;-0.0008072324908137483
1.20258e-05;-0.0008069098845544108
1.20260e-05;-0.0008065872782950733
1.20263e-05;-0.0008027533760573594
1.20265e-05;-0.0007983818463973868
1.20268e-05;-0.000794010316737414
1.20270e-05;-0.0007896387870774709
1.20273e-05;-0.0007852672574174981
1.20275e-05;-0.0007808957277575253
1.20278e-05;-0.000775541586205884
1.20280e-05;-0.0007684942235086376
1.20283e-05;-0.0007614468608113911
1.20285e-05;-0.0007543994981141925
1.20288e-05;-0.000747352135416946
1.20290e-05;-0.0007403047727196995
1.20293e-05;-0.0007332574100225008
1.20295e-05;-0.0007272248675564977
1.20298e-05;-0.0007213477079429894
1.20300e-05;-0.0007154705483295208
1.20303e-05;-0.0007095933887160125
1.20305e-05;-0.0007037162291025042
1.20307e-05;-0.0006978390694890356
1.20310e-05;-0.0006962517314813902
1.20313e-05;-0.0006953212238140264
1.20315e-05;-0.000694390716146669
1.20318e-05;-0.0006934602084793052
1.20320e-05;-0.0006925297008119415
1.20323e-05;-0.0006915991931445778
1.20325e-05;-0.0006953353052212213
1.20328e-05;-0.0006997859405848896
1.20330e-05;-0.000704236575948558
1.20333e-05;-0.0007119787412200262
1.20335e-05;-0.0007202248847237617
1.20338e-05;-0.0007284710282274971
1.20340e-05;-0.0007400228188443362
1.20343e-05;-0.000752080749230651
1.20345e-05;-0.0007641386796169658
1.20348e-05;-0.0007791014058851474
1.20350e-05;-0.0007945088961187276
1.20353e-05;-0.0008099163863523078
1.20355e-05;-0.0008292541060734075
1.20358e-05;-0.000849193597665223
1.20360e-05;-0.0008691330892570384
1.20363e-05;-0.0008890725808487187
1.20365e-05;-0.0009090120724405342
1.20368e-05;-0.0009289515640323496
1.20370e-05;-0.00094889105562403
1.20373e-05;-0.0009715766669595857
1.20375e-05;-0.0009946827467742752
1.20378e-05;-0.0010177888265888082
1.20380e-05;-0.0010408949064034975
1.20383e-05;-0.001064000986218187
1.20385e-05;-0.00108710706603272
1.20388e-05;-0.0011102131458474095
1.20390e-05;-0.0011288767533906472
1.20392e-05;-0.0011468601576891486
1.20395e-05;-0.0011648435619877721
1.20398e-05;-0.0011828269662863954
1.20400e-05;-0.001200810370584897
1.20403e-05;-0.0012187937748835203
1.20405e-05;-0.0012367771791821438
1.20408e-05;-0.0012547605834807671
1.20410e-05;-0.0012727439877792688
1.20413e-05;-0.001290727392077892
1.20415e-05;-0.0013087107963765156
1.20418e-05;-0.0013266942006750172
1.20420e-05;-0.0013446776049736405
1.20423e-05;-0.0013626610092722638
1.20425e-05;-0.0013806444135707654
1.20428e-05;-0.0013881097225154967
1.20430e-05;-0.001393964567252053
1.20433e-05;-0.0013998194119885694
1.20435e-05;-0.0014056742567251257
1.20438e-05;-0.0014115291014616818
1.20440e-05;-0.0014173839461981985
1.20443e-05;-0.0014232387909347546
1.20445e-05;-0.001429093635671311
1.20448e-05;-0.0014349484804078274
1.20450e-05;-0.0014408033251443837
1.20453e-05;-0.0014466581698809398
1.20455e-05;-0.0014525130146174564
1.20458e-05;-0.0014583678593540126
1.20460e-05;-0.0014642227040905689
1.20463e-05;-0.0014700775488270853
1.20465e-05;-0.0014706159477769834
1.20468e-05;-0.0014703403261871774
1.20470e-05;-0.0014700647045973732
1.20473e-05;-0.0014697890830075672
1.20475e-05;-0.001469513461417761
1.20477e-05;-0.001469237839827957
1.20480e-05;-0.0014689622182381507
1.20483e-05;-0.0014686865966483447
1.20485e-05;-0.0014684109750585405
1.20488e-05;-0.0014681353534687345
1.20490e-05;-0.0014678597318789285
1.20493e-05;-0.0014675841102891223
1.20495e-05;-0.001467308488699318
1.20498e-05;-0.001467032867109512
1.20500e-05;-0.0014663765641285173
1.20503e-05;-0.0014656619736216263
1.20505e-05;-0.0014649473831147303
1.20508e-05;-0.0014642327926078342
1.20510e-05;-0.0014635182021009432
1.20513e-05;-0.0014628036115940473
1.20515e-05;-0.001462089021087151
1.20518e-05;-0.0014613744305802601
1.20520e-05;-0.0014606598400733642
1.20523e-05;-0.001459945249566468
1.20525e-05;-0.001459230659059577
1.20528e-05;-0.001458516068552681
1.20530e-05;-0.001457801478045785
1.20533e-05;-0.001457086887538894
1.20535e-05;-0.0014523849411893668
1.20538e-05;-0.0014470724761427496
1.20540e-05;-0.0014417600110961685
1.20543e-05;-0.0014364475460495515
1.20545e-05;-0.0014311350810029342
1.20548e-05;-0.0014258226159563532
1.20550e-05;-0.0014205101509097361
1.20553e-05;-0.0014151976858631189
1.20555e-05;-0.0014098852208165378
1.20558e-05;-0.0014045727557699208
1.20560e-05;-0.0013992602907233035
1.20562e-05;-0.001391146478974967
1.20565e-05;-0.001382603742744718
1.20568e-05;-0.0013740610065144693
1.20570e-05;-0.0013655182702842785
1.20573e-05;-0.0013569755340540298
1.20575e-05;-0.0013484327978237809
1.20578e-05;-0.0013398900615935322
1.20580e-05;-0.0013313473253633414
1.20583e-05;-0.0013228045891330925
1.20585e-05;-0.0013142618529028438
1.20588e-05;-0.001305719116672653
1.20590e-05;-0.0013008553788020373
1.20593e-05;-0.0012965549458820434
1.20595e-05;-0.0012922545129620787
1.20598e-05;-0.0012879540800420847
1.20600e-05;-0.0012836536471220908
1.20603e-05;-0.001279353214202126
1.20605e-05;-0.0012750527812821321
1.20608e-05;-0.0012707523483621382
1.20610e-05;-0.0012664519154421735
1.20613e-05;-0.0012621514825221795
1.20615e-05;-0.0012578510496021856
1.20618e-05;-0.0012535506166822209
1.20620e-05;-0.001249250183762227
1.20623e-05;-0.001244949750842233
1.20625e-05;-0.0012406493179222683
1.20628e-05;-0.0012363488850022743
1.20630e-05;-0.0012403354745665206
1.20633e-05;-0.001245590920579087
1.20635e-05;-0.001250846366591689
1.20638e-05;-0.0012561018126042908
1.20640e-05;-0.0012613572586168574
1.20643e-05;-0.0012666127046294592
1.20645e-05;-0.0012718681506420613
1.20647e-05;-0.0012771235966546276
1.20650e-05;-0.0012823790426672295
1.20653e-05;-0.0012876344886798316
1.20655e-05;-0.0012928899346923979
1.20658e-05;-0.001298145380705
1.20660e-05;-0.0013034008267176018
1.20663e-05;-0.001308656272730204
1.20665e-05;-0.0013139117187427702
1.20668e-05;-0.0013191671647553723
1.20670e-05;-0.0013280486439856403
1.20673e-05;-0.0013374853184792519
1.20675e-05;-0.0013469219929729272
1.20678e-05;-0.0013563586674666028
1.20680e-05;-0.0013657953419602142
1.20683e-05;-0.0013752320164538896
1.20685e-05;-0.0013846686909475651
1.20688e-05;-0.0013941053654411765
1.20690e-05;-0.001403542039934852
1.20693e-05;-0.0014129787144285275
1.20695e-05;-0.0014224153889221389
1.20698e-05;-0.0014318520634158142
1.20700e-05;-0.0014411955626716041
1.20703e-05;-0.0014505247955244468
1.20705e-05;-0.0014598540283773528
1.20708e-05;-0.0014691832612302588
1.20710e-05;-0.0014785124940831017
1.20713e-05;-0.0014878417269360076
1.20715e-05;-0.0014971709597889136
1.20718e-05;-0.0015065001926417563
1.20720e-05;-0.0015158294254946623
1.20723e-05;-0.0015251586583475683
1.20725e-05;-0.0015344878912004112
1.20728e-05;-0.0015438171240533172
1.20730e-05;-0.001555166825345867
1.20732e-05;-0.0015668258879819176
1.20735e-05;-0.0015784849506180472
1.20738e-05;-0.001590144013254177
1.20740e-05;-0.0016018030758902276
1.20743e-05;-0.0016134621385263572
1.20745e-05;-0.0016265848262012233
1.20748e-05;-0.0016416301497019674
1.20750e-05;-0.001657309616098751
1.20753e-05;-0.001672989082495641
1.20755e-05;-0.0016886689620304496
1.20758e-05;-0.0017059667993029922
1.20760e-05;-0.0017232646365756522
1.20763e-05;-0.0017405624738483121
1.20765e-05;-0.001758221974730137
1.20768e-05;-0.0017762300099599597
1.20770e-05;-0.0017942380451897823
1.20773e-05;-0.0018122460804194831
1.20775e-05;-0.0018302541156493058
1.20778e-05;-0.0018482621508791285
1.20780e-05;-0.0018665683703722113
1.20783e-05;-0.0018851408330708447
1.20785e-05;-0.0019037132957694784
1.20788e-05;-0.001922285758467986
1.20790e-05;-0.0019408582211666195
1.20793e-05;-0.001959430683865253
1.20795e-05;-0.001974400697975135
1.20798e-05;-0.0019863915043452154
1.20800e-05;-0.001998382310715296
1.20803e-05;-0.0020103731170852948
1.20805e-05;-0.002022363923455375
1.20808e-05;-0.0020343547298254556
1.20810e-05;-0.0020463455361954546
1.20813e-05;-0.002058336342565535
1.20815e-05;-0.0020703271489356154
1.20817e-05;-0.0020823179553056143
1.20820e-05;-0.0020943087616756948
1.20823e-05;-0.002106299568045775
1.20825e-05;-0.002118290374415774
1.20828e-05;-0.0021302811807858545
1.20830e-05;-0.002142271987155935
1.20833e-05;-0.0021542627935260154
1.20835e-05;-0.0021657190617615646
1.20838e-05;-0.0021664200231084445
1.20840e-05;-0.0021671209844553244
1.20843e-05;-0.002167821945802199
1.20845e-05;-0.002168522907149079
1.20848e-05;-0.002169223868495959
1.20850e-05;-0.0021699248298428335
1.20853e-05;-0.0021706257911897134
1.20855e-05;-0.0021713267525365933
1.20858e-05;-0.002172027713883468
1.20860e-05;-0.002172728675230348
1.20863e-05;-0.0021734296365772277
1.20865e-05;-0.0021741305979241024
1.20868e-05;-0.0021748315592709823
1.20870e-05;-0.0021755325206178617
1.20873e-05;-0.002176233481964737
1.20875e-05;-0.0021769344433116167
1.20878e-05;-0.0021765112351787397
1.20880e-05;-0.002175158344266718
1.20883e-05;-0.0021738054533546876
1.20885e-05;-0.0021724525624426567
1.20888e-05;-0.002171099671530635
1.20890e-05;-0.0021697467806186042
1.20893e-05;-0.002168393889706574
1.20895e-05;-0.002167040998794552
1.20898e-05;-0.0021656881078825213
1.20900e-05;-0.002164335216970491
1.20902e-05;-0.002162982326058469
1.20905e-05;-0.0021616294351464384
1.20908e-05;-0.002160276544234408
1.20910e-05;-0.0021589236533223863
1.20913e-05;-0.0021575707624103555
1.20915e-05;-0.002156217871498325
1.20918e-05;-0.0021548649805862943
1.20920e-05;-0.0021535120896742726
1.20923e-05;-0.002152159198762242
1.20925e-05;-0.0021508063078502114
1.20928e-05;-0.0021494534169381897
1.20930e-05;-0.0021481005260261593
1.20933e-05;-0.0021469403030009563
1.20935e-05;-0.00214965670190235
1.20938e-05;-0.0021523731008037616
1.20940e-05;-0.0021550894997051737
1.20943e-05;-0.0021578058986065672
1.20945e-05;-0.0021605222975079794
1.20948e-05;-0.0021632386964093916
1.20950e-05;-0.002165955095310785
1.20953e-05;-0.0021686714942121973
1.20955e-05;-0.002171387893113609
1.20958e-05;-0.002174104292015003
1.20960e-05;-0.0021768206909164147
1.20963e-05;-0.002179537089817827
1.20965e-05;-0.0021822534887192204
1.20968e-05;-0.0021849698876206325
1.20970e-05;-0.0021876862865220447
1.20973e-05;-0.002190402685423438
1.20975e-05;-0.00219311908432485
1.20978e-05;-0.002195835483226262
1.20980e-05;-0.0021985518821276556
1.20983e-05;-0.002201268281029068
1.20985e-05;-0.00220398467993048
1.20987e-05;-0.0022067010788318735
1.20990e-05;-0.002209940574417552
1.20993e-05;-0.00221361266845753
1.20995e-05;-0.002217284762497484
1.20998e-05;-0.002220956856537462
1.21000e-05;-0.0022246289505774407
1.21003e-05;-0.0022283010446174194
1.21005e-05;-0.002231973138657373
1.21008e-05;-0.0022356452326973515
1.21010e-05;-0.0022393173267373297
1.21013e-05;-0.0022429894207772836
1.21015e-05;-0.0022464612986805104
1.21018e-05;-0.002245904678221748
1.21020e-05;-0.0022453480577629887
1.21023e-05;-0.002244791437304226
1.21025e-05;-0.0022442348168454636
1.21028e-05;-0.002243678196386705
1.21030e-05;-0.0022431215759279423
1.21033e-05;-0.0022425649554691797
1.21035e-05;-0.002242008335010421
1.21038e-05;-0.0022414517145516585
1.21040e-05;-0.002240895094092896
1.21043e-05;-0.002236336424378629
1.21045e-05;-0.0022284680790839485
1.21048e-05;-0.0022205997337892687
1.21050e-05;-0.002212731388494642
1.21053e-05;-0.0022048630431999623
1.21055e-05;-0.0021969946979052825
1.21058e-05;-0.002189126352610656
1.21060e-05;-0.0021812580073159757
1.21063e-05;-0.002173389662021296
1.21065e-05;-0.0021655213167266693
1.21068e-05;-0.0021575029649749202
1.21070e-05;-0.0021464663711531335
1.21072e-05;-0.0021354297773314218
1.21075e-05;-0.002124393183509635
1.21078e-05;-0.0021133565896878483
1.21080e-05;-0.0021023199958661366
1.21083e-05;-0.00209128340204435
1.21085e-05;-0.002080246808222563
1.21088e-05;-0.0020692102144007764
1.21090e-05;-0.0020581736205790646
1.21093e-05;-0.002047137026757278
1.21095e-05;-0.0020385800474935186
1.21098e-05;-0.0020320736976021385
1.21100e-05;-0.002025567347710714
1.21103e-05;-0.0020190609978192903
1.21105e-05;-0.00201255464792791
1.21108e-05;-0.002006048298036486
1.21110e-05;-0.0019995419481450617
1.21113e-05;-0.0019930355982536816
1.21115e-05;-0.0019865292483622573
1.21118e-05;-0.0019800228984708334
1.21120e-05;-0.0019735165485794534
1.21123e-05;-0.001967010198688029
1.21125e-05;-0.0019607320927983725
1.21128e-05;-0.001959046426878007
1.21130e-05;-0.0019573607609576307
1.21133e-05;-0.0019556750950372537
1.21135e-05;-0.0019539894291168885
1.21138e-05;-0.0019523037631965117
1.21140e-05;-0.001950618097276135
1.21143e-05;-0.0019489324313557695
1.21145e-05;-0.0019472467654353927
1.21148e-05;-0.001945561099515016
1.21150e-05;-0.0019438754335946505
1.21153e-05;-0.0019421897676742737
1.21155e-05;-0.001940504101753897
1.21158e-05;-0.0019399381187648038
1.21160e-05;-0.0019402981082014138
1.21163e-05;-0.0019406580976380236
1.21165e-05;-0.0019410180870746312
1.21168e-05;-0.001941378076511241
1.21170e-05;-0.001941738065947851
1.21173e-05;-0.0019420980553844609
1.21175e-05;-0.0019424580448210685
1.21178e-05;-0.0019428180342576783
1.21180e-05;-0.0019431780236942883
1.21183e-05;-0.0019435380131308958
1.21185e-05;-0.0019438980025675058
1.21188e-05;-0.0019442579920041156
1.21190e-05;-0.001944617981440723
1.21193e-05;-0.0019454822792944373
1.21195e-05;-0.0019467636377956477
1.21198e-05;-0.0019480449962968496
1.21200e-05;-0.0019493263547980602
1.21203e-05;-0.0019506077132992708
1.21205e-05;-0.0019518890718004725
1.21208e-05;-0.001953170430301683
1.21210e-05;-0.0019544517888028935
1.21213e-05;-0.0019557331473040954
1.21215e-05;-0.001957014505805306
1.21218e-05;-0.0019582958643065166
1.21220e-05;-0.0019595772228077186
1.21223e-05;-0.001960858581308929
1.21225e-05;-0.0019621399398101393
1.21228e-05;-0.001960659622347255
1.21230e-05;-0.001956895412078398
1.21233e-05;-0.0019531312018095407
1.21235e-05;-0.001949366991540709
1.21238e-05;-0.001945602781271852
1.21240e-05;-0.0019418385710029949
1.21243e-05;-0.0019380743607341632
1.21245e-05;-0.001934310150465306
1.21248e-05;-0.001930545940196449
1.21250e-05;-0.0019267817299276173
1.21253e-05;-0.0019230175196587602
1.21255e-05;-0.0019192533093899031
1.21258e-05;-0.001915274779927564
1.21260e-05;-0.001906983988043551
1.21263e-05;-0.0018986931961594818
1.21265e-05;-0.0018904024042754126
1.21268e-05;-0.0018821116123913996
1.21270e-05;-0.0018738208205073305
1.21273e-05;-0.0018655300286232613
1.21275e-05;-0.0018572392367392483
1.21278e-05;-0.0018489484448551792
1.21280e-05;-0.00184065765297111
1.21283e-05;-0.001832366861087097
1.21285e-05;-0.0018240760692030279
1.21288e-05;-0.0018157852773189587
1.21290e-05;-0.0018091134452645817
1.21293e-05;-0.0018037804852417587
1.21295e-05;-0.0017984475252189355
1.21298e-05;-0.0017931145651961487
1.21300e-05;-0.0017877816051733257
1.21303e-05;-0.0017824486451505025
1.21305e-05;-0.0017771156851277157
1.21308e-05;-0.0017717827251048928
1.21310e-05;-0.0017664497650820695
1.21313e-05;-0.0017611168050592828
1.21315e-05;-0.0017557838450364598
1.21318e-05;-0.0017504508850136366
1.21320e-05;-0.0017451179249908498
1.21323e-05;-0.0017400062736347903
1.21325e-05;-0.0017393475181336784
1.21328e-05;-0.0017386887626325708
1.21330e-05;-0.0017380300071314586
1.21333e-05;-0.0017373712516303467
1.21335e-05;-0.001736712496129239
1.21338e-05;-0.0017360537406281272
1.21340e-05;-0.001735394985127015
1.21343e-05;-0.001734736229625903
1.21345e-05;-0.0017340774741247955
1.21348e-05;-0.0017334187186236836
1.21350e-05;-0.0017327599631225714
1.21353e-05;-0.001732101207621464
1.21355e-05;-0.001731442452120352
1.21358e-05;-0.0017316951896803397
1.21360e-05;-0.0017327017276400221
1.21363e-05;-0.0017337082655997113
1.21365e-05;-0.0017347148035594005
1.21368e-05;-0.001735721341519083
1.21370e-05;-0.0017367278794787721
1.21373e-05;-0.0017377344174384613
1.21375e-05;-0.0017387409553981435
1.21378e-05;-0.0017397474933578327
1.21380e-05;-0.001740754031317522
1.21383e-05;-0.0017418126530004722
1.21385e-05;-0.0017439192381412127
1.21388e-05;-0.0017460258232819533
1.21390e-05;-0.0017481324084226797
1.21393e-05;-0.0017502389935634202
1.21395e-05;-0.0017523455787041608
1.21398e-05;-0.001754452163844887
1.21400e-05;-0.0017565587489856275
1.21403e-05;-0.001758665334126368
1.21405e-05;-0.0017607719192670943
1.21408e-05;-0.0017628785044078348
1.21410e-05;-0.0017693388919850597
1.21413e-05;-0.0017793998533432408
1.21415e-05;-0.00178946081470149
1.21418e-05;-0.0017995217760597391
1.21420e-05;-0.00180958273741792
1.21423e-05;-0.0018196436987761692
1.21425e-05;-0.0018297046601344184
1.21427e-05;-0.0018397656214925995
1.21430e-05;-0.0018603068088473348
1.21433e-05;-0.0018895150929515777
1.21435e-05;-0.0019187233770558206
1.21438e-05;-0.0019479316611598658
