Time(s);Current(A)
1.20000e-05;0.0015287839785808831
1.20003e-05;0.0015095560168817152
1.20005e-05;0.0014947361858429417
1.20008e-05;0.001486649511927601
1.20010e-05;0.0014785628380122057
1.20013e-05;0.0014704761640968104
1.20015e-05;0.00146238949018147
1.20018e-05;0.0014543028162660747
1.20020e-05;0.0014462161423506794
1.20023e-05;0.0014381294684353387
1.20025e-05;0.0014300427945199434
1.20028e-05;0.001421956120604548
1.20030e-05;0.0014138694466892076
1.20033e-05;0.0014057827727738121
1.20035e-05;0.0014043103645032706
1.20038e-05;0.001412940853191969
1.20040e-05;0.0014215713418807257
1.20043e-05;0.0014302018305694826
1.20045e-05;0.001438832319258181
1.20048e-05;0.0014474628079469377
1.20050e-05;0.0014560932966356946
1.20052e-05;0.001464723785324393
1.20055e-05;0.00147335427401315
1.20058e-05;0.0014819847627019066
1.20060e-05;0.001490615251390605
1.20063e-05;0.001499245740079362
1.20065e-05;0.0015112932620855155
1.20068e-05;0.0015285600990342083
1.20070e-05;0.0015458269359827843
1.20073e-05;0.001563093772931477
1.20075e-05;0.0015803606098801699
1.20078e-05;0.0015976274468287456
1.20080e-05;0.0016148942837774384
1.20083e-05;0.0016321611207261312
1.20085e-05;0.001649285400242901
1.20088e-05;0.0016661919317705394
1.20090e-05;0.0016830984632981779
1.20093e-05;0.0017000049948257018
1.20095e-05;0.0017169115263533403
1.20098e-05;0.0017338180578809787
1.20100e-05;0.0017507245894085026
1.20103e-05;0.0017676311209361409
1.20105e-05;0.001779860168702323
1.20108e-05;0.0017849446385186983
1.20110e-05;0.0017900291083351079
1.20113e-05;0.0017951135781515176
1.20115e-05;0.0018001980479678927
1.20118e-05;0.0018052825177843023
1.20120e-05;0.001810366987600712
1.20123e-05;0.001815451457417087
1.20125e-05;0.0018205359272334969
1.20128e-05;0.0018256203970499064
1.20130e-05;0.0018084249871768104
1.20133e-05;0.0017886340025846268
1.20135e-05;0.0017688430179924432
1.20137e-05;0.0017490520334003936
1.20140e-05;0.00172926104880821
1.20143e-05;0.0017094700642160264
1.20145e-05;0.0016896790796239768
1.20148e-05;0.0016698880950317932
1.20150e-05;0.0016500971104396096
1.20153e-05;0.0016241709789116922
1.20155e-05;0.0015888737757237903
1.20158e-05;0.0015535765725356492
1.20160e-05;0.0015154404365303345
1.20163e-05;0.001472967999675837
1.20165e-05;0.001430495562821052
1.20168e-05;0.0013880231259662669
1.20170e-05;0.0013455506891117694
1.20173e-05;0.0013030782522569844
1.20175e-05;0.0012569249386836078
1.20178e-05;0.0012103428081380039
1.20180e-05;0.0011637606775920842
1.20183e-05;0.0011171785470461646
1.20185e-05;0.0010705964165005607
1.20188e-05;0.0010249254666444484
1.20190e-05;0.0009806462910408932
1.20193e-05;0.0009363671154376379
1.20195e-05;0.0008920879398340826
1.20198e-05;0.0008478087642305273
1.20200e-05;0.0008104162960518422
1.20203e-05;0.0007738261196243122
1.20205e-05;0.0007372359431967823
1.20208e-05;0.0007006457667695004
1.20210e-05;0.0006673452111945855
1.20213e-05;0.0006390693556105155
1.20215e-05;0.0006124716243923332
1.20218e-05;0.0005884371282283838
1.20220e-05;0.0005661124806405133
1.20222e-05;0.0005463995249497265
1.20225e-05;0.0005286017673244185
1.20228e-05;0.0005137293607150621
1.20230e-05;0.0005007908527585583
1.20233e-05;0.0004908062598514276
1.20235e-05;0.0004823885665737837
1.20238e-05;0.00047636421918837167
1.20240e-05;0.0004718314393873765
1.20243e-05;0.00046957694026486844
1.20245e-05;0.0004688474256627073
1.20248e-05;0.00047044723411907805
1.20250e-05;0.0004734885308165028
1.20253e-05;0.00047873161497713154
1.20255e-05;0.0004850911149798128
1.20258e-05;0.000493155873710865
1.20260e-05;0.0005024228322377729
1.20263e-05;0.0005135260793748171
1.20265e-05;0.0005246293265119364
1.20268e-05;0.0005369778131993989
1.20270e-05;0.0005512283291594592
1.20273e-05;0.0005654788451196161
1.20275e-05;0.0005805748235866918
1.20278e-05;0.0005969621956949266
1.20280e-05;0.0006133495678032722
1.20283e-05;0.0006297369399116178
1.20285e-05;0.0006461243120198525
1.20288e-05;0.0006625116841281982
1.20290e-05;0.000678597958052675
1.20293e-05;0.0006946491544611089
1.20295e-05;0.0007107003508696517
1.20298e-05;0.0007267515472781944
1.20300e-05;0.0007428027436866283
1.20303e-05;0.000757457985043671
1.20305e-05;0.0007699809881731665
1.20307e-05;0.0007825039913025772
1.20310e-05;0.0007950269944320727
1.20313e-05;0.0008075499975615683
1.20315e-05;0.0008197855216218522
1.20318e-05;0.0008319875547740352
1.20320e-05;0.0008441895879262181
1.20323e-05;0.0008563916210784009
1.20325e-05;0.0008698899212038745
1.20328e-05;0.0008853681919531256
1.20330e-05;0.0009008464627023766
1.20333e-05;0.0009163247334515228
1.20335e-05;0.0009318030042007738
1.20338e-05;0.0009472812749500249
1.20340e-05;0.0009627595456991711
1.20343e-05;0.0009782378164484222
1.20345e-05;0.000993716087197673
1.20348e-05;0.0010091943579468193
1.20350e-05;0.0010246726286960704
1.20353e-05;0.0010446850774885653
1.20355e-05;0.0010652257516611228
1.20358e-05;0.0010857664258338193
1.20360e-05;0.001106307100006516
1.20363e-05;0.0011268477741790735
1.20365e-05;0.00114738844835177
1.20368e-05;0.0011679291225244665
1.20370e-05;0.001188469796697024
1.20373e-05;0.0012090104708697208
1.20375e-05;0.0012295511450424173
1.20378e-05;0.0012498328967983517
1.20380e-05;0.001269719159978876
1.20383e-05;0.0012896054231594
1.20385e-05;0.0013094916863397893
1.20388e-05;0.0013293779495203134
1.20390e-05;0.0013492642127008376
1.20392e-05;0.001369150475881227
1.20395e-05;0.001389036739061751
1.20398e-05;0.0014089230022422752
1.20400e-05;0.0014288092654226644
1.20403e-05;0.001446305515260351
1.20405e-05;0.0014601511620142582
1.20408e-05;0.0014739968087681655
1.20410e-05;0.001487842455521979
1.20413e-05;0.001501688102275886
1.20415e-05;0.0015155337490297932
1.20418e-05;0.0015293793957836066
1.20420e-05;0.001543225042537514
1.20423e-05;0.001557070689291421
1.20425e-05;0.0015709163360452345
1.20428e-05;0.0015845978461658825
1.20430e-05;0.0015980286473516274
1.20433e-05;0.001611459448537281
1.20435e-05;0.0016248902497230258
1.20438e-05;0.0016383210509087706
1.20440e-05;0.0016517518520944244
1.20443e-05;0.0016651826532801692
1.20445e-05;0.001678613454465914
1.20448e-05;0.0016920442556515678
1.20450e-05;0.0017054750568373126
1.20453e-05;0.0017189058580230573
1.20455e-05;0.0017323366592087112
1.20458e-05;0.001745767460394456
1.20460e-05;0.0017591982615802007
1.20463e-05;0.0017734473829305103
1.20465e-05;0.0017877918374320243
1.20468e-05;0.0018021362919335383
1.20470e-05;0.0018164807464349554
1.20473e-05;0.0018308252009364694
1.20475e-05;0.0018451696554379834
1.20477e-05;0.0018595141099394003
1.20480e-05;0.0018738585644409143
1.20483e-05;0.0018882030189424285
1.20485e-05;0.0019025474734438454
1.20488e-05;0.0019168919279453594
1.20490e-05;0.0019312363824468735
1.20493e-05;0.0019455808369483877
1.20495e-05;0.0019575437054013566
1.20498e-05;0.00196586884295984
1.20500e-05;0.001974193980518323
1.20503e-05;0.00198251911807675
1.20505e-05;0.0019908442556352338
1.20508e-05;0.001999169393193717
1.20510e-05;0.002007494530752144
1.20513e-05;0.002015819668310627
1.20515e-05;0.0020241448058691104
1.20518e-05;0.0020324699434275373
1.20520e-05;0.0020407950809860206
1.20523e-05;0.002049120218544504
1.20525e-05;0.0020574453561029308
1.20528e-05;0.002065770493661414
1.20530e-05;0.0020740956312198973
1.20533e-05;0.002082420768778324
1.20535e-05;0.0020850185000778135
1.20538e-05;0.0020869489965830057
1.20540e-05;0.0020888794930881845
1.20543e-05;0.0020908099895933768
1.20545e-05;0.002092740486098569
1.20548e-05;0.002094670982603748
1.20550e-05;0.00209660147910894
1.20553e-05;0.0020985319756141323
1.20555e-05;0.002100462472119311
1.20558e-05;0.0021023929686245033
1.20560e-05;0.002104323465129695
1.20562e-05;0.0021062539616348744
1.20565e-05;0.002108184458140066
1.20568e-05;0.0021101149546452584
1.20570e-05;0.0021120454511504376
1.20573e-05;0.002112900493507878
1.20575e-05;0.002112112843684395
1.20578e-05;0.0021113251938609124
1.20580e-05;0.0021105375440374345
1.20583e-05;0.0021097498942139518
1.20585e-05;0.002108962244390469
1.20588e-05;0.002108174594566991
1.20590e-05;0.0021073869447435084
1.20593e-05;0.0021065992949200257
1.20595e-05;0.0021058116450965478
1.20598e-05;0.002105023995273065
1.20600e-05;0.0021042363454495823
1.20603e-05;0.0021034486956261044
1.20605e-05;0.0021026610458026217
1.20608e-05;0.002101873395979139
1.20610e-05;0.002101085746155661
1.20613e-05;0.0021002980963321784
1.20615e-05;0.0020995104465086956
1.20618e-05;0.0020987227966852177
1.20620e-05;0.002097935146861735
1.20623e-05;0.0020971474970382523
1.20625e-05;0.0020963598472147744
1.20628e-05;0.002092510106490338
1.20630e-05;0.0020883036364714343
1.20633e-05;0.002084097166452559
1.20635e-05;0.002079890696433655
1.20638e-05;0.002075684226414751
1.20640e-05;0.002071477756395876
1.20643e-05;0.002067271286376972
1.20645e-05;0.0020630648163580683
1.20647e-05;0.002058858346339193
1.20650e-05;0.002054651876320289
1.20653e-05;0.0020504454063013855
1.20655e-05;0.00204623893628251
1.20658e-05;0.0020420324662636063
1.20660e-05;0.0020378259962447022
1.20663e-05;0.0020336195262257986
1.20665e-05;0.002029413056206923
1.20668e-05;0.0020252065861880194
1.20670e-05;0.002021000116169116
1.20673e-05;0.0020167936461502403
1.20675e-05;0.0020125871761313367
1.20678e-05;0.0020083807061124326
1.20680e-05;0.002003753981352788
1.20683e-05;0.0019984853424972557
1.20685e-05;0.001993216703641723
1.20688e-05;0.001987948064786226
1.20690e-05;0.0019826794259306937
1.20693e-05;0.001977410787075161
1.20695e-05;0.001972142148219664
1.20698e-05;0.0019668735093641312
1.20700e-05;0.001961604870508599
1.20703e-05;0.001956336231653102
1.20705e-05;0.0019509316380137587
1.20708e-05;0.001945511205832808
1.20710e-05;0.0019400907736518943
1.20713e-05;0.0019346703414709438
1.20715e-05;0.0019292499092899932
1.20718e-05;0.0019238294771090794
1.20720e-05;0.001918409044928129
1.20723e-05;0.0019129886127471785
1.20725e-05;0.0019075681805662647
1.20728e-05;0.001899674659535777
1.20730e-05;0.001888003642527028
1.20732e-05;0.0018763326255183581
1.20735e-05;0.0018646616085096093
1.20738e-05;0.0018529905915008603
1.20740e-05;0.0018413195744921905
1.20743e-05;0.0018296485574834415
1.20745e-05;0.0018179775404746927
1.20748e-05;0.0018063065234659437
1.20750e-05;0.0017946355064572738
1.20753e-05;0.001782964489448525
1.20755e-05;0.001768890371618777
1.20758e-05;0.0017511456603573159
1.20760e-05;0.0017334009490957347
1.20763e-05;0.0017156562378341533
1.20765e-05;0.0016979115265726924
1.20768e-05;0.001680166815311111
1.20770e-05;0.0016624221040495298
1.20773e-05;0.0016446773927880688
1.20775e-05;0.0016269326815264874
1.20778e-05;0.0016091879702649062
1.20780e-05;0.001591443259003445
1.20783e-05;0.0015739066797077232
1.20785e-05;0.0015566880095984363
1.20788e-05;0.001539469339489266
1.20790e-05;0.0015222506693799791
1.20793e-05;0.0015050319992706922
1.20795e-05;0.001487813329161522
1.20798e-05;0.001470594659052235
1.20800e-05;0.0014533759889429482
1.20803e-05;0.001437733067846466
1.20805e-05;0.0014244970095526241
1.20808e-05;0.0014112609512587824
1.20810e-05;0.0013980248929650304
1.20813e-05;0.0013847888346711886
1.20815e-05;0.0013715527763773468
1.20817e-05;0.0013583167180835948
1.20820e-05;0.001345080659789753
1.20823e-05;0.0013305178213224244
1.20825e-05;0.0013139284051315548
1.20828e-05;0.001297338988940573
1.20830e-05;0.001280749572749591
1.20833e-05;0.0012641601565586092
1.20835e-05;0.00124757074036774
1.20838e-05;0.001230981324176758
1.20840e-05;0.0012143919079857762
1.20843e-05;0.0011978024917949066
1.20845e-05;0.0011812130756039248
1.20848e-05;0.001164623659412943
1.20850e-05;0.0011424912850441081
1.20853e-05;0.0011197131638217652
1.20855e-05;0.0010969350425994225
1.20858e-05;0.0010741569213772342
1.20860e-05;0.0010513788001548913
1.20863e-05;0.0010286006789325486
1.20865e-05;0.0010058225577103603
1.20868e-05;0.0009830444364880174
1.20870e-05;0.0009602663152656747
1.20873e-05;0.0009374881940434862
1.20875e-05;0.0009141384069923647
1.20878e-05;0.0008899154344223775
1.20880e-05;0.0008656924618525545
1.20883e-05;0.0008414694892825673
1.20885e-05;0.0008172465167125802
1.20888e-05;0.0007930235441427571
1.20890e-05;0.0007700427557710042
1.20893e-05;0.0007489593298077067
1.20895e-05;0.0007278759038445522
1.20898e-05;0.0007067924778812547
1.20900e-05;0.0006857090519179572
1.20902e-05;0.0006646256259548025
1.20905e-05;0.0006454464241261657
1.20908e-05;0.0006291758112940068
1.20910e-05;0.0006129051984619583
1.20913e-05;0.0005978290127045555
1.20915e-05;0.0005845772431929055
1.20918e-05;0.0005713254736812555
1.20920e-05;0.0005589913840495968
1.20923e-05;0.0005480589957998121
1.20925e-05;0.0005371266075500274
1.20928e-05;0.0005273078254466779
1.20930e-05;0.000519190010432703
1.20933e-05;0.0005110721954187281
1.20935e-05;0.0005037152471099577
1.20938e-05;0.0004975204773946882
1.20940e-05;0.0004913257076794189
1.20943e-05;0.0004858622913658471
1.20945e-05;0.00048151597383182254
1.20948e-05;0.000477169656297798
1.20950e-05;0.0004738945361853257
1.20953e-05;0.00047225560636004663
1.20955e-05;0.00047061667653476753
1.20958e-05;0.00046897774670949955
1.20960e-05;0.00046733881688422045
1.20963e-05;0.00046569988705894136
1.20965e-05;0.0004640609572336734
1.20968e-05;0.0004624220274083943
1.20970e-05;0.00046287329308499745
1.20973e-05;0.0004635680636061679
1.20975e-05;0.000464262834127343
1.20978e-05;0.00046495760464851816
1.20980e-05;0.00046565237516968855
1.20983e-05;0.0004663471456908637
1.20985e-05;0.0004670419162120388
1.20987e-05;0.00046803125015242166
1.20990e-05;0.0004694705121787217
1.20993e-05;0.00047090977420502175
1.20995e-05;0.000472349036231312
1.20998e-05;0.0004737882982576121
1.21000e-05;0.0004752275602839121
1.21003e-05;0.00047669752934985767
1.21005e-05;0.0004782144015906987
1.21008e-05;0.00047973127383155005
1.21010e-05;0.00048124814607240134
1.21013e-05;0.0004827650183132424
1.21015e-05;0.0004842818905540937
1.21018e-05;0.0004867049390499941
1.21020e-05;0.0004905121178260586
1.21023e-05;0.000494319296602149
1.21025e-05;0.000498864538267982
1.21028e-05;0.0005045371270571582
1.21030e-05;0.0005102097158463729
1.21033e-05;0.0005168060645091815
1.21035e-05;0.0005248134013826883
1.21038e-05;0.0005328207382562495
1.21040e-05;0.0005418239658395098
1.21043e-05;0.0005523483571913271
1.21045e-05;0.0005628727485432157
1.21048e-05;0.0005746789109504971
1.21050e-05;0.0005884429023345056
1.21053e-05;0.0006022068937186075
1.21055e-05;0.0006159708851027092
1.21058e-05;0.0006297348764867177
1.21060e-05;0.0006434988678708194
1.21063e-05;0.0006572628592549212
1.21065e-05;0.0006721545249958992
1.21068e-05;0.0006887686461812488
1.21070e-05;0.0007053827673665984
1.21072e-05;0.0007219968885518353
1.21075e-05;0.0007386110097371849
1.21078e-05;0.0007552251309225345
1.21080e-05;0.0007718392521077715
1.21083e-05;0.0007881994710391796
1.21085e-05;0.0008041718693937185
1.21088e-05;0.0008201442677482573
1.21090e-05;0.0008361166661026879
1.21093e-05;0.0008520890644572268
1.21095e-05;0.0008680614628117656
1.21098e-05;0.0008840338611661963
1.21100e-05;0.000898508764931954
1.21103e-05;0.0009106963348662966
1.21105e-05;0.0009228839048005566
1.21108e-05;0.0009350714747348992
1.21110e-05;0.0009472590446692418
1.21113e-05;0.0009594466146035017
1.21115e-05;0.0009716341845378444
1.21118e-05;0.000985594145059833
1.21120e-05;0.0010022613266856824
1.21123e-05;0.0010189285083116446
1.21125e-05;0.0010355956899376069
1.21128e-05;0.0010522628715634562
1.21130e-05;0.0010689300531894184
1.21133e-05;0.0010855972348153807
1.21135e-05;0.00110226441644123
1.21138e-05;0.0011189315980671922
1.21140e-05;0.0011355987796931545
1.21143e-05;0.0011522659613190038
1.21145e-05;0.001168933142944966
1.21148e-05;0.0011938947889666937
1.21150e-05;0.001219822728459241
1.21153e-05;0.0012457506679519643
1.21155e-05;0.0012716786074446875
1.21158e-05;0.001297606546937235
1.21160e-05;0.0013235344864299583
1.21163e-05;0.0013494624259226815
1.21165e-05;0.001375390365415229
1.21168e-05;0.001401318304907952
1.21170e-05;0.0014272462444006755
1.21173e-05;0.0014531741838933986
1.21175e-05;0.0014799999310044299
1.21178e-05;0.0015081970258025179
1.21180e-05;0.001536394120600606
1.21183e-05;0.001564591215398503
1.21185e-05;0.001592788310196591
1.21188e-05;0.0016209854049946792
1.21190e-05;0.0016491824997925762
1.21193e-05;0.0016773795945906644
1.21195e-05;0.0017001410341345544
1.21198e-05;0.0017222692274631822
1.21200e-05;0.0017443974207919603
1.21203e-05;0.0017665256141207381
1.21205e-05;0.0017886538074493661
1.21208e-05;0.0018107820007781442
1.21210e-05;0.001832910194106922
1.21213e-05;0.001851327080770345
1.21215e-05;0.001864075167452078
1.21218e-05;0.0018768232541338107
1.21220e-05;0.001889571340815457
1.21223e-05;0.00190231942749719
1.21225e-05;0.0019150675141789226
1.21228e-05;0.001927815600860569
1.21230e-05;0.0019405636875423017
1.21233e-05;0.0019533117742240344
1.21235e-05;0.001966059860905681
1.21238e-05;0.001978807947587414
1.21240e-05;0.0019915560342691463
1.21243e-05;0.002004304120950793
1.21245e-05;0.0020147740027587915
1.21248e-05;0.0020217640622526172
1.21250e-05;0.0020287541217463958
1.21253e-05;0.002035744181240222
1.21255e-05;0.0020427342407340478
1.21258e-05;0.002049724300227874
1.21260e-05;0.0020567143597216525
1.21263e-05;0.0020637044192154783
1.21265e-05;0.0020706944787093045
1.21268e-05;0.002077684538203083
1.21270e-05;0.0020846745976969092
1.21273e-05;0.002091664657190735
1.21275e-05;0.0020986547166845135
1.21278e-05;0.002104705870648478
1.21280e-05;0.002109322902312138
1.21283e-05;0.002113939933975767
1.21285e-05;0.002118556965639427
1.21288e-05;0.0021231739973030872
1.21290e-05;0.002127791028966716
1.21293e-05;0.0021324080606303763
1.21295e-05;0.0021370250922940364
1.21298e-05;0.002140583571695792
1.21300e-05;0.002142525175537054
1.21303e-05;0.002144466779378315
1.21305e-05;0.002146408383219564
1.21308e-05;0.002148349987060826
1.21310e-05;0.002150291590902087
1.21313e-05;0.002152233194743336
1.21315e-05;0.0021541747985845978
1.21318e-05;0.0021497189816286726
1.21320e-05;0.002135491485266713
1.21323e-05;0.0021212639889046565
1.21325e-05;0.0021070364925426
1.21328e-05;0.0020928089961806404
1.21330e-05;0.002078581499818584
1.21333e-05;0.0020643540034565276
1.21335e-05;0.0020501265070945675
1.21338e-05;0.002035899010732511
1.21340e-05;0.002021671514370455
1.21343e-05;0.0019878591535461153
1.21345e-05;0.0019517651834718686
1.21348e-05;0.0019156712133973775
1.21350e-05;0.0018795772433228863
1.21353e-05;0.0018434832732486398
1.21355e-05;0.0018073893031741485
1.21358e-05;0.0017712953330996574
1.21360e-05;0.001735201363025411
1.21363e-05;0.0016991073929509197
1.21365e-05;0.0016585225738687181
1.21368e-05;0.0016110782502832476
1.21370e-05;0.0015636339266974556
1.21373e-05;0.0015161896031116635
1.21375e-05;0.001468745279526193
1.21378e-05;0.001421300955940401
1.21380e-05;0.001372875601106158
1.21383e-05;0.0013243359575072586
1.21385e-05;0.0012757963139080303
1.21388e-05;0.0012272566703088017
1.21390e-05;0.0011787170267099022
1.21393e-05;0.0011317474661493012
1.21395e-05;0.0010871761139580318
1.21398e-05;0.0010426047617670643
1.21400e-05;0.0009998187398895994
1.21403e-05;0.0009597597037800029
1.21405e-05;0.0009217065820035604
1.21408e-05;0.000886717374951866
1.21410e-05;0.0008538040482228277
1.21413e-05;0.0008240615051030921
1.21415e-05;0.0007943189619831549
1.21418e-05;0.0007655077019607905
1.21420e-05;0.0007381189214279505
1.21423e-05;0.0007107301408949248
1.21425e-05;0.0006847529245893726
1.21427e-05;0.000660931788606663
1.21430e-05;0.0006371106526237919
1.21433e-05;0.0006141417367882048
1.21435e-05;0.0005924745364923294
1.21438e-05;0.0005708073361966007
1.21440e-05;0.000550018672432521
1.21443e-05;0.0005305719209188382
1.21445e-05;0.0005111251694052873
1.21448e-05;0.0004916784178916045
1.21450e-05;0.0004722316663779218
1.21453e-05;0.0004527849148643708
1.21455e-05;0.0004333381633506881
1.21458e-05;0.00041389141183700536
1.21460e-05;0.00039444466032345437
1.21463e-05;0.0003775374195836292
1.21465e-05;0.00036092602828866245
1.21468e-05;0.0003443146369938083
1.21470e-05;0.0003277032456988416
1.21473e-05;0.00031109185440387485
1.21475e-05;0.0002944804631090207
