Time(s);Current(A)
1.33000e-05;-0.011592499303036657
1.33003e-05;-0.011614148944021343
1.33005e-05;-0.011635798585006176
1.33008e-05;-0.01165744822599101
1.33010e-05;-0.011679097866975695
1.33013e-05;-0.011700747507960529
1.33015e-05;-0.01171651494561129
1.33018e-05;-0.01173215650825185
1.33020e-05;-0.011747798070892518
1.33023e-05;-0.011755784376743404
1.33025e-05;-0.011763606865488422
1.33028e-05;-0.011771429354233493
1.33030e-05;-0.011769041693244954
1.33033e-05;-0.011766435542240328
1.33035e-05;-0.011763829391235683
1.33038e-05;-0.011746526651405487
1.33040e-05;-0.011728909414921404
1.33043e-05;-0.011711292178437202
1.33045e-05;-0.011693674941953
1.33048e-05;-0.011676057705468796
1.33050e-05;-0.011649155698851912
1.33053e-05;-0.011612156792933098
1.33055e-05;-0.011575157887014282
1.33058e-05;-0.011538158981095718
1.33060e-05;-0.011501160075176903
1.33063e-05;-0.011464161169258089
1.33065e-05;-0.01141253944274457
1.33068e-05;-0.011360604798164682
1.33070e-05;-0.011308670153584794
1.33073e-05;-0.011256735509005258
1.33075e-05;-0.01120480086442537
1.33078e-05;-0.011144609411293504
1.33080e-05;-0.011084241268271853
1.33083e-05;-0.011023873125249793
1.33085e-05;-0.010963504982227732
1.33088e-05;-0.01090313683920608
1.33090e-05;-0.010840468016000034
1.33093e-05;-0.010777749959857703
1.33095e-05;-0.010715341007465944
1.33098e-05;-0.010653612497615515
1.33100e-05;-0.010592893192434014
1.33103e-05;-0.010533447090735037
1.33105e-05;-0.010475545943588538
1.33108e-05;-0.010419542848318756
1.33110e-05;-0.010365830023056353
1.33113e-05;-0.010316313179500769
1.33115e-05;-0.010266885096498202
1.33118e-05;-0.010225711633702473
1.33120e-05;-0.0101847148139679
1.33123e-05;-0.010143717994233326
1.33125e-05;-0.01011044056195819
1.33128e-05;-0.010077328319140311
1.33130e-05;-0.010044216076322433
1.33133e-05;-0.010018777022566447
1.33135e-05;-0.009993502169654986
1.33138e-05;-0.009968227316743355
1.33140e-05;-0.00995482259959909
1.33143e-05;-0.009941671895004391
1.33145e-05;-0.009928521190409606
1.33148e-05;-0.009915370485814819
1.33150e-05;-0.009902219781220122
1.33153e-05;-0.009889069076625335
1.33155e-05;-0.009882123689449789
1.33158e-05;-0.009881926392344368
1.33160e-05;-0.009881729095238944
1.33163e-05;-0.009881531798133522
1.33165e-05;-0.009881334501028101
1.33168e-05;-0.009881137203922679
1.33170e-05;-0.009880939906817255
1.33173e-05;-0.009889701189686339
1.33175e-05;-0.009898654179860642
1.33178e-05;-0.009907607170034943
1.33180e-05;-0.009916560160209184
1.33183e-05;-0.009925513150383486
1.33185e-05;-0.009934466140557787
1.33188e-05;-0.009943419130732028
1.33190e-05;-0.009953996877265147
1.33193e-05;-0.009966341495903502
1.33195e-05;-0.009978686114541776
1.33198e-05;-0.009991030733180133
1.33200e-05;-0.01000337535181849
1.33203e-05;-0.010015719970456761
1.33205e-05;-0.010028064589095118
1.33208e-05;-0.010040409207733475
1.33210e-05;-0.010048117239726248
1.33213e-05;-0.010055726052028605
1.33215e-05;-0.010063334864330961
1.33218e-05;-0.010070943676633318
1.33220e-05;-0.010078552488935622
1.33223e-05;-0.010086161301237977
1.33225e-05;-0.010093770113540334
1.33228e-05;-0.010101378925842638
1.33230e-05;-0.010108987738144995
1.33233e-05;-0.010116596550447351
1.33235e-05;-0.0101166283089057
1.33238e-05;-0.010116497923745254
1.33240e-05;-0.010116367538584808
1.33243e-05;-0.010116237153424362
1.33245e-05;-0.010116106768263916
1.33248e-05;-0.01011597638310347
1.33250e-05;-0.010115845997943025
1.33253e-05;-0.010115715612782579
1.33255e-05;-0.010115585227622131
1.33258e-05;-0.010115454842461687
1.33260e-05;-0.010109566738892755
1.33263e-05;-0.010103555424202642
1.33265e-05;-0.010097544109512569
1.33268e-05;-0.010091532794822456
1.33270e-05;-0.010085521480132344
1.33273e-05;-0.01007951016544227
1.33275e-05;-0.010073498850752158
1.33278e-05;-0.010067487536062045
1.33280e-05;-0.010061476221371973
1.33283e-05;-0.01005546490668186
1.33285e-05;-0.010047339832954869
1.33288e-05;-0.010039169526272337
1.33290e-05;-0.01003099921958975
1.33293e-05;-0.010022828912907164
1.33295e-05;-0.010014658606224632
1.33298e-05;-0.010006488299542045
1.33300e-05;-0.00999831799285946
1.33303e-05;-0.009990147686176872
1.33305e-05;-0.009981977379494342
1.33308e-05;-0.009973807072811754
1.33310e-05;-0.009966642067568537
1.33313e-05;-0.009959498575068598
1.33315e-05;-0.00995235508256861
1.33318e-05;-0.009945211590068623
1.33320e-05;-0.009938068097568684
1.33323e-05;-0.009930924605068697
1.33325e-05;-0.00992378111256871
1.33328e-05;-0.0099151550365839
1.33330e-05;-0.009904916697080293
1.33333e-05;-0.009894678357576686
1.33335e-05;-0.00988444001807315
1.33338e-05;-0.009874201678569543
1.33340e-05;-0.009863963339065937
1.33343e-05;-0.009853724999562401
1.33345e-05;-0.009843486660058794
1.33348e-05;-0.00982782833207011
1.33350e-05;-0.009812054020142569
1.33353e-05;-0.00979627970821492
1.33355e-05;-0.00978050539628727
1.33358e-05;-0.00976473108435973
1.33360e-05;-0.009748956772432081
1.33363e-05;-0.009731175269640619
1.33365e-05;-0.009711211009090108
1.33368e-05;-0.009691246748539462
1.33370e-05;-0.009671282487988816
1.33373e-05;-0.009651318227438305
1.33375e-05;-0.00963135396688766
1.33378e-05;-0.009611389706337015
1.33380e-05;-0.00958962517119812
1.33383e-05;-0.00956782211144988
1.33385e-05;-0.009546019051701639
1.33388e-05;-0.009524215991953399
1.33390e-05;-0.009502412932205306
1.33393e-05;-0.009480609872457064
1.33395e-05;-0.009458806812708824
1.33398e-05;-0.009438952552457105
1.33400e-05;-0.00941913999514298
1.33403e-05;-0.009399327437828857
1.33405e-05;-0.009379514880514868
1.33408e-05;-0.009359702323200745
1.33410e-05;-0.009339889765886622
1.33413e-05;-0.009320077208572633
1.33415e-05;-0.009304346435966586
1.33418e-05;-0.00928870301068077
1.33420e-05;-0.009273059585395059
1.33423e-05;-0.00925851549960187
1.33425e-05;-0.009243994938900183
1.33428e-05;-0.009229474378198594
1.33430e-05;-0.009214150208534094
1.33433e-05;-0.009198808842203312
1.33435e-05;-0.009183467475872632
1.33438e-05;-0.009168036752115577
1.33440e-05;-0.009152604116172481
1.33443e-05;-0.009137171480229491
1.33445e-05;-0.009119772312247398
1.33448e-05;-0.009102331061863544
1.33450e-05;-0.009084889811479807
1.33453e-05;-0.009067448561095953
1.33455e-05;-0.0090500073107121
1.33458e-05;-0.00903061770371147
1.33460e-05;-0.009011186403250179
1.33463e-05;-0.008991755102788886
1.33465e-05;-0.008972323802327726
1.33468e-05;-0.008952892501866433
1.33470e-05;-0.008931905835101756
1.33473e-05;-0.008910885884592684
1.33475e-05;-0.008889865934083755
1.33478e-05;-0.008868588397116305
1.33480e-05;-0.008847305347979905
1.33483e-05;-0.008825919264260297
1.33485e-05;-0.008804530975672966
1.33488e-05;-0.00878304102021799
1.33490e-05;-0.008761548889163735
1.33493e-05;-0.008740254620981784
1.33495e-05;-0.008719256366277156
1.33498e-05;-0.008698677405589335
1.33500e-05;-0.008678603308780636
1.33503e-05;-0.008659042234125834
1.33505e-05;-0.008639994318209773
1.33508e-05;-0.00862153615311185
1.33510e-05;-0.008603789736831128
1.33513e-05;-0.008586877092137096
1.33515e-05;-0.008570920222286796
1.33518e-05;-0.008556042042348092
1.33520e-05;-0.008542412901045477
1.33523e-05;-0.00853029260734828
1.33525e-05;-0.008519901831428823
1.33528e-05;-0.00851131082849735
1.33530e-05;-0.008504519179804168
1.33533e-05;-0.008499524110893697
1.33535e-05;-0.008496321004177361
1.33538e-05;-0.008495799689115317
1.33540e-05;-0.008495334959150582
1.33543e-05;-0.00849858357733347
1.33545e-05;-0.008501911658553869
1.33548e-05;-0.008509862162962593
1.33550e-05;-0.008517911583974958
1.33553e-05;-0.008525961004987377
1.33555e-05;-0.008540459661468951
1.33557e-05;-0.008555096327051509
1.33560e-05;-0.008569732992634166
1.33563e-05;-0.008584369658216823
1.33565e-05;-0.00859900632379948
1.33568e-05;-0.008620068517778846
1.33570e-05;-0.008641268213544818
1.33573e-05;-0.00866246790931079
1.33575e-05;-0.008683667605076618
1.33578e-05;-0.00870486730084259
1.33580e-05;-0.008729288726943254
1.33583e-05;-0.008753779095806035
1.33585e-05;-0.00877826946466898
1.33588e-05;-0.008803846407677817
1.33590e-05;-0.008829446602608674
1.33593e-05;-0.008855046797539705
1.33595e-05;-0.008880353389498729
1.33598e-05;-0.008905653698560561
1.33600e-05;-0.008930954007622565
1.33603e-05;-0.008955013342632092
1.33605e-05;-0.008979046121669882
1.33608e-05;-0.008998141707518923
1.33610e-05;-0.009017131640907497
1.33613e-05;-0.009036121574295942
1.33615e-05;-0.009055111507684515
1.33618e-05;-0.009074101441073089
1.33620e-05;-0.009093091374461534
1.33623e-05;-0.009112081307850108
1.33625e-05;-0.00912604690502044
1.33628e-05;-0.009139904984930624
1.33630e-05;-0.009153763064840902
1.33633e-05;-0.00916762114475118
1.33635e-05;-0.009181479224661365
1.33638e-05;-0.009195337304571644
1.33640e-05;-0.009209195384481922
1.33642e-05;-0.009223053464392107
1.33645e-05;-0.009236911544302385
1.33648e-05;-0.009249620844330186
1.33650e-05;-0.009262305561276734
1.33653e-05;-0.009274990278223197
1.33655e-05;-0.009287674995169746
1.33658e-05;-0.009300359712116294
1.33660e-05;-0.009313044429062757
1.33663e-05;-0.009325729146009307
1.33665e-05;-0.009338413862955855
1.33668e-05;-0.009351098579902318
1.33670e-05;-0.009363684010819693
1.33673e-05;-0.009376267317085895
1.33675e-05;-0.009388850623352011
1.33678e-05;-0.009401433929618213
1.33680e-05;-0.009414017235884415
1.33683e-05;-0.009426600542150531
1.33685e-05;-0.009439183848416733
1.33688e-05;-0.009451767154682936
1.33690e-05;-0.009464350460949053
1.33693e-05;-0.009474747347015703
1.33695e-05;-0.009485097445228262
1.33698e-05;-0.009495447543440753
1.33700e-05;-0.009505797641653312
1.33703e-05;-0.009516147739865873
1.33705e-05;-0.009526497838078362
1.33708e-05;-0.009536847936290923
1.33710e-05;-0.009547198034503483
1.33713e-05;-0.009557548132715973
1.33715e-05;-0.009565124655441216
1.33718e-05;-0.009572641825602225
1.33720e-05;-0.009579693972422481
1.33723e-05;-0.009586736168070436
1.33725e-05;-0.00959692091851001
1.33727e-05;-0.009607172917411307
1.33730e-05;-0.009621966036399839
1.33733e-05;-0.00963685633216365
1.33735e-05;-0.009651746627927461
1.33738e-05;-0.009671133061128354
1.33740e-05;-0.009690615708507594
1.33743e-05;-0.009710098355886832
1.33745e-05;-0.009739430228015461
1.33748e-05;-0.009768972866625269
1.33750e-05;-0.009798515505235075
1.33753e-05;-0.009828058143844682
1.33755e-05;-0.009857600782454488
1.33758e-05;-0.009887143421064296
1.33760e-05;-0.009927603470391153
1.33763e-05;-0.00996829714462769
1.33765e-05;-0.010008990818864225
1.33768e-05;-0.010049684493100485
1.33770e-05;-0.010090378167337022
1.33773e-05;-0.010131071841573558
1.33775e-05;-0.010178554530937124
1.33778e-05;-0.01022618250044904
1.33780e-05;-0.010273810469960959
1.33783e-05;-0.010321438439472553
1.33785e-05;-0.010369066408984471
1.33788e-05;-0.01041669437849639
1.33790e-05;-0.010464322348007983
1.33793e-05;-0.010510248227886132
1.33795e-05;-0.010556137684243405
1.33798e-05;-0.01060202714060037
1.33800e-05;-0.010647916596957645
1.33803e-05;-0.010693806053314919
1.33805e-05;-0.010739695509671883
1.33808e-05;-0.010785584966029157
1.33810e-05;-0.010817121336948784
1.33812e-05;-0.010848350561935926
1.33815e-05;-0.010879579786923282
1.33818e-05;-0.010910809011910636
1.33820e-05;-0.01094203823689799
1.33823e-05;-0.010973267461885133
1.33825e-05;-0.011004496686872488
1.33828e-05;-0.011035725911859843
1.33830e-05;-0.011046053933352673
1.33833e-05;-0.011055934683792743
1.33835e-05;-0.011065815434232813
1.33838e-05;-0.011075696184672815
1.33840e-05;-0.011085576935112884
1.33843e-05;-0.011095457685552954
1.33845e-05;-0.011105338435992956
1.33848e-05;-0.011115219186433026
1.33850e-05;-0.011107017603051147
1.33853e-05;-0.011098429070444438
1.33855e-05;-0.01108984053783767
1.33858e-05;-0.0110812520052309
1.33860e-05;-0.011072663472624191
1.33863e-05;-0.011064074940017423
1.33865e-05;-0.011055486407410654
1.33868e-05;-0.011041005612266818
1.33870e-05;-0.011020117164505263
1.33873e-05;-0.01099922871674371
1.33875e-05;-0.010978340268982296
1.33878e-05;-0.01095745182122074
1.33880e-05;-0.010936563373459187
1.33883e-05;-0.010915674925697774
1.33885e-05;-0.010894786477936218
1.33888e-05;-0.010869591002229829
1.33890e-05;-0.010844303359155011
1.33893e-05;-0.010819015716080021
1.33895e-05;-0.010793728073005032
1.33897e-05;-0.010768440429930214
1.33900e-05;-0.010743152786855224
1.33903e-05;-0.010717865143780236
1.33905e-05;-0.01069481312452567
1.33908e-05;-0.010674192276784048
1.33910e-05;-0.010653571429042285
1.33913e-05;-0.010632950581300522
1.33915e-05;-0.010612329733558898
1.33918e-05;-0.010591708885817137
1.33920e-05;-0.010571088038075374
1.33923e-05;-0.01055046719033375
1.33925e-05;-0.010540249961132933
1.33928e-05;-0.010530255362051698
1.33930e-05;-0.010520260762970532
1.33933e-05;-0.010510266163889299
1.33935e-05;-0.010500271564808065
1.33938e-05;-0.0104902769657269
1.33940e-05;-0.010480282366645664
1.33943e-05;-0.01047028776756443
1.33945e-05;-0.010460293168483265
1.33948e-05;-0.010450298569402031
1.33950e-05;-0.010445186372053683
1.33953e-05;-0.010445383635044724
1.33955e-05;-0.010445580898035767
1.33958e-05;-0.01044577816102681
1.33960e-05;-0.01044597542401785
1.33963e-05;-0.010446172687008893
1.33965e-05;-0.010446369949999937
1.33968e-05;-0.010446567212990978
1.33970e-05;-0.01044676447598202
1.33973e-05;-0.010446961738973063
1.33975e-05;-0.010447159001964103
1.33978e-05;-0.010452342003749518
1.33980e-05;-0.010457631696838611
1.33983e-05;-0.010462921389927667
1.33985e-05;-0.01046821108301676
1.33988e-05;-0.010473500776105852
1.33990e-05;-0.010478790469194945
1.33993e-05;-0.010484080162284002
1.33995e-05;-0.010489369855373094
1.33998e-05;-0.010494603018736105
1.34000e-05;-0.01049977470777659
1.34003e-05;-0.010504946396817112
1.34005e-05;-0.010510118085857632
1.34008e-05;-0.010515289774898118
1.34010e-05;-0.010520461463938638
1.34013e-05;-0.010525633152979158
1.34015e-05;-0.010530804842019644
1.34018e-05;-0.010535976531060165
1.34020e-05;-0.010541574387204192
1.34023e-05;-0.010547181363024483
1.34025e-05;-0.010552788338844814
1.34028e-05;-0.010558395314665143
1.34030e-05;-0.010564002290485434
1.34033e-05;-0.010569609266305763
1.34035e-05;-0.010575216242126094
1.34038e-05;-0.010580823217946385
1.34040e-05;-0.010586430193766714
1.34043e-05;-0.010598148325993288
1.34045e-05;-0.010609997232669182
1.34048e-05;-0.010621846139345158
1.34050e-05;-0.010633695046021132
1.34053e-05;-0.010645543952697026
1.34055e-05;-0.010657392859373
1.34058e-05;-0.010669241766048975
1.34060e-05;-0.01068109067272487
1.34063e-05;-0.010692939579400844
1.34065e-05;-0.010710292909931259
1.34068e-05;-0.01072776403126115
1.34070e-05;-0.01074523515259116
1.34073e-05;-0.01076270627392117
1.34075e-05;-0.010780177395251183
1.34078e-05;-0.010797648516581073
1.34080e-05;-0.010815119637911085
1.34083e-05;-0.010832590759241095
1.34085e-05;-0.010850061880570985
1.34088e-05;-0.010867486085792025
1.34090e-05;-0.010884859271200769
1.34093e-05;-0.010902232456609394
1.34095e-05;-0.010919605642018135
1.34098e-05;-0.010936978827426879
1.34100e-05;-0.010954352012835504
1.34103e-05;-0.010971725198244247
1.34105e-05;-0.010989098383652989
1.34108e-05;-0.011006471569061614
1.34110e-05;-0.011023844754470357
1.34113e-05;-0.01103707681665015
1.34115e-05;-0.011050220261704751
1.34118e-05;-0.01106336370675944
1.34120e-05;-0.011071327156524473
1.34123e-05;-0.011079179758032735
1.34125e-05;-0.011087032359541053
1.34128e-05;-0.011085552884808413
1.34130e-05;-0.011083873710206384
1.34133e-05;-0.011082194535604346
1.34135e-05;-0.011066139605137103
1.34138e-05;-0.011049777043603347
1.34140e-05;-0.01103341448206948
1.34143e-05;-0.011017051920535613
1.34145e-05;-0.011000689359001857
1.34148e-05;-0.01098432679746799
1.34150e-05;-0.01094836213441373
1.34153e-05;-0.010911978000171043
1.34155e-05;-0.010875593865928112
1.34158e-05;-0.01083920973168518
1.34160e-05;-0.010802825597442247
1.34163e-05;-0.010766441463199562
1.34165e-05;-0.01071539538617836
1.34168e-05;-0.010664035553891525
1.34170e-05;-0.010612675721605038
1.34173e-05;-0.010561315889318204
1.34175e-05;-0.010509956057031368
1.34178e-05;-0.01045083598818263
1.34180e-05;-0.010391549855727758
1.34183e-05;-0.010332263723272886
1.34185e-05;-0.010272977590818414
1.34188e-05;-0.010213691458363542
1.34190e-05;-0.010152286278372533
1.34193e-05;-0.010090835752254671
1.34195e-05;-0.010030087320199567
1.34198e-05;-0.009969353912463742
1.34200e-05;-0.009909975455089195
1.34203e-05;-0.009851872437613991
1.34205e-05;-0.00979528781511516
1.34208e-05;-0.009740559647170919
1.34210e-05;-0.009688075280664775
1.34213e-05;-0.009638217606247897
1.34215e-05;-0.009591374868361596
1.34218e-05;-0.009547929957656002
1.34220e-05;-0.009510123005640336
1.34223e-05;-0.009472435175013626
1.34225e-05;-0.009442438921620078
1.34228e-05;-0.009412607262571282
1.34230e-05;-0.009390719752256693
1.34233e-05;-0.009369002241139235
1.34235e-05;-0.00935769456623943
1.34238e-05;-0.00934660965451555
1.34240e-05;-0.009335524742791593
1.34243e-05;-0.009336961420337624
1.34245e-05;-0.009338666051090036
1.34248e-05;-0.009340370681842436
1.34250e-05;-0.009358152382461203
1.34253e-05;-0.009376278121071125
1.34255e-05;-0.009394403859680923
1.34258e-05;-0.009412529598290843
1.34260e-05;-0.009430655336900764
1.34263e-05;-0.009457076935679664
1.34265e-05;-0.009492520024904784
1.34268e-05;-0.009527963114129902
1.34270e-05;-0.009563406203354781
1.34273e-05;-0.0095988492925799
1.34275e-05;-0.009634292381805019
1.34278e-05;-0.009680602185931206
1.34280e-05;-0.009727144530116227
1.34283e-05;-0.00977368687430125
1.34285e-05;-0.009820229218485957
1.34288e-05;-0.009866771562670979
1.34290e-05;-0.009913313906856002
1.34293e-05;-0.00996021056213137
1.34295e-05;-0.010007492519721032
1.34298e-05;-0.010054774477310695
1.34300e-05;-0.010102056434900038
1.34303e-05;-0.010149338392489701
1.34305e-05;-0.010196620350079363
1.34308e-05;-0.010243902307668706
1.34310e-05;-0.010274479750764124
1.34313e-05;-0.01030469972899369
1.34315e-05;-0.010334919707223052
1.34318e-05;-0.010365139685452617
1.34320e-05;-0.010395359663682184
1.34323e-05;-0.010425579641911546
1.34325e-05;-0.010455799620141112
1.34328e-05;-0.010486019598370677
1.34330e-05;-0.010516239576600243
1.34333e-05;-0.010546459554829605
1.34335e-05;-0.01057667953305917
1.34338e-05;-0.01058703663197617
1.34340e-05;-0.010596968679240246
1.34343e-05;-0.010606900726504387
1.34345e-05;-0.01061683277376853
1.34348e-05;-0.010626764821032605
1.34350e-05;-0.010636696868296748
1.34353e-05;-0.010646628915560891
1.34355e-05;-0.010656560962824965
1.34358e-05;-0.010666493010089107
1.34360e-05;-0.01067642505735325
1.34363e-05;-0.010686357104617326
1.34365e-05;-0.010684589340681384
1.34368e-05;-0.010682571209010885
1.34370e-05;-0.0106805530773404
1.34373e-05;-0.0106785349456699
1.34375e-05;-0.010676516813999401
1.34378e-05;-0.010674498682328917
1.34380e-05;-0.010672480550658418
1.34383e-05;-0.010670462418987918
1.34385e-05;-0.010668444287317433
1.34388e-05;-0.010666426155646934
1.34390e-05;-0.010662444117757897
1.34393e-05;-0.010656326392811364
1.34395e-05;-0.010650208667864789
1.34398e-05;-0.010644090942918214
1.34400e-05;-0.01063797321797168
1.34403e-05;-0.010631855493025106
1.34405e-05;-0.010625737768078531
1.34408e-05;-0.010619620043131998
1.34410e-05;-0.010613502318185423
1.34413e-05;-0.010607384593238848
1.34415e-05;-0.010601266868292273
1.34418e-05;-0.010595635008068425
1.34420e-05;-0.010590013545008046
1.34423e-05;-0.010584392081947667
1.34425e-05;-0.010572955482475966
1.34428e-05;-0.010561394443172934
1.34430e-05;-0.010549833403869904
1.34433e-05;-0.010538272364566953
1.34435e-05;-0.010526711325263923
1.34438e-05;-0.010515150285960891
1.34440e-05;-0.01050358924665794
1.34443e-05;-0.010481877151634391
1.34445e-05;-0.010459947831154249
1.34448e-05;-0.010438018510674255
1.34450e-05;-0.010416089190194112
1.34453e-05;-0.01039415986971397
1.34455e-05;-0.010372230549233976
1.34458e-05;-0.010350301228753835
1.34460e-05;-0.010319295997337935
1.34463e-05;-0.010288096547808132
1.34465e-05;-0.010256897098278117
1.34468e-05;-0.010225697648748103
1.34470e-05;-0.0101944981992183
1.34473e-05;-0.010163298749688285
