Time(s);Current(A)
6.75000e-06;-0.0006207366871907993
6.75025e-06;-0.000625764005253682
6.75050e-06;-0.0006307913233165819
6.75075e-06;-0.0006358186413794645
6.75100e-06;-0.0006408459594423473
6.75125e-06;-0.0006466108148053802
6.75150e-06;-0.000654438332692335
6.75175e-06;-0.0006622658505792898
6.75200e-06;-0.000670093368466271
6.75225e-06;-0.0006779208863532259
6.75250e-06;-0.0006857484042401806
6.75275e-06;-0.0006935759221271618
6.75300e-06;-0.0007014034400141167
6.75325e-06;-0.0007092494991428461
6.75350e-06;-0.000717101305146473
6.75375e-06;-0.0007249531111500734
6.75400e-06;-0.0007328049171536737
6.75425e-06;-0.0007406567231573007
6.75450e-06;-0.0007472034200690884
6.75475e-06;-0.0007533455972224672
6.75500e-06;-0.0007594877743758667
6.75525e-06;-0.0007656299515292455
6.75550e-06;-0.0007717721286826449
6.75575e-06;-0.0007779588072209987
6.75600e-06;-0.0007841592790043854
6.75625e-06;-0.0007903597507877933
6.75650e-06;-0.0007965602225711801
6.75675e-06;-0.0008027606943545669
6.75700e-06;-0.0008089611661379747
6.75725e-06;-0.0008151616379213615
6.75750e-06;-0.0008213621097047483
6.75775e-06;-0.0008280841043793564
6.75800e-06;-0.0008362646364359739
6.75825e-06;-0.0008444451684925914
6.75850e-06;-0.0008526257005492365
6.75875e-06;-0.000860806232605854
6.75900e-06;-0.0008689867646624716
6.75925e-06;-0.0008771672967191168
6.75950e-06;-0.0008853478287757343
6.75975e-06;-0.0008935283608323796
6.76000e-06;-0.000903173309055229
6.76025e-06;-0.0009132721544100514
6.76050e-06;-0.0009233709997649079
6.76075e-06;-0.0009334698451197303
6.76100e-06;-0.0009435686904745526
6.76125e-06;-0.0009536675358294092
6.76150e-06;-0.0009637663811842315
6.76175e-06;-0.0009738652265390539
6.76200e-06;-0.0009839640718939105
6.76225e-06;-0.0009938885518927453
6.76250e-06;-0.0010033253862021898
6.76275e-06;-0.0010127622205116662
6.76300e-06;-0.0010221990548211109
6.76325e-06;-0.0010316358891305554
6.76350e-06;-0.0010410727234400317
6.76375e-06;-0.0010505095577494762
6.76400e-06;-0.0010599463920589528
6.76425e-06;-0.0010693832263683973
6.76450e-06;-0.0010788200606778417
6.76475e-06;-0.001084376810534453
6.76500e-06;-0.0010887309246612805
6.76525e-06;-0.001093085038788108
6.76550e-06;-0.0010974391529149502
6.76575e-06;-0.0011017932670417776
6.76600e-06;-0.001106147381168605
6.76625e-06;-0.0011105014952954473
6.76650e-06;-0.0011148556094222747
6.76675e-06;-0.001119209723549102
6.76700e-06;-0.0011235638376759442
6.76725e-06;-0.0011279179518027718
6.76750e-06;-0.0011322720659295992
6.76775e-06;-0.0011366261800564413
6.76800e-06;-0.0011394562834174857
6.76825e-06;-0.001138024202491866
6.76850e-06;-0.001136592121566251
6.76875e-06;-0.0011351600406406361
6.76900e-06;-0.0011337279597150162
6.76925e-06;-0.0011322958787894015
6.76950e-06;-0.0011308637978637865
6.76975e-06;-0.0011294317169381666
6.77000e-06;-0.0011279996360125516
6.77025e-06;-0.001126567555086937
6.77050e-06;-0.001125135474161317
6.77075e-06;-0.001123703393235702
6.77100e-06;-0.001122271312310087
6.77125e-06;-0.0011208392313844674
6.77150e-06;-0.0011176302251475361
6.77175e-06;-0.001113870459283053
6.77200e-06;-0.0011101106934185575
6.77225e-06;-0.0011063509275540744
6.77250e-06;-0.0011025911616895788
6.77275e-06;-0.001098831395825096
6.77300e-06;-0.001095071629960613
6.77325e-06;-0.001091395998583083
6.77350e-06;-0.0010877464447668495
6.77375e-06;-0.0010840968909506161
6.77400e-06;-0.0010804473371343703
6.77425e-06;-0.0010767977833181371
6.77450e-06;-0.0010731482295019037
6.77475e-06;-0.001069498675685658
6.77500e-06;-0.0010663812838198306
6.77525e-06;-0.0010634288360378706
6.77550e-06;-0.0010604763882559004
6.77575e-06;-0.0010561939122373909
6.77600e-06;-0.001051499192748969
6.77625e-06;-0.001046804473260531
6.77650e-06;-0.0010390779427466848
6.77675e-06;-0.0010304116996290686
6.77700e-06;-0.0010217454565114815
6.77725e-06;-0.0010130792133938946
6.77750e-06;-0.0010044129702762783
6.77775e-06;-0.0009957467271586914
6.77800e-06;-0.0009854833235334332
6.77825e-06;-0.0009707531585372461
6.77850e-06;-0.0009560229935411089
6.77875e-06;-0.0009412928285449717
6.77900e-06;-0.0009265626635487845
6.77925e-06;-0.0009118324985526473
6.77950e-06;-0.00089710233355651
6.77975e-06;-0.0008784610892696727
6.78000e-06;-0.0008586076023752525
6.78025e-06;-0.0008387541154808324
6.78050e-06;-0.000818900628586345
6.78075e-06;-0.0007990471416919248
6.78100e-06;-0.0007791936547974374
6.78125e-06;-0.0007587469297139572
6.78150e-06;-0.0007366411018580138
6.78175e-06;-0.0007145352740019954
6.78200e-06;-0.000692429446146052
6.78225e-06;-0.0006703236182901085
6.78250e-06;-0.0006482177904340901
6.78275e-06;-0.0006261119625781467
6.78300e-06;-0.0006045470225335156
6.78325e-06;-0.0005831497311612234
6.78350e-06;-0.0005617524397890037
6.78375e-06;-0.0005416624259365351
6.78400e-06;-0.0005219776039483229
6.78425e-06;-0.0005022927819601774
6.78450e-06;-0.000484278867561236
6.78475e-06;-0.0004667828524995524
6.78500e-06;-0.00045111874782160843
6.78525e-06;-0.00043602244544449725
6.78550e-06;-0.00042290963232397786
6.78575e-06;-0.00041041160351477316
6.78600e-06;-0.000399749828609874
6.78625e-06;-0.0003896572022840879
6.78650e-06;-0.00038150175284248607
6.78675e-06;-0.0003739467331499426
6.78700e-06;-0.00036846535020780547
6.78725e-06;-0.0003636266928752212
6.78750e-06;-0.00036082754621771486
6.78775e-06;-0.0003586605477614826
6.78800e-06;-0.0003583118292545923
6.78825e-06;-0.0003585266882829399
6.78850e-06;-0.0003604940079259599
6.78875e-06;-0.00036300450434115775
6.78900e-06;-0.00036722393729454473
6.78925e-06;-0.00037197305669272885
6.78950e-06;-0.00037861122247095734
6.78975e-06;-0.0003858348999043637
6.79000e-06;-0.00039305857733777
6.79025e-06;-0.0004020897444228956
6.79050e-06;-0.00041168114458055587
6.79075e-06;-0.0004212725447382161
6.79100e-06;-0.0004327435081076777
6.79125e-06;-0.0004447970438155935
6.79150e-06;-0.00045685057952350933
6.79175e-06;-0.000468904115231466
6.79200e-06;-0.00048095765093938183
6.79225e-06;-0.0004930111866472977
6.79250e-06;-0.0005057142508782341
6.79275e-06;-0.0005186186370695525
6.79300e-06;-0.000531523023260871
6.79325e-06;-0.0005444274094522331
6.79350e-06;-0.0005573317956435515
6.79375e-06;-0.0005702361818349137
6.79400e-06;-0.0005815219533555154
6.79425e-06;-0.0005923060337769014
6.79450e-06;-0.000603090114198324
6.79475e-06;-0.00061387419461971
6.79500e-06;-0.0006246582750410962
6.79525e-06;-0.000633961546262625
6.79550e-06;-0.0006391234545484851
6.79575e-06;-0.0006442853628343452
6.79600e-06;-0.0006494472711202228
6.79625e-06;-0.0006546091794060829
6.79650e-06;-0.0006597710876919429
6.79675e-06;-0.0006602684365351285
6.79700e-06;-0.0006593200009082044
6.79725e-06;-0.0006583715652812804
6.79750e-06;-0.0006539449656969508
6.79775e-06;-0.0006484403060094715
6.79800e-06;-0.0006429356463219736
6.79825e-06;-0.0006339148307573113
6.79850e-06;-0.0006238041794591957
6.79875e-06;-0.0006136935281610457
6.79900e-06;-0.0006005316443266728
6.79925e-06;-0.0005864240281740585
6.79950e-06;-0.0005723164120213964
6.79975e-06;-0.000555453233781774
6.80000e-06;-0.0005377359665503791
6.80025e-06;-0.0005200186993189243
6.80050e-06;-0.0005001370627823913
6.80075e-06;-0.0004795845779981159
6.80100e-06;-0.000459032093213771
6.80125e-06;-0.0004370486683216366
6.80150e-06;-0.0004146217222329649
6.80175e-06;-0.0003921947761442172
6.80200e-06;-0.00036899709027506035
6.80225e-06;-0.00034556051290521154
6.80250e-06;-0.00032212393553544214
6.80275e-06;-0.00029881998181073566
6.80300e-06;-0.00027555713490616047
6.80325e-06;-0.00025229428800166415
6.80350e-06;-0.00022980487845207983
6.80375e-06;-0.00020755519651868712
6.80400e-06;-0.0001863698160043847
6.80425e-06;-0.00016551431668930912
6.80450e-06;-0.00014574305344231157
6.80475e-06;-0.00012718684098877585
6.80500e-06;-0.00010989917180596843
6.80525e-06;-9.396707185769265e-05
6.80550e-06;-7.914301479819785e-05
6.80575e-06;-6.487081267666356e-05
6.80600e-06;-5.08050014341494e-05
6.80625e-06;-3.694819564219862e-05
6.80650e-06;-2.3406853678643234e-05
6.80675e-06;-1.0294386463481884e-05
6.80700e-06;2.2758145401563607e-06
6.80725e-06;1.4231949376782827e-05
6.80750e-06;2.5711770834986273e-05
6.80775e-06;3.704636061115297e-05
6.80800e-06;4.8434777499137376e-05
6.80825e-06;5.98312803048593e-05
6.80850e-06;7.1223818304059e-05
6.80875e-06;8.237440498443166e-05
6.80900e-06;9.344999863197872e-05
6.80925e-06;0.00010413678386132301
6.80950e-06;0.00011470305756553
6.80975e-06;0.00012526933126970116
6.81000e-06;0.00013583560497387235
6.81025e-06;0.00014640187867807932
6.81050e-06;0.00015671033388250534
6.81075e-06;0.0001669388780069421
6.81100e-06;0.0001771674221313442
6.81125e-06;0.0001873959662557463
6.81150e-06;0.00019762451038018308
6.81175e-06;0.0002072772414146267
6.81200e-06;0.0002167514986546986
6.81225e-06;0.00022622575589480257
6.81250e-06;0.00023570001313487446
6.81275e-06;0.00024517427037494636
6.81300e-06;0.00025464852761505034
6.81325e-06;0.00026295601078578086
6.81350e-06;0.0002709018512655869
6.81375e-06;0.00027884769174541993
6.81400e-06;0.000286793532225226
6.81425e-06;0.00029473937270503206
6.81450e-06;0.00030268521318486507
6.81475e-06;0.00030950308245372677
6.81500e-06;0.0003159713360131816
6.81525e-06;0.00032144084643262287
6.81550e-06;0.00032660079550153424
6.81575e-06;0.00032969468398616204
6.81600e-06;0.0003321481951013256
6.81625e-06;0.0003321670684666827
6.81650e-06;0.000331431323632734
6.81675e-06;0.000328950661024015
6.81700e-06;0.0003248119971549603
6.81725e-06;0.0003192188145953031
6.81750e-06;0.00031206800839189274
6.81775e-06;0.00030316055607089486
6.81800e-06;0.0002924089486261982
6.81825e-06;0.0002798763477248464
6.81850e-06;0.00026566923707092865
6.81875e-06;0.000249896863999095
6.81900e-06;0.00023266846629390236
6.81925e-06;0.00021407723304131646
6.81950e-06;0.00019413941547898143
6.81975e-06;0.00017281123470029586
6.82000e-06;0.00015011873480061014
6.82025e-06;0.00012618237223802802
6.82050e-06;0.00010114967870613352
6.82075e-06;7.516995169033077e-05
6.82100e-06;4.839246329197947e-05
6.82125e-06;2.0956404674387645e-05
6.82150e-06;-7.0472048010380555e-06
6.82175e-06;-3.55649702601399e-05
6.82200e-06;-6.462381809381468e-05
6.82225e-06;-9.381346604538736e-05
6.82250e-06;-0.00012300311399686116
6.82275e-06;-0.00015190174612957687
6.82300e-06;-0.00018071018240854914
6.82325e-06;-0.0002095186186874238
6.82350e-06;-0.00023728604674133478
6.82375e-06;-0.0002647308133428824
6.82400e-06;-0.0002908514726704144
6.82425e-06;-0.0003165617237364039
6.82450e-06;-0.00034038595370436756
6.82475e-06;-0.0003636256097066283
6.82500e-06;-0.00038444678007929796
6.82525e-06;-0.00040451833861719096
6.82550e-06;-0.00042295772947428497
6.82575e-06;-0.0004408912284647573
6.82600e-06;-0.0004588247274551689
6.82625e-06;-0.0004762644129527032
6.82650e-06;-0.0004935510405061651
6.82675e-06;-0.0005108376680595685
6.82700e-06;-0.0005281242956129719
6.82725e-06;-0.0005454109231664338
6.82750e-06;-0.0005624109450092759
6.82775e-06;-0.0005793221331498446
6.82800e-06;-0.0005962333212903561
6.82825e-06;-0.0006131445094308676
6.82850e-06;-0.0006300556975714365
6.82875e-06;-0.0006476614713188751
6.82900e-06;-0.0006654825325109555
6.82925e-06;-0.0006833035937030961
6.82950e-06;-0.0007011246548951765
6.82975e-06;-0.0007189457160872569
6.83000e-06;-0.0007367667772793977
6.83025e-06;-0.000754587838471478
6.83050e-06;-0.0007724088996635584
6.83075e-06;-0.0007905038137230215
6.83100e-06;-0.0008086836087293116
6.83125e-06;-0.0008268634037356016
6.83150e-06;-0.0008450431987419533
6.83175e-06;-0.0008632229937482434
6.83200e-06;-0.0008814027887545952
6.83225e-06;-0.0008995825837608852
6.83250e-06;-0.0009177623787671753
6.83275e-06;-0.00093474014942339
6.83300e-06;-0.0009513453515320115
6.83325e-06;-0.0009679505536406331
6.83350e-06;-0.000984555755749311
6.83375e-06;-0.0010011609578579326
6.83400e-06;-0.0010154901462576563
6.83425e-06;-0.0010291138821251432
6.83450e-06;-0.001042737617992584
6.83475e-06;-0.0010563613538600246
6.83500e-06;-0.0010699850897275113
6.83525e-06;-0.0010800900776756475
6.83550e-06;-0.0010891044264855654
6.83575e-06;-0.0010981187752955137
6.83600e-06;-0.0011016331383019694
6.83625e-06;-0.0011034427756746678
6.83650e-06;-0.0011052524130473603
6.83675e-06;-0.0011023593024652408
6.83700e-06;-0.001098008570850249
6.83725e-06;-0.0010899492057753713
6.83750e-06;-0.0010807403463652344
6.83775e-06;-0.0010672481312841962
6.83800e-06;-0.0010524282861926447
6.83825e-06;-0.00103337658558814
6.83850e-06;-0.0010130132174941036
6.83875e-06;-0.0009889029574104645
6.83900e-06;-0.0009636313447252909
6.83925e-06;-0.0009341735408890938
6.83950e-06;-0.0009034182232743695
6.83975e-06;-0.0008726629056596453
6.84000e-06;-0.0008378815258001719
6.84025e-06;-0.0008018522642632757
6.84050e-06;-0.0007632550377769081
6.84075e-06;-0.0007238618682043313
6.84100e-06;-0.0006825846104558572
6.84125e-06;-0.0006407233778527465
6.84150e-06;-0.000597483705086837
6.84175e-06;-0.0005538167835308411
6.84200e-06;-0.0005093680726922031
6.84225e-06;-0.00046440128197801665
6.84250e-06;-0.0004192771667071606
6.84275e-06;-0.0003742627974004208
6.84300e-06;-0.0003296252752413682
6.84325e-06;-0.0002856229614919855
6.84350e-06;-0.0002424734678440895
6.84375e-06;-0.00020036346510459831
6.84400e-06;-0.00015951856740432864
6.84425e-06;-0.000120215785739528
6.84450e-06;-8.274672721765424e-05
6.84475e-06;-4.7403918937143203e-05
6.84500e-06;-1.4479853809893288e-05
6.84525e-06;1.5764949162456172e-05
6.84550e-06;4.32464446537628e-05
6.84575e-06;6.808346817065749e-05
6.84600e-06;9.036233386351542e-05
6.84625e-06;0.00011003864818107719
6.84650e-06;0.00012702511864063617
6.84675e-06;0.00014123137651673832
6.84700e-06;0.00015256708946368043
6.84725e-06;0.00016096199614329949
6.84750e-06;0.0001664563313986351
6.84775e-06;0.00016921745313848948
6.84800e-06;0.00016939231384607227
6.84825e-06;0.00016704598119786948
6.84850e-06;0.00016221666051266195
6.84875e-06;0.00015494065959822113
6.84900e-06;0.00014525425559991842
6.84925e-06;0.00013320632032008109
6.84950e-06;0.0001189149696593592
6.84975e-06;0.00010257789122049002
6.85000e-06;8.43799879686347e-05
6.85025e-06;6.445488797110103e-05
6.85050e-06;4.29193637008634e-05
6.85075e-06;1.9888980443267196e-05
6.85100e-06;-4.520686804330947e-06
6.85125e-06;-3.0186208729027208e-05
6.85150e-06;-5.694078969602329e-05
6.85175e-06;-8.45677880984328e-05
6.85200e-06;-0.0001130293960701559
6.85225e-06;-0.00014168966959881375
6.85250e-06;-0.000170783739755346
6.85275e-06;-0.0002000122655737706
6.85300e-06;-0.0002292407913920962
6.85325e-06;-0.0002579230667218484
6.85350e-06;-0.0002864360312126495
6.85375e-06;-0.0003149489957034506
6.85400e-06;-0.00034193478499798915
6.85425e-06;-0.0003684472249427705
6.85450e-06;-0.000393014478594893
6.85475e-06;-0.0004169788199756076
6.85500e-06;-0.0004384329396812279
6.85525e-06;-0.0004591090138815377
6.85550e-06;-0.00047766793836287414
6.85575e-06;-0.0004955706503513009
6.85600e-06;-0.0005124251075075376
6.85625e-06;-0.000528954657119326
6.85650e-06;-0.0005438524278561372
6.85675e-06;-0.0005582444272374212
6.85700e-06;-0.0005726364266187538
6.85725e-06;-0.0005847827110319762
6.85750e-06;-0.0005962329340358395
6.85775e-06;-0.0006076831570396641
6.85800e-06;-0.0006166910895996517
6.85825e-06;-0.0006249420320016817
6.85850e-06;-0.0006331929744036835
6.85875e-06;-0.0006414439168056854
6.85900e-06;-0.0006496948592077152
6.85925e-06;-0.0006579458016097171
6.85950e-06;-0.000666196744011719
6.85975e-06;-0.0006744476864137489
6.86000e-06;-0.0006826986288157507
6.86025e-06;-0.0006881415906485741
6.86050e-06;-0.0006927142163344868
6.86075e-06;-0.0006972868420203838
6.86100e-06;-0.000701859467706281
6.86125e-06;-0.0007064320933921936
6.86150e-06;-0.0007110047190780908
6.86175e-06;-0.0007155773447640034
6.86200e-06;-0.0007201499704499006
6.86225e-06;-0.0007247225961357978
6.86250e-06;-0.00072799891480758
6.86275e-06;-0.0007308734419341307
6.86300e-06;-0.0007337479690606814
6.86325e-06;-0.0007366224961872417
6.86350e-06;-0.0007394970233137924
6.86375e-06;-0.0007417547394030804
6.86400e-06;-0.000743821274346966
6.86425e-06;-0.0007458878092908447
6.86450e-06;-0.0007479543442347233
6.86475e-06;-0.0007500208791786089
6.86500e-06;-0.0007517180126877326
6.86525e-06;-0.0007533006498841393
6.86550e-06;-0.0007528359373309548
6.86575e-06;-0.0007517366468494967
6.86600e-06;-0.0007506373563680349
6.86625e-06;-0.0007453071286960795
6.86650e-06;-0.000738665518170531
6.86675e-06;-0.00073202390764496
6.86700e-06;-0.0007222073723705109
6.86725e-06;-0.0007114067662650343
6.86750e-06;-0.0006977569439158694
6.86775e-06;-0.0006832240043849603
6.86800e-06;-0.0006652198031308394
6.86825e-06;-0.0006461396811293056
6.86850e-06;-0.0006239679277749674
6.86875e-06;-0.0006008379204539524
6.86900e-06;-0.0005751112431769963
6.86925e-06;-0.0005485797256713506
6.86950e-06;-0.0005195556049655491
6.86975e-06;-0.000489758899617031
6.87000e-06;-0.0004574055602422411
6.87025e-06;-0.00042425978981156393
6.87050e-06;-0.0003891207544247445
6.87075e-06;-0.0003533639047409233
6.87100e-06;-0.000316249332709688
6.87125e-06;-0.00027871393339474055
6.87150e-06;-0.0002402114453182292
6.87175e-06;-0.00020140920719507197
6.87200e-06;-0.00016192515574848965
6.87225e-06;-0.00012222977563842885
6.87250e-06;-8.253084906028307e-05
6.87275e-06;-4.283082325128562e-05
6.87300e-06;-3.583803012726283e-06
6.87325e-06;3.4989247961125245e-05
6.87350e-06;7.274464655789549e-05
6.87375e-06;0.00010955671207310504
6.87400e-06;0.00014525431591902864
6.87425e-06;0.0001796014672525065
6.87450e-06;0.00021234337827494052
6.87475e-06;0.0002432240704677377
6.87500e-06;0.0002719876089683918
6.87525e-06;0.0002984207268380118
6.87550e-06;0.0003225364113672692
6.87575e-06;0.00034458522074989634
6.87600e-06;0.0003647317343772121
6.87625e-06;0.0003829432353222401
6.87650e-06;0.00039912535867191363
6.87675e-06;0.00041317944244103017
6.87700e-06;0.00042500689129673283
6.87725e-06;0.00043453581377915447
6.87750e-06;0.00044109165218381494
6.87775e-06;0.0004468956544688186
6.87800e-06;0.0004498839222778968
6.87825e-06;0.00045199945060997345
6.87850e-06;0.0004513645861246345
6.87875e-06;0.0004498772348691381
6.87900e-06;0.0004456475890738642
6.87925e-06;0.0004405679665770134
6.87950e-06;0.0004330052832947638
6.87975e-06;0.0004246729730503228
6.88000e-06;0.00041435476294975114
6.88025e-06;0.00040342102137181317
6.88050e-06;0.0003907305867450589
6.88075e-06;0.0003774956635006049
6.88100e-06;0.0003626973949744544
6.88125e-06;0.0003474145661479971
6.88150e-06;0.000330725814114529
6.88175e-06;0.00031360129489671165
6.88200e-06;0.0002964767756789522
6.88225e-06;0.0002785334565315015
6.88250e-06;0.0002603363495966664
6.88275e-06;0.00024213924266189296
6.88300e-06;0.00022384847786866292
6.88325e-06;0.00020552868373659915
6.88350e-06;0.00018720888960453534
6.88375e-06;0.00016952691722632623
6.88400e-06;0.00015204263828433356
6.88425e-06;0.00013529148675234349
6.88450e-06;0.00011938353772595898
6.88475e-06;0.00010437733545035928
6.88500e-06;9.039714983837193e-05
6.88525e-06;7.754519227153248e-05
6.88550e-06;6.58073259598665e-05
6.88575e-06;5.5048642620141994e-05
6.88600e-06;4.51811694996854e-05
6.88625e-06;3.6220250496668413e-05
6.88650e-06;2.8213362059836182e-05
6.88675e-06;2.121020658861809e-05
6.88700e-06;1.5260478081865643e-05
6.88725e-06;1.0400045152673449e-05
6.88750e-06;6.591902244716183e-06
6.88775e-06;3.7233961399327123e-06
6.88800e-06;1.7112783994663756e-06
6.88825e-06;5.370231476731955e-07
6.88850e-06;2.0223273764938629e-07
6.88875e-06;7.099017367669707e-07
6.88900e-06;2.0630165950755957e-06
6.88925e-06;4.255904157403693e-06
6.88950e-06;7.237243012695069e-06
6.88975e-06;1.0908332948132299e-05
6.89000e-06;1.5188898341876366e-05
6.89025e-06;2.003921075295645e-05
6.89050e-06;2.5432152244771792e-05
6.89075e-06;3.134147769522322e-05
6.89100e-06;3.7740936740448354e-05
6.89125e-06;4.459885526748289e-05
6.89150e-06;5.185497446746447e-05
6.89175e-06;5.950052555406171e-05
6.89200e-06;6.723876841121989e-05
6.89225e-06;7.528155919483233e-05
6.89250e-06;8.341874488681729e-05
6.89275e-06;9.155593057880224e-05
6.89300e-06;9.968935794560611e-05
