Time(s);Current(A)
5.50000e-06;0.0002026216431509747
5.50025e-06;0.00018157653453732402
5.50050e-06;0.00016165378624708528
5.50075e-06;0.0001430008121112958
5.50100e-06;0.000125764974297018
5.50125e-06;0.00011006292847925198
5.50150e-06;9.583197797492779e-05
5.50175e-06;8.273889851828364e-05
5.50200e-06;7.044964769615518e-05
5.50225e-06;5.888737441110077e-05
5.50250e-06;4.8122627158048135e-05
5.50275e-06;3.823718262195872e-05
5.50300e-06;2.931278528318341e-05
5.50325e-06;2.14119366323239e-05
5.50350e-06;1.448478573787496e-05
5.50375e-06;8.312044293448096e-06
5.50400e-06;2.6739250273108706e-06
5.50425e-06;-2.4882433088096713e-06
5.50450e-06;-7.140797621141733e-06
5.50475e-06;-1.1243046415202357e-05
5.50500e-06;-1.4754321707547e-05
5.50525e-06;-1.7646014506810284e-05
5.50550e-06;-1.995989116752811e-05
5.50575e-06;-2.1843848000718467e-05
5.50600e-06;-2.344608052985606e-05
5.50625e-06;-2.4813849929762554e-05
5.50650e-06;-2.5936579815775938e-05
5.50675e-06;-2.679929289773322e-05
5.50700e-06;-2.7387027890158475e-05
5.50725e-06;-2.769238162725754e-05
5.50750e-06;-2.773635069602061e-05
5.50775e-06;-2.764993323794196e-05
5.50800e-06;-2.7547943070275774e-05
5.50825e-06;-2.7426893872943306e-05
5.50850e-06;-2.7310655783220927e-05
5.50875e-06;-2.7200305881560116e-05
5.50900e-06;-2.709482229828228e-05
5.50925e-06;-2.7009236216549744e-05
5.50950e-06;-2.700924885690121e-05
5.50975e-06;-2.72408634089702e-05
5.51000e-06;-2.783412773026525e-05
5.51025e-06;-2.8823027671223797e-05
5.51050e-06;-3.0189858314700345e-05
5.51075e-06;-3.191311456692062e-05
5.51100e-06;-3.397129969658036e-05
5.51125e-06;-3.6349202015301155e-05
5.51150e-06;-3.906689302145178e-05
5.51175e-06;-4.219362420422384e-05
5.51200e-06;-4.578864747913935e-05
5.51225e-06;-4.98510381852375e-05
5.51250e-06;-5.434748952181321e-05
5.51275e-06;-5.924232019274382e-05
5.51300e-06;-6.449985708122964e-05
5.51325e-06;-7.016203807108823e-05
5.51350e-06;-7.608837466945805e-05
5.51375e-06;-8.233002448809506e-05
5.51400e-06;-8.895757786353291e-05
5.51425e-06;-9.586474149307904e-05
5.51450e-06;-0.00010311411275814024
5.51475e-06;-0.00011059771402141228
5.51500e-06;-0.00011836798321869521
5.51525e-06;-0.00012613825241595183
5.51550e-06;-0.00013410649771895862
5.51575e-06;-0.00014231704077055852
5.51600e-06;-0.00015052758382213063
5.51625e-06;-0.00015873812687373053
5.51650e-06;-0.0001669486699253026
5.51675e-06;-0.00017503991728573306
5.51700e-06;-0.00018312484173755726
5.51725e-06;-0.0001912097661893541
5.51750e-06;-0.0001992946906411509
5.51775e-06;-0.00020705187013346862
5.51800e-06;-0.0002144079311903458
5.51825e-06;-0.00022176399224722298
5.51850e-06;-0.0002286485811169939
5.51875e-06;-0.00023495614757783678
5.51900e-06;-0.00024126371403867966
5.51925e-06;-0.00024696088982946815
5.51950e-06;-0.0002519110245339785
5.51975e-06;-0.00025686115923848887
5.52000e-06;-0.0002613293085342137
5.52025e-06;-0.00026520756856555623
5.52050e-06;-0.00026908582859691186
5.52075e-06;-0.0002724347064753072
5.52100e-06;-0.00027513568746084436
5.52125e-06;-0.0002778366684463907
5.52150e-06;-0.00028002180795949356
5.52175e-06;-0.0002815756226624713
5.52200e-06;-0.0002831294373654543
5.52225e-06;-0.00028390461623608774
5.52250e-06;-0.00028372684319169793
5.52275e-06;-0.0002835490701473075
5.52300e-06;-0.0002833712971029177
5.52325e-06;-0.0002831935240585279
5.52350e-06;-0.0002830157510141375
5.52375e-06;-0.0002828379779697477
5.52400e-06;-0.0002826602049253579
5.52425e-06;-0.0002824824318809675
5.52450e-06;-0.00028059751047526085
5.52475e-06;-0.00027862210681489326
5.52500e-06;-0.0002766467031545324
5.52525e-06;-0.0002746712994941715
5.52550e-06;-0.0002726958958338039
5.52575e-06;-0.00027072049217344296
5.52600e-06;-0.0002687450885130821
5.52625e-06;-0.0002667696848527145
5.52650e-06;-0.0002645557526693352
5.52675e-06;-0.00026204989170058906
5.52700e-06;-0.0002595440307318344
5.52725e-06;-0.00025703816976308826
5.52750e-06;-0.0002545323087943421
5.52775e-06;-0.00025202644782558746
5.52800e-06;-0.00024980570737228143
5.52825e-06;-0.0002476000788727227
5.52850e-06;-0.00024539445037315654
5.52875e-06;-0.00024318882187359783
5.52900e-06;-0.00024098319337403164
5.52925e-06;-0.0002388244161287508
5.52950e-06;-0.00023672297890126072
5.52975e-06;-0.00023462154167376356
5.53000e-06;-0.00023185301871995827
5.53025e-06;-0.00022826806709195873
5.53050e-06;-0.00022411683779204825
5.53075e-06;-0.00021927255614422823
5.53100e-06;-0.0002139508019206687
5.53125e-06;-0.00020804468157052997
5.53150e-06;-0.00020155739381662064
5.53175e-06;-0.00019435883056357928
5.53200e-06;-0.00018638528146746876
5.53225e-06;-0.00017746324758244054
5.53250e-06;-0.00016786573484308027
5.53275e-06;-0.00015744152130090766
5.53300e-06;-0.00014659645280778785
5.53325e-06;-0.00013486252344687438
5.53350e-06;-0.00012267112531940422
5.53375e-06;-0.00011005135703239057
5.53400e-06;-9.66107042382533e-05
5.53425e-06;-8.25483268923031e-05
5.53450e-06;-6.795135103096498e-05
5.53475e-06;-5.2910357418859585e-05
5.53500e-06;-3.751591508888785e-05
5.53525e-06;-2.1852841692282465e-05
5.53550e-06;-5.973453012638025e-06
5.53575e-06;1.0115842338911511e-05
5.53600e-06;2.6419856110468933e-05
5.53625e-06;4.2840966062634745e-05
5.53650e-06;5.926207601474492e-05
5.53675e-06;7.55812736969777e-05
5.53700e-06;9.177574363275893e-05
5.53725e-06;0.00010769509706224436
5.53750e-06;0.00012327774263613047
5.53775e-06;0.00013848700470816096
5.53800e-06;0.0001532392925332648
5.53825e-06;0.00016746933061924065
5.53850e-06;0.00018106020098613808
5.53875e-06;0.00019394042446348487
5.53900e-06;0.00020595090590491905
5.53925e-06;0.0002173069327540956
5.53950e-06;0.00022734762501907646
5.53975e-06;0.00023618893292553012
5.54000e-06;0.0002437381488560581
5.54025e-06;0.0002499592520941958
5.54050e-06;0.00025484090426049883
5.54075e-06;0.0002583733323275704
5.54100e-06;0.0002605467515487264
5.54125e-06;0.00026134930806393273
5.54150e-06;0.0002607599021614993
5.54175e-06;0.00025875288634608594
5.54200e-06;0.00025532622360456423
5.54225e-06;0.00025051340935776487
5.54250e-06;0.00024436338912143754
5.54275e-06;0.00023692608758693842
5.54300e-06;0.00022825143530523184
5.54325e-06;0.00021838801555030876
5.54350e-06;0.00020737865986975043
5.54375e-06;0.0001952633487296911
5.54400e-06;0.00018209684366145146
5.54425e-06;0.00016795615293539677
5.54450e-06;0.00015292796192146812
5.54475e-06;0.000137099577032399
5.54500e-06;0.00012055827411233806
5.54525e-06;0.0001033905096029859
5.54550e-06;8.567911968758428e-05
5.54575e-06;6.750514183795109e-05
5.54600e-06;4.8958882186901676e-05
5.54625e-06;3.0122787572471195e-05
5.54650e-06;1.1145825917045356e-05
5.54675e-06;-7.846720069692499e-06
5.54700e-06;-2.6802390207686494e-05
5.54725e-06;-4.5584414532081156e-05
5.54750e-06;-6.408495705721938e-05
5.54775e-06;-8.219730287255455e-05
5.54800e-06;-9.980894807930108e-05
5.54825e-06;-0.00011679867995125421
5.54850e-06;-0.0001330414911388747
5.54875e-06;-0.00014841214893413933
5.54900e-06;-0.00016278544865846998
5.54925e-06;-0.00017602373989811663
5.54950e-06;-0.00018792461248808923
5.54975e-06;-0.0001982111159948733
5.55000e-06;-0.0002066642727471527
5.55025e-06;-0.0002132129193654093
5.55050e-06;-0.00021785853273526505
5.55075e-06;-0.00022060762264137788
5.55100e-06;-0.00022146670980670543
5.55125e-06;-0.0002204345383475793
5.55150e-06;-0.0002174692989525723
5.55175e-06;-0.000212482478056514
5.55200e-06;-0.00020542190123162843
5.55225e-06;-0.00019632798726381518
5.55250e-06;-0.00018528665603997227
5.55275e-06;-0.0001723869638164558
5.55300e-06;-0.000157717995953342
5.55325e-06;-0.00014136393965979424
5.55350e-06;-0.00012338356635010475
5.55375e-06;-0.00010380642884729248
5.55400e-06;-8.268482013598518e-05
5.55425e-06;-6.012902468420118e-05
5.55450e-06;-3.627782472282842e-05
5.55475e-06;-1.1271977204326631e-05
5.55500e-06;1.4747775653617322e-05
5.55525e-06;4.16437577267922e-05
5.55550e-06;6.92942159126777e-05
5.55575e-06;9.769828864444813e-05
5.55600e-06;0.0001265561262503017
5.55625e-06;0.00015565836120538736
5.55650e-06;0.0001850597076478243
5.55675e-06;0.00021446105409036082
5.55700e-06;0.00024386240053279776
5.55725e-06;0.00027223460019861265
5.55750e-06;0.00030055225304099093
5.55775e-06;0.00032886990588327326
5.55800e-06;0.0003562011571047201
5.55825e-06;0.0003823251773283144
5.55850e-06;0.0004073169497521411
5.55875e-06;0.00043092299387602166
5.55900e-06;0.0004530401498762751
5.55925e-06;0.00047333509486483877
5.55950e-06;0.0004921847772373444
5.55975e-06;0.0005080458016325935
5.56000e-06;0.0005211087831124747
5.56025e-06;0.0005312668956406462
5.56050e-06;0.0005385208447599364
5.56075e-06;0.0005428787912622502
5.56100e-06;0.0005443488986747725
5.56125e-06;0.000542927921786837
5.56150e-06;0.0005385530707990265
5.56175e-06;0.0005310938648025959
5.56200e-06;0.000520475000881205
5.56225e-06;0.000506758775065923
5.56250e-06;0.0004900748740373042
5.56275e-06;0.0004705576658831878
5.56300e-06;0.0004483414589214104
5.56325e-06;0.0004235534015142458
5.56350e-06;0.0003962833757731702
5.56375e-06;0.00036657887170325667
5.56400e-06;0.00033452192806032385
5.56425e-06;0.0003002807771955459
5.56450e-06;0.00026406582857902534
5.56475e-06;0.00022609039873634158
5.56500e-06;0.00018656779764920835
5.56525e-06;0.00014570682536361508
5.56550e-06;0.00010369291819865632
5.56575e-06;6.068493710298305e-05
5.56600e-06;1.6863401111596504e-05
5.56625e-06;-2.7536204656077453e-05
5.56650e-06;-7.217469210825293e-05
5.56675e-06;-0.00011681317956057963
5.56700e-06;-0.0001614516670127551
5.56725e-06;-0.00020550884901565934
5.56750e-06;-0.000248854573422924
5.56775e-06;-0.00029123442176316885
5.56800e-06;-0.00033243215979143986
5.56825e-06;-0.00037260343876752947
5.56850e-06;-0.0004106584756146431
5.56875e-06;-0.0004466690824249519
5.56900e-06;-0.00048034183730938146
5.56925e-06;-0.0005113749368408833
5.56950e-06;-0.0005394317945581075
5.56975e-06;-0.0005641645009858041
5.57000e-06;-0.0005853286463124435
5.57025e-06;-0.0006028273918937398
5.57050e-06;-0.0006166270011260553
5.57075e-06;-0.0006266976920013939
5.57100e-06;-0.0006330097262647121
5.57125e-06;-0.0006355280929684052
5.57150e-06;-0.000634196042330022
5.57175e-06;-0.000628949746755816
5.57200e-06;-0.0006197901931980626
5.57225e-06;-0.00060681080543831
5.57250e-06;-0.0005901445661113839
5.57275e-06;-0.0005699269244441921
5.57300e-06;-0.0005462933296635937
5.57325e-06;-0.000519375933073218
5.57350e-06;-0.0004892932438781801
5.57375e-06;-0.0004561593698213141
5.57400e-06;-0.00042012898594468383
5.57425e-06;-0.0003814146770380253
5.57450e-06;-0.0003402538116021628
5.57475e-06;-0.0002968852287571026
5.57500e-06;-0.0002515477967262652
5.57525e-06;-0.00020447831237370727
5.57550e-06;-0.0001559049978601324
5.57575e-06;-0.00010605329132382934
5.57600e-06;-5.5174047970029096e-05
5.57625e-06;-3.5543767087371516e-06
5.57650e-06;4.844293268843337e-05
5.57675e-06;0.00010051558860247428
5.57700e-06;0.00015258824451651519
5.57725e-06;0.00020405999310521686
5.57750e-06;0.00025479631511468717
5.57775e-06;0.00030477181468424873
5.57800e-06;0.00035311755355890587
5.57825e-06;0.0003997555330943348
5.57850e-06;0.00044434245798266305
5.57875e-06;0.00048653446060751323
5.57900e-06;0.0005259877243324159
5.57925e-06;0.0005618252129478321
5.57950e-06;0.0005952095474767639
5.57975e-06;0.0006269108548107533
5.58000e-06;0.0006565523494313447
5.58025e-06;0.0006848246168935694
5.58050e-06;0.0007114211232526251
5.58075e-06;0.0007363042536687154
5.58100e-06;0.0007590904283367145
5.58125e-06;0.0007796479526921411
5.58150e-06;0.0007974778905525711
5.58175e-06;0.0008153078284129408
5.58200e-06;0.0008314749846642419
5.58225e-06;0.0008456071062421486
5.58250e-06;0.0008597392278200075
5.58275e-06;0.0008720846426430469
5.58300e-06;0.0008822433540665579
5.58325e-06;0.0008924020654900344
5.58350e-06;0.0009009628282921662
5.58375e-06;0.000907567903809237
5.58400e-06;0.0009141729793262855
5.58425e-06;0.0009189106198511677
5.58450e-06;0.0009213627558103504
5.58475e-06;0.0009238148917695249
5.58500e-06;0.0009262670277287077
5.58525e-06;0.0009287191636878822
5.58550e-06;0.0009311712996470567
5.58575e-06;0.0009336234356062395
5.58600e-06;0.000936075571565414
5.58625e-06;0.0009368856033721758
5.58650e-06;0.0009356859071009571
5.58675e-06;0.0009344862108297424
5.58700e-06;0.0009332865145585278
5.58725e-06;0.0009320868182873092
5.58750e-06;0.0009308871220160945
5.58775e-06;0.0009296874257448799
5.58800e-06;0.0009284877294736611
5.58825e-06;0.000927168480204593
5.58850e-06;0.0009257029131661985
5.58875e-06;0.000924237346127799
5.58900e-06;0.0009227717790894045
5.58925e-06;0.0009203616252577918
5.58950e-06;0.0009167954164966064
5.58975e-06;0.000913229207735421
5.59000e-06;0.0009096629989742235
5.59025e-06;0.0009030844075797725
5.59050e-06;0.0008928190403189489
5.59075e-06;0.0008825536730580905
5.59100e-06;0.0008702773620573884
5.59125e-06;0.0008555399099098599
5.59150e-06;0.0008389568638789256
5.59175e-06;0.0008201150440412362
5.59200e-06;0.0007989395507323183
5.59225e-06;0.0007749079358475027
5.59250e-06;0.0007488184952339345
5.59275e-06;0.0007202105358405227
5.59300e-06;0.0006899062921230383
5.59325e-06;0.0006575260106411465
5.59350e-06;0.0006235031407876726
5.59375e-06;0.0005874699502336647
5.59400e-06;0.0005497129337685201
5.59425e-06;0.000509846172114701
5.59450e-06;0.00046865287308959884
5.59475e-06;0.00042583605986932886
5.59500e-06;0.00038214363487824664
5.59525e-06;0.000337379571673608
5.59550e-06;0.0002919979035907911
5.59575e-06;0.0002458603651431244
5.59600e-06;0.00019926469124957195
5.59625e-06;0.00015210831743458185
5.59650e-06;0.00010495194361943193
5.59675e-06;5.790990090296393e-05
5.59700e-06;1.1278029704063512e-05
5.59725e-06;-3.463431575769215e-05
5.59750e-06;-7.960422713699818e-05
5.59775e-06;-0.00012348176436685377
5.59800e-06;-0.00016610312889539955
5.59825e-06;-0.00020721656075653322
5.59850e-06;-0.0002465228477578756
5.59875e-06;-0.00028371930351891105
5.59900e-06;-0.0003185032925426012
5.59925e-06;-0.00035059744387864214
5.59950e-06;-0.0003798790219794644
5.59975e-06;-0.0004064797005112522
5.60000e-06;-0.0004305850989888235
5.60025e-06;-0.0004522093016490549
5.60050e-06;-0.00047125700612104724
5.60075e-06;-0.00048762409921380333
5.60100e-06;-0.0005012065114891688
5.60125e-06;-0.00051191599705732
5.60150e-06;-0.0005197612556648393
5.60175e-06;-0.0005249102529442678
5.60200e-06;-0.0005275647701050234
5.60225e-06;-0.0005272878365187552
5.60250e-06;-0.0005250489370493796
5.60275e-06;-0.0005207030439996935
5.60300e-06;-0.0005137784569306142
5.60325e-06;-0.0005048275052755006
5.60350e-06;-0.0004933965393061228
5.60375e-06;-0.00048025201417534414
5.60400e-06;-0.00046501030906132224
5.60425e-06;-0.0004483211558017809
5.60450e-06;-0.0004298605088315833
5.60475e-06;-0.0004101303838008189
5.60500e-06;-0.0003888465779647547
5.60525e-06;-0.0003664975232144427
5.60550e-06;-0.00034284473833884864
5.60575e-06;-0.0003183663667420108
5.60600e-06;-0.0002928775812739689
5.60625e-06;-0.00026738879580584063
5.60650e-06;-0.0002415073244951815
5.60675e-06;-0.0002151452553112031
5.60700e-06;-0.00018878318612713534
5.60725e-06;-0.0001626336380742802
5.60750e-06;-0.00013649535406348528
5.60775e-06;-0.00011072895803809185
5.60800e-06;-8.577597231953418e-05
5.60825e-06;-6.170057235321594e-05
5.60850e-06;-3.8681416210553115e-05
5.60875e-06;-1.6895775957836586e-05
5.60900e-06;3.4790806056016358e-06
5.60925e-06;2.229975775482059e-05
5.60950e-06;3.962088751561774e-05
5.60975e-06;5.579617521361583e-05
5.61000e-06;7.11811780916358e-05
5.61025e-06;8.584834440215069e-05
5.61050e-06;9.970767134827329e-05
5.61075e-06;0.00011265675710244759
5.61100e-06;0.00012459321292425778
5.61125e-06;0.00013543587357026004
5.61150e-06;0.0001452276161235254
5.61175e-06;0.00015419866371386854
5.61200e-06;0.0001625803684926575
5.61225e-06;0.00017028874555961832
5.61250e-06;0.00017752109835981995
5.61275e-06;0.00018415163574476005
5.61300e-06;0.00019004562707353593
5.61325e-06;0.00019529527678723623
5.61350e-06;0.00019975633374753234
5.61375e-06;0.00020380026882263027
5.61400e-06;0.00020733369939476379
5.61425e-06;0.00021044882698015944
5.61450e-06;0.00021305200454344676
5.61475e-06;0.0002156551821067429
5.61500e-06;0.00021768858449742548
5.61525e-06;0.00021902465404220276
5.61550e-06;0.00022036072358698456
5.61575e-06;0.00022133835988881028
5.61600e-06;0.0002218773191731233
5.61625e-06;0.00022241627845743817
5.61650e-06;0.00022261351986690997
5.61675e-06;0.0002223925417582096
5.61700e-06;0.00022217156364950848
5.61725e-06;0.00022195058554080812
5.61750e-06;0.00022172960743210775
5.61775e-06;0.00022150862932340665
5.61800e-06;0.00022116883872278146
5.61825e-06;0.00022068363663864125
5.61850e-06;0.00022019843455449935
5.61875e-06;0.00021971323247035914
5.61900e-06;0.00021922803038621725
5.61925e-06;0.00021874282830207703
5.61950e-06;0.00021874649149322193
5.61975e-06;0.00021934846403521766
5.62000e-06;0.00021995043657721132
5.62025e-06;0.00022055240911920498
5.62050e-06;0.0002211543816612007
5.62075e-06;0.00022175635420319437
5.62100e-06;0.00022235832674518804
5.62125e-06;0.00022296029928718376
5.62150e-06;0.00022356227182917742
5.62175e-06;0.0002241642443711711
5.62200e-06;0.00022476621691316679
5.62225e-06;0.0002272643439314318
5.62250e-06;0.0002298629709029423
5.62275e-06;0.00023246159787446158
5.62300e-06;0.00023506022484597207
5.62325e-06;0.00023765885181749135
5.62350e-06;0.00024025747878900184
5.62375e-06;0.00024285610576051233
5.62400e-06;0.0002454547327320316
5.62425e-06;0.0002480533597035421
5.62450e-06;0.0002506519866750526
5.62475e-06;0.00025365510470922543
5.62500e-06;0.00025727623578329005
5.62525e-06;0.0002610478630178179
5.62550e-06;0.0002648194902523585
5.62575e-06;0.00026859111748688637
5.62600e-06;0.0002723627447214142
5.62625e-06;0.00027613437195595484
5.62650e-06;0.0002799059991904827
5.62675e-06;0.0002836776264250105
5.62700e-06;0.00028730150963221724
5.62725e-06;0.0002907445728107826
5.62750e-06;0.0002941876359893596
5.62775e-06;0.00029763069916792495
5.62800e-06;0.0003010737623464903
5.62825e-06;0.00030451682552506737
5.62850e-06;0.0003079598887036327
5.62875e-06;0.0003114029518821981
5.62900e-06;0.00031453211796233566
5.62925e-06;0.00031727711364080025
5.62950e-06;0.0003200221093192648
5.62975e-06;0.0003236400230283204
5.63000e-06;0.00032832627815271797
5.63025e-06;0.000334184074788963
5.63050e-06;0.0003414756902639569
5.63075e-06;0.0003497720272880744
5.63100e-06;0.00035929801658678314
5.63125e-06;0.0003697677158502955
5.63150e-06;0.00038139239691515454
5.63175e-06;0.00039438331476024445
5.63200e-06;0.0004090463338613799
5.63225e-06;0.00042512001355720594
5.63250e-06;0.00044292016364716344
5.63275e-06;0.0004618814249115871
5.63300e-06;0.0004822637395991819
5.63325e-06;0.0005038960937935345
5.63350e-06;0.0005270583384574187
5.63375e-06;0.000550220583121303
5.63400e-06;0.0005749555097767919
5.63425e-06;0.0006016152005517691
5.63450e-06;0.0006282748913267463
5.63475e-06;0.0006562143239383607
5.63500e-06;0.0006857199989196279
5.63525e-06;0.0007152256739008952
5.63550e-06;0.0007447313488822624
5.63575e-06;0.0007742370238635295
5.63600e-06;0.0008037426988448967
5.63625e-06;0.0008339649252131329
5.63650e-06;0.0008642251302279863
5.63675e-06;0.0008944853352429423
5.63700e-06;0.0009247455402577958
5.63725e-06;0.0009550057452726492
5.63750e-06;0.000982381216519175
5.63775e-06;0.0010062261379904277
5.63800e-06;0.0010300710594616804
5.63825e-06;0.001053915980933014
5.63850e-06;0.0010777609024042666
5.63875e-06;0.0011016058238755193
5.63900e-06;0.0011254507453468529
5.63925e-06;0.0011492956668181056
5.63950e-06;0.0011731405882893582
5.63975e-06;0.0011969855097606918
5.64000e-06;0.0012103854241038096
5.64025e-06;0.0012232317323250135
5.64050e-06;0.001236078040546174
5.64075e-06;0.0012489243487673347
5.64100e-06;0.0012617706569885386
5.64125e-06;0.0012746169652096992
5.64150e-06;0.0012874632734308597
5.64175e-06;0.0013003095816520637
5.64200e-06;0.0013131558898732242
5.64225e-06;0.0013225426062863823
5.64250e-06;0.001327695219291961
5.64275e-06;0.0013328478322975222
5.64300e-06;0.0013380004453030832
5.64325e-06;0.0013431530583086619
