Time(s);Current(A)
6.75000e-06;-0.0007895717078285153
6.75025e-06;-0.000808894478165779
6.75050e-06;-0.0008259648951905458
6.75075e-06;-0.0008400128678932774
6.75100e-06;-0.0008540608405960092
6.75125e-06;-0.000866598608749857
6.75150e-06;-0.0008771098257678254
6.75175e-06;-0.0008876210427857939
6.75200e-06;-0.0008965964962008917
6.75225e-06;-0.0009035111006561243
6.75250e-06;-0.000910425705111357
6.75275e-06;-0.0009151223294533522
6.75300e-06;-0.0009168426350437769
6.75325e-06;-0.0009185629406342015
6.75350e-06;-0.0009202832462246321
6.75375e-06;-0.0009220035518150568
6.75400e-06;-0.0009237238574054815
6.75425e-06;-0.0009254441629959119
6.75450e-06;-0.0009271644685863366
6.75475e-06;-0.0009270068112950053
6.75500e-06;-0.0009243291060978668
6.75525e-06;-0.0009216514009007374
6.75550e-06;-0.0009189736957035989
6.75575e-06;-0.0009162959905064695
6.75600e-06;-0.0009136182853093401
6.75625e-06;-0.0009109405801122017
6.75650e-06;-0.0009082628749150723
6.75675e-06;-0.0009050906154867751
6.75700e-06;-0.000901254711230011
6.75725e-06;-0.0008974188069732599
6.75750e-06;-0.000893739123631111
6.75775e-06;-0.000890269073925743
6.75800e-06;-0.0008867990242203866
6.75825e-06;-0.0008835426018104828
6.75850e-06;-0.0008805728469506676
6.75875e-06;-0.0008774219003533568
6.75900e-06;-0.0008740278116454926
6.75925e-06;-0.0008695557108064226
6.75950e-06;-0.0008636370200268657
6.75975e-06;-0.0008577183292472889
6.76000e-06;-0.0008506348166874384
6.76025e-06;-0.000841988223879172
6.76050e-06;-0.0008333416310708762
6.76075e-06;-0.0008234182371716447
6.76100e-06;-0.0008117814974196997
6.76125e-06;-0.0008001447576677154
6.76150e-06;-0.0007868948066509655
6.76175e-06;-0.0007714800792648784
6.76200e-06;-0.000756065351878739
6.76225e-06;-0.0007394104677114524
6.76250e-06;-0.0007210914108764268
6.76275e-06;-0.0007027723540413393
6.76300e-06;-0.0006832296026099441
6.76325e-06;-0.0006620447692000584
6.76350e-06;-0.0006408599357901011
6.76375e-06;-0.0006188017200946446
6.76400e-06;-0.0005955715082852884
6.76425e-06;-0.0005719164776587757
6.76450e-06;-0.0005476913805091652
6.76475e-06;-0.0005231815960945153
6.76500e-06;-0.0004982897883968019
6.76525e-06;-0.00047317398893797493
6.76550e-06;-0.00044775761380002325
6.76575e-06;-0.00042234913628555926
6.76600e-06;-0.00039695125663194897
6.76625e-06;-0.0003718222192867439
6.76650e-06;-0.0003470539427974041
6.76675e-06;-0.0003227550312009712
6.76700e-06;-0.0002990859627321564
6.76725e-06;-0.00027603699440203534
6.76750e-06;-0.0002538201415894732
6.76775e-06;-0.00023222717927759046
6.76800e-06;-0.00021197968771082142
6.76825e-06;-0.00019299173441763835
6.76850e-06;-0.0001754270184431693
6.76875e-06;-0.00015945859374247447
6.76900e-06;-0.00014526097631699917
6.76925e-06;-0.00013296293260728055
6.76950e-06;-0.00012262294031914695
6.76975e-06;-0.00011426480336225326
6.77000e-06;-0.00010790847249232666
6.77025e-06;-0.00010357386306757519
6.77050e-06;-0.00010128186076710361
6.77075e-06;-0.00010105919743789987
6.77100e-06;-0.0001029335271639503
6.77125e-06;-0.0001069038249553364
6.77150e-06;-0.00011292504474491375
6.77175e-06;-0.00012093042693216994
6.77200e-06;-0.00013085078337393973
6.77225e-06;-0.00014261692183774224
6.77250e-06;-0.00015616025478567354
6.77275e-06;-0.00017141586816508557
6.77300e-06;-0.00018831941492818236
6.77325e-06;-0.0002067885812480876
6.77350e-06;-0.00022671350100623657
6.77375e-06;-0.0002482131850246161
6.77400e-06;-0.0002707606064195398
6.77425e-06;-0.0002941713728897271
6.77450e-06;-0.0003187406664902342
6.77475e-06;-0.00034408027559493725
6.77500e-06;-0.00037045357497694336
6.77525e-06;-0.00039682687435894947
6.77550e-06;-0.0004236319477692927
6.77575e-06;-0.0004510164209354107
6.77600e-06;-0.0004784008941015288
6.77625e-06;-0.0005056063793254512
6.77650e-06;-0.0005325716797227777
6.77675e-06;-0.0005595369801201956
6.77700e-06;-0.0005857047386143284
6.77725e-06;-0.0006108022715882635
6.77750e-06;-0.0006358998045622838
6.77775e-06;-0.0006595239347105832
6.77800e-06;-0.0006811708981430144
6.77825e-06;-0.0007028178615755189
6.77850e-06;-0.0007224188330938126
6.77875e-06;-0.0007392742776977226
6.77900e-06;-0.0007561297223016898
6.77925e-06;-0.0007709900694058839
6.77950e-06;-0.0007831731850682698
6.77975e-06;-0.0007953563007306972
6.78000e-06;-0.0008054149991936988
6.78025e-06;-0.000812622931454828
6.78050e-06;-0.0008198308637159817
6.78075e-06;-0.0008248819597896423
6.78100e-06;-0.0008270387864571371
6.78125e-06;-0.0008291956131246248
6.78150e-06;-0.0008294520557785716
6.78175e-06;-0.000827158363497715
6.78200e-06;-0.0008248646712168662
6.78225e-06;-0.0008207578436736354
6.78250e-06;-0.0008142179607367879
6.78275e-06;-0.0008076780777999625
6.78300e-06;-0.0007996058943665335
6.78325e-06;-0.0007894775091343586
6.78350e-06;-0.000779349123902218
6.78375e-06;-0.000768016497123256
6.78400e-06;-0.0007550678925121532
6.78425e-06;-0.0007421192879010941
6.78450e-06;-0.0007283571928684974
6.78475e-06;-0.0007135034709182438
6.78500e-06;-0.0006982141928625562
6.78525e-06;-0.0006823404398624516
6.78550e-06;-0.000666223370468046
6.78575e-06;-0.0006497797935714828
6.78600e-06;-0.0006332516481032516
6.78625e-06;-0.0006166100196404303
6.78650e-06;-0.0006000482373308213
6.78675e-06;-0.0005835936009786288
6.78700e-06;-0.0005674317421398838
6.78725e-06;-0.0005516627629294773
6.78750e-06;-0.0005365631243901581
6.78775e-06;-0.0005223616774881512
6.78800e-06;-0.0005081602305861444
6.78825e-06;-0.0004951007265903452
6.78850e-06;-0.00048357360156517723
6.78875e-06;-0.00047204647654000917
6.78900e-06;-0.0004613817935313286
6.78925e-06;-0.00045187442583347374
6.78950e-06;-0.0004423670581355867
6.78975e-06;-0.00043356926694215346
6.79000e-06;-0.0004257236600544404
6.79025e-06;-0.00041787805316670075
6.79050e-06;-0.00041087231182159654
6.79075e-06;-0.0004049935903025336
6.79100e-06;-0.0003991148687834508
6.79125e-06;-0.00039377476808025527
6.79150e-06;-0.00038915744537829447
6.79175e-06;-0.00038454012267631805
6.79200e-06;-0.0003804783966416367
6.79225e-06;-0.00037716222858918193
6.79250e-06;-0.0003738460605367159
6.79275e-06;-0.00037133047962252975
6.79300e-06;-0.0003698892106445878
6.79325e-06;-0.000368447941666641
6.79350e-06;-0.00036700667268869903
6.79375e-06;-0.0003655654037107522
6.79400e-06;-0.00036412413473281026
6.79425e-06;-0.0003626828657548683
6.79450e-06;-0.00036124159677692144
6.79475e-06;-0.00036049182500097834
6.79500e-06;-0.0003606699768231616
6.79525e-06;-0.0003608481286453455
6.79550e-06;-0.0003610262804675288
6.79575e-06;-0.00036120443228971206
6.79600e-06;-0.00036138258411189594
6.79625e-06;-0.0003615607359340792
6.79650e-06;-0.0003617388877562625
6.79675e-06;-0.0003621266776731853
6.79700e-06;-0.0003627957820113432
6.79725e-06;-0.00036346488634950115
6.79750e-06;-0.00036413399068766135
6.79775e-06;-0.00036475467470294104
6.79800e-06;-0.0003653103832416838
6.79825e-06;-0.0003658660917804247
6.79850e-06;-0.00036642180031916556
6.79875e-06;-0.0003673030533270853
6.79900e-06;-0.0003686211561071939
6.79925e-06;-0.00036993925888730256
6.79950e-06;-0.00037216738412066926
6.79975e-06;-0.00037561667309363313
6.80000e-06;-0.000379065962066597
6.80025e-06;-0.0003833192179174837
6.80050e-06;-0.00038865132099418507
6.80075e-06;-0.00039398342407088646
6.80100e-06;-0.0004003457558615379
6.80125e-06;-0.0004080905567818256
6.80150e-06;-0.0004158353577021134
6.80175e-06;-0.00042461781478916834
6.80200e-06;-0.0004347927079423788
6.80225e-06;-0.0004449676010956238
6.80250e-06;-0.0004559673433295358
6.80275e-06;-0.0004680739547229279
6.80300e-06;-0.000480180566116361
6.80325e-06;-0.0004934433670156806
6.80350e-06;-0.0005082576644693998
6.80375e-06;-0.0005230719619231691
6.80400e-06;-0.0005378862593768882
6.80425e-06;-0.0005527005568306073
6.80450e-06;-0.0005675148542843766
6.80475e-06;-0.0005823291517380957
6.80500e-06;-0.0005985178178742886
6.80525e-06;-0.0006148147092266446
6.80550e-06;-0.0006311116005789454
6.80575e-06;-0.0006474084919312462
6.80600e-06;-0.0006637053832836022
6.80625e-06;-0.000680002274635903
6.80650e-06;-0.0006959636391168115
6.80675e-06;-0.0007114747583893714
6.80700e-06;-0.0007269858776619313
6.80725e-06;-0.0007418763468824543
6.80750e-06;-0.000755933962654344
6.80775e-06;-0.0007699915784262337
6.80800e-06;-0.0007832543117619037
6.80825e-06;-0.0007954503883301198
6.80850e-06;-0.0008064070206217293
6.80875e-06;-0.0008157004363606514
6.80900e-06;-0.000824993852099542
6.80925e-06;-0.0008319605902867238
6.80950e-06;-0.0008358051480824105
6.80975e-06;-0.0008396497058780841
6.81000e-06;-0.0008410670897444722
6.81025e-06;-0.0008392274366212959
6.81050e-06;-0.0008373877834981257
6.81075e-06;-0.0008334666747548593
6.81100e-06;-0.0008267524501723213
6.81125e-06;-0.0008182183919491315
6.81150e-06;-0.0008072422897459636
6.81175e-06;-0.0007941986796268998
6.81200e-06;-0.0007783806701634504
6.81225e-06;-0.0007625626606999475
6.81250e-06;-0.0007449187240190907
6.81275e-06;-0.000724824566356848
6.81300e-06;-0.0007033410110637244
6.81325e-06;-0.0006799930160525885
6.81350e-06;-0.0006554189072405808
6.81375e-06;-0.0006291994701088337
6.81400e-06;-0.0006022256017826922
6.81425e-06;-0.0005738255502893518
6.81450e-06;-0.0005445209225976276
6.81475e-06;-0.0005144455516860344
6.81500e-06;-0.00048369757590900066
6.81525e-06;-0.0004523791563960799
6.81550e-06;-0.0004206420482568736
6.81575e-06;-0.00038867034200053144
6.81600e-06;-0.0003566525140333087
6.81625e-06;-0.000324777040761135
6.81650e-06;-0.0002932309321547542
6.81675e-06;-0.00026218840608835105
6.81700e-06;-0.00023180131357950387
6.81725e-06;-0.0002022239943342505
6.81750e-06;-0.0001736418376442995
6.81775e-06;-0.00014626050034199434
6.81800e-06;-0.00012028836585332016
6.81825e-06;-9.593379585654365e-05
6.81850e-06;-7.338460207387323e-05
6.81875e-06;-5.2633745879704255e-05
6.81900e-06;-3.328722572050355e-05
6.81925e-06;-1.4855352776717033e-05
6.81950e-06;2.8222316034805297e-06
6.81975e-06;1.9656887624362083e-05
6.82000e-06;3.552337352371399e-05
6.82025e-06;5.0296473536139724e-05
6.82050e-06;6.386385276824519e-05
6.82075e-06;7.623523719934849e-05
6.82100e-06;8.766273294659795e-05
6.82125e-06;9.845835987832384e-05
6.82150e-06;0.00010872782496948277
6.82175e-06;0.00011842086526197385
6.82200e-06;0.0001274642981119
6.82225e-06;0.00013578495232041628
6.82250e-06;0.00014316411716528988
6.82275e-06;0.0001498678789207787
6.82300e-06;0.00015614558222394476
6.82325e-06;0.00016185155553201253
6.82350e-06;0.0001672532373248778
6.82375e-06;0.0001722465887922972
6.82400e-06;0.00017687166308200068
6.82425e-06;0.00018100254436172165
6.82450e-06;0.00018465698954803003
6.82475e-06;0.00018767210272760195
6.82500e-06;0.0001906872159071841
6.82525e-06;0.000193403602983041
6.82550e-06;0.0001957191279873708
6.82575e-06;0.0001980346529917084
6.82600e-06;0.00019993809457223915
6.82625e-06;0.00020128855931931123
6.82650e-06;0.00020263902406638786
6.82675e-06;0.00020398948881345994
6.82700e-06;0.000205339953560532
6.82725e-06;0.00020669041830760862
6.82750e-06;0.0002080408830546807
6.82775e-06;0.0002088866267586035
6.82800e-06;0.0002096926260005163
6.82825e-06;0.0002104986252424291
6.82850e-06;0.00021130462448434463
6.82875e-06;0.00021211062372625744
6.82900e-06;0.00021291662296817025
6.82925e-06;0.00021388191440590795
6.82950e-06;0.00021506096084796284
6.82975e-06;0.00021624000729001774
6.83000e-06;0.00021741905373207662
6.83025e-06;0.0002185981001741315
6.83050e-06;0.0002197771466161864
6.83075e-06;0.00022095619305824527
6.83100e-06;0.00022213523950030017
6.83125e-06;0.00022331428594235506
6.83150e-06;0.00022449333238441394
6.83175e-06;0.00022567237882646884
6.83200e-06;0.00022719048248241302
6.83225e-06;0.00022916356873081895
6.83250e-06;0.00023113665497922491
6.83275e-06;0.00023310974122763754
6.83300e-06;0.0002350828274760435
6.83325e-06;0.00023705591372444947
6.83350e-06;0.0002390289999728621
6.83375e-06;0.00024100208622126806
6.83400e-06;0.00024297517246967402
6.83425e-06;0.00024494825871808665
6.83450e-06;0.0002469213449664926
6.83475e-06;0.0002490270513932114
6.83500e-06;0.00025131072150886256
6.83525e-06;0.000253594391624506
6.83550e-06;0.00025587806174014936
6.83575e-06;0.00025816173185580054
6.83600e-06;0.00026044540197144397
6.83625e-06;0.0002627290720870951
6.83650e-06;0.0002648010914179205
6.83675e-06;0.00026685644422238587
6.83700e-06;0.00026891179702685824
6.83725e-06;0.0002709671498313236
6.83750e-06;0.00027302250263578904
6.83775e-06;0.0002750778554402614
6.83800e-06;0.00027697023032038605
6.83825e-06;0.00027864390429846144
6.83850e-06;0.00028012991806840407
6.83875e-06;0.00028136410965466755
6.83900e-06;0.0002819089897105305
6.83925e-06;0.000281528879132849
6.83950e-06;0.00028023749714611753
6.83975e-06;0.0002777232754406212
6.84000e-06;0.0002743739002542633
6.84025e-06;0.00026990382838249833
6.84050e-06;0.0002646395389409623
6.84075e-06;0.00025830948492045315
6.84100e-06;0.00025124818926507527
6.84125e-06;0.00024265139260624667
6.84150e-06;0.00023278468851319344
6.84175e-06;0.00022172398407666332
6.84200e-06;0.000209558802679098
6.84225e-06;0.00019637863663452356
6.84250e-06;0.0001822683694901166
6.84275e-06;0.00016727092796826144
6.84300e-06;0.00015135087507620528
6.84325e-06;0.00013446701094647494
6.84350e-06;0.00011666516561471561
6.84375e-06;9.805150729131905e-05
6.84400e-06;7.874072485149349e-05
6.84425e-06;5.8847483789137976e-05
6.84450e-06;3.8483555729351884e-05
6.84475e-06;1.7734410102547075e-05
6.84500e-06;-3.3635597591690243e-06
6.84525e-06;-2.4811595897836446e-05
6.84550e-06;-4.646599535902273e-05
6.84575e-06;-6.810489783132288e-05
6.84600e-06;-8.972300481585626e-05
6.84625e-06;-0.00011134111180046287
6.84650e-06;-0.0001326296064078637
6.84675e-06;-0.00015347579249719312
6.84700e-06;-0.00017387398574339103
6.84725e-06;-0.00019367101512454327
6.84750e-06;-0.00021282769389076745
6.84775e-06;-0.00023112508292407995
6.84800e-06;-0.0002485439157230525
6.84825e-06;-0.0002647838094621642
6.84850e-06;-0.0002800045493865017
6.84875e-06;-0.0002938576816456024
6.84900e-06;-0.00030718264868857624
6.84925e-06;-0.00031979886815326574
6.84950e-06;-0.0003320110640111798
6.84975e-06;-0.0003436810985452068
6.85000e-06;-0.00035535113307919426
6.85025e-06;-0.0003662649303004774
6.85050e-06;-0.0003761639288422684
6.85075e-06;-0.00038606292738402586
6.85100e-06;-0.0003951416147347294
6.85125e-06;-0.0004031195223441203
6.85150e-06;-0.00041109742995348414
6.85175e-06;-0.000419075337562848
6.85200e-06;-0.00042705324517223884
6.85225e-06;-0.0004350311527816027
6.85250e-06;-0.00044300906039096655
6.85275e-06;-0.00045098696800035745
6.85300e-06;-0.0004589648756097213
6.85325e-06;-0.00046694278321911215
6.85350e-06;-0.000474920690828476
6.85375e-06;-0.0004820238336954111
6.85400e-06;-0.0004879531253247483
6.85425e-06;-0.0004938824169540654
6.85450e-06;-0.0004998117085833826
6.85475e-06;-0.0005057410002127198
6.85500e-06;-0.000511670291842037
6.85525e-06;-0.000517599583471354
6.85550e-06;-0.0005235288751006912
6.85575e-06;-0.0005294581667300084
6.85600e-06;-0.0005353874583593256
6.85625e-06;-0.0005413167499886628
6.85650e-06;-0.0005466204748275384
6.85675e-06;-0.000551084748422537
6.85700e-06;-0.0005555490220175507
6.85725e-06;-0.0005600132956125491
6.85750e-06;-0.0005644775692075628
6.85775e-06;-0.0005689418428025614
6.85800e-06;-0.0005724049869640376
6.85825e-06;-0.0005757892967848788
6.85850e-06;-0.0005791736066057087
6.85875e-06;-0.0005825579164265384
6.85900e-06;-0.0005859422262473797
6.85925e-06;-0.0005896114075516472
6.85950e-06;-0.0005936628593420684
6.85975e-06;-0.0005977143111325034
6.86000e-06;-0.0006017657629229247
6.86025e-06;-0.000605817214713346
6.86050e-06;-0.0006098686665037809
6.86075e-06;-0.0006139201182942022
6.86100e-06;-0.0006179715700846234
6.86125e-06;-0.0006220230218750584
6.86150e-06;-0.0006277875152468394
6.86175e-06;-0.0006336869027681988
6.86200e-06;-0.0006395862902895382
6.86225e-06;-0.0006454856778108776
6.86250e-06;-0.000651385065332237
6.86275e-06;-0.0006572844528535764
6.86300e-06;-0.0006631838403749157
6.86325e-06;-0.0006690832278962752
6.86350e-06;-0.0006756311378105717
6.86375e-06;-0.0006830493032078846
6.86400e-06;-0.0006904674686052226
6.86425e-06;-0.0006978856340025355
6.86450e-06;-0.0007053037993998484
6.86475e-06;-0.0007127219647971864
6.86500e-06;-0.0007201401301944994
6.86525e-06;-0.0007275582955918122
6.86550e-06;-0.0007349764609891503
6.86575e-06;-0.0007422078478344528
6.86600e-06;-0.0007491885955950604
6.86625e-06;-0.0007561693433556443
6.86650e-06;-0.0007631500911162283
6.86675e-06;-0.0007701308388768359
6.86700e-06;-0.0007771115866374199
6.86725e-06;-0.0007840923343980038
6.86750e-06;-0.0007910730821586114
6.86775e-06;-0.0007980538299191954
6.86800e-06;-0.000804411682407293
6.86825e-06;-0.0008099336685751897
6.86850e-06;-0.0008149619631811331
6.86875e-06;-0.0008193277705802868
6.86900e-06;-0.0008224084588025925
6.86925e-06;-0.0008237646390942154
6.86950e-06;-0.000823101173593353
6.86975e-06;-0.0008197275351770117
6.87000e-06;-0.0008163538967606816
6.87025e-06;-0.0008111172311439629
6.87050e-06;-0.0008033805598936494
6.87075e-06;-0.0007940460583761528
6.87100e-06;-0.0007825674203324868
6.87125e-06;-0.0007691961612664654
6.87150e-06;-0.0007532851844672605
6.87175e-06;-0.0007356487602571165
6.87200e-06;-0.0007156969494296377
6.87225e-06;-0.0006942630572955316
6.87250e-06;-0.0006708403527515338
6.87275e-06;-0.0006460284121322956
6.87300e-06;-0.0006193522485892799
6.87325e-06;-0.0005912741232959839
6.87350e-06;-0.0005613146984314832
6.87375e-06;-0.0005304704911966094
6.87400e-06;-0.000497957924712361
6.87425e-06;-0.0004644004343622262
6.87450e-06;-0.0004299848706083366
6.87475e-06;-0.0003948584975946231
6.87500e-06;-0.0003590955826424513
6.87525e-06;-0.00032276686076681817
6.87550e-06;-0.00028602698156331613
6.87575e-06;-0.0002490881958579054
6.87600e-06;-0.00021217083419893388
6.87625e-06;-0.00017549520228029138
6.87650e-06;-0.00013927885705208162
6.87675e-06;-0.00010371459127309765
6.87700e-06;-6.894942047172885e-05
6.87725e-06;-3.512816434087325e-05
6.87750e-06;-2.4481812636307744e-06
6.87775e-06;2.885707502581847e-05
6.87800e-06;5.854913364902402e-05
6.87825e-06;8.638955078673877e-05
6.87850e-06;0.00011216629899284509
6.87875e-06;0.00013591698969319025
6.87900e-06;0.00015817213362543823
6.87925e-06;0.00017957649142478707
6.87950e-06;0.00020034391312961393
6.87975e-06;0.0002201538237954567
6.88000e-06;0.0002392010511925521
6.88025e-06;0.0002572765446903852
6.88050e-06;0.00027404806354853486
6.88075e-06;0.0002899718461658875
6.88100e-06;0.00030475804722948115
6.88125e-06;0.0003192137535691673
6.88150e-06;0.0003332259673655445
6.88175e-06;0.00034670353711894846
6.88200e-06;0.00035946366532396966
6.88225e-06;0.0003722237935289909
6.88250e-06;0.00038415858384088455
6.88275e-06;0.0003949858490550596
6.88300e-06;0.0004058131142692712
6.88325e-06;0.0004158951181685888
6.88350e-06;0.0004249770521361251
6.88375e-06;0.0004340589861036922
6.88400e-06;0.00044314092007122853
6.88425e-06;0.00045222285403876485
6.88450e-06;0.0004613047880063319
6.88475e-06;0.0004703867219738682
6.88500e-06;0.00047946865594140453
6.88525e-06;0.0004875065191229252
6.88550e-06;0.0004941433384303848
6.88575e-06;0.0005007801577378442
6.88600e-06;0.0005074169770453263
6.88625e-06;0.0005140537963527858
6.88650e-06;0.0005206906156602453
6.88675e-06;0.0005273274349677273
6.88700e-06;0.0005339642542751868
6.88725e-06;0.0005399886251073391
6.88750e-06;0.0005451911482295703
6.88775e-06;0.0005503936713518014
6.88800e-06;0.0005553696509496995
6.88825e-06;0.0005599003060607652
6.88850e-06;0.0005640799842707377
6.88875e-06;0.0005677067963873069
6.88900e-06;0.0005708822280169497
6.88925e-06;0.0005734829164718053
6.88950e-06;0.0005753123541504914
6.88975e-06;0.0005765557521324565
6.89000e-06;0.0005770127404782882
6.89025e-06;0.000576747820178906
6.89050e-06;0.000575514167013506
6.89075e-06;0.0005742805138481059
6.89100e-06;0.0005721056329847889
6.89125e-06;0.0005686677139082568
6.89150e-06;0.0005652297948317129
6.89175e-06;0.0005605640673054768
6.89200e-06;0.0005542507374042711
6.89225e-06;0.0005479374075030441
6.89250e-06;0.0005416240776018385
6.89275e-06;0.0005353107477006328
