Time(s);Current(A)
1.15000e-05;0.0007552037728762802
1.15003e-05;0.0007733902908674058
1.15005e-05;0.0007915768088585314
1.15007e-05;0.0008097633268495338
1.15010e-05;0.0008295846930836676
1.15013e-05;0.0008507217036763482
1.15015e-05;0.0008718587142688858
1.15018e-05;0.0008929957248615664
1.15020e-05;0.0009141327354542472
1.15023e-05;0.0009352697460469279
1.15025e-05;0.0009563517948495946
1.15028e-05;0.0009764727504234193
1.15030e-05;0.000996593705997244
1.15033e-05;0.0010167146615709325
1.15035e-05;0.0010368356171447572
1.15038e-05;0.001056956572718582
1.15040e-05;0.0010770775282922702
1.15043e-05;0.0010946374189378357
1.15045e-05;0.0011101362922140419
1.15048e-05;0.0011256351654901431
1.15050e-05;0.001141134038766349
1.15053e-05;0.0011566329120425553
1.15055e-05;0.0011721317853186565
1.15058e-05;0.001187924217857215
1.15060e-05;0.0012088499952188885
1.15063e-05;0.0012297757725804202
1.15065e-05;0.0012507015499420937
1.15068e-05;0.0012716273273037672
1.15070e-05;0.0012925531046652989
1.15073e-05;0.0013134788820269724
1.15075e-05;0.0013344046593886459
1.15078e-05;0.0013553304367501775
1.15080e-05;0.0013830131458023444
1.15083e-05;0.0014161334966049904
1.15085e-05;0.0014492538474074118
1.15088e-05;0.0014823741982100578
1.15090e-05;0.0015154945490127038
1.15092e-05;0.0015486148998151252
1.15095e-05;0.0015817352506177712
1.15098e-05;0.0016148556014204173
1.15100e-05;0.0016483448812572266
1.15103e-05;0.001688439766406395
1.15105e-05;0.001731232857925998
1.15108e-05;0.0017740259494456005
1.15110e-05;0.0018168190409649132
1.15113e-05;0.001859612132484516
1.15115e-05;0.0019024052240041187
1.15118e-05;0.0019451983155234314
1.15120e-05;0.001987967098598943
1.15123e-05;0.0020303108103455333
1.15125e-05;0.002072654522091837
1.15128e-05;0.0021149982338384277
1.15130e-05;0.002157341945585018
1.15133e-05;0.0021996856573313216
1.15135e-05;0.002242029369077912
1.15138e-05;0.0022838973243640565
1.15140e-05;0.00231744593061306
1.15143e-05;0.0023509945368622915
1.15145e-05;0.002384543143111523
1.15148e-05;0.0024180917493605266
1.15150e-05;0.002451640355609758
1.15153e-05;0.002484106396608434
1.15155e-05;0.0024976420836873895
1.15158e-05;0.002511177770766437
1.15160e-05;0.0025247134578454847
1.15163e-05;0.0025382491449244407
1.15165e-05;0.002551784832003488
1.15168e-05;0.002564240865279799
1.15170e-05;0.0025578174558724904
1.15173e-05;0.0025513940464651384
1.15175e-05;0.002544200348186257
1.15177e-05;0.0025235369390029278
1.15180e-05;0.0025028735298194583
1.15183e-05;0.0024814867465847413
1.15185e-05;0.0024474506317730747
1.15188e-05;0.0024134145169611774
1.15190e-05;0.0023787463346239446
1.15193e-05;0.002333025458739849
1.15195e-05;0.002287304582856063
1.15198e-05;0.0022410237182430544
1.15200e-05;0.0021849505710603914
1.15203e-05;0.002128877423878108
1.15205e-05;0.002072300128567565
1.15208e-05;0.0020069070113111023
1.15210e-05;0.001941513894055083
1.15213e-05;0.0018761207767986204
1.15215e-05;0.001810727659542158
1.15218e-05;0.0017450763533424915
1.15220e-05;0.0016749102078911246
1.15223e-05;0.0016047440624397578
1.15225e-05;0.0015345779169888664
1.15228e-05;0.0014644117715374994
1.15230e-05;0.0013943930788413792
1.15233e-05;0.0013269528291951329
1.15235e-05;0.0012595125795484296
1.15238e-05;0.001192338083991265
1.15240e-05;0.001129810716146511
1.15243e-05;0.00106760766037792
1.15245e-05;0.00101107571071066
1.15248e-05;0.0009548491434626654
1.15250e-05;0.0009046953573592834
1.15253e-05;0.0008687646770497407
1.15255e-05;0.0008278351774196296
1.15258e-05;0.000790605203227139
1.15260e-05;0.0007494808976116811
1.15262e-05;0.0007157580947338342
1.15265e-05;0.0006800081073312468
1.15268e-05;0.0006491444939668054
1.15270e-05;0.0006201228322037697
1.15273e-05;0.0005961273145764628
1.15275e-05;0.0005733247260806111
1.15278e-05;0.0005525742381195821
1.15280e-05;0.0005349320172252696
1.15283e-05;0.0005172897963308375
1.15285e-05;0.0005042790569160422
1.15288e-05;0.0004913286116356894
1.15290e-05;0.00048062768769936817
1.15293e-05;0.000471578378471951
1.15295e-05;0.00046598514202885345
1.15298e-05;0.00046086626718422054
1.15300e-05;0.00045799269199719344
1.15303e-05;0.0004556234073673797
1.15305e-05;0.0004551785968647327
1.15308e-05;0.00045506320017697137
1.15310e-05;0.0004566653499914688
1.15313e-05;0.0004585614936495619
1.15315e-05;0.00046256880271264365
1.15318e-05;0.000466937481689716
1.15320e-05;0.000471306160666818
1.15323e-05;0.00047753638327233344
1.15325e-05;0.0004840852478275802
1.15328e-05;0.0004906341123828713
1.15330e-05;0.0004971829769381625
1.15333e-05;0.0005037318414934093
1.15335e-05;0.0005103567242504952
1.15338e-05;0.0005171204226990069
1.15340e-05;0.0005238841211474728
1.15343e-05;0.0005306478195959844
1.15345e-05;0.0005374115180444961
1.15347e-05;0.0005441752164929619
1.15350e-05;0.0005498739286969908
1.15353e-05;0.0005553903463319746
1.15355e-05;0.0005609067639669211
1.15358e-05;0.0005695970824254869
1.15360e-05;0.0005788306800915121
1.15362e-05;0.0005919107906919625
1.15365e-05;0.0006056493120667246
1.15368e-05;0.0006223558917655774
1.15370e-05;0.0006395705164424308
1.15373e-05;0.0006598221836016066
1.15375e-05;0.0006805937038138993
1.15378e-05;0.0007059460107040101
1.15380e-05;0.0007320824146071982
1.15383e-05;0.0007627780600639547
1.15385e-05;0.0007942541146373863
1.15388e-05;0.0008292679929464127
1.15390e-05;0.0008648874434466476
1.15393e-05;0.0009045213528239981
1.15395e-05;0.0009448424204202002
1.15398e-05;0.0009851634880166755
1.15400e-05;0.0010305646656658062
1.15403e-05;0.0010768354099196845
1.15405e-05;0.0011231061541738762
1.15408e-05;0.0011732672531415084
1.15410e-05;0.0012240942673164923
1.15413e-05;0.0012749212814918206
1.15415e-05;0.001325748295667149
1.15418e-05;0.001376575309842133
1.15420e-05;0.00142775423329885
1.15423e-05;0.0014795757729853347
1.15425e-05;0.0015313973126714685
1.15428e-05;0.0015832188523579533
1.15430e-05;0.0016350403920444379
1.15432e-05;0.0016868619317305716
1.15435e-05;0.0017331135563697494
1.15438e-05;0.001778411774080873
1.15440e-05;0.0018237099917916895
1.15443e-05;0.001869008209502813
1.15445e-05;0.0019143064272139367
1.15447e-05;0.0019539951498642005
1.15450e-05;0.001983440458209486
1.15453e-05;0.0020128857665547713
1.15455e-05;0.0020423310749000563
1.15458e-05;0.0020717763832451422
1.15460e-05;0.0021012216915904276
1.15463e-05;0.002114619011132361
1.15465e-05;0.002125269383264972
1.15468e-05;0.002135919755397655
1.15470e-05;0.00213448517651331
1.15473e-05;0.0021309820066489015
1.15475e-05;0.0021274788367844693
1.15478e-05;0.0021114087545352042
1.15480e-05;0.0020931875835833638
1.15483e-05;0.0020749664126313997
1.15485e-05;0.0020450997747529526
1.15488e-05;0.002013239772747075
1.15490e-05;0.0019813797707409816
1.15493e-05;0.0019392056099175575
1.15495e-05;0.0018952659660679259
1.15498e-05;0.0018513263222179968
1.15500e-05;0.0017984996500355007
1.15503e-05;0.001744151777922681
1.15505e-05;0.0016898039058094929
1.15508e-05;0.0016289057857446093
1.15510e-05;0.0015668864543643046
1.15513e-05;0.0015048671229835797
1.15515e-05;0.0014380862500847215
1.15517e-05;0.0013704903402181577
1.15520e-05;0.0013028944303511358
1.15523e-05;0.001235298520484114
1.15525e-05;0.0011676597422860646
1.15528e-05;0.0010999426828741284
1.15530e-05;0.001032225623462192
1.15532e-05;0.0009645085640507145
1.15535e-05;0.0008967915046387781
1.15538e-05;0.0008329652771139453
1.15540e-05;0.0007698050464754859
1.15543e-05;0.0007110558259404366
1.15545e-05;0.0006530616416233694
1.15548e-05;0.0005993350568985107
1.15550e-05;0.0005496985090899896
1.15553e-05;0.0005043549062286381
1.15555e-05;0.0004636066574508272
1.15558e-05;0.00042759460197077254
1.15560e-05;0.0003963974622798662
1.15563e-05;0.000370103378214302
1.15565e-05;0.00034880144756862445
1.15568e-05;0.0003325802921777462
1.15570e-05;0.0003215308151706557
1.15573e-05;0.000315726522519392
1.15575e-05;0.00031516429315188904
1.15578e-05;0.0003197399194334913
1.15580e-05;0.00032931019036230527
1.15583e-05;0.0003437378260836282
1.15585e-05;0.0003628862172465857
1.15588e-05;0.00038661835219608044
1.15590e-05;0.0004147986968570767
1.15593e-05;0.00044728084373536704
1.15595e-05;0.0004838703825875799
1.15598e-05;0.0005243096215903506
1.15600e-05;0.0005683163035077709
1.15602e-05;0.0006168803299186254
1.15605e-05;0.0006661362346602106
1.15608e-05;0.0007199901721184043
1.15610e-05;0.0007746311586090287
1.15613e-05;0.0008335657297190527
1.15615e-05;0.0008932352372312546
1.15617e-05;0.0009529047447430521
1.15620e-05;0.0010154553790529088
1.15623e-05;0.0010784991782007464
1.15625e-05;0.0011415429773485842
1.15628e-05;0.0012045867764959946
1.15630e-05;0.0012666903055241873
1.15633e-05;0.0013270768214710391
1.15635e-05;0.0013874633374174818
1.15638e-05;0.0014478498533643336
1.15640e-05;0.0015082363693111854
1.15643e-05;0.0015615860151457239
1.15645e-05;0.0016137311541495171
1.15648e-05;0.0016658762931533106
1.15650e-05;0.0017093148494191687
1.15653e-05;0.0017512630927739264
1.15655e-05;0.001793211336128684
1.15658e-05;0.0018302436132934595
1.15660e-05;0.0018664344204919441
1.15663e-05;0.001902625227690429
1.15665e-05;0.0019306426159777454
1.15668e-05;0.0019572609534434025
1.15670e-05;0.0019838792909090595
1.15673e-05;0.0020104976283745364
1.15675e-05;0.0020371159658401933
1.15678e-05;0.0020637343033058507
1.15680e-05;0.0020903526407713272
1.15683e-05;0.0021169709782369846
1.15685e-05;0.0021435893157026415
1.15687e-05;0.0021622387790240743
1.15690e-05;0.002179524203619152
1.15693e-05;0.00219680962821423
1.15695e-05;0.0022140950528091907
1.15698e-05;0.0022313804774042683
1.15700e-05;0.0022486659019993463
1.15702e-05;0.002265951326594307
1.15705e-05;0.0022832367511893847
1.15708e-05;0.0023005221757844627
1.15710e-05;0.002312454983022532
1.15713e-05;0.0023234715783550424
1.15715e-05;0.002334488173687628
1.15718e-05;0.0023455047690202134
1.15720e-05;0.0023565213643527236
1.15723e-05;0.002367537959685309
1.15725e-05;0.0023785545550178942
1.15728e-05;0.002389571150350405
1.15730e-05;0.00240058774568299
1.15733e-05;0.0024116043410155755
1.15735e-05;0.002422620936348086
1.15738e-05;0.0024336375316806715
1.15740e-05;0.002438765838720642
1.15743e-05;0.002442886242621359
1.15745e-05;0.002447006646522104
1.15748e-05;0.0024511270504228486
1.15750e-05;0.0024552474543235656
1.15753e-05;0.0024593678582243103
1.15755e-05;0.0024634882621250554
1.15758e-05;0.0024676086660257723
1.15760e-05;0.002471729069926517
1.15763e-05;0.0024758494738272617
1.15765e-05;0.0024799698777279787
1.15768e-05;0.002484090281628724
1.15770e-05;0.00247731435126305
1.15772e-05;0.0024686732864187553
1.15775e-05;0.0024600322215744016
1.15778e-05;0.002451391156730048
1.15780e-05;0.002442750091885753
1.15783e-05;0.0024341090270413993
1.15785e-05;0.0024254679621970457
1.15787e-05;0.002416826897352751
1.15790e-05;0.0024081858325083975
1.15793e-05;0.002399544767664044
1.15795e-05;0.0023909037028196902
1.15798e-05;0.002373688758325056
1.15800e-05;0.0023550062158140483
1.15803e-05;0.00233632367330304
1.15805e-05;0.002317641130792159
1.15808e-05;0.0022989585882811506
1.15810e-05;0.002280276045770143
1.15813e-05;0.002261593503259261
1.15815e-05;0.0022429109607482534
1.15818e-05;0.002224228418237245
1.15820e-05;0.002205545875726364
1.15823e-05;0.0021868633332153557
1.15825e-05;0.0021677462806703224
1.15828e-05;0.002148554852686281
1.15830e-05;0.0021293634247021094
1.15833e-05;0.002110171996717938
1.15835e-05;0.0020909805687338964
1.15838e-05;0.0020717891407497253
1.15840e-05;0.002052597712765554
1.15843e-05;0.0020334062847815124
1.15845e-05;0.002014214856797341
1.15848e-05;0.0019990122836982204
1.15850e-05;0.0019844924861637404
1.15853e-05;0.001969972688629162
1.15855e-05;0.0019554528910945834
1.15857e-05;0.0019409330935601036
1.15860e-05;0.0019264132960255251
1.15863e-05;0.0019118934984909469
1.15865e-05;0.0018973737009564669
1.15868e-05;0.0018828539034218884
1.15870e-05;0.0018665129731831923
1.15872e-05;0.0018498603181648925
1.15875e-05;0.00183320766314648
1.15878e-05;0.0018165550081280675
1.15880e-05;0.001799902353109655
1.15883e-05;0.0017832496980913551
1.15885e-05;0.0017665970430729427
1.15888e-05;0.0017499443880545302
1.15890e-05;0.0017332917330362303
1.15893e-05;0.0017166390780178177
1.15895e-05;0.0016999864229994054
1.15898e-05;0.00168199239385464
1.15900e-05;0.0016615489016500412
1.15903e-05;0.0016411054094454425
1.15905e-05;0.0016206619172409822
1.15908e-05;0.0016002184250363835
1.15910e-05;0.0015797749328317848
1.15913e-05;0.0015593314406273245
1.15915e-05;0.0015388879484227258
1.15918e-05;0.001518444456218127
1.15920e-05;0.0014980009640136668
1.15923e-05;0.001477557471809068
1.15925e-05;0.0014571139796044693
1.15928e-05;0.0014376190138802856
1.15930e-05;0.001418286408212196
1.15933e-05;0.0013989538025441063
1.15935e-05;0.0013796211968761477
1.15938e-05;0.001360288591208058
1.15940e-05;0.001342350912706822
1.15942e-05;0.001326960489665073
1.15945e-05;0.0013115700666232201
1.15948e-05;0.0012961796435813672
1.15950e-05;0.0012807892205396183
1.15953e-05;0.0012653987974977654
1.15955e-05;0.0012495826468344416
1.15957e-05;0.0012336936240247855
1.15960e-05;0.0012178046012150218
1.15963e-05;0.0011963409493525759
1.15965e-05;0.0011739230836590067
1.15968e-05;0.0011515052179655893
1.15970e-05;0.0011246694172479686
1.15973e-05;0.0010970773949655868
1.15975e-05;0.001069485372683392
1.15978e-05;0.0010362592299669121
1.15980e-05;0.0010020686902306114
1.15983e-05;0.0009629917560456709
1.15985e-05;0.0009230784137113408
1.15988e-05;0.0008793276287680109
1.15990e-05;0.0008349199856233616
1.15993e-05;0.0007872913091084509
1.15995e-05;0.0007391112856673598
1.15998e-05;0.0006870279665846644
1.16000e-05;0.0006342765171822427
1.16003e-05;0.000578159108036902
1.16005e-05;0.0005214655447994998
1.16008e-05;0.00046260509372368685
1.16010e-05;0.0004033737346777343
1.16013e-05;0.0003429033943043146
1.16015e-05;0.00028222097647945016
1.16018e-05;0.00022029857503527177
1.16020e-05;0.00015816392457742152
1.16023e-05;9.60292741191502e-05
1.16025e-05;3.3863592979662596e-05
1.16027e-05;-2.778418080655076e-05
1.16030e-05;-8.849579111533076e-05
1.16033e-05;-0.0001479435983159949
1.16035e-05;-0.00020594622942072705
1.16038e-05;-0.00026237910286345634
1.16040e-05;-0.000316980117787265
1.16042e-05;-0.00036937097485240057
1.16045e-05;-0.0004191562272180127
1.16048e-05;-0.00046594017920484343
1.16050e-05;-0.0005093271848344053
1.16053e-05;-0.0005488916372926451
1.16055e-05;-0.0005841638099237917
1.16058e-05;-0.0006147618074416965
1.16060e-05;-0.0006405082259368155
1.16063e-05;-0.0006613430819926684
1.16065e-05;-0.0006772224149452055
1.16068e-05;-0.0006881024611406683
1.16070e-05;-0.0006939395478188847
1.16073e-05;-0.0006946711827816848
1.16075e-05;-0.0006902072963828026
1.16078e-05;-0.0006805127938979024
1.16080e-05;-0.0006656807923961193
1.16083e-05;-0.0006458778513243374
1.16085e-05;-0.0006212806354109681
1.16088e-05;-0.00059206583042875
1.16090e-05;-0.0005584102954303967
1.16093e-05;-0.0005204789954004472
1.16095e-05;-0.0004784196204087098
1.16098e-05;-0.00043241442895121325
1.16100e-05;-0.00038272577349928545
1.16103e-05;-0.00032966214996469094
1.16105e-05;-0.000273538289409277
1.16108e-05;-0.00021466894584084304
1.16110e-05;-0.00015336893718482955
1.16113e-05;-8.994565770494692e-05
1.16115e-05;-2.46956365874102e-05
1.16118e-05;4.206299333705313e-05
1.16120e-05;0.00010996190374248123
1.16123e-05;0.0001787424078033059
1.16125e-05;0.0002476466635529636
1.16127e-05;0.000316270379576697
1.16130e-05;0.0003843818062393507
1.16133e-05;0.00045249323290200437
1.16135e-05;0.0005182193061536941
1.16138e-05;0.0005835370765030446
1.16140e-05;0.0006451804836892451
1.16143e-05;0.0007061949471157904
1.16145e-05;0.0007619881596335784
1.16148e-05;0.0008168876463466898
1.16150e-05;0.0008650870715326614
1.16153e-05;0.0009121396416853703
1.16155e-05;0.0009524532845967509
1.16158e-05;0.0009916134197988607
1.16160e-05;0.001024829436591907
1.16163e-05;0.001057027993756427
1.16165e-05;0.0010828246421070162
1.16168e-05;0.0011075254704691051
1.16170e-05;0.0011252861346611092
1.16173e-05;0.0011418588452534089
1.16175e-05;0.0011518552483202975
1.16178e-05;0.0011607259794282183
1.16180e-05;0.0011639064120816615
1.16183e-05;0.00116611283167624
1.16185e-05;0.0011627301428353382
1.16188e-05;0.0011583907617142245
1.16190e-05;0.0011485132647703544
1.16193e-05;0.001137687803993631
1.16195e-05;0.0011209244373584222
1.16198e-05;0.0011031446745018803
1.16200e-05;0.001085364911645218
1.16203e-05;0.001061958831318595
1.16205e-05;0.0010375896896109424
1.16208e-05;0.0010132205479031246
1.16210e-05;0.0009842466639268395
1.16212e-05;0.0009544845824355908
1.16215e-05;0.0009247225009441403
1.16218e-05;0.0008918775587238128
1.16220e-05;0.0008585049207010787
1.16223e-05;0.0008251322826785708
1.16225e-05;0.0007917596446558368
1.16228e-05;0.0007582513850733729
1.16230e-05;0.0007244954690063059
1.16233e-05;0.0006907395529390103
1.16235e-05;0.0006569836368717147
1.16238e-05;0.0006232277208046479
1.16240e-05;0.0005917705587866825
1.16243e-05;0.0005607068763869924
1.16245e-05;0.0005322856401240375
1.16248e-05;0.0005043167135359641
1.16250e-05;0.0004797304584503978
1.16253e-05;0.0004557232180238338
1.16255e-05;0.0004349559343945332
1.16258e-05;0.0004147432368308403
1.16260e-05;0.00039719253008695083
1.16263e-05;0.0003800974784975289
1.16265e-05;0.0003659191322892909
1.16268e-05;0.00035224004093641417
1.16270e-05;0.00034095891944125413
1.16273e-05;0.0003317404260375606
1.16275e-05;0.00032431194957867847
1.16278e-05;0.00031843136363577485
1.16280e-05;0.0003139775759413722
1.16283e-05;0.0003115639423232817
1.16285e-05;0.0003094641882673126
1.16288e-05;0.0003098549337930445
1.16290e-05;0.00031067198017736884
1.16293e-05;0.0003139071747828285
1.16295e-05;0.00031755628580508227
1.16297e-05;0.0003231086116058428
1.16300e-05;0.0003289867122431893
1.16303e-05;0.00033648039900617457
1.16305e-05;0.0003442506269730047
1.16308e-05;0.0003538541288272477
1.16310e-05;0.00036377143367836247
1.16313e-05;0.0003736887385294772
1.16315e-05;0.0003854579101884561
1.16318e-05;0.00039754406740980316
1.16320e-05;0.0004096302246311503
1.16323e-05;0.00042171638185241545
1.16325e-05;0.0004338025390737626
1.16328e-05;0.00044643036109902475
1.16330e-05;0.0004591509003335172
1.16333e-05;0.0004718714395680958
1.16335e-05;0.0004845919788026744
1.16338e-05;0.0004973125180371668
1.16340e-05;0.0005076025237104804
1.16343e-05;0.000517476492958045
1.16345e-05;0.0005273504622055428
1.16348e-05;0.0005372244314531075
1.16350e-05;0.0005470984007006722
1.16353e-05;0.0005569723699481698
1.16355e-05;0.0005668463391957346
1.16358e-05;0.0005767203084432993
1.16360e-05;0.0005833495123797111
1.16363e-05;0.0005894233071730487
1.16365e-05;0.0005954971019663862
1.16368e-05;0.0006015708967596826
1.16370e-05;0.0006076446915530202
1.16373e-05;0.0006137184863463578
1.16375e-05;0.0006197922811396543
1.16378e-05;0.0006258660759329919
1.16380e-05;0.0006295999039992613
1.16382e-05;0.0006329331980390379
1.16385e-05;0.000636266492078837
1.16388e-05;0.000639599786118636
1.16390e-05;0.0006429330801584352
1.16393e-05;0.0006462663741982117
1.16395e-05;0.0006495996682380108
1.16398e-05;0.0006529329622778099
1.16400e-05;0.0006562662563175865
1.16403e-05;0.0006595995503573856
1.16405e-05;0.0006629328443971846
1.16408e-05;0.0006662661384369612
1.16410e-05;0.0006695994324767602
1.16413e-05;0.0006722753236126653
1.16415e-05;0.0006737507412197398
1.16418e-05;0.0006752261588268242
1.16420e-05;0.0006767015764339087
1.16423e-05;0.0006781769940409832
1.16425e-05;0.0006796524116480676
1.16428e-05;0.0006811278292551521
1.16430e-05;0.0006826032468622266
1.16433e-05;0.000684078664469311
1.16435e-05;0.0006855540820763955
1.16438e-05;0.00068702949968347
1.16440e-05;0.0006885049172905544
1.16443e-05;0.0006899803348976389
1.16445e-05;0.0006914557525047134
1.16448e-05;0.0006923322894685942
1.16450e-05;0.0006931063155408714
1.16453e-05;0.0006938803416131433
1.16455e-05;0.0006925950729356087
1.16458e-05;0.0006909573130843113
1.16460e-05;0.0006854427976073022
1.16463e-05;0.0006792646946855868
1.16465e-05;0.0006694470810082423
1.16467e-05;0.0006590064892855863
1.16470e-05;0.0006452901937516367
