Time(s);Current(A)
9.50000e-06;0.007225728187861356
9.50025e-06;0.007188665723096531
9.50050e-06;0.007168056456139996
9.50075e-06;0.007147734307693313
9.50100e-06;0.007127412159246629
9.50125e-06;0.007107090010800084
9.50150e-06;0.0070867678623534
9.50175e-06;0.007066445713906717
9.50200e-06;0.0070461235654601705
9.50225e-06;0.007025801417013487
9.50250e-06;0.0070054792685668036
9.50275e-06;0.006985157120120258
9.50300e-06;0.0069648349716735745
9.50325e-06;0.006944512823226891
9.50350e-06;0.006924190674780208
9.50375e-06;0.0069093361734550544
9.50400e-06;0.006900337753000342
9.50425e-06;0.00689133933254563
9.50450e-06;0.006882340912090978
9.50475e-06;0.006873342491636266
9.50500e-06;0.0068643440711815525
9.50525e-06;0.006855345650726901
9.50550e-06;0.0068463472302721885
9.50575e-06;0.006837348809817476
9.50600e-06;0.0068283503893628245
9.50625e-06;0.006819351968908112
9.50650e-06;0.006810353548453399
9.50675e-06;0.006801355127998747
9.50700e-06;0.006792356707544035
9.50725e-06;0.0067833582870893225
9.50750e-06;0.006774359866634671
9.50775e-06;0.0067653614461799585
9.50800e-06;0.006756363025725246
9.50825e-06;0.0067473646052705945
9.50850e-06;0.006738366184815881
9.50875e-06;0.006729367764361169
9.50900e-06;0.006720369343906517
9.50925e-06;0.006711370923451805
9.50950e-06;0.006702372502997093
9.50975e-06;0.006693374082542441
9.51000e-06;0.006684375662087728
9.51025e-06;0.0066855085415533245
9.51050e-06;0.006686818218489176
9.51075e-06;0.0066881278954250365
9.51100e-06;0.006689437572360898
9.51125e-06;0.0066907472492967485
9.51150e-06;0.00669205692623261
9.51175e-06;0.00669336660316847
9.51200e-06;0.0066946762801043305
9.51225e-06;0.006695985957040182
9.51250e-06;0.0066972956339760425
9.51275e-06;0.006698605310911903
9.51300e-06;0.0066999149878477545
9.51325e-06;0.006701224664783615
9.51350e-06;0.006702534341719475
9.51375e-06;0.006703844018655327
9.51400e-06;0.006705153695591187
9.51425e-06;0.006706463372527048
9.51450e-06;0.006707773049462899
9.51475e-06;0.00670908272639876
9.51500e-06;0.00671039240333462
9.51525e-06;0.006711702080270472
9.51550e-06;0.006713011757206332
9.51575e-06;0.006714321434142192
9.51600e-06;0.006715631111078044
9.51625e-06;0.006716940788013904
9.51650e-06;0.006719973004647187
9.51675e-06;0.006724850134009842
9.51700e-06;0.006729727263372532
9.51725e-06;0.006734604392735221
9.51750e-06;0.006739481522097877
9.51775e-06;0.006744358651460566
9.51800e-06;0.006749235780823255
9.51825e-06;0.0067541129101859115
9.51850e-06;0.006758990039548601
9.51875e-06;0.006772297992165143
9.51900e-06;0.0067946357123770005
9.51925e-06;0.006816973432589009
9.51950e-06;0.006839311152801019
9.51975e-06;0.006861648873012877
9.52000e-06;0.006883986593224886
9.52025e-06;0.0069063243134368955
9.52050e-06;0.006928662033648904
9.52075e-06;0.006950999753860762
9.52100e-06;0.0069832646587174325
9.52125e-06;0.007026161997385937
9.52150e-06;0.007069059336054152
9.52175e-06;0.007111956674722658
9.52200e-06;0.007154854013391163
9.52225e-06;0.007197751352059378
9.52250e-06;0.007240648690727883
9.52275e-06;0.007283546029396388
9.52300e-06;0.007326443368064603
9.52325e-06;0.007369340706733108
9.52350e-06;0.007412238045401614
9.52375e-06;0.007461122116304327
9.52400e-06;0.00751011065940037
9.52425e-06;0.0075590992024964125
9.52450e-06;0.007608087745592123
9.52475e-06;0.007657076288688166
9.52500e-06;0.007706064831784209
9.52525e-06;0.007755053374879919
9.52550e-06;0.007804041917975962
9.52575e-06;0.007853030461072006
9.52600e-06;0.007902019004167716
9.52625e-06;0.00793915414690794
9.52650e-06;0.007963593797495698
9.52675e-06;0.007988033448083291
9.52700e-06;0.00801247309867105
9.52725e-06;0.008036912749258808
9.52750e-06;0.0080613523998464
9.52775e-06;0.008085792050434158
9.52800e-06;0.008110231701021917
9.52825e-06;0.008134671351609508
9.52850e-06;0.008159111002197267
9.52875e-06;0.008183550652785025
9.52900e-06;0.008207990303372784
9.52925e-06;0.008232429953960377
9.52950e-06;0.008256869604548136
9.52975e-06;0.008281309255135894
9.53000e-06;0.008305748905723486
9.53025e-06;0.00831610020051905
9.53050e-06;0.008311362271543672
9.53075e-06;0.008306624342568326
9.53100e-06;0.00830188641359295
9.53125e-06;0.008297148484617572
9.53150e-06;0.008292410555642227
9.53175e-06;0.00828767262666685
9.53200e-06;0.008282934697691471
9.53225e-06;0.008278196768716125
9.53250e-06;0.008273458839740748
9.53275e-06;0.008268720910765371
9.53300e-06;0.008263982981790026
9.53325e-06;0.008259245052814649
9.53350e-06;0.00825450712383927
9.53375e-06;0.008249769194863926
9.53400e-06;0.008245031265888547
9.53425e-06;0.008236656085450473
9.53450e-06;0.00822438525515484
9.53475e-06;0.008212114424859125
9.53500e-06;0.008199843594563407
9.53525e-06;0.008187572764267775
9.53550e-06;0.008175301933972059
9.53575e-06;0.008163031103676341
9.53600e-06;0.008150760273380709
9.53625e-06;0.008138489443084993
9.53650e-06;0.008126218612789277
9.53675e-06;0.008113947782493643
9.53700e-06;0.008101676952197927
9.53725e-06;0.008089406121902211
9.53750e-06;0.008077135291606493
9.53775e-06;0.008077346840541339
9.53800e-06;0.008077776214741665
9.53825e-06;0.008078205588941992
9.53850e-06;0.008078634963142317
9.53875e-06;0.008079064337342644
9.53900e-06;0.00807949371154297
9.53925e-06;0.008079923085743294
9.53950e-06;0.00808035245994362
9.53975e-06;0.008080781834143949
9.54000e-06;0.008081211208344272
9.54025e-06;0.008081640582544599
9.54050e-06;0.008082069956744925
9.54075e-06;0.00808249933094525
9.54100e-06;0.008090777540682029
9.54125e-06;0.008107462184606265
9.54150e-06;0.008124146828530389
9.54175e-06;0.008140831472454625
9.54200e-06;0.008157516116378861
9.54225e-06;0.008174200760302985
9.54250e-06;0.008190885404227221
9.54275e-06;0.008207570048151458
9.54300e-06;0.00822425469207558
9.54325e-06;0.008240939335999816
9.54350e-06;0.008257623979924052
9.54375e-06;0.008274308623848176
9.54400e-06;0.008290993267772412
9.54425e-06;0.008307677911696648
9.54450e-06;0.008324436432914717
9.54475e-06;0.008341274079833354
9.54500e-06;0.008358111726751992
9.54525e-06;0.008374949373670516
9.54550e-06;0.008391787020589153
9.54575e-06;0.00840862466750779
9.54600e-06;0.008425462314426427
9.54625e-06;0.00844229996134495
9.54650e-06;0.008459137608263587
9.54675e-06;0.008475975255182226
9.54700e-06;0.008492812902100749
9.54725e-06;0.008509650549019386
9.54750e-06;0.008526488195938023
9.54775e-06;0.008543325842856548
9.54800e-06;0.008554191349884303
9.54825e-06;0.0085586604429816
9.54850e-06;0.008563129536078866
9.54875e-06;0.008567598629176163
9.54900e-06;0.008572067722273459
9.54925e-06;0.008576536815370727
9.54950e-06;0.008581005908468022
9.54975e-06;0.00858547500156532
9.55000e-06;0.008589944094662587
9.55025e-06;0.008594413187759883
9.55050e-06;0.00859888228085718
9.55075e-06;0.008603351373954446
9.55100e-06;0.008607820467051743
9.55125e-06;0.00861228956014904
9.55150e-06;0.008616758653246306
9.55175e-06;0.008621227746343604
9.55200e-06;0.008625696839440901
9.55225e-06;0.008630165932538167
9.55250e-06;0.008634635025635464
9.55275e-06;0.00863910411873276
9.55300e-06;0.008643573211830027
9.55325e-06;0.008648042304927325
9.55350e-06;0.00865251139802462
9.55375e-06;0.008654712597852669
9.55400e-06;0.00865448478825246
9.55425e-06;0.008654256978652252
9.55450e-06;0.008654029169052044
9.55475e-06;0.008653801359451836
9.55500e-06;0.008653573549851627
9.55525e-06;0.008653345740251419
9.55550e-06;0.008653117930651212
9.55575e-06;0.008652890121051004
9.55600e-06;0.008652662311450796
9.55625e-06;0.00865243450185059
9.55650e-06;0.008652206692250381
9.55675e-06;0.008651978882650173
9.55700e-06;0.008651751073049966
9.55725e-06;0.008651523263449758
9.55750e-06;0.00865129545384955
9.55775e-06;0.008651067644249343
9.55800e-06;0.008650839834649135
9.55825e-06;0.008650612025048927
9.55850e-06;0.008650384215448718
9.55875e-06;0.00865015640584851
9.55900e-06;0.008649928596248302
9.55925e-06;0.008649700786648095
9.55950e-06;0.008653033125842924
9.55975e-06;0.008660178534685939
9.56000e-06;0.008667323943528905
9.56025e-06;0.00867446935237192
9.56050e-06;0.008681614761214936
9.56075e-06;0.0086887601700579
9.56100e-06;0.008695905578900915
9.56125e-06;0.00870305098774393
9.56150e-06;0.008710196396586897
9.56175e-06;0.008717341805429912
9.56200e-06;0.008724487214272925
9.56225e-06;0.008731632623115892
9.56250e-06;0.008738778031958907
9.56275e-06;0.008745923440801922
9.56300e-06;0.008753068849644888
9.56325e-06;0.008760214258487903
9.56350e-06;0.008767359667330917
9.56375e-06;0.008774505076173932
9.56400e-06;0.008781650485016898
9.56425e-06;0.008788661708620398
9.56450e-06;0.008795670590608153
9.56475e-06;0.008802679472595859
9.56500e-06;0.008809688354583614
9.56525e-06;0.008816697236571368
9.56550e-06;0.008823706118559076
9.56575e-06;0.008830715000546831
9.56600e-06;0.008837723882534586
9.56625e-06;0.008844732764522294
9.56650e-06;0.008851741646510048
9.56675e-06;0.008858750528497803
9.56700e-06;0.00886575941048551
9.56725e-06;0.008872768292473264
9.56750e-06;0.008879777174461019
9.56775e-06;0.008886786056448727
9.56800e-06;0.008893794938436481
9.56825e-06;0.008900803820424236
9.56850e-06;0.008907812702411942
9.56875e-06;0.008908154967540672
9.56900e-06;0.008901357004585603
9.56925e-06;0.00889455904163058
9.56950e-06;0.008887761078675512
9.56975e-06;0.008880963115720444
9.57000e-06;0.00887416515276542
9.57025e-06;0.008867367189810352
9.57050e-06;0.008860569226855283
9.57075e-06;0.008853771263900261
9.57100e-06;0.008846973300945192
9.57125e-06;0.008840175337990122
9.57150e-06;0.0088333773750351
9.57175e-06;0.008826579412080031
9.57200e-06;0.008819781449124963
9.57225e-06;0.008812983486169894
9.57250e-06;0.008806185523214872
9.57275e-06;0.008799387560259803
9.57300e-06;0.008792589597304733
9.57325e-06;0.008779820367159246
9.57350e-06;0.008766946934693279
9.57375e-06;0.008754073502227313
9.57400e-06;0.008741200069761432
9.57425e-06;0.008728326637295466
9.57450e-06;0.008715453204829499
9.57475e-06;0.00870257977236362
9.57500e-06;0.008689706339897652
9.57525e-06;0.008676832907431684
9.57550e-06;0.008663959474965805
9.57575e-06;0.008651086042499838
9.57600e-06;0.008638212610033872
9.57625e-06;0.00862533917756799
9.57650e-06;0.008612465745102025
9.57675e-06;0.008599592312636057
9.57700e-06;0.008586718880170178
9.57725e-06;0.00857384544770421
9.57750e-06;0.008565967392280919
9.57775e-06;0.008563439596548912
9.57800e-06;0.00856091180081689
9.57825e-06;0.008558384005084867
9.57850e-06;0.00855585620935286
9.57875e-06;0.008553328413620838
9.57900e-06;0.008550800617888814
9.57925e-06;0.008548272822156809
9.57950e-06;0.008545745026424785
9.57975e-06;0.008543217230692762
9.58000e-06;0.008540689434960756
9.58025e-06;0.008538161639228733
9.58050e-06;0.00853563384349671
9.58075e-06;0.008533106047764687
9.58100e-06;0.008530578252032682
9.58125e-06;0.008528050456300658
9.58150e-06;0.008525522660568635
9.58175e-06;0.008522994864836628
9.58200e-06;0.008520467069104606
9.58225e-06;0.008517939273372584
9.58250e-06;0.008518808239980353
9.58275e-06;0.00852331528244795
9.58300e-06;0.00852782232491555
9.58325e-06;0.008532329367383119
9.58350e-06;0.008536836409850717
9.58375e-06;0.008541343452318316
9.58400e-06;0.008545850494785883
9.58425e-06;0.008550357537253483
9.58450e-06;0.00855486457972108
9.58475e-06;0.00855937162218865
9.58500e-06;0.008563878664656249
9.58525e-06;0.008568385707123847
9.58550e-06;0.008572892749591415
9.58575e-06;0.008577399792059013
9.58600e-06;0.008581906834526613
9.58625e-06;0.008586413876994181
9.58650e-06;0.00859092091946178
9.58675e-06;0.008595427961929377
9.58700e-06;0.008599935004396946
9.58725e-06;0.008604442046864546
9.58750e-06;0.008603443732721613
9.58775e-06;0.008596548949240349
9.58800e-06;0.008589654165759037
9.58825e-06;0.008582759382277726
9.58850e-06;0.00857586459879646
9.58875e-06;0.008568969815315148
9.58900e-06;0.008562075031833837
9.58925e-06;0.008555180248352525
9.58950e-06;0.00854828546487126
9.58975e-06;0.008541390681389947
9.59000e-06;0.008534495897908636
9.59025e-06;0.008527601114427371
9.59050e-06;0.008502657714932428
9.59075e-06;0.008477399355878552
9.59100e-06;0.008452140996824847
9.59125e-06;0.008426882637770972
9.59150e-06;0.008401624278717096
9.59175e-06;0.008376365919663393
9.59200e-06;0.008351107560609517
9.59225e-06;0.008325849201555642
9.59250e-06;0.008300590842501938
9.59275e-06;0.008275332483448063
9.59300e-06;0.008250074124394187
9.59325e-06;0.008221086640647239
9.59350e-06;0.008188105106928092
9.59375e-06;0.008155123573208948
9.59400e-06;0.008122142039490025
9.59425e-06;0.00808916050577088
9.59450e-06;0.008056178972051733
9.59475e-06;0.008023197438332812
9.59500e-06;0.007990215904613665
9.59525e-06;0.00795723437089452
9.59550e-06;0.007924252837175598
9.59575e-06;0.007891271303456453
9.59600e-06;0.007858289769737306
9.59625e-06;0.007838746994454214
9.59650e-06;0.007819438733852702
9.59675e-06;0.0078001304732511914
9.59700e-06;0.0077808222126498116
9.59725e-06;0.0077615139520483
9.59750e-06;0.007742205691446789
9.59775e-06;0.007722897430845278
9.59800e-06;0.007703589170243897
9.59825e-06;0.0076842809096423865
9.59850e-06;0.007664972649040875
9.59875e-06;0.007645664388439495
9.59900e-06;0.007641973664982089
9.59925e-06;0.007655009983105437
9.59950e-06;0.007668046301228696
9.59975e-06;0.007681082619352044
9.60000e-06;0.007694118937475392
9.60025e-06;0.007707155255598651
9.60050e-06;0.007720191573721999
9.60075e-06;0.007733227891845346
9.60100e-06;0.007746264209968606
9.60125e-06;0.007759300528091953
9.60150e-06;0.007772336846215301
9.60175e-06;0.00778537316433856
9.60200e-06;0.007798409482461908
9.60225e-06;0.007834087877484809
9.60250e-06;0.007870161390813632
9.60275e-06;0.0079062349041427
9.60300e-06;0.00794230841747177
9.60325e-06;0.007978381930800593
9.60350e-06;0.00801445544412966
9.60375e-06;0.008050528957458728
9.60400e-06;0.008086602470787553
9.60425e-06;0.008122675984116621
9.60450e-06;0.008158749497445689
9.60475e-06;0.008194823010774514
9.60500e-06;0.008230896524103581
9.60525e-06;0.00826557119388635
9.60550e-06;0.008298747643177973
9.60575e-06;0.00833192409246982
9.60600e-06;0.008365100541761665
9.60625e-06;0.008398276991053511
9.60650e-06;0.008431453440345134
9.60675e-06;0.00846462988963698
9.60700e-06;0.008497806338928826
9.60725e-06;0.008530982788220448
9.60750e-06;0.008552063167542109
9.60775e-06;0.008572932462928817
9.60800e-06;0.008593801758315383
9.60825e-06;0.008614671053702089
9.60850e-06;0.008635540349088797
9.60875e-06;0.008656409644475362
9.60900e-06;0.00867727893986207
9.60925e-06;0.008698148235248776
9.60950e-06;0.008714643585058593
9.60975e-06;0.008726454254506919
9.61000e-06;0.008738264923955245
9.61025e-06;0.008750075593403489
9.61050e-06;0.008761886262851815
9.61075e-06;0.00877369693230014
9.61100e-06;0.008785507601748385
9.61125e-06;0.008797318271196711
9.61150e-06;0.008809128940645037
9.61175e-06;0.008820939610093281
9.61200e-06;0.008832750279541607
9.61225e-06;0.008844560948989933
9.61250e-06;0.008856371618438177
9.61275e-06;0.008868182287886503
9.61300e-06;0.008879992957334827
9.61325e-06;0.008891803626783074
9.61350e-06;0.0089036142962314
9.61375e-06;0.008915424965679724
9.61400e-06;0.00892723563512797
9.61425e-06;0.008939046304576296
9.61450e-06;0.00895085697402462
9.61475e-06;0.008954329214457999
9.61500e-06;0.008957655944124874
9.61525e-06;0.00896098267379177
9.61550e-06;0.008964309403458668
9.61575e-06;0.008967636133125541
9.61600e-06;0.008970962862792439
9.61625e-06;0.008974289592459337
9.61650e-06;0.00897761632212621
9.61675e-06;0.008980943051793108
9.61700e-06;0.008984269781460004
9.61725e-06;0.00898759651112688
9.61750e-06;0.008990923240793777
9.61775e-06;0.008994249970460673
9.61800e-06;0.008997576700127548
9.61825e-06;0.009000903429794444
9.61850e-06;0.009004230159461342
9.61875e-06;0.009007556889128217
9.61900e-06;0.009010883618795113
9.61925e-06;0.009014210348462011
9.61950e-06;0.009017537078128886
9.61975e-06;0.009015037826480376
9.62000e-06;0.00900629870289381
9.62025e-06;0.008997559579307304
9.62050e-06;0.008988820455720739
9.62075e-06;0.008980081332134173
9.62100e-06;0.008971342208547667
9.62125e-06;0.008962603084961102
9.62150e-06;0.008953863961374537
9.62175e-06;0.00894512483778803
9.62200e-06;0.008936385714201465
9.62225e-06;0.0089276465906149
9.62250e-06;0.008918907467028394
9.62275e-06;0.008910168343441828
9.62300e-06;0.008901429219855263
9.62325e-06;0.008892690096268698
9.62350e-06;0.008883950972682193
9.62375e-06;0.008873829564776739
9.62400e-06;0.008862227672011128
9.62425e-06;0.008850625779245594
9.62450e-06;0.008839023886479983
9.62475e-06;0.008827421993714371
9.62500e-06;0.008815820100948838
9.62525e-06;0.008804218208183227
9.62550e-06;0.008792616315417615
9.62575e-06;0.008781014422652084
9.62600e-06;0.008769412529886472
9.62625e-06;0.00875781063712086
9.62650e-06;0.008746208744355327
9.62675e-06;0.008734606851589716
9.62700e-06;0.008723004958824105
9.62725e-06;0.008711403066058571
9.62750e-06;0.00869980117329296
9.62775e-06;0.00868679343651946
9.62800e-06;0.00867227998146418
9.62825e-06;0.008657766526408803
9.62850e-06;0.008643253071353425
9.62875e-06;0.008628739616298144
9.62900e-06;0.008614226161242767
9.62925e-06;0.008599712706187389
9.62950e-06;0.008585199251132108
9.62975e-06;0.00857068579607673
9.63000e-06;0.008556172341021353
9.63025e-06;0.008541658885966072
9.63050e-06;0.008527145430910694
9.63075e-06;0.008512631975855316
9.63100e-06;0.008498118520800036
9.63125e-06;0.008474471237171398
9.63150e-06;0.008450664562558505
9.63175e-06;0.00842685788794561
9.63200e-06;0.008403051213332879
9.63225e-06;0.008379244538719986
9.63250e-06;0.008355437864107093
9.63275e-06;0.008331631189494362
9.63300e-06;0.00830782451488147
9.63325e-06;0.008284017840268576
9.63350e-06;0.008260211165655845
9.63375e-06;0.008236404491042952
9.63400e-06;0.008212597816430058
9.63425e-06;0.008188791141817326
9.63450e-06;0.00816504016971828
9.63475e-06;0.008141348857363126
9.63500e-06;0.008117657545008133
9.63525e-06;0.00809396623265298
9.63550e-06;0.008070274920297825
9.63575e-06;0.008046583607942833
9.63600e-06;0.008022892295587678
9.63625e-06;0.007999200983232525
9.63650e-06;0.007975509670877531
9.63675e-06;0.007957145690650404
9.63700e-06;0.007938874675679513
9.63725e-06;0.007920603660708745
9.63750e-06;0.007902332645737854
9.63775e-06;0.007884061630766962
9.63800e-06;0.007865790615796195
9.63825e-06;0.007847519600825302
9.63850e-06;0.00782924858585441
9.63875e-06;0.0078088545366200865
9.63900e-06;0.007786186628061947
9.63925e-06;0.007763518719503808
9.63950e-06;0.007740850810945822
9.63975e-06;0.007718182902387683
9.64000e-06;0.007695514993829544
9.64025e-06;0.007672847085271405
9.64050e-06;0.00765017917671342
9.64075e-06;0.007627511268155281
9.64100e-06;0.007604843359597141
9.64125e-06;0.007582175451039156
9.64150e-06;0.007559507542481017
9.64175e-06;0.007536839633922878
9.64200e-06;0.007514171725364892
9.64225e-06;0.007485634089447265
9.64250e-06;0.007456994023139261
9.64275e-06;0.007428353956831451
9.64300e-06;0.007399713890523448
9.64325e-06;0.007371073824215444
9.64350e-06;0.007342433757907634
9.64375e-06;0.00731379369159963
9.64400e-06;0.007285153625291627
9.64425e-06;0.007256513558983817
9.64450e-06;0.007227873492675813
9.64475e-06;0.0071992334263678084
9.64500e-06;0.007170593360059999
9.64525e-06;0.007141953293751995
9.64550e-06;0.007116792524160724
9.64575e-06;0.007095358228238322
9.64600e-06;0.007073923932315775
9.64625e-06;0.007052489636393228
9.64650e-06;0.0070310553404708265
9.64675e-06;0.00700962104454828
9.64700e-06;0.006988186748625733
9.64725e-06;0.006966752452703331
9.64750e-06;0.006945318156780784
9.64775e-06;0.006923883860858238
9.64800e-06;0.00691470983268913
9.64825e-06;0.006918667068874805
9.64850e-06;0.006922624305060481
9.64875e-06;0.006926581541246156
9.64900e-06;0.006930538777431805
9.64925e-06;0.00693449601361748
9.64950e-06;0.0069384532498031545
9.64975e-06;0.0069424104859888034
9.65000e-06;0.006946367722174478
9.65025e-06;0.006950324958360154
9.65050e-06;0.006969219047361269
9.65075e-06;0.007004111136316626
9.65100e-06;0.007039003225271983
9.65125e-06;0.007073895314227103
9.65150e-06;0.00710878740318246
