Time(s);Current(A)
6.25000e-06;-0.0026073876135958756
6.25025e-06;-0.002598419442863616
6.25050e-06;-0.0025889685355848977
6.25075e-06;-0.002578956662687352
6.25100e-06;-0.0025689447897897727
6.25125e-06;-0.0025589920025819524
6.25150e-06;-0.0025491078760975583
6.25175e-06;-0.002539223749613131
6.25200e-06;-0.002529607231765982
6.25225e-06;-0.0025203016894310678
6.25250e-06;-0.0025113587379539137
6.25275e-06;-0.002502837136396182
6.25300e-06;-0.0024946615414990036
6.25325e-06;-0.0024871631717080264
6.25350e-06;-0.0024804029113695758
6.25375e-06;-0.0024752534802738326
6.25400e-06;-0.002471410959746278
6.25425e-06;-0.002469321248870333
6.25450e-06;-0.002469268396314224
6.25475e-06;-0.0024708857016475143
6.25500e-06;-0.0024744438195438328
6.25525e-06;-0.002480065234135104
6.25550e-06;-0.002488084309553616
6.25575e-06;-0.0024961033849721283
6.25600e-06;-0.0025081182109257414
6.25625e-06;-0.002524776312156596
6.25650e-06;-0.0025414344133874505
6.25675e-06;-0.0025580925146183615
6.25700e-06;-0.002574750615849216
6.25725e-06;-0.0025914087170800706
6.25750e-06;-0.0026170551367204684
6.25775e-06;-0.0026430515247413172
6.25800e-06;-0.0026690479127621657
6.25825e-06;-0.002695044300783102
6.25850e-06;-0.002721040688803951
6.25875e-06;-0.0027495313864286737
6.25900e-06;-0.0027809206048734054
6.25925e-06;-0.002812309823318031
6.25950e-06;-0.002844549663905351
6.25975e-06;-0.002877777972799091
6.26000e-06;-0.0029114711776634878
6.26025e-06;-0.0029457046164459975
6.26050e-06;-0.002980057913744802
6.26075e-06;-0.0030145504930335827
6.26100e-06;-0.0030487768636499116
6.26125e-06;-0.00308269388558758
6.26150e-06;-0.0031160042382061075
6.26175e-06;-0.003148609608712862
6.26200e-06;-0.00318032024024052
6.26225e-06;-0.003210991137344366
6.26250e-06;-0.0032399626747309585
6.26275e-06;-0.0032669594654728394
6.26300e-06;-0.00329395625621472
6.26325e-06;-0.003318187685911772
6.26350e-06;-0.0033392056185552648
6.26375e-06;-0.003360223551198829
6.26400e-06;-0.003376646606401147
6.26425e-06;-0.0033877301689013515
6.26450e-06;-0.0033988137314015935
6.26475e-06;-0.003409897293901798
6.26500e-06;-0.003420980856402003
6.26525e-06;-0.003432064418902245
6.26550e-06;-0.0034431479814024495
6.26575e-06;-0.0034410575882323304
6.26600e-06;-0.00343845425507548
6.26625e-06;-0.003435850921918638
6.26650e-06;-0.003433247588761796
6.26675e-06;-0.0034306442556049457
6.26700e-06;-0.003428040922448104
6.26725e-06;-0.0034202967283774024
6.26750e-06;-0.0034065785796839137
6.26775e-06;-0.0033928604309904713
6.26800e-06;-0.003379142282296982
6.26825e-06;-0.00336542413360354
6.26850e-06;-0.0033517059849100975
6.26875e-06;-0.0033347454461734073
6.26900e-06;-0.0033140170772404053
6.26925e-06;-0.003293288708307403
6.26950e-06;-0.0032725603393743306
6.26975e-06;-0.0032518319704413286
6.27000e-06;-0.003231103601508326
6.27025e-06;-0.0032092266512784642
6.27050e-06;-0.0031860149883104643
6.27075e-06;-0.0031628033253424644
6.27100e-06;-0.0031395298844448367
6.27125e-06;-0.003116184654297594
6.27150e-06;-0.0030930930869854244
6.27175e-06;-0.0030702962894192313
6.27200e-06;-0.0030480706236068063
6.27225e-06;-0.003026508643359236
6.27250e-06;-0.003007520587958031
6.27275e-06;-0.002991523570534719
6.27300e-06;-0.0029755265531113528
6.27325e-06;-0.002959529535688041
6.27350e-06;-0.0029435325182647293
6.27375e-06;-0.002927535500841363
6.27400e-06;-0.0029115384834180512
6.27425e-06;-0.0028955414659947395
6.27450e-06;-0.002879544448571373
6.27475e-06;-0.0028665453538510174
6.27500e-06;-0.0028570300052360997
6.27525e-06;-0.0028475146566211496
6.27550e-06;-0.0028379993080062315
6.27575e-06;-0.002828483959391314
6.27600e-06;-0.0028189686107763638
6.27625e-06;-0.0028094532621614457
6.27650e-06;-0.0027999379135464956
6.27675e-06;-0.002790422564931578
6.27700e-06;-0.0027828878552670707
6.27725e-06;-0.0027776547537202885
6.27750e-06;-0.002772421652173524
6.27775e-06;-0.0027671885506267598
6.27800e-06;-0.0027619554490799776
6.27825e-06;-0.0027567223475332132
6.27850e-06;-0.002751489245986449
6.27875e-06;-0.0027462561444396667
6.27900e-06;-0.0027410230428929023
6.27925e-06;-0.002735789941346138
6.27950e-06;-0.002730556839799356
6.27975e-06;-0.0027253237382525914
6.28000e-06;-0.0027212625148512336
6.28025e-06;-0.0027185630763687015
6.28050e-06;-0.0027158636378861786
6.28075e-06;-0.0027131641994036465
6.28100e-06;-0.0027104647609211235
6.28125e-06;-0.0027077653224386006
6.28150e-06;-0.0027050658839560685
6.28175e-06;-0.0027023664454735455
6.28200e-06;-0.0026996670069910226
6.28225e-06;-0.0026969675685084905
6.28250e-06;-0.0026942681300259675
6.28275e-06;-0.0026915686915434446
6.28300e-06;-0.002689291539849587
6.28325e-06;-0.002687505107931045
6.28350e-06;-0.0026857186760125035
6.28375e-06;-0.002684878404853558
6.28400e-06;-0.0026851376229701596
6.28425e-06;-0.002685396841086761
6.28450e-06;-0.0026870392243292934
6.28475e-06;-0.002690288919232985
6.28500e-06;-0.0026935386141366878
6.28525e-06;-0.002699018599158647
6.28550e-06;-0.002707090300272639
6.28575e-06;-0.0027151620013866583
6.28600e-06;-0.002723233702500651
6.28625e-06;-0.002731305403614643
6.28650e-06;-0.0027393771047286622
6.28675e-06;-0.0027474488058426543
6.28700e-06;-0.0027618963952020376
6.28725e-06;-0.0027765922355883353
6.28750e-06;-0.002791288075974583
6.28775e-06;-0.0028059839163608307
6.28800e-06;-0.0028206797567471285
6.28825e-06;-0.0028353755971333764
6.28850e-06;-0.0028522694373278356
6.28875e-06;-0.0028717174705514465
6.28900e-06;-0.0028911655037749916
6.28925e-06;-0.002910613536998603
6.28950e-06;-0.002930061570222148
6.28975e-06;-0.002949509603445693
6.29000e-06;-0.002968957636669304
6.29025e-06;-0.002988405669892849
6.29050e-06;-0.003008295667888101
6.29075e-06;-0.003028202874185094
6.29100e-06;-0.003048110080482019
6.29125e-06;-0.0030680172867789445
6.29150e-06;-0.003087924493075937
6.29175e-06;-0.0031078316993728623
6.29200e-06;-0.0031277389056697876
6.29225e-06;-0.003146298146978871
6.29250e-06;-0.0031632909810650903
6.29275e-06;-0.00318028381515131
6.29300e-06;-0.0031946036294533456
6.29325e-06;-0.0032058172521745236
6.29350e-06;-0.0032170308748957397
6.29375e-06;-0.003228244497616918
6.29400e-06;-0.0032394581203380964
6.29425e-06;-0.0032506717430593125
6.29450e-06;-0.0032618853657804905
6.29475e-06;-0.0032689933074033727
6.29500e-06;-0.0032713302285737344
6.29525e-06;-0.0032736671497440883
6.29550e-06;-0.003276004070914442
6.29575e-06;-0.003278340992084804
6.29600e-06;-0.0032806779132551578
6.29625e-06;-0.0032830148344255117
6.29650e-06;-0.0032814780389053533
6.29675e-06;-0.0032754397779487495
6.29700e-06;-0.0032694015169921456
6.29725e-06;-0.0032633632560355214
6.29750e-06;-0.0032573249950789175
6.29775e-06;-0.0032512867341223137
6.29800e-06;-0.003245248473165689
6.29825e-06;-0.003239210212209085
6.29850e-06;-0.0032274690489151716
6.29875e-06;-0.003215505837915203
6.29900e-06;-0.0032035426269152348
6.29925e-06;-0.003191579415915226
6.29950e-06;-0.0031796162049152576
6.29975e-06;-0.003167652993915289
6.30000e-06;-0.00315568978291528
6.30025e-06;-0.0031428196649910143
6.30050e-06;-0.0031288956728421553
6.30075e-06;-0.0031149716806932494
6.30100e-06;-0.0031010476885443908
6.30125e-06;-0.0030871236963955317
6.30150e-06;-0.003073199704246626
6.30175e-06;-0.0030604393055593524
6.30200e-06;-0.0030477242124451968
6.30225e-06;-0.003035009119330998
6.30250e-06;-0.003022294026216843
6.30275e-06;-0.0030095789331026444
6.30300e-06;-0.0029980928915178365
6.30325e-06;-0.0029880350733732766
6.30350e-06;-0.002977977255228683
6.30375e-06;-0.002967794670999086
6.30400e-06;-0.002957467101923093
6.30425e-06;-0.0029471395328470647
6.30450e-06;-0.0029368119637710717
6.30475e-06;-0.0029264843946950783
6.30500e-06;-0.00291615682561905
6.30525e-06;-0.002905829256543057
6.30550e-06;-0.0028943461781394102
6.30575e-06;-0.002881520336256968
6.30600e-06;-0.0028686944943745684
6.30625e-06;-0.0028558686524921694
6.30650e-06;-0.002843042810609727
6.30675e-06;-0.0028302169687273275
6.30700e-06;-0.002817391126844885
6.30725e-06;-0.0028032692276991544
6.30750e-06;-0.0027876412408760214
6.30775e-06;-0.0027720132540528354
6.30800e-06;-0.0027563852672297024
6.30825e-06;-0.0027407572804065694
6.30850e-06;-0.002725129293583384
6.30875e-06;-0.002709501306760251
6.30900e-06;-0.002692315721827071
6.30925e-06;-0.0026750694903902787
6.30950e-06;-0.002657823258953545
6.30975e-06;-0.0026405770275168107
6.31000e-06;-0.0026233307960800184
6.31025e-06;-0.0026060845646432847
6.31050e-06;-0.0025888557789205406
6.31075e-06;-0.002571647266048025
6.31100e-06;-0.0025544387531755675
6.31125e-06;-0.0025377043616823824
6.31150e-06;-0.002521520924523718
6.31175e-06;-0.002505337487365054
6.31200e-06;-0.002489686180379507
6.31225e-06;-0.0024746532370413512
6.31250e-06;-0.0024602194247511796
6.31275e-06;-0.0024464818346989457
6.31300e-06;-0.0024335393707531345
6.31325e-06;-0.0024215208857583654
6.31350e-06;-0.0024106072421380296
6.31375e-06;-0.0024009774831318274
6.31400e-06;-0.002392843101807378
6.31425e-06;-0.0023864464291189318
6.31450e-06;-0.002381600971165994
6.31475e-06;-0.0023785581074840818
6.31500e-06;-0.002377438041476658
6.31525e-06;-0.0023785523689371854
6.31550e-06;-0.0023796666963977163
6.31575e-06;-0.0023842377227187785
6.31600e-06;-0.002392825617510688
6.31625e-06;-0.002401413512302626
6.31650e-06;-0.0024100014070945353
6.31675e-06;-0.0024185893018864443
6.31700e-06;-0.0024271771966783828
6.31725e-06;-0.002443924547670127
6.31750e-06;-0.002460989594533244
6.31775e-06;-0.002478054641396419
6.31800e-06;-0.0024951196882595362
6.31825e-06;-0.0025121847351226535
6.31850e-06;-0.002531612188157021
6.31875e-06;-0.002553784883182823
6.31900e-06;-0.0025759575782086245
6.31925e-06;-0.0025991850210002492
6.31950e-06;-0.002623638136960211
6.31975e-06;-0.0026480912529202563
6.32000e-06;-0.0026731477177706253
6.32025e-06;-0.0026989053062167656
6.32050e-06;-0.002724662894662993
6.32075e-06;-0.002750418939558307
6.32100e-06;-0.0027761731907652216
6.32125e-06;-0.0028019274419722236
6.32150e-06;-0.0028272179100006416
6.32175e-06;-0.0028519694372355535
6.32200e-06;-0.0028760474199140645
6.32225e-06;-0.0028993427078882433
6.32250e-06;-0.002921342400322948
6.32275e-06;-0.002941836541628504
6.32300e-06;-0.00296233068293399
6.32325e-06;-0.002980686539690167
6.32350e-06;-0.0029965575957353156
6.32375e-06;-0.003012428651780411
6.32400e-06;-0.003025947444055855
6.32425e-06;-0.0030367327803516187
6.32450e-06;-0.0030475181166473822
6.32475e-06;-0.0030543316233011676
6.32500e-06;-0.0030565296520375564
6.32525e-06;-0.0030587276807739453
6.32550e-06;-0.003060925709510342
6.32575e-06;-0.003063123738246731
6.32600e-06;-0.00306532176698312
6.32625e-06;-0.0030675197957195166
6.32650e-06;-0.003059174067489633
6.32675e-06;-0.003050417808463195
6.32700e-06;-0.003041661549436727
6.32725e-06;-0.003032905290410289
6.32750e-06;-0.003024149031383851
6.32775e-06;-0.0030153927723573833
6.32800e-06;-0.0030029240954915154
6.32825e-06;-0.0029861413910611365
6.32850e-06;-0.0029693586866308148
6.32875e-06;-0.002952575982200493
6.32900e-06;-0.002935793277770114
6.32925e-06;-0.0029190105733397924
6.32950e-06;-0.0029003367319748964
6.32975e-06;-0.0028794652886112984
6.33000e-06;-0.0028585938452477706
6.33025e-06;-0.0028377224018842433
6.33050e-06;-0.002816850958520645
6.33075e-06;-0.0027959795151571176
6.33100e-06;-0.0027748586268007357
6.33125e-06;-0.002753447870056219
6.33150e-06;-0.002732297722125724
6.33175e-06;-0.002711450415538922
6.33200e-06;-0.002691130949489894
6.33225e-06;-0.0026714248623029616
6.33250e-06;-0.0026527595232348263
6.33275e-06;-0.002635303588998379
6.33300e-06;-0.002617847654761932
6.33325e-06;-0.002601800946533451
6.33350e-06;-0.0025873918340998583
6.33375e-06;-0.002572982721666266
6.33400e-06;-0.0025584405048962398
6.33425e-06;-0.0025437436137870913
6.33450e-06;-0.0025290467226779423
6.33475e-06;-0.002514173005257785
6.33500e-06;-0.0024990938062317567
6.33525e-06;-0.002484014607205728
6.33550e-06;-0.0024683645880727383
6.33575e-06;-0.0024520512455258685
6.33600e-06;-0.0024357379029789983
6.33625e-06;-0.0024194245604320735
6.33650e-06;-0.0024031112178852037
6.33675e-06;-0.0023867978753382784
6.33700e-06;-0.002368121366842498
6.33725e-06;-0.00234935284632471
6.33750e-06;-0.0023305843258068577
6.33775e-06;-0.002311815805289069
6.33800e-06;-0.0022930472847712807
6.33825e-06;-0.002273386563593581
6.33850e-06;-0.002252689057655907
6.33875e-06;-0.0022319915517182323
6.33900e-06;-0.002211294045780488
6.33925e-06;-0.002190596539842813
6.33950e-06;-0.0021694566010030526
6.33975e-06;-0.002148299435634575
6.34000e-06;-0.002127142270266169
6.34025e-06;-0.002105985104897763
6.34050e-06;-0.0020848316368719667
6.34075e-06;-0.002063787893466775
6.34100e-06;-0.00204303196667511
6.34125e-06;-0.002022691802680687
6.34150e-06;-0.0020028651656398637
6.34175e-06;-0.001983579952630857
6.34200e-06;-0.00196483838513782
6.34225e-06;-0.001946701027256375
6.34250e-06;-0.0019292839412414478
6.34275e-06;-0.0019127157660237754
6.34300e-06;-0.0018971250866891196
6.34325e-06;-0.0018826459717667474
6.34350e-06;-0.0018695376084811974
6.34375e-06;-0.0018583326706921963
6.34400e-06;-0.001849610410717704
6.34425e-06;-0.0018436376738016889
6.34450e-06;-0.0018404188594188854
6.34475e-06;-0.0018399012227027797
6.34500e-06;-0.0018420319823935199
6.34525e-06;-0.0018467617232762437
6.34550e-06;-0.0018548106712594188
6.34575e-06;-0.0018651086542129077
6.34600e-06;-0.0018789284278601128
6.34625e-06;-0.0018968407101581214
6.34650e-06;-0.0019147529924561301
6.34675e-06;-0.001936419082675074
6.34700e-06;-0.0019624472979393546
6.34725e-06;-0.0019884755132036354
6.34750e-06;-0.002017246708028348
6.34775e-06;-0.0020492053914222437
6.34800e-06;-0.002083282436791374
6.34825e-06;-0.0021198211317767085
6.34850e-06;-0.0021581130671735945
6.34875e-06;-0.0021984423614528122
6.34900e-06;-0.0022400858995197796
6.34925e-06;-0.002283256658974149
6.34950e-06;-0.0023271704766173406
6.34975e-06;-0.0023723704491637266
6.35000e-06;-0.002418411053063512
6.35025e-06;-0.002465088841539888
6.35050e-06;-0.002512135764791202
6.35075e-06;-0.0025592695243879106
6.35100e-06;-0.002606207912138605
6.35125e-06;-0.002652669723960649
6.35150e-06;-0.0026983929389899795
6.35175e-06;-0.0027431579175013496
6.35200e-06;-0.002786751886321894
6.35225e-06;-0.002828913980611128
6.35250e-06;-0.0028688325048072875
6.35275e-06;-0.002907136521732682
6.35300e-06;-0.0029424586676847523
6.35325e-06;-0.002974315720502801
6.35350e-06;-0.0030061727733207417
6.35375e-06;-0.003033495878912559
6.35400e-06;-0.0030555502959713843
6.35425e-06;-0.00307760471303021
6.35450e-06;-0.00309965913008911
6.35475e-06;-0.0031217135471479354
6.35500e-06;-0.0031381086176623316
6.35525e-06;-0.0031479272256036347
6.35550e-06;-0.0031577458335449045
6.35575e-06;-0.0031675644414861743
6.35600e-06;-0.0031773830494274775
6.35625e-06;-0.0031814851309641076
6.35650e-06;-0.003178944303880062
6.35675e-06;-0.003176403476796008
6.35700e-06;-0.0031738626497119626
6.35725e-06;-0.0031713218226279167
6.35750e-06;-0.0031687809955438626
6.35775e-06;-0.003166240168459817
6.35800e-06;-0.003153346280451131
6.35825e-06;-0.003140049286571956
6.35850e-06;-0.003126752292692781
6.35875e-06;-0.003113455298813561
6.35900e-06;-0.003100158304934386
6.35925e-06;-0.003086861311055211
6.35950e-06;-0.0030711897064343314
6.35975e-06;-0.003052758677462262
6.36000e-06;-0.003034327648490193
6.36025e-06;-0.003015247933308929
6.36050e-06;-0.002995414410149703
6.36075e-06;-0.0029755808869904774
6.36100e-06;-0.002955572296450189
6.36125e-06;-0.0029353602682745967
6.36150e-06;-0.0029151482400990043
6.36175e-06;-0.002895250773223255
6.36200e-06;-0.0028757188433577757
6.36225e-06;-0.002856815713023281
6.36250e-06;-0.0028386432812860965
6.36275e-06;-0.0028213500273827014
6.36300e-06;-0.002805078425020252
6.36325e-06;-0.0027902670935331976
6.36350e-06;-0.0027771526746987497
6.36375e-06;-0.002764038255864257
6.36400e-06;-0.0027530318249079826
6.36425e-06;-0.0027444749883128445
6.36450e-06;-0.002735918151717678
6.36475e-06;-0.002729593540894033
6.36500e-06;-0.002725862895490767
6.36525e-06;-0.0027221322500874884
6.36550e-06;-0.0027220026369704736
6.36575e-06;-0.0027260576154603503
6.36600e-06;-0.002730112593950241
6.36625e-06;-0.002734167572440118
6.36650e-06;-0.0027382225509300084
6.36675e-06;-0.002742277529419885
6.36700e-06;-0.002746332507909762
6.36725e-06;-0.0027592460088894347
6.36750e-06;-0.0027725044245219543
6.36775e-06;-0.0027857628401544736
6.36800e-06;-0.0027990212557870383
6.36825e-06;-0.002812279671419558
6.36850e-06;-0.002825538087052077
6.36875e-06;-0.0028410684880060704
6.36900e-06;-0.0028592390570981057
6.36925e-06;-0.002877409626190141
6.36950e-06;-0.002896457291117302
6.36975e-06;-0.0029165241881916834
6.37000e-06;-0.002936591085266065
6.37025e-06;-0.0029570687104466323
6.37050e-06;-0.0029780236235959095
6.37075e-06;-0.002998978536745258
6.37100e-06;-0.0030198255808192957
6.37125e-06;-0.0030405472752738465
6.37150e-06;-0.003061268969728467
6.37175e-06;-0.003081353393070624
6.37200e-06;-0.003100697273386246
6.37225e-06;-0.0031200411537019327
6.37250e-06;-0.0031384286606940554
6.37275e-06;-0.0031557048108684944
6.37300e-06;-0.0031719055189266144
6.37325e-06;-0.003186856505878204
6.37350e-06;-0.0032001825645672378
6.37375e-06;-0.0032116203699367727
6.37400e-06;-0.0032199707146867563
6.37425e-06;-0.0032247332655026962
6.37450e-06;-0.003229495816318652
6.37475e-06;-0.0032305030874548797
6.37500e-06;-0.0032271465232857396
6.37525e-06;-0.0032237899591166107
6.37550e-06;-0.003216540990519844
6.37575e-06;-0.003204768840346021
6.37600e-06;-0.0031929966901722375
6.37625e-06;-0.0031761920019230117
6.37650e-06;-0.003153539235979999
6.37675e-06;-0.003130886470037063
6.37700e-06;-0.003108233704094127
6.37725e-06;-0.0030855809381511146
6.37750e-06;-0.0030523397130127815
6.37775e-06;-0.003018686216558609
6.37800e-06;-0.0029850327201043233
6.37825e-06;-0.002951379223650151
6.37850e-06;-0.0029143122901795567
6.37875e-06;-0.0028732787608133615
6.37900e-06;-0.0028322452314473055
6.37925e-06;-0.0027897187115176413
6.37950e-06;-0.002745457256913075
6.37975e-06;-0.0027005308729190322
6.38000e-06;-0.002654481491260357
6.38025e-06;-0.002607791554725997
6.38050e-06;-0.0025607244535234205
6.38075e-06;-0.0025135558765860136
6.38100e-06;-0.002466561477944724
6.38125e-06;-0.0024200163003953814
6.38150e-06;-0.0023741782321665223
6.38175e-06;-0.002329268190788342
6.38200e-06;-0.002285502206081421
6.38225e-06;-0.0022431404035297333
6.38250e-06;-0.0022024787606887766
6.38275e-06;-0.002165590713327281
6.38300e-06;-0.0021319239843314267
6.38325e-06;-0.0020982572553356863
6.38350e-06;-0.002064590526339832
6.38375e-06;-0.0020340540107321825
6.38400e-06;-0.002007154970055529
6.38425e-06;-0.0019802559293787846
6.38450e-06;-0.0019533568887021313
6.38475e-06;-0.0019288422930365731
6.38500e-06;-0.001907098549666531
6.38525e-06;-0.0018853548062965624
6.38550e-06;-0.0018636110629265939
6.38575e-06;-0.0018418673195565519
6.38600e-06;-0.0018240395356602
6.38625e-06;-0.0018063642232172812
6.38650e-06;-0.0017886889107743026
6.38675e-06;-0.001771013598331384
6.38700e-06;-0.0017547109777756407
6.38725e-06;-0.0017400034984157498
6.38750e-06;-0.0017252960190559088
6.38775e-06;-0.001710588539696018
6.38800e-06;-0.0016976091973613158
6.38825e-06;-0.0016846971416177173
6.38850e-06;-0.0016717850858740753
6.38875e-06;-0.0016592548281968336
6.38900e-06;-0.0016479179702875322
6.38925e-06;-0.0016374523386873693
6.38950e-06;-0.0016269867070872418
6.38975e-06;-0.0016165210754871145
6.39000e-06;-0.0016060554438869516
6.39025e-06;-0.001595589812286824
6.39050e-06;-0.0015869956604539486
6.39075e-06;-0.0015784743763925177
6.39100e-06;-0.0015699530923311156
6.39125e-06;-0.0015614318082697136
6.39150e-06;-0.001552910524208283
6.39175e-06;-0.0015450211773612517
6.39200e-06;-0.0015378661752664222
6.39225e-06;-0.001530878630488124
6.39250e-06;-0.0015242220150684434
6.39275e-06;-0.0015178822396100927
6.39300e-06;-0.001511907034395064
6.39325e-06;-0.001506345152756414
6.39350e-06;-0.0015012690439920454
6.39375e-06;-0.001496801326658733
6.39400e-06;-0.001493067218713317
6.39425e-06;-0.0014901249462978313
