Time(s);Current(A)
1.50000e-06;-0.009939444421553444
1.50025e-06;-0.009941398336314989
1.50050e-06;-0.009943352251076532
1.50075e-06;-0.009945306165838075
1.50100e-06;-0.00994726008059962
1.50125e-06;-0.009949213995361162
1.50150e-06;-0.009951167910122707
1.50175e-06;-0.00995312182488425
1.50200e-06;-0.009954349621141107
1.50225e-06;-0.009952131935130374
1.50250e-06;-0.009949914249119642
1.50275e-06;-0.009947696563108909
1.50300e-06;-0.009945478877098178
1.50325e-06;-0.009943261191087445
1.50350e-06;-0.009941043505076713
1.50375e-06;-0.009938825819065982
1.50400e-06;-0.009936608133055247
1.50425e-06;-0.009934161838504797
1.50450e-06;-0.009930630780703283
1.50475e-06;-0.009927099722901771
1.50500e-06;-0.00992356866510026
1.50525e-06;-0.009920037607298746
1.50550e-06;-0.009916506549497234
1.50575e-06;-0.00991297549169572
1.50600e-06;-0.009909444433894209
1.50625e-06;-0.009905913376092694
1.50650e-06;-0.00990242121524529
1.50675e-06;-0.009899113623121543
1.50700e-06;-0.00989593125955692
1.50725e-06;-0.009893343114122063
1.50750e-06;-0.009891193957603859
1.50775e-06;-0.009891127833701061
1.50800e-06;-0.009891682151790017
1.50825e-06;-0.009895180509821135
1.50850e-06;-0.009898678867852248
1.50875e-06;-0.009902852946760127
1.50900e-06;-0.009910233367723096
1.50925e-06;-0.009917613788686067
1.50950e-06;-0.009926244766086544
1.50975e-06;-0.009940809719830955
1.51000e-06;-0.009955374673575379
1.51025e-06;-0.00996993962731979
1.51050e-06;-0.009984504581064214
1.51075e-06;-0.009999069534808626
1.51100e-06;-0.01001502948336749
1.51125e-06;-0.010037608778307346
1.51150e-06;-0.01006018807324718
1.51175e-06;-0.010082767368187036
1.51200e-06;-0.010105346663126872
1.51225e-06;-0.010127925958066707
1.51250e-06;-0.010151399341303945
1.51275e-06;-0.010179115235032338
1.51300e-06;-0.010206831128760753
1.51325e-06;-0.010234547022489146
1.51350e-06;-0.010262262916217539
1.51375e-06;-0.010289978809945956
1.51400e-06;-0.010317694703674347
1.51425e-06;-0.010345321368435896
1.51450e-06;-0.010372524635610003
1.51475e-06;-0.010399727902784133
1.51500e-06;-0.01042693116995824
1.51525e-06;-0.010454134437132348
1.51550e-06;-0.01048133770430648
1.51575e-06;-0.010508540971480587
1.51600e-06;-0.010534226666907518
1.51625e-06;-0.01055271137997371
1.51650e-06;-0.010571196093039904
1.51675e-06;-0.010589680806106111
1.51700e-06;-0.010608165519172303
1.51725e-06;-0.010626650232238513
1.51750e-06;-0.010645134945304705
1.51775e-06;-0.010663619658370897
1.51800e-06;-0.010682104371437106
1.51825e-06;-0.010700589084503298
1.51850e-06;-0.010719073797569506
1.51875e-06;-0.010734881641894243
1.51900e-06;-0.010749395106804898
1.51925e-06;-0.01076390857171554
1.51950e-06;-0.010778422036626184
1.51975e-06;-0.01079293550153684
1.52000e-06;-0.010807448966447482
1.52025e-06;-0.010821962431358138
1.52050e-06;-0.01083647589626878
1.52075e-06;-0.010850989361179423
1.52100e-06;-0.010865502826090077
1.52125e-06;-0.010880059214927558
1.52150e-06;-0.010894819280751363
1.52175e-06;-0.010909579346575157
1.52200e-06;-0.01092433941239895
1.52225e-06;-0.010939099478222756
1.52250e-06;-0.010953859544046549
1.52275e-06;-0.010968619609870355
1.52300e-06;-0.010983379675694148
1.52325e-06;-0.010998139741517953
1.52350e-06;-0.011012899807341747
1.52375e-06;-0.011027328313331218
1.52400e-06;-0.011040183545093162
1.52425e-06;-0.011053038776855094
1.52450e-06;-0.011065894008617037
1.52475e-06;-0.011078749240378969
1.52500e-06;-0.011091604472140902
1.52525e-06;-0.011104459703902845
1.52550e-06;-0.011117314935664778
1.52575e-06;-0.011130170167426722
1.52600e-06;-0.011143025399188653
1.52625e-06;-0.011155341507819001
1.52650e-06;-0.011165099440094544
1.52675e-06;-0.011174531778116299
1.52700e-06;-0.011182419149000724
1.52725e-06;-0.0111895347229012
1.52750e-06;-0.011192988067007878
1.52775e-06;-0.011194960823187638
1.52800e-06;-0.01118990808777949
1.52825e-06;-0.01118485535237134
1.52850e-06;-0.0111781345239229
1.52875e-06;-0.011163498479221946
1.52900e-06;-0.011148862434521005
1.52925e-06;-0.011132723863254512
1.52950e-06;-0.011109455700050298
1.52975e-06;-0.011084069719725994
1.53000e-06;-0.011048634551446425
1.53025e-06;-0.011013199383166887
1.53050e-06;-0.010977764214887348
1.53075e-06;-0.010942329046607779
1.53100e-06;-0.010897463525582862
1.53125e-06;-0.0108480380295874
1.53150e-06;-0.01079861253359198
1.53175e-06;-0.010749187037596518
1.53200e-06;-0.010698063440537808
1.53225e-06;-0.010638882237093009
1.53250e-06;-0.01057970103364816
1.53275e-06;-0.010519795909164761
1.53300e-06;-0.010456455729542534
1.53325e-06;-0.010392805761212865
1.53350e-06;-0.01032750555986869
1.53375e-06;-0.010261219495028812
1.53400e-06;-0.010194251476730308
1.53425e-06;-0.01012699063570109
1.53450e-06;-0.01005982549556305
1.53475e-06;-0.009993145511260492
1.53500e-06;-0.009927333287868266
1.53525e-06;-0.009862719390783852
1.53550e-06;-0.009799557381310917
1.53575e-06;-0.009738113067913832
1.53600e-06;-0.00967875724735157
1.53625e-06;-0.009621910432429881
1.53650e-06;-0.009567995119381258
1.53675e-06;-0.00951743259022572
1.53700e-06;-0.009470663173094284
1.53725e-06;-0.00942824480031342
1.53750e-06;-0.00939087930757396
1.53775e-06;-0.009359104859115295
1.53800e-06;-0.009333098539556823
1.53825e-06;-0.009312760798496196
1.53850e-06;-0.00929787602809674
1.53875e-06;-0.009290199708513512
1.53900e-06;-0.009286685891950685
1.53925e-06;-0.009291892659909876
1.53950e-06;-0.009301488126481617
1.53975e-06;-0.00931744452461869
1.54000e-06;-0.009341317186051927
1.54025e-06;-0.00936892969936482
1.54050e-06;-0.00939824987744592
1.54075e-06;-0.009445839727779239
1.54100e-06;-0.009493429578112597
1.54125e-06;-0.009541019428445915
1.54150e-06;-0.009588609278779274
1.54175e-06;-0.009642246691515019
1.54200e-06;-0.00970813938127462
1.54225e-06;-0.009774032071034278
1.54250e-06;-0.009839924760793877
1.54275e-06;-0.009905817450553535
1.54300e-06;-0.00998000376773047
1.54325e-06;-0.010060311304204613
1.54350e-06;-0.010140618840678826
1.54375e-06;-0.010220926377152969
1.54400e-06;-0.010301233913627179
1.54425e-06;-0.01038215425851651
1.54450e-06;-0.010464423545249239
1.54475e-06;-0.010546692831982037
1.54500e-06;-0.010628962118714766
1.54525e-06;-0.010711231405447564
1.54550e-06;-0.01079325021087924
1.54575e-06;-0.010870449401734332
1.54600e-06;-0.01094662026325744
1.54625e-06;-0.011003004613704537
1.54650e-06;-0.01105938896415168
1.54675e-06;-0.011115773314598778
1.54700e-06;-0.011172157665045921
1.54725e-06;-0.011228542015493018
1.54750e-06;-0.011284926365940116
1.54775e-06;-0.011341310716387259
1.54800e-06;-0.011397695066834355
1.54825e-06;-0.011442046275598255
1.54850e-06;-0.011476528439139712
1.54875e-06;-0.011511010602681167
1.54900e-06;-0.011545492766222652
1.54925e-06;-0.011579974929764108
1.54950e-06;-0.011614457093305592
1.54975e-06;-0.011648939256847048
1.55000e-06;-0.011683421420388532
1.55025e-06;-0.01171717857828134
1.55050e-06;-0.011736985601863975
1.55075e-06;-0.011756792625446627
1.55100e-06;-0.011776599649029263
1.55125e-06;-0.011796406672611916
1.55150e-06;-0.01181621369619455
1.55175e-06;-0.011836020719777187
1.55200e-06;-0.01185582774335984
1.55225e-06;-0.011875634766942476
1.55250e-06;-0.011895441790525128
1.55275e-06;-0.011915248814107764
1.55300e-06;-0.0119350558376904
1.55325e-06;-0.011954862861273051
1.55350e-06;-0.011974669884855687
1.55375e-06;-0.011988907187805691
1.55400e-06;-0.011998576454722777
1.55425e-06;-0.012008245721639874
1.55450e-06;-0.01201791498855696
1.55475e-06;-0.012027584255474047
1.55500e-06;-0.012037253522391142
1.55525e-06;-0.01204692278930823
1.55550e-06;-0.012056592056225324
1.55575e-06;-0.012066261323142412
1.55600e-06;-0.0120759305900595
1.55625e-06;-0.012085599856976595
1.55650e-06;-0.012095269123893682
1.55675e-06;-0.012104938390810777
1.55700e-06;-0.012114163662312423
1.55725e-06;-0.012114845833923981
1.55750e-06;-0.012115528005535541
1.55775e-06;-0.0121162101771471
1.55800e-06;-0.01211689234875866
1.55825e-06;-0.012117574520370218
1.55850e-06;-0.012118256691981777
1.55875e-06;-0.012118938863593337
1.55900e-06;-0.012119621035204895
1.55925e-06;-0.012120303206816455
1.55950e-06;-0.012120985378428014
1.55975e-06;-0.01211621936369726
1.56000e-06;-0.01210698498992909
1.56025e-06;-0.01209775061616092
1.56050e-06;-0.012088516242392742
1.56075e-06;-0.01207928186862457
1.56100e-06;-0.012070047494856392
1.56125e-06;-0.012060813121088223
1.56150e-06;-0.012051578747320052
1.56175e-06;-0.012042344373551873
1.56200e-06;-0.012033109999783704
1.56225e-06;-0.012023581389490034
1.56250e-06;-0.012008391252205894
1.56275e-06;-0.011993201114921737
1.56300e-06;-0.011978010977637597
1.56325e-06;-0.011962820840353454
1.56350e-06;-0.0119476307030693
1.56375e-06;-0.011932440565785157
1.56400e-06;-0.011917250428501003
1.56425e-06;-0.01190206029121686
1.56450e-06;-0.011886870153932718
1.56475e-06;-0.011871680016648564
1.56500e-06;-0.011857401776387952
1.56525e-06;-0.011843871433326538
1.56550e-06;-0.011830341090265135
1.56575e-06;-0.011816810747203733
1.56600e-06;-0.01180328040414232
1.56625e-06;-0.011789750061080918
1.56650e-06;-0.011776219718019504
1.56675e-06;-0.0117626893749581
1.56700e-06;-0.011749159031896687
1.56725e-06;-0.011735628688835285
1.56750e-06;-0.011722347813152297
1.56775e-06;-0.011713867042736909
1.56800e-06;-0.011705386272321526
1.56825e-06;-0.011696905501906139
1.56850e-06;-0.011688424731490756
1.56875e-06;-0.011679943961075375
1.56900e-06;-0.011671463190659986
1.56925e-06;-0.011662982420244605
1.56950e-06;-0.011654501649829218
1.56975e-06;-0.011646020879413835
1.57000e-06;-0.011637540108998454
1.57025e-06;-0.011629059338583065
1.57050e-06;-0.011620578568167684
1.57075e-06;-0.011612097797752295
1.57100e-06;-0.011603617027336914
1.57125e-06;-0.011595136256921526
1.57150e-06;-0.011586655486506144
1.57175e-06;-0.011578174716090763
1.57200e-06;-0.011569693945675374
1.57225e-06;-0.011561335844750352
1.57250e-06;-0.011555338078352845
1.57275e-06;-0.011549340311955343
1.57300e-06;-0.011543342545557844
1.57325e-06;-0.011537344779160337
1.57350e-06;-0.011531347012762835
1.57375e-06;-0.011525349246365328
1.57400e-06;-0.011519351479967828
1.57425e-06;-0.011513353713570327
1.57450e-06;-0.01150735594717282
1.57475e-06;-0.011501358180775318
1.57500e-06;-0.011495360414377813
1.57525e-06;-0.011489362647980311
1.57550e-06;-0.01148336488158281
1.57575e-06;-0.011477367115185303
1.57600e-06;-0.011471369348787801
1.57625e-06;-0.011465371582390296
1.57650e-06;-0.011459373815992794
1.57675e-06;-0.011453376049595287
1.57700e-06;-0.011447326518929796
1.57725e-06;-0.011440280970520572
1.57750e-06;-0.011433235422111342
1.57775e-06;-0.011426189873702119
1.57800e-06;-0.01141914432529289
1.57825e-06;-0.011412098776883666
1.57850e-06;-0.011405053228474443
1.57875e-06;-0.011398007680065214
1.57900e-06;-0.01139096213165599
1.57925e-06;-0.01138391658324676
1.57950e-06;-0.011376567842429868
1.57975e-06;-0.011363385250782959
1.58000e-06;-0.011350202659136038
1.58025e-06;-0.011337020067489129
1.58050e-06;-0.011323837475842207
1.58075e-06;-0.011310654884195297
1.58100e-06;-0.011297472292548377
1.58125e-06;-0.011284289700901467
1.58150e-06;-0.011271107109254557
1.58175e-06;-0.011257924517607636
1.58200e-06;-0.011244525546627401
1.58225e-06;-0.011226963131176574
1.58250e-06;-0.011209400715725763
1.58275e-06;-0.011191838300274952
1.58300e-06;-0.011174275884824126
1.58325e-06;-0.011156713469373315
1.58350e-06;-0.011139151053922488
1.58375e-06;-0.011121588638471677
1.58400e-06;-0.011104026223020865
1.58425e-06;-0.01108646380757004
1.58450e-06;-0.011068981897120408
1.58475e-06;-0.011053049016778387
1.58500e-06;-0.011037116136436381
1.58525e-06;-0.01102118325609436
1.58550e-06;-0.011005250375752354
1.58575e-06;-0.010989317495410347
1.58600e-06;-0.010973384615068327
1.58625e-06;-0.01095745173472632
1.58650e-06;-0.0109415188543843
1.58675e-06;-0.010925585974042293
1.58700e-06;-0.010909820733851064
1.58725e-06;-0.01089728112730966
1.58750e-06;-0.010884741520768263
1.58775e-06;-0.010872201914226857
1.58800e-06;-0.010859662307685463
1.58825e-06;-0.010847122701144067
1.58850e-06;-0.01083458309460266
1.58875e-06;-0.010822043488061267
1.58900e-06;-0.01080950388151986
1.58925e-06;-0.010796964274978465
1.58950e-06;-0.010784315636773732
1.58975e-06;-0.01076956907512727
1.59000e-06;-0.010754822513480809
1.59025e-06;-0.010740075951834335
1.59050e-06;-0.010725329390187874
1.59075e-06;-0.0107105828285414
1.59100e-06;-0.010695836266894939
1.59125e-06;-0.010681089705248477
1.59150e-06;-0.010666343143602004
1.59175e-06;-0.010651596581955542
1.59200e-06;-0.010636749818107772
1.59225e-06;-0.010619975022158312
1.59250e-06;-0.010603200226208854
1.59275e-06;-0.01058642543025938
1.59300e-06;-0.01056965063430992
1.59325e-06;-0.010552875838360449
1.59350e-06;-0.010536101042410989
1.59375e-06;-0.010519326246461515
1.59400e-06;-0.010502551450512057
1.59425e-06;-0.010485776654562597
1.59450e-06;-0.010469112974563231
1.59475e-06;-0.01045458732263147
1.59500e-06;-0.010440061670699694
1.59525e-06;-0.010425536018767933
1.59550e-06;-0.01041101036683617
1.59575e-06;-0.010396484714904394
1.59600e-06;-0.010381959062972632
1.59625e-06;-0.010367433411040856
1.59650e-06;-0.010352907759109093
1.59675e-06;-0.010338382107177331
1.59700e-06;-0.010324050239120192
1.59725e-06;-0.010313447046942507
1.59750e-06;-0.010302843854764812
1.59775e-06;-0.010292240662587127
1.59800e-06;-0.010281637470409432
1.59825e-06;-0.010271034278231745
1.59850e-06;-0.01026043108605406
1.59875e-06;-0.010249827893876365
1.59900e-06;-0.01023922470169868
1.59925e-06;-0.010228621509520985
1.59950e-06;-0.010218018317343298
1.59975e-06;-0.010207402656253611
1.60000e-06;-0.010196547075658195
1.60025e-06;-0.01018569149506279
1.60050e-06;-0.010174835914467373
1.60075e-06;-0.010163980333871966
1.60100e-06;-0.01015312475327656
1.60125e-06;-0.010142269172681144
1.60150e-06;-0.010131413592085737
1.60175e-06;-0.01012055801149032
1.60200e-06;-0.010109702430894915
1.60225e-06;-0.010098846850299499
1.60250e-06;-0.010087973237674693
1.60275e-06;-0.010076752663295725
1.60300e-06;-0.01006553208891675
1.60325e-06;-0.010054311514537782
1.60350e-06;-0.010043090940158806
1.60375e-06;-0.01003187036577984
1.60400e-06;-0.010020649791400873
1.60425e-06;-0.010009429217021897
1.60450e-06;-0.009998800203735676
1.60475e-06;-0.009988656362429299
1.60500e-06;-0.00997851252112293
1.60525e-06;-0.00996836867981656
1.60550e-06;-0.009958224838510183
1.60575e-06;-0.009948080997203814
1.60600e-06;-0.009937937155897436
1.60625e-06;-0.009927867270729532
1.60650e-06;-0.009919220406285508
1.60675e-06;-0.00991063273466545
1.60700e-06;-0.009903184016713676
1.60725e-06;-0.009895947914416402
1.60750e-06;-0.009892802838081926
1.60775e-06;-0.009889996124769146
1.60800e-06;-0.009893699994648392
1.60825e-06;-0.009897795216591128
1.60850e-06;-0.009909420605849205
1.60875e-06;-0.00992104599510727
1.60900e-06;-0.009933153300912722
1.60925e-06;-0.009954533362817312
1.60950e-06;-0.009975913424721901
1.60975e-06;-0.009998112017787284
1.61000e-06;-0.010036060308294282
1.61025e-06;-0.010074008598801313
1.61050e-06;-0.010111956889308313
1.61075e-06;-0.010149905179815342
1.61100e-06;-0.010187853470322342
1.61125e-06;-0.010226666885538326
1.61150e-06;-0.010282126523975008
1.61175e-06;-0.010337586162411644
1.61200e-06;-0.010393045800848325
1.61225e-06;-0.010448505439284961
1.61250e-06;-0.010503965077721597
1.61275e-06;-0.010559913338476907
1.61300e-06;-0.010625263383855294
1.61325e-06;-0.010690613429233737
1.61350e-06;-0.010755963474612124
1.61375e-06;-0.010821313519990512
1.61400e-06;-0.010886663565368954
1.61425e-06;-0.010952013610747342
1.61450e-06;-0.0110161902740766
1.61475e-06;-0.01107940458187081
1.61500e-06;-0.011142618889665017
1.61525e-06;-0.011205833197459278
1.61550e-06;-0.011269047505253487
1.61575e-06;-0.011332261813047749
1.61600e-06;-0.011394955930432882
1.61625e-06;-0.011447640848478925
1.61650e-06;-0.011500325766524922
1.61675e-06;-0.011552004947189585
1.61700e-06;-0.011584332317907732
1.61725e-06;-0.011616659688625854
1.61750e-06;-0.011648987059344003
1.61775e-06;-0.011681314430062125
1.61800e-06;-0.011713641800780246
1.61825e-06;-0.011745969171498396
1.61850e-06;-0.011778296542216517
1.61875e-06;-0.011809216145162485
1.61900e-06;-0.011813048304726384
1.61925e-06;-0.011816880464290283
1.61950e-06;-0.011820712623854186
1.61975e-06;-0.011824544783418085
1.62000e-06;-0.011828376942981987
1.62025e-06;-0.011832209102545886
1.62050e-06;-0.011836041262109789
1.62075e-06;-0.011838747614650981
1.62100e-06;-0.011819791847496288
1.62125e-06;-0.011800836080341576
1.62150e-06;-0.011781880313186882
1.62175e-06;-0.011762924546032172
1.62200e-06;-0.011743968778877477
1.62225e-06;-0.011725013011722782
1.62250e-06;-0.011706057244568071
1.62275e-06;-0.011680182170626227
1.62300e-06;-0.011648632190383156
1.62325e-06;-0.011617082210140111
1.62350e-06;-0.011585532229897066
1.62375e-06;-0.011553982249653993
1.62400e-06;-0.011522432269410948
1.62425e-06;-0.011490882289167876
1.62450e-06;-0.011459204423591614
1.62475e-06;-0.01142506586329648
1.62500e-06;-0.011390927303001374
1.62525e-06;-0.011356863203429284
1.62550e-06;-0.011324231833500736
1.62575e-06;-0.011291600463572218
1.62600e-06;-0.011259271503869068
1.62625e-06;-0.011232761344694468
1.62650e-06;-0.011206251185519869
1.62675e-06;-0.011179741026345245
1.62700e-06;-0.011153230867170646
1.62725e-06;-0.011126720707996024
1.62750e-06;-0.011100210548821425
1.62775e-06;-0.011073700389646824
1.62800e-06;-0.011046057934375223
1.62825e-06;-0.011017486820431167
1.62850e-06;-0.010988915706487088
1.62875e-06;-0.010960344592543032
1.62900e-06;-0.010931773478598953
1.62925e-06;-0.010903202364654897
1.62950e-06;-0.010874631250710842
1.62975e-06;-0.010845443765318267
1.63000e-06;-0.01080439642133402
1.63025e-06;-0.01076334907734974
1.63050e-06;-0.010722301733365493
1.63075e-06;-0.010681254389381247
1.63100e-06;-0.010640207045396966
1.63125e-06;-0.01059915970141272
1.63150e-06;-0.010558112357428439
1.63175e-06;-0.010517065013444193
1.63200e-06;-0.010476017669459946
1.63225e-06;-0.010434970325475666
1.63250e-06;-0.01039392298149142
1.63275e-06;-0.010352558389583127
1.63300e-06;-0.010305089498836694
1.63325e-06;-0.010257620608090219
1.63350e-06;-0.010210113605109648
1.63375e-06;-0.010161873268830572
1.63400e-06;-0.010113632932551457
1.63425e-06;-0.010065423431140284
1.63450e-06;-0.01001780723620659
1.63475e-06;-0.00997027928988269
1.63500e-06;-0.009924449371647149
1.63525e-06;-0.009878734020167713
1.63550e-06;-0.009835223095142965
1.63575e-06;-0.009791854412337708
1.63600e-06;-0.009751222671052384
1.63625e-06;-0.00971126474070162
1.63650e-06;-0.009684271885906311
1.63675e-06;-0.009657279031111026
1.63700e-06;-0.009630286176315717
1.63725e-06;-0.009603293321520432
1.63750e-06;-0.009576300466725123
1.63775e-06;-0.009549307611929838
1.63800e-06;-0.009522314757134553
1.63825e-06;-0.009495321902339244
1.63850e-06;-0.009468329047543958
1.63875e-06;-0.00944133619274865
1.63900e-06;-0.009414343337953364
1.63925e-06;-0.009387350483158079
1.63950e-06;-0.00936035762836277
1.63975e-06;-0.009333974642711873
1.64000e-06;-0.009319326402120062
1.64025e-06;-0.009304678161528263
1.64050e-06;-0.009290029920936466
1.64075e-06;-0.009275381680344655
1.64100e-06;-0.009260733439752856
1.64125e-06;-0.009246085199161045
1.64150e-06;-0.009231436958569246
1.64175e-06;-0.009216788717977436
1.64200e-06;-0.009202140477385637
1.64225e-06;-0.009187492236793838
1.64250e-06;-0.009172843996202027
1.64275e-06;-0.00915819575561023
1.64300e-06;-0.009143547515018419
1.64325e-06;-0.00912911065217319
1.64350e-06;-0.009118740996186564
1.64375e-06;-0.009108371340199928
1.64400e-06;-0.0090980016842133
1.64425e-06;-0.009087632028226666
1.64450e-06;-0.009077262372240038
1.64475e-06;-0.009066989193118165
1.64500e-06;-0.00905857236535007
1.64525e-06;-0.009050155537581983
1.64550e-06;-0.009041738709813889
1.64575e-06;-0.009033321882045801
1.64600e-06;-0.009024905054277707
1.64625e-06;-0.009016538585270517
1.64650e-06;-0.009009158758186602
1.64675e-06;-0.00900213881349786
1.64700e-06;-0.008995547575426166
1.64725e-06;-0.008989942717316315
1.64750e-06;-0.008986696063052888
