Time(s);Current(A)
9.05000e-06;-0.008952665828603565
9.05025e-06;-0.00892213610254124
9.05050e-06;-0.008892589827946376
9.05075e-06;-0.008864227966435333
9.05100e-06;-0.008837254477652132
9.05125e-06;-0.008811872593977426
9.05150e-06;-0.008788285640631945
9.05175e-06;-0.00876671077534737
9.05200e-06;-0.008747360016663756
9.05225e-06;-0.008730386568608424
9.05250e-06;-0.00871585566438642
9.05275e-06;-0.008704039399923928
9.05300e-06;-0.008695238401593782
9.05325e-06;-0.008687430389742111
9.05350e-06;-0.008683715809653244
9.05375e-06;-0.00868126984865316
9.05400e-06;-0.008684053571828674
9.05425e-06;-0.008686837295004204
9.05450e-06;-0.00869151251969578
9.05475e-06;-0.008703985164143975
9.05500e-06;-0.008716457808592256
9.05525e-06;-0.008728930453040537
9.05550e-06;-0.008741403097488732
9.05575e-06;-0.00875585524225464
9.05600e-06;-0.008778467568101819
9.05625e-06;-0.008801079893948845
9.05650e-06;-0.008823692219796024
9.05675e-06;-0.008846304545643205
9.05700e-06;-0.008870332524940317
9.05725e-06;-0.008900196314617937
9.05750e-06;-0.008930060104295557
9.05775e-06;-0.008959923893972975
9.05800e-06;-0.008989787683650595
9.05825e-06;-0.009019651473328215
9.05850e-06;-0.009049921863529466
9.05875e-06;-0.009081868400924783
9.05900e-06;-0.009113814938320102
9.05925e-06;-0.00914576147571542
9.05950e-06;-0.009177708013110523
9.05975e-06;-0.00920965455050584
9.06000e-06;-0.00924116348779947
9.06025e-06;-0.009270868486977916
9.06050e-06;-0.009299091606814228
9.06075e-06;-0.00932120591036545
9.06100e-06;-0.009343320213916522
9.06125e-06;-0.009365434517467745
9.06150e-06;-0.009387548821018967
9.06175e-06;-0.009409663124570039
9.06200e-06;-0.009431777428121261
9.06225e-06;-0.009453891731672484
9.06250e-06;-0.009476006035223555
9.06275e-06;-0.009498120338774778
9.06300e-06;-0.009517046124833783
9.06325e-06;-0.009534574105857703
9.06350e-06;-0.009552102086881743
9.06375e-06;-0.009569630067905783
9.06400e-06;-0.009587158048929702
9.06425e-06;-0.009604686029953742
9.06450e-06;-0.009622214010977782
9.06475e-06;-0.009639741992001703
9.06500e-06;-0.009657269973025743
9.06525e-06;-0.009674886240992137
9.06550e-06;-0.009692866458097828
9.06575e-06;-0.00971084667520364
9.06600e-06;-0.009728826892309453
9.06625e-06;-0.009746807109415143
9.06650e-06;-0.009764787326520957
9.06675e-06;-0.009782767543626768
9.06700e-06;-0.00980074776073246
9.06725e-06;-0.009818727977838271
9.06750e-06;-0.009836592519751627
9.06775e-06;-0.009853980208739413
9.06800e-06;-0.009871367897727079
9.06825e-06;-0.009888755586714865
9.06850e-06;-0.00990614327570265
9.06875e-06;-0.009923530964690317
9.06900e-06;-0.009940918653678101
9.06925e-06;-0.009958306342665885
9.06950e-06;-0.009975694031653553
9.06975e-06;-0.009992074558386363
9.07000e-06;-0.010004303215926902
9.07025e-06;-0.01001653187346736
9.07050e-06;-0.010028760531007899
9.07075e-06;-0.010040989188548437
9.07100e-06;-0.010053217846088895
9.07125e-06;-0.010065446503629434
9.07150e-06;-0.010077675161169974
9.07175e-06;-0.01008990381871043
9.07200e-06;-0.01010213247625097
9.07225e-06;-0.010107279439372662
9.07250e-06;-0.010109321878795758
9.07275e-06;-0.010111364318218869
9.07300e-06;-0.010113406757641979
9.07325e-06;-0.010115449197065076
9.07350e-06;-0.010117491636488188
9.07375e-06;-0.010119534075911298
9.07400e-06;-0.010121576515334395
9.07425e-06;-0.010123618954757507
9.07450e-06;-0.010123715731962532
9.07475e-06;-0.010115791820363033
9.07500e-06;-0.010107867908763482
9.07525e-06;-0.01009994399716393
9.07550e-06;-0.010092020085564432
9.07575e-06;-0.01008409617396488
9.07600e-06;-0.010076172262365327
9.07625e-06;-0.010068248350765776
9.07650e-06;-0.010060324439166277
9.07675e-06;-0.010048220416098798
9.07700e-06;-0.01003428388595753
9.07725e-06;-0.010020347355816354
9.07750e-06;-0.010006410825675084
9.07775e-06;-0.009992474295533816
9.07800e-06;-0.00997853776539264
9.07825e-06;-0.00996460123525137
9.07850e-06;-0.0099506647051101
9.07875e-06;-0.009936467712205755
9.07900e-06;-0.0099211970022143
9.07925e-06;-0.009905926292222846
9.07950e-06;-0.009890655582231494
9.07975e-06;-0.009875384872240038
9.08000e-06;-0.009860425176194993
9.08025e-06;-0.009846747586599768
9.08050e-06;-0.009833069997004451
9.08075e-06;-0.009819392407409132
9.08100e-06;-0.009805714817813907
9.08125e-06;-0.009792519500438822
9.08150e-06;-0.009781312275016756
9.08175e-06;-0.009770105049594769
9.08200e-06;-0.009758650979049434
9.08225e-06;-0.0097461793280119
9.08250e-06;-0.00973370767697445
9.08275e-06;-0.009720571494194103
9.08300e-06;-0.009704695883026415
9.08325e-06;-0.009688820271858835
9.08350e-06;-0.009672944660691147
9.08375e-06;-0.009657069049523459
9.08400e-06;-0.00964119343835588
9.08425e-06;-0.009625317827188192
9.08450e-06;-0.00960541162193247
9.08475e-06;-0.009583738456097604
9.08500e-06;-0.009562065290262883
9.08525e-06;-0.009540392124428016
9.08550e-06;-0.00951871895859315
9.08575e-06;-0.00949704579275843
9.08600e-06;-0.00947440310399632
9.08625e-06;-0.009447763708292447
9.08650e-06;-0.009421124312588756
9.08675e-06;-0.009394484916884884
9.08700e-06;-0.009367845521181011
9.08725e-06;-0.00934120612547732
9.08750e-06;-0.009314162189828093
9.08775e-06;-0.009285450601395703
9.08800e-06;-0.009256739012963505
9.08825e-06;-0.009228027424531115
9.08850e-06;-0.009199315836098723
9.08875e-06;-0.009170604247666525
9.08900e-06;-0.009141968355172968
9.08925e-06;-0.009113644507372475
9.08950e-06;-0.009085545111060932
9.08975e-06;-0.009058370980978801
9.09000e-06;-0.009031472574414454
9.09025e-06;-0.009005710795016901
9.09050e-06;-0.0089803259195772
9.09075e-06;-0.008956494771876652
9.09100e-06;-0.008933325584858268
9.09125e-06;-0.008912885227431465
9.09150e-06;-0.008892444870004663
9.09175e-06;-0.008872866319023204
9.09200e-06;-0.00885684043060008
9.09225e-06;-0.008840814542176953
9.09250e-06;-0.008825588279227753
9.09275e-06;-0.008813658347487785
9.09300e-06;-0.00880172841574782
9.09325e-06;-0.008791214482039882
9.09350e-06;-0.008786537779208433
9.09375e-06;-0.008781861076376952
9.09400e-06;-0.00877718437354547
9.09425e-06;-0.00877250767071402
9.09450e-06;-0.008767830967882537
9.09475e-06;-0.008763154265051056
9.09500e-06;-0.008760128137143542
9.09525e-06;-0.0087639062467366
9.09550e-06;-0.008767684356329658
9.09575e-06;-0.00877146246592269
9.09600e-06;-0.008775240575515748
9.09625e-06;-0.008779018685108806
9.09650e-06;-0.00878279679470184
9.09675e-06;-0.008787686468377631
9.09700e-06;-0.008797158391490499
9.09725e-06;-0.008806630314603305
9.09750e-06;-0.008816102237716174
9.09775e-06;-0.008825574160829044
9.09800e-06;-0.00883504608394185
9.09825e-06;-0.008844518007054717
9.09850e-06;-0.008853989930167587
9.09875e-06;-0.00886454210389554
9.09900e-06;-0.008875567845591898
9.09925e-06;-0.008886593587288254
9.09950e-06;-0.008897619328984538
9.09975e-06;-0.008908645070680895
9.10000e-06;-0.008919670812377253
9.10025e-06;-0.008930696554073535
9.10050e-06;-0.008940982054335987
9.10075e-06;-0.0089482160248241
9.10100e-06;-0.008955449995312162
9.10125e-06;-0.008962683965800272
9.10150e-06;-0.008969917936288384
9.10175e-06;-0.008977151906776495
9.10200e-06;-0.008984385877264557
9.10225e-06;-0.008991619847752668
9.10250e-06;-0.00899885381824078
9.10275e-06;-0.009006087788728842
9.10300e-06;-0.009013321759216953
9.10325e-06;-0.009020555729705063
9.10350e-06;-0.009027468553051678
9.10375e-06;-0.00903305749743216
9.10400e-06;-0.009038646441812641
9.10425e-06;-0.009044235386193086
9.10450e-06;-0.009049824330573568
9.10475e-06;-0.009055413274954049
9.10500e-06;-0.009061002219334494
9.10525e-06;-0.009066591163714976
9.10550e-06;-0.009072180108095459
9.10575e-06;-0.009077769052475902
9.10600e-06;-0.009083357996856384
9.10625e-06;-0.009088946941236867
9.10650e-06;-0.00909456219333983
9.10675e-06;-0.009100285894922846
9.10700e-06;-0.009106009596505859
9.10725e-06;-0.009111733298088835
9.10750e-06;-0.00911745699967185
9.10775e-06;-0.009123180701254865
9.10800e-06;-0.00912890440283784
9.10825e-06;-0.009134628104420854
9.10850e-06;-0.00914035180600387
9.10875e-06;-0.009145865914481749
9.10900e-06;-0.009150516008096804
9.10925e-06;-0.009155166101711859
9.10950e-06;-0.009159816195326883
9.10975e-06;-0.009164466288941938
9.11000e-06;-0.009169116382556993
9.11025e-06;-0.009173766476172017
9.11050e-06;-0.009178416569787072
9.11075e-06;-0.009183066663402127
9.11100e-06;-0.009187434306318512
9.11125e-06;-0.00919063759031388
9.11150e-06;-0.009193594514028174
9.11175e-06;-0.009195535855934966
9.11200e-06;-0.009196664936176943
9.11225e-06;-0.009194445594481631
9.11250e-06;-0.009192226252786317
9.11275e-06;-0.009188948864894854
9.11300e-06;-0.009181309846696982
9.11325e-06;-0.009173670828499111
9.11350e-06;-0.009164989400255815
9.11375e-06;-0.009152010799296832
9.11400e-06;-0.009139032198337848
9.11425e-06;-0.009124450285881732
9.11450e-06;-0.009103258972018932
9.11475e-06;-0.009082067658156131
9.11500e-06;-0.009060876344293475
9.11525e-06;-0.009039685030430674
9.11550e-06;-0.009016837811847603
9.11575e-06;-0.008987164384504436
9.11600e-06;-0.008957490957161066
9.11625e-06;-0.008927817529817698
9.11650e-06;-0.00889814410247453
9.11675e-06;-0.00886742940446425
9.11700e-06;-0.008832422230647886
9.11725e-06;-0.008797415056831761
9.11750e-06;-0.008762028554848332
9.11775e-06;-0.008725078331700463
9.11800e-06;-0.008687910020614014
9.11825e-06;-0.008649842676037894
9.11850e-06;-0.00861168905990948
9.11875e-06;-0.00857317962095626
9.11900e-06;-0.008534711613739601
9.11925e-06;-0.008496503127313882
9.11950e-06;-0.008458772566013208
9.11975e-06;-0.00842171018657161
9.12000e-06;-0.008385458002627527
9.12025e-06;-0.008350156536533076
9.12050e-06;-0.008316004687063273
9.12075e-06;-0.008283238624276155
9.12100e-06;-0.008252296945842869
9.12125e-06;-0.008223642012867294
9.12150e-06;-0.008195922279275606
9.12175e-06;-0.008172057759182802
9.12200e-06;-0.008148193239090157
9.12225e-06;-0.008125034345750543
9.12250e-06;-0.008104784288569821
9.12275e-06;-0.008084534231389235
9.12300e-06;-0.008065099678253055
9.12325e-06;-0.008049026913260341
9.12350e-06;-0.008032954148267737
9.12375e-06;-0.008017949536559158
9.12400e-06;-0.008007348220052111
9.12425e-06;-0.007996746903545137
9.12450e-06;-0.007986145587038092
9.12475e-06;-0.007975544270531045
9.12500e-06;-0.00796494295402407
9.12525e-06;-0.007954341637517025
9.12550e-06;-0.007947689034159575
9.12575e-06;-0.007942767495834151
9.12600e-06;-0.007937845957508696
9.12625e-06;-0.00793292441918324
9.12650e-06;-0.007928002880857815
9.12675e-06;-0.007923081342532359
9.12700e-06;-0.007918925202373635
9.12725e-06;-0.007917924296698093
9.12750e-06;-0.007916923391022544
9.12775e-06;-0.007915922485346994
9.12800e-06;-0.007914921579671445
9.12825e-06;-0.007913920673995902
9.12850e-06;-0.007912919768320353
9.12875e-06;-0.007912277922689493
9.12900e-06;-0.007913116246052726
9.12925e-06;-0.007913954569415963
9.12950e-06;-0.007914792892779202
9.12975e-06;-0.007915631216142433
9.13000e-06;-0.00791646953950567
9.13025e-06;-0.007917307862868908
9.13050e-06;-0.007918032129726
9.13075e-06;-0.007918286216437826
9.13100e-06;-0.007918540303149655
9.13125e-06;-0.00791879438986148
9.13150e-06;-0.007919048476573308
9.13175e-06;-0.007919302563285135
9.13200e-06;-0.007919556649996962
9.13225e-06;-0.007919810736708789
9.13250e-06;-0.007920064823420617
9.13275e-06;-0.007918926606076656
9.13300e-06;-0.007917178020550973
9.13325e-06;-0.00791542943502529
9.13350e-06;-0.00791368084949962
9.13375e-06;-0.007911932263973936
9.13400e-06;-0.007910183678448255
9.13425e-06;-0.007908435092922585
9.13450e-06;-0.007906686507396902
9.13475e-06;-0.007904547568899087
9.13500e-06;-0.007900799461197573
9.13525e-06;-0.007897051353496033
9.13550e-06;-0.007893303245794493
9.13575e-06;-0.007889555138092978
9.13600e-06;-0.007885807030391438
9.13625e-06;-0.007882058922689898
9.13650e-06;-0.007878310814988358
9.13675e-06;-0.007874324801436254
9.13700e-06;-0.00786935805814583
9.13725e-06;-0.007864391314855406
9.13750e-06;-0.007859424571565016
9.13775e-06;-0.007854457828274592
9.13800e-06;-0.007849491084984167
9.13825e-06;-0.007844524341693776
9.13850e-06;-0.007839557598403352
9.13875e-06;-0.007834546229458113
9.13900e-06;-0.0078293508982158
9.13925e-06;-0.00782415556697345
9.13950e-06;-0.007818960235731101
9.13975e-06;-0.007813764904488787
9.14000e-06;-0.00780882338422759
9.14025e-06;-0.00780399313143449
9.14050e-06;-0.007799162878641423
9.14075e-06;-0.007794332625848323
9.14100e-06;-0.007789586361810256
9.14125e-06;-0.007785227145932381
9.14150e-06;-0.007781092920846702
9.14175e-06;-0.007777301631327463
9.14200e-06;-0.00777423190586328
9.14225e-06;-0.007772282880545246
9.14250e-06;-0.0077707146227682855
9.14275e-06;-0.007770716019752147
9.14300e-06;-0.007771070230112373
9.14325e-06;-0.007772878858552283
9.14350e-06;-0.0077751431474525744
9.14375e-06;-0.007779285825484902
9.14400e-06;-0.007783428503517231
9.14425e-06;-0.007788448180623744
9.14450e-06;-0.007797083149538513
9.14475e-06;-0.007805718118453282
9.14500e-06;-0.007814353087368052
9.14525e-06;-0.007822988056282761
9.14550e-06;-0.007831623025197531
9.14575e-06;-0.007843559126128904
9.14600e-06;-0.007856942400857415
9.14625e-06;-0.007870325675586017
9.14650e-06;-0.007883708950314618
9.14675e-06;-0.00789709222504313
9.14700e-06;-0.007911092124981808
9.14725e-06;-0.007927633966111269
9.14750e-06;-0.00794417580724062
9.14775e-06;-0.00796071764837008
9.14800e-06;-0.007977259489499542
9.14825e-06;-0.007993801330628892
9.14850e-06;-0.008010437018964952
9.14875e-06;-0.008027459577763345
9.14900e-06;-0.008044482136561622
9.14925e-06;-0.008061504695360013
9.14950e-06;-0.008078527254158406
9.14975e-06;-0.008095549812956683
9.15000e-06;-0.008112226770401779
9.15025e-06;-0.008127479040206257
9.15050e-06;-0.008142731310010632
9.15075e-06;-0.008156428909194751
9.15100e-06;-0.008163717621385172
9.15125e-06;-0.008171006333575544
9.15150e-06;-0.008178295045765964
9.15175e-06;-0.008185583757956385
9.15200e-06;-0.008192872470146757
9.15225e-06;-0.00820016118233718
9.15250e-06;-0.0082074498945276
9.15275e-06;-0.008214738606717972
9.15300e-06;-0.008222027318908393
9.15325e-06;-0.008229316031098813
9.15350e-06;-0.008236604743289236
9.15375e-06;-0.008243893455479606
9.15400e-06;-0.008251182167670028
9.15425e-06;-0.008258470879860449
9.15450e-06;-0.00826575959205082
9.15475e-06;-0.008273048304241241
9.15500e-06;-0.008280337016431662
9.15525e-06;-0.008287625728622034
9.15550e-06;-0.008294914440812455
9.15575e-06;-0.008302203153002877
9.15600e-06;-0.008304837579480468
9.15625e-06;-0.008305431626991964
9.15650e-06;-0.00830602567450346
9.15675e-06;-0.008306619722014952
9.15700e-06;-0.008307213769526449
9.15725e-06;-0.008307807817037946
9.15750e-06;-0.008308401864549437
9.15775e-06;-0.008308995912060935
9.15800e-06;-0.008309589959572431
9.15825e-06;-0.008310184007083924
9.15850e-06;-0.00831077805459542
9.15875e-06;-0.008311372102106916
9.15900e-06;-0.008311966149618408
9.15925e-06;-0.008312560197129905
9.15950e-06;-0.0083131542446414
9.15975e-06;-0.008313748292152893
9.16000e-06;-0.00831434233966439
9.16025e-06;-0.008314936387175885
9.16050e-06;-0.008315530434687378
9.16075e-06;-0.008316124482198876
9.16100e-06;-0.008316476468705944
9.16125e-06;-0.008315830596500453
9.16150e-06;-0.00831508727107692
9.16175e-06;-0.00831394220997143
9.16200e-06;-0.008312291064850262
9.16225e-06;-0.008308553667358356
9.16250e-06;-0.008304816269866424
9.16275e-06;-0.0083004140329455
9.16300e-06;-0.008293271099239106
9.16325e-06;-0.008286128165532662
9.16350e-06;-0.008278339604256776
9.16375e-06;-0.008267889544087945
9.16400e-06;-0.008257439483919042
9.16425e-06;-0.008246002730119372
9.16450e-06;-0.008230498485818423
9.16475e-06;-0.008214994241517368
9.16500e-06;-0.008199489997216314
9.16525e-06;-0.008183985752915365
9.16550e-06;-0.008165017794471627
9.16575e-06;-0.008144531388317524
9.16600e-06;-0.008124044982163561
9.16625e-06;-0.008103558576009457
9.16650e-06;-0.008082376138932154
9.16675e-06;-0.008058324423002014
9.16700e-06;-0.008034272707071712
9.16725e-06;-0.00800993332839309
9.16750e-06;-0.007984408104929489
9.16775e-06;-0.007958728792655525
9.16800e-06;-0.007932414273309764
9.16825e-06;-0.007906008118848744
9.16850e-06;-0.007879198395095233
9.16875e-06;-0.007852286423127491
9.16900e-06;-0.007825425325723395
9.16925e-06;-0.007798766249863226
9.16950e-06;-0.007772458557736831
9.16975e-06;-0.007746631074085992
9.17000e-06;-0.007721373942330712
9.17025e-06;-0.0076967727924012255
9.17050e-06;-0.00767296044365761
9.17075e-06;-0.007650098946227998
9.17100e-06;-0.007628350622963623
9.17125e-06;-0.007607878830068635
9.17150e-06;-0.0075888465489937105
9.17175e-06;-0.00757141339759861
9.17200e-06;-0.007555715037094752
9.17225e-06;-0.007541835622106322
9.17250e-06;-0.0075298151864501665
9.17275e-06;-0.0075196803637276105
9.17300e-06;-0.007511457980477658
9.17325e-06;-0.007505174204640141
9.17350e-06;-0.007501050758068028
9.17375e-06;-0.007499330605272719
9.17400e-06;-0.007498382305599914
9.17425e-06;-0.007500615849964493
9.17450e-06;-0.007504010181547617
9.17475e-06;-0.007512189677279619
9.17500e-06;-0.007520369173011621
9.17525e-06;-0.007528548668743568
9.17550e-06;-0.00753672816447557
9.17575e-06;-0.007549871362715926
9.17600e-06;-0.007565190584265386
9.17625e-06;-0.00758050980581495
9.17650e-06;-0.007595829027364514
9.17675e-06;-0.007612036075204164
9.17700e-06;-0.0076319030483658614
9.17725e-06;-0.007651770021527559
9.17750e-06;-0.00767211365486288
9.17775e-06;-0.00769442224537436
9.17800e-06;-0.007716730835885841
9.17825e-06;-0.007739288271492325
9.17850e-06;-0.007762871532167596
9.17875e-06;-0.007786454792842867
9.17900e-06;-0.007810031629363222
9.17925e-06;-0.007833581983307364
9.17950e-06;-0.007857132337251665
9.17975e-06;-0.007880485057524447
9.18000e-06;-0.007903023063829989
9.18025e-06;-0.007925258528802288
9.18050e-06;-0.007946246814343822
9.18075e-06;-0.007966802105783379
9.18100e-06;-0.007985572446613467
9.18125e-06;-0.008003622827553743
9.18150e-06;-0.00801870528620868
9.18175e-06;-0.00803378774486372
9.18200e-06;-0.008047918155881345
9.18225e-06;-0.008058123899094771
9.18250e-06;-0.008068329642308265
9.18275e-06;-0.008077537641537154
9.18300e-06;-0.008082632596901994
9.18325e-06;-0.008087727552266869
9.18350e-06;-0.008091369083903937
9.18375e-06;-0.008089019103051128
9.18400e-06;-0.008086669122198305
9.18425e-06;-0.008084319141345482
9.18450e-06;-0.008081969160492674
9.18475e-06;-0.00807961917963985
9.18500e-06;-0.008071322416919113
9.18525e-06;-0.00806041866154695
9.18550e-06;-0.008049514906174718
9.18575e-06;-0.008038611150802483
9.18600e-06;-0.008027707395430322
9.18625e-06;-0.00801562022918121
9.18650e-06;-0.007998654636280298
9.18675e-06;-0.007981689043379502
9.18700e-06;-0.00796472345047859
9.18725e-06;-0.007947757857577677
9.18750e-06;-0.007928386240172877
9.18775e-06;-0.007907959852584833
9.18800e-06;-0.00788753346499665
9.18825e-06;-0.007867107077408467
9.18850e-06;-0.007846450405078585
9.18875e-06;-0.007824844419839437
9.18900e-06;-0.0078032183894188
9.18925e-06;-0.007781526362002965
9.18950e-06;-0.007759942641197109
9.18975e-06;-0.007738588141296079
9.19000e-06;-0.007717597098956343
9.19025e-06;-0.007697113232821713
9.19050e-06;-0.007677276274644599
9.19075e-06;-0.007658220243968018
9.19100e-06;-0.007640078876489023
9.19125e-06;-0.007622986373566342
9.19150e-06;-0.0076071003109988026
9.19175e-06;-0.007592746530748769
9.19200e-06;-0.0075805731298346606
9.19225e-06;-0.007571218585551552
9.19250e-06;-0.007564888937829676
9.19275e-06;-0.007561531713461658
9.19300e-06;-0.007561085354249684
9.19325e-06;-0.007563487927242545
9.19350e-06;-0.007568990767948948
9.19375e-06;-0.00757798780968099
9.19400e-06;-0.0075882724702365754
9.19425e-06;-0.007603865138442075
9.19450e-06;-0.00762139663882218
9.19475e-06;-0.007646920672262664
9.19500e-06;-0.0076724447057031474
9.19525e-06;-0.007697968739143459
9.19550e-06;-0.007723492772583942
9.19575e-06;-0.00775713055604174
9.19600e-06;-0.007794325303105589
9.19625e-06;-0.007831520050169185
9.19650e-06;-0.007868714797233034
9.19675e-06;-0.007907711451798574
9.19700e-06;-0.00795413618882907
9.19725e-06;-0.008000560925859879
