Time(s);Current(A)
1.27500e-05;-0.0013886892201474055
1.27503e-05;-0.001425400345626547
1.27505e-05;-0.0014621114711059373
1.27508e-05;-0.0014988225965853275
1.27510e-05;-0.001535533722064469
1.27513e-05;-0.0015715140304582292
1.27515e-05;-0.001607016978325146
1.27518e-05;-0.0016425199261918219
1.27520e-05;-0.0016761317327159424
1.27523e-05;-0.0017085082695049822
1.27525e-05;-0.0017408848062938026
1.27528e-05;-0.001770126795144197
1.27530e-05;-0.0017973213367127544
1.27533e-05;-0.0018245158782811276
1.27535e-05;-0.0018474915411760527
1.27538e-05;-0.0018677114855935293
1.27540e-05;-0.0018879314300108692
1.27543e-05;-0.0019035922560317613
1.27545e-05;-0.0019162751232681967
1.27548e-05;-0.001928957990504546
1.27550e-05;-0.0019368099700783107
1.27553e-05;-0.0019415064746016886
1.27555e-05;-0.001946202979125035
1.27558e-05;-0.0019460791822647247
1.27560e-05;-0.0019428068251783766
1.27563e-05;-0.001939534468092051
1.27565e-05;-0.001929134393118281
1.27568e-05;-0.0019140785824847664
1.27570e-05;-0.0018990227718513539
1.27573e-05;-0.0018839669612178392
1.27575e-05;-0.0018689111505843245
1.27577e-05;-0.001853855339950912
1.27580e-05;-0.0018387995293173975
1.27583e-05;-0.0018163979006455815
1.27585e-05;-0.0017891980760388216
1.27588e-05;-0.0017619982514322458
1.27590e-05;-0.0017347984268254858
1.27593e-05;-0.001707598602218726
1.27595e-05;-0.00168039877761215
1.27598e-05;-0.0016531989530053901
1.27600e-05;-0.00162339009515655
1.27603e-05;-0.0015918770496148214
1.27605e-05;-0.0015599992703760463
1.27608e-05;-0.0015278832516747015
1.27610e-05;-0.001495844587924046
1.27613e-05;-0.001463856451453728
1.27615e-05;-0.0014324051520019977
1.27618e-05;-0.0014013045077378382
1.27620e-05;-0.0013712525036600237
1.27623e-05;-0.0013418854581606393
1.27625e-05;-0.0013140826234168312
1.27628e-05;-0.0012873015114611885
1.27630e-05;-0.0012626000752016947
1.27633e-05;-0.0012392570569457252
1.27635e-05;-0.0012189846816506038
1.27638e-05;-0.0012007180117104004
1.27640e-05;-0.001186965673868292
1.27643e-05;-0.0011761620409644112
1.27645e-05;-0.001170047801066069
1.27648e-05;-0.001166996613688656
1.27650e-05;-0.0011685145441639154
1.27653e-05;-0.0011730169649432484
1.27655e-05;-0.0011822658883000785
1.27658e-05;-0.0011946151674318607
1.27660e-05;-0.001212171980420859
1.27662e-05;-0.001233130289016881
1.27665e-05;-0.00125896234679547
1.27668e-05;-0.0012879778762305979
1.27670e-05;-0.0013213483802281202
1.27673e-05;-0.0013575634988260677
1.27675e-05;-0.0013987907980496242
1.27678e-05;-0.0014432919906069393
1.27680e-05;-0.0014877931831639528
1.27683e-05;-0.0015376171850029264
1.27685e-05;-0.0015909179789064959
1.27688e-05;-0.001644218772809704
1.27690e-05;-0.0017012066667782938
1.27693e-05;-0.0017606029281276143
1.27695e-05;-0.0018199991894765322
1.27698e-05;-0.0018816934479888182
1.27700e-05;-0.0019448887293404243
1.27703e-05;-0.002008084010691602
1.27705e-05;-0.002071880339186765
1.27708e-05;-0.0021360692641152713
1.27710e-05;-0.0022002581890433427
1.27713e-05;-0.0022630247030211003
1.27715e-05;-0.0023248621160589173
1.27718e-05;-0.002386699529096315
1.27720e-05;-0.00244527233084287
1.27723e-05;-0.00250171272956079
1.27725e-05;-0.0025581531282783277
1.27728e-05;-0.002609139691972729
1.27730e-05;-0.002656563879235582
1.27733e-05;-0.0027039880664981135
1.27735e-05;-0.002744539481776391
1.27738e-05;-0.0027806016888493644
1.27740e-05;-0.002816663895922093
1.27743e-05;-0.0028461184809181377
1.27745e-05;-0.002871257050293017
1.27747e-05;-0.002896395619667726
1.27750e-05;-0.0029143317166685336
1.27753e-05;-0.0029275632493167693
1.27755e-05;-0.002940794781965005
1.27758e-05;-0.002947112465049195
1.27760e-05;-0.002948914108569793
1.27763e-05;-0.0029507157520903904
1.27765e-05;-0.0029463055736174346
1.27768e-05;-0.0029378379111587778
1.27770e-05;-0.0029293702487001214
1.27773e-05;-0.0029150293373948074
1.27775e-05;-0.002896852093824321
1.27778e-05;-0.0028786748502538343
1.27780e-05;-0.002855748334304039
1.27783e-05;-0.002829719653378471
1.27785e-05;-0.002803690972452903
1.27788e-05;-0.0027744351899347585
1.27790e-05;-0.0027430715052507203
1.27793e-05;-0.0027095677960382986
1.27795e-05;-0.0026746662497241763
1.27798e-05;-0.0026382429551354554
1.27800e-05;-0.0026008256737164166
1.27803e-05;-0.0025625426647046287
1.27805e-05;-0.0025236941733190496
1.27808e-05;-0.0024845135873077504
1.27810e-05;-0.002445116081264702
1.27813e-05;-0.002405927507527261
1.27815e-05;-0.0023668754057438067
1.27818e-05;-0.002328721353740454
1.27820e-05;-0.0022911538965562587
1.27823e-05;-0.002255732472963412
1.27825e-05;-0.00222171281151723
1.27828e-05;-0.0021876931500708174
1.27830e-05;-0.0021573995302342284
1.27832e-05;-0.002129539713906726
1.27835e-05;-0.002101679897579035
1.27838e-05;-0.0020761536633342606
1.27840e-05;-0.0020521516955514852
1.27843e-05;-0.0020281497277688724
1.27845e-05;-0.002006068439628864
1.27848e-05;-0.001985241715270961
1.27850e-05;-0.001964414990913199
1.27853e-05;-0.001943588266555296
1.27855e-05;-0.0019227615421973931
1.27858e-05;-0.0019037871819466883
1.27860e-05;-0.0018860227626294429
1.27863e-05;-0.0018682583433121973
1.27865e-05;-0.0018504939239950722
1.27868e-05;-0.0018327295046778268
1.27870e-05;-0.0018163710793630107
1.27873e-05;-0.001800931031644531
1.27875e-05;-0.0017854909839259464
1.27878e-05;-0.0017700509362073619
1.27880e-05;-0.0017546108884888818
1.27883e-05;-0.0017391708407702973
1.27885e-05;-0.0017237307930517128
1.27888e-05;-0.001708290745333233
1.27890e-05;-0.0016941009377587943
1.27893e-05;-0.0016807277713196708
1.27895e-05;-0.001667354604880638
1.27898e-05;-0.0016539814384415145
1.27900e-05;-0.001640608272002391
1.27903e-05;-0.0016272351055633583
1.27905e-05;-0.0016138619391242348
1.27908e-05;-0.0016004887726851114
1.27910e-05;-0.001588419044202939
1.27913e-05;-0.001577200704998151
1.27915e-05;-0.0015659823657933627
1.27917e-05;-0.0015547640265886505
1.27920e-05;-0.0015435456873838622
1.27923e-05;-0.0015336721201568912
1.27925e-05;-0.0015246769410699676
1.27928e-05;-0.001515681761983105
1.27930e-05;-0.0015066865828961813
1.27933e-05;-0.0014976914038092577
1.27935e-05;-0.001489100178930879
1.27938e-05;-0.0014807728118601032
1.27940e-05;-0.0014724454447893273
1.27943e-05;-0.001464118077718608
1.27945e-05;-0.0014557907106478322
1.27948e-05;-0.0014474633435770565
1.27950e-05;-0.0014388543146218705
1.27953e-05;-0.001427841693827785
1.27955e-05;-0.0014168290730336996
1.27958e-05;-0.001405816452239689
1.27960e-05;-0.0013948038314456036
1.27963e-05;-0.0013837912106515182
1.27965e-05;-0.0013727785898575075
1.27968e-05;-0.0013593599357606071
1.27970e-05;-0.0013443696909754904
1.27973e-05;-0.0013293794461904753
1.27975e-05;-0.0013143892014053585
1.27978e-05;-0.0012993989566202416
1.27980e-05;-0.0012844087118352265
1.27983e-05;-0.0012694184670501098
1.27985e-05;-0.001254428222264993
1.27988e-05;-0.0012394379774799777
1.27990e-05;-0.0012230492484566473
1.27993e-05;-0.0012057470471201906
1.27995e-05;-0.0011884448457838512
1.27998e-05;-0.0011711426444473946
1.28000e-05;-0.0011538404431109379
1.28002e-05;-0.0011365382417745985
1.28005e-05;-0.0011192360404381418
1.28008e-05;-0.001101933839101685
1.28010e-05;-0.0010846316377652284
1.28013e-05;-0.0010679655129671453
1.28015e-05;-0.0010517148653626798
1.28018e-05;-0.0010354642177582143
1.28020e-05;-0.0010194122526076062
1.28023e-05;-0.0010050557654430663
1.28025e-05;-0.0009906992782785264
1.28028e-05;-0.0009763427911140837
1.28030e-05;-0.0009633530455579773
1.28033e-05;-0.000951256038428636
1.28035e-05;-0.0009395085545551458
1.28038e-05;-0.0009279893748756924
1.28040e-05;-0.000914762858418209
1.28043e-05;-0.0009004211310534978
1.28045e-05;-0.0008839319030416272
1.28048e-05;-0.000866039954619831
1.28050e-05;-0.0008481480061981561
1.28053e-05;-0.0008281406915329439
1.28055e-05;-0.0008067516462460202
1.28058e-05;-0.0007853626009592415
1.28060e-05;-0.0007610178888579543
1.28063e-05;-0.0007347425723718191
1.28065e-05;-0.0007061471355133548
1.28068e-05;-0.0006760362252113268
1.28070e-05;-0.0006441517317320604
1.28073e-05;-0.0006111087560308926
1.28075e-05;-0.0005764593535597239
1.28078e-05;-0.0005407606533291553
1.28080e-05;-0.0005030948945221816
1.28083e-05;-0.00046414427779552985
1.28085e-05;-0.00042364029479538263
1.28087e-05;-0.00038212167248483184
1.28090e-05;-0.0003396665253730868
1.28093e-05;-0.00029659965204153257
1.28095e-05;-0.0002529753310162013
1.28098e-05;-0.00020898689216949028
1.28100e-05;-0.00016448955052534062
1.28103e-05;-0.0001196597999753611
1.28105e-05;-7.476575714554332e-05
1.28108e-05;-3.0007491434357535e-05
1.28110e-05;1.4291441263262863e-05
1.28113e-05;5.785985758707491e-05
1.28115e-05;0.00010048183380231628
1.28118e-05;0.00014204550656336025
1.28120e-05;0.00018244851978323575
1.28123e-05;0.00022149063627517867
1.28125e-05;0.0002589012896134126
1.28128e-05;0.00029439582098158185
1.28130e-05;0.0003276896538378597
1.28133e-05;0.00035851039875785544
1.28135e-05;0.00038642702258327656
1.28138e-05;0.00041311193182734453
1.28140e-05;0.0004385378954149742
1.28143e-05;0.00046314153153525345
1.28145e-05;0.0004864585386448071
1.28148e-05;0.000508935135868238
1.28150e-05;0.000529693393390694
1.28153e-05;0.0005493292530347344
1.28155e-05;0.0005671208525921185
1.28158e-05;0.0005837078046586759
1.28160e-05;0.0006002947567253458
1.28163e-05;0.0006145573222197784
1.28165e-05;0.0006273016276422215
1.28168e-05;0.0006400459330647511
1.28170e-05;0.0006527902384872807
1.28172e-05;0.000665534543909724
1.28175e-05;0.0006782788493322535
1.28178e-05;0.0006910231547547831
1.28180e-05;0.0007037674601773127
1.28183e-05;0.0007137467442335263
1.28185e-05;0.000721919951112818
1.28188e-05;0.0007300931579921096
1.28190e-05;0.0007382663648713459
1.28193e-05;0.0007464395717506376
1.28195e-05;0.0007546127786299293
1.28198e-05;0.0007627859855091656
1.28200e-05;0.0007709591923884573
1.28203e-05;0.000777730509796422
1.28205e-05;0.0007835861306350841
1.28208e-05;0.0007894417514737858
1.28210e-05;0.0007952973723124875
1.28213e-05;0.0008011529931511495
1.28215e-05;0.0008061157892786385
1.28218e-05;0.0008104954035349608
1.28220e-05;0.0008148750177912536
1.28223e-05;0.0008192546320475759
1.28225e-05;0.0008236342463038983
1.28228e-05;0.0008276386274343383
1.28230e-05;0.0008312401026828169
1.28233e-05;0.0008345523828745988
1.28235e-05;0.0008373226943302466
1.28238e-05;0.0008389090188083325
1.28240e-05;0.0008380268850359606
1.28243e-05;0.0008359203788913398
1.28245e-05;0.0008313874201260801
1.28248e-05;0.0008252695330295799
1.28250e-05;0.0008169462200313147
1.28253e-05;0.0008071823505743679
1.28255e-05;0.0007950791892522619
1.28257e-05;0.000781448031908147
1.28260e-05;0.0007648972797333243
1.28263e-05;0.0007464394849385115
1.28265e-05;0.0007252733690408616
1.28268e-05;0.0007023382118649098
1.28270e-05;0.0006771053626752695
1.28273e-05;0.0006503716899632713
1.28275e-05;0.0006215286424670107
1.28278e-05;0.0005913077778935171
1.28280e-05;0.0005588862054716944
1.28283e-05;0.0005250271583645253
1.28285e-05;0.0004893719676868866
1.28288e-05;0.0004525435586213941
1.28290e-05;0.0004142236549201066
1.28293e-05;0.000374929525682574
1.28295e-05;0.0003356353964450414
1.28298e-05;0.0002951802182258387
1.28300e-05;0.00025396665741521564
1.28303e-05;0.00021275309660459259
1.28305e-05;0.00017124989338010131
1.28308e-05;0.00012955749937356966
1.28310e-05;8.814029287437444e-05
1.28313e-05;4.7286271859059496e-05
1.28315e-05;7.18402850259978e-06
1.28318e-05;-3.2010743082030844e-05
1.28320e-05;-7.014355309138833e-05
1.28323e-05;-0.00010699761705470168
1.28325e-05;-0.00014231276003442766
1.28328e-05;-0.00017582027094287987
1.28330e-05;-0.00020725148674996736
1.28333e-05;-0.00023633876801500904
1.28335e-05;-0.000262846827969938
1.28338e-05;-0.00028662911734713076
1.28340e-05;-0.000307622194030101
1.28342e-05;-0.0003257831381350817
1.28345e-05;-0.0003410597220554176
1.28348e-05;-0.0003533957117969012
1.28350e-05;-0.00036273485504892324
1.28353e-05;-0.00036902158679503414
1.28355e-05;-0.00037222065395517965
1.28358e-05;-0.0003723523134992878
1.28360e-05;-0.0003694889631196566
1.28363e-05;-0.0003637157878100493
1.28365e-05;-0.00035511218741788876
1.28368e-05;-0.00034375500684294966
1.28370e-05;-0.000329721127617919
1.28373e-05;-0.0003130878523641026
1.28375e-05;-0.0002939451425878813
1.28378e-05;-0.00027241778449252986
1.28380e-05;-0.0002486632013337944
1.28383e-05;-0.0002228468388318737
1.28385e-05;-0.00019513047135244125
1.28388e-05;-0.00016567429518083609
1.28390e-05;-0.0001346384947473447
1.28393e-05;-0.00010218350265145087
1.28395e-05;-6.847771337589934e-05
1.28398e-05;-3.371130265060933e-05
1.28400e-05;1.9051362139833974e-06
1.28403e-05;3.8155990205904946e-05
1.28405e-05;7.486574839049619e-05
1.28408e-05;0.00011173343307519
1.28410e-05;0.00014858607456345383
1.28413e-05;0.00018339802329739346
1.28415e-05;0.00019980869526565212
1.28418e-05;0.00023749864023230578
1.28420e-05;0.00027121875434005195
1.28423e-05;0.000308130486723228
1.28425e-05;0.0003434635841190427
1.28427e-05;0.00037840106142147034
1.28430e-05;0.0004043035450613282
1.28433e-05;0.00043190041385122546
1.28435e-05;0.0004557184648280681
1.28438e-05;0.0004792369775874248
1.28440e-05;0.0005009715289976156
1.28443e-05;0.000522508087731962
1.28445e-05;0.0005428654604367173
1.28448e-05;0.000562692582064925
1.28450e-05;0.0005793616845436974
1.28453e-05;0.000595620935342285
1.28455e-05;0.000609439230316329
1.28458e-05;0.0006230196205458245
1.28460e-05;0.0006351831202264002
1.28463e-05;0.0006473466199070584
1.28465e-05;0.00065912458488976
1.28468e-05;0.0006686064188269632
1.28470e-05;0.0006780882527642306
1.28473e-05;0.0006871671458701187
1.28475e-05;0.0006938462421292502
1.28478e-05;0.0007005253383884269
1.28480e-05;0.0007068227225346373
1.28483e-05;0.0007108467418248376
1.28485e-05;0.000714870761115065
1.28488e-05;0.0007188947804052925
1.28490e-05;0.0007229187996954926
1.28493e-05;0.00072694281898572
1.28495e-05;0.0007309668382759475
1.28498e-05;0.0007349908575661477
1.28500e-05;0.0007385898523419532
1.28503e-05;0.0007396575263622585
1.28505e-05;0.0007407252003825565
1.28508e-05;0.0007417928744028618
1.28510e-05;0.000742860548423167
1.28512e-05;0.0007439282224434652
1.28515e-05;0.0007449958964637704
1.28518e-05;0.0007460635704840757
1.28520e-05;0.0007470420255180215
1.28523e-05;0.0007474891185614948
1.28525e-05;0.0007479271738049182
1.28528e-05;0.0007482910424194891
1.28530e-05;0.0007485269238101368
1.28533e-05;0.0007486774449611847
1.28535e-05;0.000748314390805195
1.28538e-05;0.0007459858302296241
1.28540e-05;0.0007399907734036041
1.28543e-05;0.0007297813799886651
1.28545e-05;0.0007155379100130225
1.28548e-05;0.0006973977219407152
1.28550e-05;0.000675585432551823
1.28553e-05;0.0006503650395840192
1.28555e-05;0.0006217056659371737
1.28558e-05;0.0005889352643952313
1.28560e-05;0.0005512256930803348
1.28563e-05;0.0005084713842203328
1.28565e-05;0.0004610227981783903
1.28568e-05;0.0004092034242319037
1.28570e-05;0.00035339147300272525
1.28573e-05;0.00029398978030132755
1.28575e-05;0.0002312164375911176
1.28578e-05;0.00016488788375188386
1.28580e-05;9.472291853143314e-05
1.28583e-05;2.08928800624286e-05
1.28585e-05;-5.614524519567966e-05
1.28588e-05;-0.00013595133598627435
1.28590e-05;-0.00021805107853369518
1.28593e-05;-0.0003020489579756081
1.28595e-05;-0.00038784936391658036
1.28597e-05;-0.00047404494975625494
1.28600e-05;-0.0005625941106204591
1.28603e-05;-0.0006511432714846633
1.28605e-05;-0.0007396628949214808
1.28608e-05;-0.0008280066021446154
1.28610e-05;-0.0009163503093683487
1.28613e-05;-0.0010041797713481316
1.28615e-05;-0.0010889465401979434
1.28618e-05;-0.001173064160691443
1.28620e-05;-0.0012533156448694496
1.28623e-05;-0.001332644327820238
1.28625e-05;-0.0014064770786063338
1.28628e-05;-0.0014790615753123226
1.28630e-05;-0.0015442118385654805
1.28633e-05;-0.0016079502384531515
1.28635e-05;-0.0016632799961957352
1.28638e-05;-0.0017175733804801953
1.28640e-05;-0.0017656944298595043
1.28643e-05;-0.0018138154792388134
1.28645e-05;-0.0018607250394158377
1.28648e-05;-0.0019004193269195968
1.28650e-05;-0.0019401136144233558
1.28653e-05;-0.001978417118392894
1.28655e-05;-0.0020084375254834784
1.28658e-05;-0.002038457932574063
1.28660e-05;-0.0020674767952103563
1.28663e-05;-0.002090530754222388
1.28665e-05;-0.0021135847132344194
1.28668e-05;-0.0021366386722462944
1.28670e-05;-0.0021584810723204273
1.28673e-05;-0.002173107784393068
1.28675e-05;-0.0021877344964656097
1.28678e-05;-0.0022023612085382504
1.28680e-05;-0.002215705187676372
1.28682e-05;-0.002221409587462839
1.28685e-05;-0.002227113987249344
1.28688e-05;-0.0022328183870358497
1.28690e-05;-0.0022385227868223553
1.28693e-05;-0.0022442271866088223
1.28695e-05;-0.002249931586395328
1.28698e-05;-0.0022556359861818334
1.28700e-05;-0.0022613403859683004
1.28703e-05;-0.002267044785754806
1.28705e-05;-0.0022684593248925218
1.28708e-05;-0.002267500038132185
1.28710e-05;-0.0022665407513718415
1.28713e-05;-0.0022655814646114977
1.28715e-05;-0.002264622177851161
1.28718e-05;-0.0022636628910908175
1.28720e-05;-0.002262703604330474
1.28723e-05;-0.0022617443175701373
1.28725e-05;-0.002260785030809794
1.28728e-05;-0.002259752440972596
1.28730e-05;-0.00225828327961115
1.28733e-05;-0.002256714702449206
1.28735e-05;-0.002254554034076098
1.28738e-05;-0.00225170394892632
1.28740e-05;-0.002244747900616517
1.28743e-05;-0.0022367300781682194
1.28745e-05;-0.002222388641841813
1.28748e-05;-0.002208047205515309
1.28750e-05;-0.0021925865659678623
1.28753e-05;-0.002170460281850512
1.28755e-05;-0.002148333997733012
1.28758e-05;-0.002124756131350815
1.28760e-05;-0.0020925330687612685
1.28763e-05;-0.002060310006171504
1.28765e-05;-0.002026690162742925
1.28767e-05;-0.0019847515042499485
1.28770e-05;-0.0019428128457566881
1.28773e-05;-0.0018999395336879493
1.28775e-05;-0.0018514997003523709
1.28778e-05;-0.0018022641473017735
1.28780e-05;-0.0017482895221129161
1.28783e-05;-0.0016936151117824885
1.28785e-05;-0.001634772987365463
1.28788e-05;-0.0015755344047862238
1.28790e-05;-0.0015137391499578017
1.28793e-05;-0.0014506278970810747
1.28795e-05;-0.001386475299174314
1.28798e-05;-0.0013213666201507945
1.28800e-05;-0.0012553381292219358
1.28803e-05;-0.0011886361335283618
1.28805e-05;-0.0011216544415270707
1.28808e-05;-0.0010547949683781144
1.28810e-05;-0.0009884592639989006
1.28813e-05;-0.0009230440734021521
1.28815e-05;-0.0008588978604026117
1.28818e-05;-0.00079625060829848
1.28820e-05;-0.0007353016107738464
1.28823e-05;-0.0006765845185036712
1.28825e-05;-0.0006211212614907825
1.28828e-05;-0.0005663274753316342
1.28830e-05;-0.0005160492117599338
1.28833e-05;-0.00046946885082508076
1.28835e-05;-0.0004265952050144018
1.28838e-05;-0.000386458840940948
1.28840e-05;-0.0003477215692305509
1.28843e-05;-0.00030995299731215805
1.28845e-05;-0.00027340138453230703
1.28848e-05;-0.0002383536530024804
1.28850e-05;-0.00020509662078674207
1.28853e-05;-0.00017389270937052427
1.28855e-05;-0.00014476606207967747
1.28858e-05;-0.00011712806275173741
1.28860e-05;-9.015916315506945e-05
1.28863e-05;-6.360850896048857e-05
1.28865e-05;-3.765037441548601e-05
1.28868e-05;-1.2483224688957983e-05
1.28870e-05;1.1694573935218212e-05
1.28873e-05;3.469992200300945e-05
1.28875e-05;5.649900259099192e-05
1.28878e-05;7.744183159076624e-05
1.28880e-05;9.802301933825252e-05
1.28883e-05;0.00011838090510349752
1.28885e-05;0.00013834322599707476
1.28888e-05;0.00015763584961662374
1.28890e-05;0.00017671477842928364
1.28893e-05;0.00019452100394366805
1.28895e-05;0.00021214875069018208
1.28898e-05;0.00022871353048868232
1.28900e-05;0.0002451962169367525
1.28903e-05;0.00026118997958169164
1.28905e-05;0.00027701154214943637
1.28908e-05;0.00029180753180118994
1.28910e-05;0.00030660352145304374
1.28913e-05;0.0003211232766046746
1.28915e-05;0.00033399786047351806
1.28918e-05;0.0003468724443424488
1.28920e-05;0.0003595409398708789
1.28923e-05;0.00037098203397313936
1.28925e-05;0.0003824231280754773
1.28928e-05;0.00039357944779341977
1.28930e-05;0.00040303973519480835
1.28933e-05;0.000412500022596261
1.28935e-05;0.00042157989114186825
1.28938e-05;0.00042839409708325573
1.28940e-05;0.00043520830302468946
