Time(s);Current(A)
9.30000e-06;-0.012087467571679096
9.30025e-06;-0.01209087672970362
9.30050e-06;-0.012094285887728123
9.30075e-06;-0.012097695045752649
9.30100e-06;-0.012101104203777174
9.30125e-06;-0.012104513361801676
9.30150e-06;-0.01211414101273394
9.30175e-06;-0.012124080397691103
9.30200e-06;-0.012134019782648197
9.30225e-06;-0.01214395916760536
9.30250e-06;-0.012153898552562522
9.30275e-06;-0.012163837937519616
9.30300e-06;-0.012173777322476778
9.30325e-06;-0.01218371670743394
9.30350e-06;-0.012193656092391035
9.30375e-06;-0.012205223947675483
9.30400e-06;-0.012216873438432906
9.30425e-06;-0.012228522929190248
9.30450e-06;-0.012240172419947671
9.30475e-06;-0.012251821910705092
9.30500e-06;-0.012262713313259326
9.30525e-06;-0.012272686592713819
9.30550e-06;-0.01228265987216831
9.30575e-06;-0.012292633151622734
9.30600e-06;-0.012302606431077225
9.30625e-06;-0.012312579710531716
9.30650e-06;-0.012320017983458238
9.30675e-06;-0.012327329176109828
9.30700e-06;-0.012334640368761416
9.30725e-06;-0.01234577400414391
9.30750e-06;-0.012357099259180188
9.30775e-06;-0.012368424514216542
9.30800e-06;-0.012379749769252896
9.30825e-06;-0.012391075024289173
9.30850e-06;-0.012402400279325527
9.30875e-06;-0.012413725534361882
9.30900e-06;-0.012428931638373142
9.30925e-06;-0.012448837851259316
9.30950e-06;-0.012468744064145491
9.30975e-06;-0.01248865027703153
9.31000e-06;-0.012508556489917704
9.31025e-06;-0.01252846270280388
9.31050e-06;-0.012548368915689919
9.31075e-06;-0.012568275128576093
9.31100e-06;-0.012596029747418304
9.31125e-06;-0.012624177808082648
9.31150e-06;-0.012652325868747183
9.31175e-06;-0.012680473929411717
9.31200e-06;-0.012708621990076061
9.31225e-06;-0.012736770050740595
9.31250e-06;-0.01276491811140513
9.31275e-06;-0.012793066172069474
9.31300e-06;-0.012823899767619901
9.31325e-06;-0.012854867989455693
9.31350e-06;-0.012885836211291276
9.31375e-06;-0.01291680443312707
9.31400e-06;-0.012947772654962861
9.31425e-06;-0.012978740876798444
9.31450e-06;-0.013009709098634236
9.31475e-06;-0.013040677320470028
9.31500e-06;-0.013065109570220125
9.31525e-06;-0.013089214170663723
9.31550e-06;-0.013113318771107321
9.31575e-06;-0.013137423371550919
9.31600e-06;-0.013161527971994352
9.31625e-06;-0.01318563257243795
9.31650e-06;-0.013209737172881549
9.31675e-06;-0.013233841773324984
9.31700e-06;-0.013247987606771245
9.31725e-06;-0.013250072344962685
9.31750e-06;-0.01325215708315411
9.31775e-06;-0.01325424182134555
9.31800e-06;-0.01325632655953699
9.31825e-06;-0.013258411297728416
9.31850e-06;-0.013260496035919856
9.31875e-06;-0.013262580774111295
9.31900e-06;-0.013264665512302721
9.31925e-06;-0.013242432910617061
9.31950e-06;-0.013218981276865669
9.31975e-06;-0.013195529643114434
9.32000e-06;-0.013172078009363042
9.32025e-06;-0.01314862637561165
9.32050e-06;-0.013125174741860417
9.32075e-06;-0.01308455002247383
9.32100e-06;-0.013043064413608014
9.32125e-06;-0.013001578804742477
9.32150e-06;-0.01296009319587666
9.32175e-06;-0.012918607587010843
9.32200e-06;-0.012877121978145306
9.32225e-06;-0.01282486203388783
9.32250e-06;-0.012772061970505334
9.32275e-06;-0.012719261907123197
9.32300e-06;-0.012666461843740701
9.32325e-06;-0.012613661780358205
9.32350e-06;-0.01255944218743484
9.32375e-06;-0.012503503397644514
9.32400e-06;-0.012447564607854187
9.32425e-06;-0.01239162581806386
9.32450e-06;-0.012335687028273912
9.32475e-06;-0.012279748238483585
9.32500e-06;-0.012226272108622578
9.32525e-06;-0.012172919432290942
9.32550e-06;-0.012122669892905055
9.32575e-06;-0.012072575914261637
9.32600e-06;-0.01203635055976458
9.32625e-06;-0.012000820441573856
9.32650e-06;-0.011965290323383133
9.32675e-06;-0.011929760205192649
9.32700e-06;-0.011894230087001925
9.32725e-06;-0.011858699968811202
9.32750e-06;-0.011823169850620718
9.32775e-06;-0.011787639732429994
9.32800e-06;-0.01175210961423927
9.32825e-06;-0.011716579496048787
9.32850e-06;-0.011681049377858063
9.32875e-06;-0.011651579193879495
9.32900e-06;-0.011629448216031343
9.32925e-06;-0.01160731723818304
9.32950e-06;-0.011585186260334739
9.32975e-06;-0.011563055282486587
9.33000e-06;-0.011540924304638286
9.33025e-06;-0.011518793326789983
9.33050e-06;-0.011496662348941832
9.33075e-06;-0.01147453137109353
9.33100e-06;-0.011452400393245228
9.33125e-06;-0.011430269415397076
9.33150e-06;-0.011408138437548775
9.33175e-06;-0.011391965509568853
9.33200e-06;-0.011376091259565036
9.33225e-06;-0.011360217009561111
9.33250e-06;-0.011344342759557187
9.33275e-06;-0.011328468509553262
9.33300e-06;-0.011312594259549445
9.33325e-06;-0.01129672000954552
9.33350e-06;-0.011280845759541596
9.33375e-06;-0.011264971509537779
9.33400e-06;-0.011249097259533854
9.33425e-06;-0.01123322300952993
9.33450e-06;-0.011217348759526112
9.33475e-06;-0.011201474509522188
9.33500e-06;-0.011191137837994929
9.33525e-06;-0.011181078766146971
9.33550e-06;-0.011171019694298946
9.33575e-06;-0.01116096062245092
9.33600e-06;-0.011150901550602962
9.33625e-06;-0.011140842478754936
9.33650e-06;-0.011130783406906911
9.33675e-06;-0.011120724335058953
9.33700e-06;-0.011110665263210927
9.33725e-06;-0.011100606191362902
9.33750e-06;-0.011090547119514944
9.33775e-06;-0.011080488047666918
9.33800e-06;-0.011070428975818893
9.33825e-06;-0.011066125714797021
9.33850e-06;-0.011062110993476499
9.33875e-06;-0.011058096272155978
9.33900e-06;-0.011054081550835483
9.33925e-06;-0.011050066829514963
9.33950e-06;-0.01104605210819444
9.33975e-06;-0.011042037386873947
9.34000e-06;-0.011038022665553425
9.34025e-06;-0.011034007944232904
9.34050e-06;-0.011029993222912409
9.34075e-06;-0.011025978501591888
9.34100e-06;-0.011021963780271366
9.34125e-06;-0.011017949058950845
9.34150e-06;-0.01101393433763035
9.34175e-06;-0.01100991961630983
9.34200e-06;-0.011005904894989307
9.34225e-06;-0.011001890173668814
9.34250e-06;-0.010997875452348291
9.34275e-06;-0.01099386073102777
9.34300e-06;-0.010989846009707276
9.34325e-06;-0.010985831288386755
9.34350e-06;-0.010981816567066233
9.34375e-06;-0.01097780184574574
9.34400e-06;-0.010973787124425217
9.34425e-06;-0.010969772403104696
9.34450e-06;-0.010965757681784202
9.34475e-06;-0.01096174296046368
9.34500e-06;-0.01095772823914316
9.34525e-06;-0.010953713517822665
9.34550e-06;-0.010949698796502143
9.34575e-06;-0.010945684075181622
9.34600e-06;-0.010943217618050475
9.34625e-06;-0.010940840304877878
9.34650e-06;-0.010938477759490573
9.34675e-06;-0.010936423667230473
9.34700e-06;-0.01093605230633229
9.34725e-06;-0.010939262319058046
9.34750e-06;-0.010948845081868353
9.34775e-06;-0.010958738521578528
9.34800e-06;-0.01097618804210495
9.34825e-06;-0.010994016350150753
9.34850e-06;-0.011018568417199929
9.34875e-06;-0.01104345754734524
9.34900e-06;-0.01107874027950037
9.34925e-06;-0.011114544044558887
9.34950e-06;-0.011150347809617404
9.34975e-06;-0.011204507078381165
9.35000e-06;-0.011259586511431816
9.35025e-06;-0.011314665944482837
9.35050e-06;-0.01136974537753386
9.35075e-06;-0.01142482481058451
9.35100e-06;-0.011488900672921716
9.35125e-06;-0.011563872140178262
9.35150e-06;-0.0116388436074343
9.35175e-06;-0.011713815074690846
9.35200e-06;-0.011788786541947392
9.35225e-06;-0.01186375800920343
9.35250e-06;-0.011949997969751937
9.35275e-06;-0.012036802821641547
9.35300e-06;-0.01212360767353057
9.35325e-06;-0.01221041252542018
9.35350e-06;-0.01229721737730979
9.35375e-06;-0.012384022229198812
9.35400e-06;-0.012469946573001177
9.35425e-06;-0.012555826776794623
9.35450e-06;-0.012641706980587487
9.35475e-06;-0.012727587184380933
9.35500e-06;-0.01281346738817438
9.35525e-06;-0.012899347591967245
9.35550e-06;-0.012975008019084614
9.35575e-06;-0.01305015612718948
9.35600e-06;-0.013125304235293836
9.35625e-06;-0.013174839728211625
9.35650e-06;-0.013223091256700622
9.35675e-06;-0.013271342785189292
9.35700e-06;-0.013319594313678289
9.35725e-06;-0.013367845842167285
9.35750e-06;-0.013416097370655954
9.35775e-06;-0.01346434889914495
9.35800e-06;-0.013512600427633949
9.35825e-06;-0.013560851956122945
9.35850e-06;-0.013593506394516225
9.35875e-06;-0.013607271146101142
9.35900e-06;-0.013621035897686058
9.35925e-06;-0.01363480064927088
9.35950e-06;-0.013648565400855796
9.35975e-06;-0.013662330152440713
9.36000e-06;-0.013676094904025536
9.36025e-06;-0.013689859655610452
9.36050e-06;-0.013703624407195369
9.36075e-06;-0.01371738915878019
9.36100e-06;-0.013708595234513489
9.36125e-06;-0.013698670440276664
9.36150e-06;-0.013688745646039904
9.36175e-06;-0.013678820851803077
9.36200e-06;-0.013668896057566252
9.36225e-06;-0.013658971263329493
9.36250e-06;-0.013649046469092666
9.36275e-06;-0.013639121674855838
9.36300e-06;-0.01362919688061908
9.36325e-06;-0.013609622612493847
9.36350e-06;-0.013589564614724069
9.36375e-06;-0.013569506616954424
9.36400e-06;-0.013549448619184645
9.36425e-06;-0.013529390621414865
9.36450e-06;-0.013509332623645221
9.36475e-06;-0.01348927462587544
9.36500e-06;-0.013469216628105662
9.36525e-06;-0.013449158630336019
9.36550e-06;-0.01343170190305867
9.36575e-06;-0.013414375577880524
9.36600e-06;-0.013397049252702495
9.36625e-06;-0.01337972292752435
9.36650e-06;-0.013362396602346203
9.36675e-06;-0.013345070277168056
9.36700e-06;-0.013327743951990026
9.36725e-06;-0.01331041762681188
9.36750e-06;-0.013293091301633734
9.36775e-06;-0.013275764976455705
9.36800e-06;-0.013257320257933905
9.36825e-06;-0.013237521049576683
9.36850e-06;-0.013217721841219597
9.36875e-06;-0.013197922632862376
9.36900e-06;-0.013178123424505157
9.36925e-06;-0.01315832421614807
9.36950e-06;-0.01313852500779085
9.36975e-06;-0.013118725799433628
9.37000e-06;-0.013098926591076542
9.37025e-06;-0.013079127382719321
9.37050e-06;-0.013059328174362101
9.37075e-06;-0.0130336190172905
9.37100e-06;-0.013007613593559226
9.37125e-06;-0.012981608169827952
9.37150e-06;-0.012955602746096855
9.37175e-06;-0.01292959732236558
9.37200e-06;-0.012903591898634307
9.37225e-06;-0.012877586474903209
9.37250e-06;-0.012851581051171934
9.37275e-06;-0.01282557562744066
9.37300e-06;-0.012798248776430942
9.37325e-06;-0.01277085568206349
9.37350e-06;-0.01274346258769604
9.37375e-06;-0.012716069493328774
9.37400e-06;-0.012688676398961322
9.37425e-06;-0.012661283304593872
9.37450e-06;-0.012633890210226605
9.37475e-06;-0.012606497115859155
9.37500e-06;-0.012579104021491703
9.37525e-06;-0.01255453361798149
9.37550e-06;-0.012530104716408632
9.37575e-06;-0.012505675814835611
9.37600e-06;-0.012484248356475016
9.37625e-06;-0.012462971360935495
9.37650e-06;-0.01244169436539583
9.37675e-06;-0.012422718338362395
9.37700e-06;-0.012403857659242698
9.37725e-06;-0.012380150712093498
9.37750e-06;-0.012356200820764687
9.37775e-06;-0.012332250929436038
9.37800e-06;-0.012301504704072732
9.37825e-06;-0.012270417777413783
9.37850e-06;-0.012239330850755046
9.37875e-06;-0.012202146438850578
9.37900e-06;-0.01216465635905029
9.37925e-06;-0.012127166279250257
9.37950e-06;-0.012078080354824307
9.37975e-06;-0.012028413128880635
9.38000e-06;-0.0119787459029373
9.38025e-06;-0.01192907867699363
9.38050e-06;-0.011874213061445284
9.38075e-06;-0.011813051659246697
9.38100e-06;-0.011751890257047693
9.38125e-06;-0.01169072885484869
9.38150e-06;-0.0116295674526501
9.38175e-06;-0.01156010579224647
9.38200e-06;-0.011490228038591352
9.38225e-06;-0.01142035028493671
9.38250e-06;-0.011347439160967329
9.38275e-06;-0.01127437597366617
9.38300e-06;-0.011200228151760402
9.38325e-06;-0.011125212702712649
9.38350e-06;-0.011049529472292485
9.38375e-06;-0.010973601075410578
9.38400e-06;-0.010897877471938228
9.38425e-06;-0.010822804100816845
9.38450e-06;-0.010748830568557338
9.38475e-06;-0.0106763570395828
9.38500e-06;-0.010605601155250702
9.38525e-06;-0.010536686392879512
9.38550e-06;-0.010469912882004074
9.38575e-06;-0.010405735267405264
9.38600e-06;-0.010344619032536338
9.38625e-06;-0.01028703249927683
9.38650e-06;-0.010233442349153077
9.38675e-06;-0.010184366612884197
9.38700e-06;-0.010140468684884888
9.38725e-06;-0.010102360584387854
9.38750e-06;-0.010070317048649855
9.38775e-06;-0.01004438941472499
9.38800e-06;-0.010024613339622476
9.38825e-06;-0.010011021553008446
9.38850e-06;-0.010003647538037215
9.38875e-06;-0.010002556749423233
9.38900e-06;-0.010011032011057587
9.38925e-06;-0.010019971776451291
9.38950e-06;-0.010044064794835267
9.38975e-06;-0.010068917448179796
9.39000e-06;-0.010093770101524156
9.39025e-06;-0.01013885783680565
9.39050e-06;-0.010184959959933694
9.39075e-06;-0.010231062083061425
9.39100e-06;-0.010277164206189468
9.39125e-06;-0.010332778863745366
9.39150e-06;-0.010399914182858643
9.39175e-06;-0.010467049501972374
9.39200e-06;-0.010534184821086106
9.39225e-06;-0.010601320140199837
9.39250e-06;-0.010679997106696603
9.39275e-06;-0.01075925265779638
9.39300e-06;-0.010838508208896157
9.39325e-06;-0.010923008082124942
9.39350e-06;-0.011007770854049278
9.39375e-06;-0.011092533625973615
9.39400e-06;-0.011178419167652049
9.39425e-06;-0.011264360993955847
9.39450e-06;-0.011350302820259648
9.39475e-06;-0.011433936730956058
9.39500e-06;-0.01151745494547985
9.39525e-06;-0.011596907775678702
9.39550e-06;-0.011676156807519919
9.39575e-06;-0.01174921863304781
9.39600e-06;-0.011821970292947761
9.39625e-06;-0.011883791502533051
9.39650e-06;-0.011945064766921296
9.39675e-06;-0.012006338031309538
9.39700e-06;-0.01205244355726371
9.39725e-06;-0.012097788722099163
9.39750e-06;-0.012143133886934616
9.39775e-06;-0.012173438430501693
9.39800e-06;-0.012202988985353385
9.39825e-06;-0.012232539540205076
9.39850e-06;-0.012238121266641628
9.39875e-06;-0.012242501431930484
9.39900e-06;-0.01224688159721934
9.39925e-06;-0.012251261762508165
9.39950e-06;-0.012255641927797021
9.39975e-06;-0.012260022093085876
9.40000e-06;-0.01223613820006243
9.40025e-06;-0.012210837425339082
9.40050e-06;-0.012185536650615733
9.40075e-06;-0.012160235875892385
9.40100e-06;-0.012134935101169208
9.40125e-06;-0.01210963432644586
9.40150e-06;-0.012064527307920667
9.40175e-06;-0.012018427399271059
9.40200e-06;-0.011972327490621137
9.40225e-06;-0.011926227581971215
9.40250e-06;-0.011880127673321606
9.40275e-06;-0.011823187626669583
9.40300e-06;-0.011765704162190136
9.40325e-06;-0.01170822069771108
9.40350e-06;-0.011650737233231633
9.40375e-06;-0.011593253768752186
9.40400e-06;-0.01153279789107446
9.40425e-06;-0.011472193005853932
9.40450e-06;-0.011411834668810166
9.40475e-06;-0.011351488691265791
9.40500e-06;-0.01129220961104705
9.40525e-06;-0.011234274401599758
9.40550e-06;-0.011178106658233418
9.40575e-06;-0.011125325626471111
9.40600e-06;-0.011072710091956922
9.40625e-06;-0.01103369672234402
9.40650e-06;-0.010995365231402675
9.40675e-06;-0.010957033740461329
9.40700e-06;-0.010918702249520244
9.40725e-06;-0.010880370758578898
9.40750e-06;-0.010842039267637552
9.40775e-06;-0.010803707776696467
9.40800e-06;-0.010765376285755121
9.40825e-06;-0.010744299730588597
9.40850e-06;-0.010724088168074429
9.40875e-06;-0.010703876605560124
9.40900e-06;-0.010683665043045819
9.40925e-06;-0.01066345348053165
9.40950e-06;-0.010643241918017346
9.40975e-06;-0.01062303035550304
9.41000e-06;-0.010602818792988735
9.41025e-06;-0.010595734903601184
9.41050e-06;-0.010589309106538412
9.41075e-06;-0.01058288330947564
9.41100e-06;-0.010576457512412912
9.41125e-06;-0.01057003171535014
9.41150e-06;-0.010563605918287368
9.41175e-06;-0.010557180121224639
9.41200e-06;-0.010550754324161868
9.41225e-06;-0.010548093831093768
9.41250e-06;-0.01054999351001125
9.41275e-06;-0.010551893188928746
9.41300e-06;-0.010553792867846242
9.41325e-06;-0.010555692546763723
9.41350e-06;-0.01055759222568122
9.41375e-06;-0.010559491904598714
9.41400e-06;-0.010561391583516197
9.41425e-06;-0.010563291262433692
9.41450e-06;-0.01056756161065552
9.41475e-06;-0.010571950800903573
9.41500e-06;-0.010576339991151653
9.41525e-06;-0.010580597164452414
9.41550e-06;-0.010584694451596367
9.41575e-06;-0.010588791738740345
9.41600e-06;-0.010592889025884325
9.41625e-06;-0.010596112371957801
9.41650e-06;-0.010599291907227538
9.41675e-06;-0.010602514898830585
9.41700e-06;-0.010605740068906458
9.41725e-06;-0.01061307496650394
9.41750e-06;-0.010620615885390601
9.41775e-06;-0.010633464241556619
9.41800e-06;-0.010646578660391067
9.41825e-06;-0.010665285791073927
9.41850e-06;-0.010684273285284328
9.41875e-06;-0.010703260779494602
9.41900e-06;-0.010734754681247955
9.41925e-06;-0.010766875531185155
9.41950e-06;-0.010798996381122137
9.41975e-06;-0.010831117231059338
9.42000e-06;-0.010863238080996538
9.42025e-06;-0.010895358930933522
9.42050e-06;-0.010943187323823239
9.42075e-06;-0.010991803138320313
9.42100e-06;-0.011040418952817056
9.42125e-06;-0.01108903476731413
9.42150e-06;-0.011137650581811204
9.42175e-06;-0.011186266396307949
9.42200e-06;-0.011245778437265003
9.42225e-06;-0.011305836707774429
9.42250e-06;-0.011365894978283449
9.42275e-06;-0.011425953248792876
9.42300e-06;-0.011486011519302302
9.42325e-06;-0.011546069789811321
9.42350e-06;-0.011606854796906372
9.42375e-06;-0.011668519957058001
9.42400e-06;-0.011730185117209212
9.42425e-06;-0.01179185027736084
9.42450e-06;-0.01185351543751247
9.42475e-06;-0.01191518059766368
9.42500e-06;-0.011976845757815307
9.42525e-06;-0.012032412432159047
9.42550e-06;-0.012087673388446058
9.42575e-06;-0.012142934344733443
9.42600e-06;-0.012181992961893125
9.42625e-06;-0.012220239353233988
9.42650e-06;-0.012258485744575111
9.42675e-06;-0.012296732135916233
9.42700e-06;-0.012334978527257356
9.42725e-06;-0.012373224918598219
9.42750e-06;-0.012411471309939342
9.42775e-06;-0.012449717701280465
9.42800e-06;-0.012462351572747209
9.42825e-06;-0.012473701484548736
9.42850e-06;-0.012485051396350262
9.42875e-06;-0.012496401308151713
9.42900e-06;-0.012507751219953239
9.42925e-06;-0.012519101131754766
9.42950e-06;-0.012530451043556216
9.42975e-06;-0.012541800955357741
9.43000e-06;-0.012531662323753898
9.43025e-06;-0.01252044646807604
9.43050e-06;-0.012509230612398108
9.43075e-06;-0.012498014756720176
9.43100e-06;-0.01248679890104232
9.43125e-06;-0.012475583045364386
9.43150e-06;-0.012464367189686453
9.43175e-06;-0.01244660927048971
9.43200e-06;-0.012420928236759204
9.43225e-06;-0.012395247203028696
9.43250e-06;-0.012369566169298364
9.43275e-06;-0.012343885135567856
9.43300e-06;-0.01231820410183735
9.43325e-06;-0.012292523068107016
9.43350e-06;-0.01226684203437651
9.43375e-06;-0.012237777015006912
9.43400e-06;-0.012208542355902971
9.43425e-06;-0.012179307696798833
9.43450e-06;-0.012150073037694694
9.43475e-06;-0.012120838378590753
9.43500e-06;-0.012091603719486614
9.43525e-06;-0.012062369060382475
9.43550e-06;-0.012033134401278336
9.43575e-06;-0.012003899742174395
9.43600e-06;-0.011974665083070254
9.43625e-06;-0.01195248143668451
9.43650e-06;-0.011938837294874315
9.43675e-06;-0.011925193153064024
9.43700e-06;-0.011911549011253734
9.43725e-06;-0.011897904869443537
9.43750e-06;-0.011884260727633248
9.43775e-06;-0.011870616585822958
9.43800e-06;-0.011856972444012761
9.43825e-06;-0.011843328302202472
9.43850e-06;-0.01182968416039218
9.43875e-06;-0.011816040018581983
9.43900e-06;-0.011824126188789195
9.43925e-06;-0.011833301702970658
9.43950e-06;-0.011842477217152059
9.43975e-06;-0.011851652731333522
9.44000e-06;-0.011860828245514985
9.44025e-06;-0.011870003759696386
9.44050e-06;-0.01187917927387785
9.44075e-06;-0.011895503832687263
9.44100e-06;-0.011920486622839347
9.44125e-06;-0.011945469412991603
9.44150e-06;-0.011970452203143857
9.44175e-06;-0.011995434993295941
9.44200e-06;-0.012020417783448195
9.44225e-06;-0.012045400573600451
9.44250e-06;-0.012070383363752536
9.44275e-06;-0.012102951442101535
9.44300e-06;-0.012135899772146281
9.44325e-06;-0.012168848102190804
9.44350e-06;-0.01220179643223555
9.44375e-06;-0.012234744762280297
9.44400e-06;-0.012267693092325043
9.44425e-06;-0.012300641422369566
9.44450e-06;-0.012331842630442815
9.44475e-06;-0.012362956255015569
9.44500e-06;-0.012394069879588113
9.44525e-06;-0.012425183504160867
9.44550e-06;-0.01245629712873362
9.44575e-06;-0.012487410753306163
9.44600e-06;-0.012518524377878917
9.44625e-06;-0.012543551898629728
9.44650e-06;-0.012568274322034017
9.44675e-06;-0.012587954923911696
9.44700e-06;-0.012607382778479462
9.44725e-06;-0.012615275341526509
9.44750e-06;-0.012622589638586715
