Time(s);Current(A)
6.75000e-06;0.00033316213359675336
6.75025e-06;0.0003685737761340219
6.75050e-06;0.00040555427454164894
6.75075e-06;0.00044253477294915066
6.75100e-06;0.0004795152713566524
6.75125e-06;0.000516439545858976
6.75150e-06;0.0005528807721159873
6.75175e-06;0.0005893219983729987
6.75200e-06;0.0006257632246301334
6.75225e-06;0.000661854712712811
6.75250e-06;0.0006949414217701023
6.75275e-06;0.0007280281308275058
6.75300e-06;0.0007606747686207538
6.75325e-06;0.0007895405297443514
6.75350e-06;0.0008179263231889533
6.75375e-06;0.0008421884695147353
6.75400e-06;0.0008658129751421941
6.75425e-06;0.0008839591843281986
6.75450e-06;0.0009013922404174244
6.75475e-06;0.0009126982345387821
6.75500e-06;0.0009232860598118298
6.75525e-06;0.0009277037302368574
6.75550e-06;0.0009313959342438868
6.75575e-06;0.0009288552862603358
6.75600e-06;0.0009255524837446192
6.75625e-06;0.0009157016229384038
6.75650e-06;0.0009051034030052596
6.75675e-06;0.0008880842396537536
6.75700e-06;0.0008703766560495181
6.75725e-06;0.0008467545029554797
6.75750e-06;0.0008225014423468132
6.75775e-06;0.0007928279335126188
6.75800e-06;0.0007625626145380305
6.75825e-06;0.0007272127528193163
6.75850e-06;0.0006913424241855131
6.75875e-06;0.0006510004988438771
6.75900e-06;0.0006102370895474834
6.75925e-06;0.0005658524966361045
6.75950e-06;0.0005211444954649039
6.75975e-06;0.0004736579289919444
6.76000e-06;0.0004258968100466151
6.76025e-06;0.00037577687078643035
6.76050e-06;0.0003256569315260758
6.76075e-06;0.0002754347200892487
6.76100e-06;0.00022433383622351975
6.76125e-06;0.00017323295235761762
6.76150e-06;0.00012220888717042445
6.76175e-06;7.193308067781429e-05
6.76200e-06;2.253163505974756e-05
6.76225e-06;-2.5726612351189345e-05
6.76250e-06;-7.25433490549284e-05
6.76275e-06;-0.00011758948552889629
6.76300e-06;-0.00016052924815635397
6.76325e-06;-0.00020102690621817917
6.76350e-06;-0.00023874794345459292
6.76375e-06;-0.00027338971894405313
6.76400e-06;-0.0003048675822303091
6.76425e-06;-0.00033336264827234333
6.76450e-06;-0.00035900298170312653
6.76475e-06;-0.00038173286272298254
6.76500e-06;-0.0004014444234330949
6.76525e-06;-0.00041802972986370755
6.76550e-06;-0.00043138169573447426
6.76575e-06;-0.00044141322773882984
6.76600e-06;-0.00044817376943343353
6.76625e-06;-0.0004518791636618739
6.76650e-06;-0.00045271211280788583
6.76675e-06;-0.0004507401453069863
6.76700e-06;-0.0004459980984442078
6.76725e-06;-0.0004385208186076439
6.76750e-06;-0.00042834368857803414
6.76775e-06;-0.0004155145541045793
6.76800e-06;-0.00040016682044416305
6.76825e-06;-0.0003825381299821177
6.76850e-06;-0.00036284533241991564
6.76875e-06;-0.0003412331074617887
6.76900e-06;-0.0003178256702560418
6.76925e-06;-0.00029274723595122784
6.76950e-06;-0.000266122312508743
6.76975e-06;-0.0002380310059889228
6.77000e-06;-0.00020836705048717642
6.77025e-06;-0.0001785422594330414
6.77050e-06;-0.00014733564812187248
6.77075e-06;-0.0001160444388623112
6.77100e-06;-8.402640548215668e-05
6.77125e-06;-5.2008372101893684e-05
6.77150e-06;-1.9997943595019305e-05
6.77175e-06;1.1908419851753628e-05
6.77200e-06;4.3416376680190734e-05
6.77225e-06;7.426633745762793e-05
6.77250e-06;0.00010420691225655521
6.77275e-06;0.00013301505310621327
6.77300e-06;0.0001604757772870777
6.77325e-06;0.000186374104355354
6.77350e-06;0.0002104960853690039
6.77375e-06;0.0002326546488012885
6.77400e-06;0.00025284395659473267
6.77425e-06;0.0002712672477823176
6.77450e-06;0.00028805879607738896
6.77475e-06;0.0003031841693616767
6.77500e-06;0.00031656314534101414
6.77525e-06;0.0003281154095807224
6.77550e-06;0.00033776138306524815
6.77575e-06;0.00034543830618737504
6.77600e-06;0.00035119698746133245
6.77625e-06;0.0003552190728101539
6.77650e-06;0.00035756171421008555
6.77675e-06;0.00035780260661477675
6.77700e-06;0.00035771875868726734
6.77725e-06;0.00035484490094881717
6.77750e-06;0.0003516523882319644
6.77775e-06;0.00034572214808235467
6.77800e-06;0.0003395200317412512
6.77825e-06;0.00033098208838268914
6.77850e-06;0.00032221941173945346
6.77875e-06;0.0003115259368338881
6.77900e-06;0.00030063252824305455
6.77925e-06;0.00028802138739677976
6.77950e-06;0.00027523680107078413
6.77975e-06;0.00026096205617172363
6.78000e-06;0.0002465468904564126
6.78025e-06;0.00023092529789407737
6.78050e-06;0.0002153037053316892
6.78075e-06;0.00019960648911203162
6.78100e-06;0.00018325955148444466
6.78125e-06;0.00016691261385691307
6.78150e-06;0.00015058162215236397
6.78175e-06;0.00013438763000446605
6.78200e-06;0.00011819363785662301
6.78225e-06;0.00010207293191864195
6.78250e-06;8.664140106451634e-05
6.78275e-06;7.179244193110768e-05
6.78300e-06;5.7636672419138194e-05
6.78325e-06;4.428472156763121e-05
6.78350e-06;3.1848118111426764e-05
6.78375e-06;2.0460893773031633e-05
6.78400e-06;1.0397559629145578e-05
6.78425e-06;2.043299395325397e-06
6.78450e-06;-4.377721088155577e-06
6.78475e-06;-8.840468448809826e-06
6.78500e-06;-1.136625186401256e-05
6.78525e-06;-1.19763885447105e-05
6.78550e-06;-1.0691627044939821e-05
6.78575e-06;-7.518628961821069e-06
6.78600e-06;-2.3760614173242973e-06
6.78625e-06;4.886715342568803e-06
6.78650e-06;1.43194670622036e-05
6.78675e-06;2.5847221541008074e-05
6.78700e-06;3.9365977529547515e-05
6.78725e-06;5.477173732166532e-05
6.78750e-06;7.196086598222919e-05
6.78775e-06;9.083856376872066e-05
6.78800e-06;0.00011136513165917848
6.78825e-06;0.0001335442934436436
6.78850e-06;0.00015731659096440546
6.78875e-06;0.00018254444096142938
6.78900e-06;0.0002091244201749211
6.78925e-06;0.00023719358035508746
6.78950e-06;0.00026547719400739394
6.78975e-06;0.0002956032868076436
6.79000e-06;0.00032572937960789327
6.79025e-06;0.0003560154957711204
6.79050e-06;0.00038767645425540125
6.79075e-06;0.0004193374127396821
6.79100e-06;0.00045099837122407024
6.79125e-06;0.0004825736507788215
6.79150e-06;0.0005134128189544108
6.79175e-06;0.0005442519871301046
6.79200e-06;0.0005750911553056939
6.79225e-06;0.0006056236563917929
6.79250e-06;0.0006335214241144941
6.79275e-06;0.0006614191918371008
6.79300e-06;0.0006888503844119512
6.79325e-06;0.0007122729919431807
6.79350e-06;0.0007356955994743309
6.79375e-06;0.0007586118598502965
6.79400e-06;0.000777177833582917
6.79425e-06;0.0007957438073155375
6.79450e-06;0.0008139608105593268
6.79475e-06;0.0008291796303613329
6.79500e-06;0.000844398450163339
6.79525e-06;0.0008591970169374761
6.79550e-06;0.0008703849756237781
6.79575e-06;0.0008815729343100803
6.79600e-06;0.0008924120984987884
6.79625e-06;0.0009002545912766426
6.79650e-06;0.0009080970840544968
6.79675e-06;0.0009154053954475692
6.79700e-06;0.000918124282136798
6.79725e-06;0.0009208431688260267
6.79750e-06;0.0009235620555152645
6.79775e-06;0.0009262809422044933
6.79800e-06;0.0009289998288937312
6.79825e-06;0.00093171871558296
6.79850e-06;0.0009344376022721886
6.79875e-06;0.0009371564889614265
6.79900e-06;0.0009367230469527301
6.79925e-06;0.0009342250823045294
6.79950e-06;0.0009317271176563203
6.79975e-06;0.0009292291530081196
6.80000e-06;0.0009267311883599189
6.80025e-06;0.0009242332237117097
6.80050e-06;0.0009217352590635091
6.80075e-06;0.0009192372944153084
6.80100e-06;0.0009165796088110772
6.80125e-06;0.0009125496790179478
6.80150e-06;0.0009085197492248185
6.80175e-06;0.0009044898194316755
6.80200e-06;0.000900459889638546
6.80225e-06;0.000896429959845403
6.80250e-06;0.0008924000300522737
6.80275e-06;0.0008883701002591443
6.80300e-06;0.0008843401704660013
6.80325e-06;0.0008803196349662855
6.80350e-06;0.0008763798106322502
6.80375e-06;0.0008724399862982014
6.80400e-06;0.0008685001619641662
6.80425e-06;0.0008645603376301308
6.80450e-06;0.0008606205132960822
6.80475e-06;0.0008566806889620469
6.80500e-06;0.0008527408646280115
6.80525e-06;0.0008488010402939629
6.80550e-06;0.000844565577708007
6.80575e-06;0.0008377901361284863
6.80600e-06;0.0008310146945489427
6.80625e-06;0.0008242392529694219
6.80650e-06;0.0008174638113898783
6.80675e-06;0.0008106883698103576
6.80700e-06;0.0008039129282308369
6.80725e-06;0.0007971374866512932
6.80750e-06;0.0007903620450717726
6.80775e-06;0.0007835866034922518
6.80800e-06;0.0007764938041110132
6.80825e-06;0.0007666744220078531
6.80850e-06;0.0007568550399046931
6.80875e-06;0.0007470356578014999
6.80900e-06;0.0007372162756983398
6.80925e-06;0.0007273968935951798
6.80950e-06;0.0007175775114919864
6.80975e-06;0.0007077581293888264
6.81000e-06;0.0006979387472856665
6.81025e-06;0.0006881193651824731
6.81050e-06;0.000678273011662794
6.81075e-06;0.0006681949329487832
6.81100e-06;0.0006581168542348066
6.81125e-06;0.0006480387755208301
6.81150e-06;0.0006379606968068194
6.81175e-06;0.0006278826180928428
6.81200e-06;0.0006178045393788662
6.81225e-06;0.0006077264606648556
6.81250e-06;0.0005977692485538001
6.81275e-06;0.0005902293024280192
6.81300e-06;0.0005826893563022128
6.81325e-06;0.000575149410176432
6.81350e-06;0.0005676094640506512
6.81375e-06;0.0005600695179248448
6.81400e-06;0.000552529571799064
6.81425e-06;0.0005449896256732832
6.81450e-06;0.0005374496795474768
6.81475e-06;0.0005299723159351734
6.81500e-06;0.0005224955218466281
6.81525e-06;0.0005146981773297862
6.81550e-06;0.0005052811546500241
6.81575e-06;0.00049586413197023
6.81600e-06;0.0004861507236445155
6.81625e-06;0.0004758605499018307
6.81650e-06;0.000465570376159111
6.81675e-06;0.0004547059839193483
6.81700e-06;0.00044287889811947827
6.81725e-06;0.0004310518123195682
6.81750e-06;0.00041975898298377364
6.81775e-06;0.000405608644756356
6.81800e-06;0.0003905234883262443
6.81825e-06;0.00037620030980271374
6.81850e-06;0.0003618771312791832
6.81875e-06;0.00034697032834110625
6.81900e-06;0.00033113502473484176
6.81925e-06;0.00031529972112852365
6.81950e-06;0.0002994644175222592
6.81975e-06;0.0002836291139159947
6.82000e-06;0.0002672321574848109
6.82025e-06;0.00025076290777603216
6.82050e-06;0.00023429365806725336
6.82075e-06;0.00021782440835841884
6.82100e-06;0.00020145450645090294
6.82125e-06;0.0001852426591030747
6.82150e-06;0.00016903081175519152
6.82175e-06;0.00015315331568600585
6.82200e-06;0.00013780774627704148
6.82225e-06;0.00012271522554111358
6.82250e-06;0.00010822154843007434
6.82275e-06;9.429963491098455e-05
6.82300e-06;8.106082002563572e-05
6.82325e-06;6.854820379224821e-05
6.82350e-06;5.684126182152185e-05
6.82375e-06;4.602128725751813e-05
6.82400e-06;3.603518144376391e-05
6.82425e-06;2.6610062028721997e-05
6.82450e-06;1.751867463417957e-05
6.82475e-06;8.782206888641335e-06
6.82500e-06;4.70594589655941e-07
6.82525e-06;-7.38897611240739e-06
6.82550e-06;-1.4746533286389075e-05
6.82575e-06;-2.155097345452214e-05
6.82600e-06;-2.7835378796126587e-05
6.82625e-06;-3.377049264012032e-05
6.82650e-06;-3.949846331881961e-05
6.82675e-06;-4.5005806148472785e-05
6.82700e-06;-5.024850397528499e-05
6.82725e-06;-5.520932691400744e-05
6.82750e-06;-5.985676894169542e-05
6.82775e-06;-6.410625071756098e-05
6.82800e-06;-6.805208256726641e-05
6.82825e-06;-7.18702274645794e-05
6.82850e-06;-7.548523243551657e-05
6.82875e-06;-7.894568391845628e-05
6.82900e-06;-8.216025292410581e-05
6.82925e-06;-8.537482192976625e-05
6.82950e-06;-8.835733112893141e-05
6.82975e-06;-9.09706513771329e-05
6.83000e-06;-9.358397162534325e-05
6.83025e-06;-9.60577863975742e-05
6.83050e-06;-9.83096588993759e-05
6.83075e-06;-0.00010056153140118522
6.83100e-06;-0.00010268640356791543
6.83125e-06;-0.0001046092281625733
6.83150e-06;-0.00010653205275723768
6.83175e-06;-0.00010831465483587992
6.83200e-06;-0.00010987417388963246
6.83225e-06;-0.00011143369294337972
6.83250e-06;-0.00011291496664061905
6.83275e-06;-0.00011427175811268612
6.83300e-06;-0.00011562854958474859
6.83325e-06;-0.00011692869582952477
6.83350e-06;-0.00011810436220352422
6.83375e-06;-0.00011909545484250936
6.83400e-06;-0.00011949014116761693
6.83425e-06;-0.00011864115914057389
6.83450e-06;-0.00011612370672005937
6.83475e-06;-0.00011188693361286815
6.83500e-06;-0.0001060194743704226
6.83525e-06;-9.861409694630839e-05
6.83550e-06;-8.976133353164924e-05
6.83575e-06;-7.949315125877321e-05
6.83600e-06;-6.764728170598814e-05
6.83625e-06;-5.391399404463706e-05
6.83650e-06;-3.812293860469964e-05
6.83675e-06;-2.0338021139914828e-05
6.83700e-06;-7.10514272375302e-07
6.83725e-06;2.060573791853781e-05
6.83750e-06;4.345828830621432e-05
6.83775e-06;6.773138914035574e-05
6.83800e-06;9.343096647364126e-05
6.83825e-06;0.00012065530335241407
6.83850e-06;0.00014941536428525262
6.83875e-06;0.00017957537674583
6.83900e-06;0.00021111850333820116
6.83925e-06;0.00024360797511611916
6.83950e-06;0.0002767637914567538
6.83975e-06;0.0003109797097332128
6.84000e-06;0.0003451956280097877
6.84025e-06;0.0003799366723400913
6.84050e-06;0.00041551315103477746
6.84075e-06;0.000451089629729343
6.84100e-06;0.0004866661084239086
6.84125e-06;0.0005218029610692097
6.84150e-06;0.0005562404031511901
6.84175e-06;0.0005906778452331705
6.84200e-06;0.0006251152873152676
6.84225e-06;0.0006583095261200147
6.84250e-06;0.0006895259260193881
6.84275e-06;0.0007207423259188673
6.84300e-06;0.0007501210364362102
6.84325e-06;0.0007765761272830766
6.84350e-06;0.0008030312181300325
6.84375e-06;0.0008271797765039225
6.84400e-06;0.0008476588226226786
6.84425e-06;0.0008681378687415041
6.84450e-06;0.0008865902114763259
6.84475e-06;0.0009018182280888079
6.84500e-06;0.0009170462447012383
6.84525e-06;0.0009300327529523104
6.84550e-06;0.0009394531972098997
6.84575e-06;0.0009488736414674571
6.84600e-06;0.0009561575235689564
6.84625e-06;0.0009600423028583344
6.84650e-06;0.0009639270821476992
6.84675e-06;0.0009659627743009569
6.84700e-06;0.0009650567138511748
6.84725e-06;0.0009641506534013958
6.84750e-06;0.0009614376370664667
6.84775e-06;0.0009558498956442913
6.84800e-06;0.0009502621542221347
6.84825e-06;0.0009425666117406745
6.84850e-06;0.0009315177230962874
6.84875e-06;0.0009204688344519377
6.84900e-06;0.0009094199458075505
6.84925e-06;0.0008983710571632008
6.84950e-06;0.0008873221685188512
6.84975e-06;0.000876273279874464
6.85000e-06;0.0008613717911842408
6.85025e-06;0.0008459744141586223
6.85050e-06;0.0008305770371329515
6.85075e-06;0.000815179660107333
6.85100e-06;0.0007997822830817144
6.85125e-06;0.0007843849060560436
6.85150e-06;0.0007690593822320327
6.85175e-06;0.0007538481712160649
6.85200e-06;0.0007386369602000455
6.85225e-06;0.0007234257491840777
6.85250e-06;0.0007082145381681099
6.85275e-06;0.0006930033271520904
6.85300e-06;0.0006777921161361226
6.85325e-06;0.0006667767698688884
6.85350e-06;0.0006563014953352791
6.85375e-06;0.0006458262208016699
6.85400e-06;0.0006353509462680251
6.85425e-06;0.0006248756717344159
6.85450e-06;0.0006144003972008067
6.85475e-06;0.0006056544475548295
6.85500e-06;0.000599659718167566
6.85525e-06;0.0005936649887803026
6.85550e-06;0.0005888422884894951
6.85575e-06;0.0005858841945644264
6.85600e-06;0.0005829261006393576
6.85625e-06;0.0005810328504934441
6.85650e-06;0.0005808336832803518
6.85675e-06;0.0005806345160672596
6.85700e-06;0.0005814182591073982
6.85725e-06;0.0005837657352669311
6.85750e-06;0.0005861132114264719
6.85775e-06;0.0005898872580346305
6.85800e-06;0.000595930866335017
6.85825e-06;0.000601974474635424
6.85850e-06;0.0006080180829358104
6.85875e-06;0.0006140616912361969
6.85900e-06;0.0006201052995366039
6.85925e-06;0.0006261489078369905
6.85950e-06;0.0006321925161373769
6.85975e-06;0.0006408842905767218
6.86000e-06;0.00064991692435319
6.86025e-06;0.000658949558129658
6.86050e-06;0.0006679821919061567
6.86075e-06;0.0006770148256826248
6.86100e-06;0.0006860474594590929
6.86125e-06;0.0006950800932355916
6.86150e-06;0.0007041310385774605
6.86175e-06;0.0007132111161836628
6.86200e-06;0.0007222911937898342
6.86225e-06;0.0007313712713960057
6.86250e-06;0.0007404513490022079
6.86275e-06;0.0007495314266083794
6.86300e-06;0.0007563926791594391
6.86325e-06;0.0007629683351135874
6.86350e-06;0.0007695439910677133
6.86375e-06;0.0007761196470218392
6.86400e-06;0.0007826953029759875
6.86425e-06;0.0007872301489359217
6.86450e-06;0.0007885182262642759
6.86475e-06;0.0007881789784069312
6.86500e-06;0.0007852507838170183
6.86525e-06;0.0007808030222419023
6.86550e-06;0.0007739377487792705
6.86575e-06;0.0007655179175262167
6.86600e-06;0.000754624906759003
6.86625e-06;0.0007418618930031502
6.86650e-06;0.0007261238511645191
6.86675e-06;0.000708603423762757
6.86700e-06;0.0006882473607302342
6.86725e-06;0.0006663466698821418
6.86750e-06;0.0006419885973310919
6.86775e-06;0.0006162341838408941
6.86800e-06;0.0005882583014373416
6.86825e-06;0.0005588587481974613
6.86850e-06;0.0005271942463218223
6.86875e-06;0.0004943311549132565
6.86900e-06;0.00045956120156819
6.86925e-06;0.0004239117939301112
6.86950e-06;0.000386863243491044
6.86975e-06;0.00034907191632617553
6.87000e-06;0.00031009888965007206
6.87025e-06;0.00027112586297383653
6.87050e-06;0.00023170974486667648
6.87075e-06;0.00019158870304629191
6.87100e-06;0.00015146766122577142
6.87125e-06;0.00011134661940538686
6.87150e-06;7.149765075343182e-05
6.87175e-06;3.236325429893168e-05
6.87200e-06;-5.982795397030039e-06
6.87225e-06;-4.338507273033395e-05
6.87250e-06;-7.965567405083661e-05
6.87275e-06;-0.00011455340193146088
6.87300e-06;-0.0001478180811800408
6.87325e-06;-0.00017918956388922894
6.87350e-06;-0.00020840777618720755
6.87375e-06;-0.00023533306148780278
6.87400e-06;-0.0002602567729995374
6.87425e-06;-0.00028385962425801103
6.87450e-06;-0.0003066142145391329
6.87475e-06;-0.00032831849179859043
6.87500e-06;-0.00034910804183385105
6.87525e-06;-0.0003689196803021881
6.87550e-06;-0.00038717553816937687
6.87575e-06;-0.0004042925024273251
6.87600e-06;-0.00041959757628158
6.87625e-06;-0.000434902650135783
6.87650e-06;-0.0004495227841260001
6.87675e-06;-0.00046305323251559597
6.87700e-06;-0.000476583680905146
6.87725e-06;-0.0004892209932034793
6.87750e-06;-0.0005004373960334525
6.87775e-06;-0.0005116537988633876
6.87800e-06;-0.0005221715463323133
6.87825e-06;-0.0005315777879206396
6.87850e-06;-0.0005409840295089341
6.87875e-06;-0.000549360865838448
6.87900e-06;-0.000556099999142168
6.87925e-06;-0.0005628391324458879
6.87950e-06;-0.0005695782657496308
6.87975e-06;-0.0005763173990533507
6.88000e-06;-0.0005830565323570707
6.88025e-06;-0.0005897956656608135
6.88050e-06;-0.0005965347989645335
6.88075e-06;-0.0006032739322682536
6.88100e-06;-0.0006100130655719964
6.88125e-06;-0.0006167521988757164
6.88150e-06;-0.0006208192484409135
6.88175e-06;-0.0006245423601097932
6.88200e-06;-0.0006282654717786602
6.88225e-06;-0.0006319885834475274
6.88250e-06;-0.0006357116951164071
6.88275e-06;-0.0006394348067852743
6.88300e-06;-0.000643157918454154
6.88325e-06;-0.0006468810301230211
6.88350e-06;-0.0006506041417918883
6.88375e-06;-0.000654327253460768
6.88400e-06;-0.0006561181205069887
6.88425e-06;-0.0006548349379137569
6.88450e-06;-0.0006535517553205207
6.88475e-06;-0.0006522685727272889
6.88500e-06;-0.000650985390134057
6.88525e-06;-0.0006497022075408208
6.88550e-06;-0.0006484190249475889
6.88575e-06;-0.0006471358423543571
6.88600e-06;-0.0006458526597611209
6.88625e-06;-0.0006445694771678891
6.88650e-06;-0.0006432862945746573
6.88675e-06;-0.0006392655269622375
6.88700e-06;-0.0006308894763064227
6.88725e-06;-0.0006225134256505796
6.88750e-06;-0.0006141373749947649
6.88775e-06;-0.0006057613243389501
6.88800e-06;-0.000597385273683107
6.88825e-06;-0.0005890092230272923
6.88850e-06;-0.0005806331723714775
6.88875e-06;-0.0005722571217156344
6.88900e-06;-0.0005638810710598197
6.88925e-06;-0.000555505020404005
6.88950e-06;-0.0005458271965698763
6.88975e-06;-0.0005340783537136504
6.89000e-06;-0.0005223295108574245
6.89025e-06;-0.0005105806680011588
6.89050e-06;-0.000498831825144933
6.89075e-06;-0.0004870829822887071
6.89100e-06;-0.0004753499873279126
6.89125e-06;-0.00046364220512582274
6.89150e-06;-0.00045193442292369327
6.89175e-06;-0.00044022664072160343
6.89200e-06;-0.00042851885851951364
6.89225e-06;-0.0004168110763173841
6.89250e-06;-0.0004056679622132193
6.89275e-06;-0.0003954231907630822
6.89300e-06;-0.00038517841931291037
6.89325e-06;-0.00037562158693878135
6.89350e-06;-0.0003671592116760292
6.89375e-06;-0.0003586968364132483
6.89400e-06;-0.00035023446115049615
6.89425e-06;-0.00034177208588774397
6.89450e-06;-0.0003333097106249631
