Time(s);Current(A)
7.50000e-07;0.004437078870752304
7.50250e-07;0.004413048420020788
7.50500e-07;0.004390863717364561
7.50750e-07;0.004369430492463004
7.51000e-07;0.004350429253685212
7.51250e-07;0.004332418173584087
7.51500e-07;0.004318390412525099
7.51750e-07;0.004305984419729076
7.52000e-07;0.0042935784269330516
7.52250e-07;0.004288058189499644
7.52500e-07;0.004285341418069206
7.52750e-07;0.0042826246466387665
7.53000e-07;0.004279907875208328
7.53250e-07;0.004279739834239475
7.53500e-07;0.004289121770895579
7.53750e-07;0.0042985037075516834
7.54000e-07;0.004307885644207784
7.54250e-07;0.004317267580863889
7.54500e-07;0.004332703161632367
7.54750e-07;0.00435060342268201
7.55000e-07;0.004363717996552885
7.55250e-07;0.00438599765333906
7.55500e-07;0.004407985834654499
7.55750e-07;0.004438389045779441
7.56000e-07;0.00447124203675709
7.56250e-07;0.004504755422192209
7.56500e-07;0.0045360778132047625
7.56750e-07;0.0045715978652198465
7.57000e-07;0.004605518196933364
7.57250e-07;0.004643758566750682
7.57500e-07;0.004664582969180643
7.57750e-07;0.004716941778310281
7.58000e-07;0.004758665346080031
7.58250e-07;0.004800149671568652
7.58500e-07;0.004841838785877809
7.58750e-07;0.004882458260657016
7.59000e-07;0.004922497154046333
7.59250e-07;0.004962212116582866
7.59500e-07;0.005001537723236791
7.59750e-07;0.005040720576467643
7.60000e-07;0.005079803052832115
7.60250e-07;0.005117838936888204
7.60500e-07;0.005153738470928532
7.60750e-07;0.0051872151540828726
7.61000e-07;0.005218467579656594
7.61250e-07;0.00524760256707155
7.61500e-07;0.005274695633838512
7.61750e-07;0.005300607589001395
7.62000e-07;0.0053261885738982466
7.62250e-07;0.0053501546934046984
7.62500e-07;0.005372275094667924
7.62750e-07;0.00539439549593116
7.63000e-07;0.005412986754341709
7.63250e-07;0.005430973200960744
7.63500e-07;0.005447935865987859
7.63750e-07;0.005463027793089073
7.64000e-07;0.005478119720190282
7.64250e-07;0.005491966837294082
7.64500e-07;0.005503539335190932
7.64750e-07;0.005515111833087782
7.65000e-07;0.0055266843309846325
7.65250e-07;0.005536971035338642
7.65500e-07;0.005544908231980802
7.65750e-07;0.0055528454286229625
7.66000e-07;0.005560782625265123
7.66250e-07;0.005567697775184803
7.66500e-07;0.005572745357274704
7.66750e-07;0.005577792939364603
7.67000e-07;0.005582840521454504
7.67250e-07;0.005587888103544405
7.67500e-07;0.005592142608737074
7.67750e-07;0.005594947938596331
7.68000e-07;0.005597753268455588
7.68250e-07;0.005600558598314843
7.68500e-07;0.0056033639281741
7.68750e-07;0.005605750261443663
7.69000e-07;0.005607370969684066
7.69250e-07;0.00560899167792447
7.69500e-07;0.005610612386164872
7.69750e-07;0.005612233094405275
7.70000e-07;0.005613875622814408
7.70250e-07;0.00561552189068547
7.70500e-07;0.005617168158556531
7.70750e-07;0.0056188144264275935
7.71000e-07;0.0056205307279233755
7.71250e-07;0.00562237500061818
7.71500e-07;0.005624219273312984
7.71750e-07;0.005626063546007789
7.72000e-07;0.005627907818702593
7.72250e-07;0.005629752091397397
7.72500e-07;0.0056307043713352545
7.72750e-07;0.0056315037847670295
7.73000e-07;0.005632303198198804
7.73250e-07;0.005633102611630578
7.73500e-07;0.005633902025062353
7.73750e-07;0.005633995298509208
7.74000e-07;0.005632798254898961
7.74250e-07;0.005631601211288715
7.74500e-07;0.005630404167678468
7.74750e-07;0.005629207124068222
7.75000e-07;0.005628010080457975
7.75250e-07;0.0056268130368477285
7.75500e-07;0.005625615993237482
7.75750e-07;0.005624418949627235
7.76000e-07;0.005623221906016989
7.76250e-07;0.005620494065749555
7.76500e-07;0.005617503883064332
7.76750e-07;0.005614513700379107
7.77000e-07;0.005611523517693883
7.77250e-07;0.005608533335008658
7.77500e-07;0.0056055431523234335
7.77750e-07;0.005602552969638209
7.78000e-07;0.005599562786952986
7.78250e-07;0.005596572604267761
7.78500e-07;0.005593563691170932
7.78750e-07;0.0055905205523255315
7.79000e-07;0.005587477413480132
7.79250e-07;0.005584434274634731
7.79500e-07;0.005581391135789333
7.79750e-07;0.005578347996943932
7.80000e-07;0.005576314376195626
7.80250e-07;0.005574453763022921
7.80500e-07;0.005572593149850217
7.80750e-07;0.005570732536677513
7.81000e-07;0.005568871923504809
7.81250e-07;0.00556772671938052
7.81500e-07;0.005567888769508503
7.81750e-07;0.005568050819636486
7.82000e-07;0.00556966971090287
7.82250e-07;0.00557395066211562
7.82500e-07;0.005578231613328374
7.82750e-07;0.005582512564541126
7.83000e-07;0.0055867935157538785
7.83250e-07;0.005591074466966632
7.83500e-07;0.005600212264893231
7.83750e-07;0.00561018241171724
7.84000e-07;0.005620152558541253
7.84250e-07;0.005630122705365267
7.84500e-07;0.00564009285218928
7.84750e-07;0.005651578419445686
7.85000e-07;0.005665833087552315
7.85250e-07;0.005680087755658951
7.85500e-07;0.005695260971251836
7.85750e-07;0.005712112632357786
7.86000e-07;0.005728964293463737
7.86250e-07;0.005746491949740221
7.86500e-07;0.005765254839989704
7.86750e-07;0.0057844148286773055
7.87000e-07;0.005804300428290495
7.87250e-07;0.005824471540198362
7.87500e-07;0.0058451643636531
7.87750e-07;0.005866069736064437
7.88000e-07;0.005887363495410445
7.88250e-07;0.005908741747290153
7.88500e-07;0.00593028064958275
7.88750e-07;0.005951800188875449
7.89000e-07;0.005973195591378606
7.89250e-07;0.005994364059736104
7.89500e-07;0.006015214313827912
7.89750e-07;0.00603567034305559
7.90000e-07;0.0060556482535538666
7.90250e-07;0.0060750420557395554
7.90500e-07;0.006093736072463512
7.90750e-07;0.006111436284886877
7.91000e-07;0.006128236179979722
7.91250e-07;0.0061442393253030286
7.91500e-07;0.006158786583918522
7.91750e-07;0.006172154350919976
7.92000e-07;0.006183366853836626
7.92250e-07;0.00619457935675328
7.92500e-07;0.0062037855051253876
7.92750e-07;0.006209325477460488
7.93000e-07;0.006214865449795588
7.93250e-07;0.006220405422130688
7.93500e-07;0.006225945394465786
7.93750e-07;0.006228961000006525
7.94000e-07;0.006227363874923317
7.94250e-07;0.006225766749840109
7.94500e-07;0.006224169624756901
7.94750e-07;0.006222572499673692
7.95000e-07;0.006219157407102563
7.95250e-07;0.006212420374818224
7.95500e-07;0.006205683342533884
7.95750e-07;0.006197788888810004
7.96000e-07;0.006187779499439324
7.96250e-07;0.006177770110068649
7.96500e-07;0.006166856612156733
7.96750e-07;0.006154291052759592
7.97000e-07;0.0061417254933624505
7.97250e-07;0.006128529781072651
7.97500e-07;0.006114182601590271
7.97750e-07;0.006099835422107896
7.98000e-07;0.0060851619663891444
7.98250e-07;0.006069892311896607
7.98500e-07;0.0060546226574040695
7.98750e-07;0.006039375073086027
7.99000e-07;0.006024167817205989
7.99250e-07;0.006008960561325958
7.99500e-07;0.005994129596430958
7.99750e-07;0.00597998622137199
8.00000e-07;0.00596584284631302
8.00250e-07;0.005952458751137782
8.00500e-07;0.0059404620746133065
8.00750e-07;0.005928465398088827
8.01000e-07;0.005918272256381647
8.01250e-07;0.005911374681824922
8.01500e-07;0.005904477107268196
8.01750e-07;0.0058975795327114704
8.02000e-07;0.005890681958154748
8.02250e-07;0.005883784383598023
8.02500e-07;0.005876886809041298
8.02750e-07;0.005872401989253615
8.03000e-07;0.005872325953417702
8.03250e-07;0.005872249917581788
8.03500e-07;0.005872173881745875
8.03750e-07;0.005872097845909962
8.04000e-07;0.0058720218100740485
8.04250e-07;0.005871945774238135
8.04500e-07;0.00587406801189794
8.04750e-07;0.00588020711568682
8.05000e-07;0.005886346219475702
8.05250e-07;0.005892485323264585
8.05500e-07;0.005898624427053467
8.05750e-07;0.00590476353084235
8.06000e-07;0.005910902634631232
8.06250e-07;0.005917041738420112
8.06500e-07;0.005924680852324188
8.06750e-07;0.0059350609080795645
8.07000e-07;0.005945440963834941
8.07250e-07;0.005955821019590318
8.07500e-07;0.005966201075345691
8.07750e-07;0.005976581131101067
8.08000e-07;0.005986961186856444
8.08250e-07;0.005997341242611821
8.08500e-07;0.006008120702644428
8.08750e-07;0.0060196299870215264
8.09000e-07;0.006031159859247961
8.09250e-07;0.006042727351285973
8.09500e-07;0.006054226409312772
8.09750e-07;0.0060656004190859075
8.10000e-07;0.006076739754827013
8.10250e-07;0.006087450274875949
8.10500e-07;0.00609816079492488
8.10750e-07;0.006108443526914962
8.11000e-07;0.00611794456938033
8.11250e-07;0.0061274456118456996
8.11500e-07;0.006136643710970622
8.11750e-07;0.006145288247108199
8.12000e-07;0.00615393278324578
8.12250e-07;0.0061623775554811985
8.12500e-07;0.006170457302684936
8.12750e-07;0.0061785370498886735
8.13000e-07;0.006186616797092411
8.13250e-07;0.006194696544296145
8.13500e-07;0.0062027762914998825
8.13750e-07;0.00621085603870362
8.14000e-07;0.0062189357859073575
8.14250e-07;0.006226867835879918
8.14500e-07;0.006234530001324262
8.14750e-07;0.006242192166768603
8.15000e-07;0.006249854332212947
8.15250e-07;0.0062575164976572915
8.15500e-07;0.006265178663101636
8.15750e-07;0.00627284082854598
8.16000e-07;0.006280502993990321
8.16250e-07;0.006288077040968941
8.16500e-07;0.006295490070639656
8.16750e-07;0.0063029031003103714
8.17000e-07;0.0063103161299810865
8.17250e-07;0.006317729159651802
8.17500e-07;0.006325142189322514
8.17750e-07;0.006332555218993229
8.18000e-07;0.006339968248663944
8.18250e-07;0.00634738127833466
8.18500e-07;0.006354794308005375
8.18750e-07;0.00636220733767609
8.19000e-07;0.006369620367346803
8.19250e-07;0.006377033397017518
8.19500e-07;0.006383344845629127
8.19750e-07;0.006389467509246261
8.20000e-07;0.006395590172863395
8.20250e-07;0.006401712836480527
8.20500e-07;0.006407835500097661
8.20750e-07;0.006413958163714795
8.21000e-07;0.006420080827331929
8.21250e-07;0.006426203490949064
8.21500e-07;0.006432326154566198
8.21750e-07;0.0064384488181833295
8.22000e-07;0.006444571481800464
8.22250e-07;0.006450694145417598
8.22500e-07;0.006456066611961137
8.22750e-07;0.006460068256711573
8.23000e-07;0.0064640699014620094
8.23250e-07;0.006468071546212444
8.23500e-07;0.00647207319096288
8.23750e-07;0.006476074835713316
8.24000e-07;0.006480076480463752
8.24250e-07;0.006484078125214188
8.24500e-07;0.006488079769964622
8.24750e-07;0.0064920814147150585
8.25000e-07;0.006496083059465495
8.25250e-07;0.006500084704215931
8.25500e-07;0.006504086348966367
8.25750e-07;0.006508087993716803
8.26000e-07;0.006512089638467238
8.26250e-07;0.0065156215728074725
8.26500e-07;0.0065182952136546785
8.26750e-07;0.006520968854501884
8.27000e-07;0.00652364249534909
8.27250e-07;0.0065263161361962954
8.27500e-07;0.006528989777043501
8.27750e-07;0.006531663417890708
8.28000e-07;0.006534337058737914
8.28250e-07;0.00653701069958512
8.28500e-07;0.006539684340432326
8.28750e-07;0.006542357981279531
8.29000e-07;0.006545031622126737
8.29250e-07;0.006547705262973943
8.29500e-07;0.00655037890382115
8.29750e-07;0.006553052544668356
8.30000e-07;0.006555701628328867
8.30250e-07;0.006558305839078135
8.30500e-07;0.00656093483759801
8.30750e-07;0.006563629224111976
8.31000e-07;0.006566383056547709
8.31250e-07;0.006569242161236978
8.31500e-07;0.006572434156335149
8.31750e-07;0.006576420850466996
8.32000e-07;0.0065815965887821475
8.32250e-07;0.0065882579656525225
8.32500e-07;0.006596099701730785
8.32750e-07;0.006604725011354979
8.33000e-07;0.006614782131007604
8.33250e-07;0.006625612530281493
8.33500e-07;0.006637855929678031
8.33750e-07;0.006651377779617734
8.34000e-07;0.006667235719536571
8.34250e-07;0.006683093659455406
8.34500e-07;0.006699932294714992
8.34750e-07;0.006718987540963702
8.35000e-07;0.006739203733340356
8.35250e-07;0.006760483936387527
8.35500e-07;0.00678280227655831
8.35750e-07;0.006806224930121736
8.36000e-07;0.006830791512886574
8.36250e-07;0.006856422109398041
8.36500e-07;0.006882977594739836
8.36750e-07;0.006910317174500395
8.37000e-07;0.006938299753309665
8.37250e-07;0.006966793953262469
8.37500e-07;0.006995713328965857
8.37750e-07;0.007025028340101089
8.38000e-07;0.007054693042020057
8.38250e-07;0.007084587223805034
8.38500e-07;0.0071145529693854275
8.38750e-07;0.007144430886345269
8.39000e-07;0.007174062348888407
8.39250e-07;0.0072032946320721635
8.39500e-07;0.007232002702038864
8.39750e-07;0.007260097708803711
8.40000e-07;0.007287480015886896
8.40250e-07;0.007314003625789381
8.40500e-07;0.007339499310313968
8.40750e-07;0.0073637968021323
8.41000e-07;0.007386726134874508
8.41250e-07;0.0074081030130275834
8.41500e-07;0.007427683358319531
8.41750e-07;0.007445169602680039
8.42000e-07;0.007460341211108415
8.42250e-07;0.007473127753337607
8.42500e-07;0.00748310147972218
8.42750e-07;0.007490756019962945
8.43000e-07;0.007496271510107627
8.43250e-07;0.007497878351989696
8.43500e-07;0.007499485193871767
8.43750e-07;0.007498409356633287
8.44000e-07;0.007492431507467689
8.44250e-07;0.007486453658302093
8.44500e-07;0.007478371374077776
8.44750e-07;0.007466443693034032
8.45000e-07;0.0074529979463312706
8.45250e-07;0.007436778265202411
8.45500e-07;0.007419140410659538
8.45750e-07;0.007398911153016324
8.46000e-07;0.007377399766467534
8.46250e-07;0.007353545568533264
8.46500e-07;0.007328638919740677
8.46750e-07;0.007301809146180511
8.47000e-07;0.007274162282055708
8.47250e-07;0.0072450223628492075
8.47500e-07;0.007215274690330159
8.47750e-07;0.0071844164809734936
8.48000e-07;0.007153182419839257
8.48250e-07;0.007121261571424955
8.48500e-07;0.007089255406962997
8.48750e-07;0.00705709334600187
8.49000e-07;0.007025140045833061
8.49250e-07;0.006993568210553597
8.49500e-07;0.006962482660275568
8.49750e-07;0.006932285689946879
8.50000e-07;0.0069028671050260886
8.50250e-07;0.006874870849941216
8.50500e-07;0.0068479811505827255
8.50750e-07;0.00682311344085663
8.51000e-07;0.006799282864628938
8.51250e-07;0.006778084633738232
8.51500e-07;0.006758790847317663
8.51750e-07;0.0067409242144211
8.52000e-07;0.006723804410023875
8.52250e-07;0.006707225324901742
8.52500e-07;0.0066916342865107475
8.52750e-07;0.006677014802455394
8.53000e-07;0.006664170622388014
8.53250e-07;0.006651326442320633
8.53500e-07;0.006639337014856959
8.53750e-07;0.006628909461650277
8.54000e-07;0.0066188568818062584
8.54250e-07;0.006609489484130351
8.54500e-07;0.006600122086454439
8.54750e-07;0.006591421735097174
8.55000e-07;0.006583940265634859
8.55250e-07;0.006576458796172544
8.55500e-07;0.006569496442468747
8.55750e-07;0.006563482659773811
8.56000e-07;0.006557697292404696
8.56250e-07;0.006552329304305042
8.56500e-07;0.006546961316205387
8.56750e-07;0.006542015296665825
8.57000e-07;0.006537840332784254
8.57250e-07;0.006533665368902682
8.57500e-07;0.006529910452048596
8.57750e-07;0.006526923079670088
8.58000e-07;0.006523935707291579
8.58250e-07;0.006520948334913071
8.58500e-07;0.006517960962534564
8.58750e-07;0.006515976876213765
8.59000e-07;0.0065141647294441355
8.59250e-07;0.006512352582674506
8.59500e-07;0.006510540435904877
8.59750e-07;0.006509047684454844
8.60000e-07;0.006508138558401591
8.60250e-07;0.006507229432348337
8.60500e-07;0.006506460852679917
8.60750e-07;0.006506038359839907
8.61000e-07;0.006505880114018839
8.61250e-07;0.006506068724262226
8.61500e-07;0.006506919447272197
8.61750e-07;0.00650904517104007
8.62000e-07;0.0065129647101591715
8.62250e-07;0.0065187978702011375
8.62500e-07;0.006526468742396351
8.62750e-07;0.0065358959722752255
8.63000e-07;0.006546998097559587
8.63250e-07;0.006559725193566549
8.63500e-07;0.0065741727475103805
8.63750e-07;0.006591020647410146
8.64000e-07;0.0066100252158677415
8.64250e-07;0.006630171668801182
8.64500e-07;0.006653094606970798
8.64750e-07;0.006677914177756277
8.65000e-07;0.006704750886191831
8.65250e-07;0.006733150171120868
8.65500e-07;0.006762693399310662
8.65750e-07;0.006794326934710695
8.66000e-07;0.006826839406574784
8.66250e-07;0.0068614660515562646
8.66500e-07;0.00689745926292133
8.66750e-07;0.006934621134622861
8.67000e-07;0.006972874405410918
8.67250e-07;0.007011892863166364
8.67500e-07;0.0070513516538435106
8.67750e-07;0.007091615057050574
8.68000e-07;0.007132131937858721
8.68250e-07;0.007173183968908229
8.68500e-07;0.0072143599424904555
8.68750e-07;0.007255434450095229
8.69000e-07;0.007296181509742507
8.69250e-07;0.007336383482400587
8.69500e-07;0.007375858450153021
8.69750e-07;0.007414470014649284
8.70000e-07;0.007452067713475529
8.70250e-07;0.007488439226100203
8.70500e-07;0.007523342516462506
8.70750e-07;0.007556534373114765
8.71000e-07;0.007587771857120692
8.71250e-07;0.007616397447152509
8.71500e-07;0.007642744329957737
8.71750e-07;0.007667393785760527
8.72000e-07;0.007688941563338761
8.72250e-07;0.0077087474441599815
8.72500e-07;0.007725370387963643
8.72750e-07;0.007740167848341976
8.73000e-07;0.007751629635267768
8.73250e-07;0.007761209939818019
8.73500e-07;0.007767352245028252
8.73750e-07;0.007772130234638379
8.74000e-07;0.007773548074360971
8.74250e-07;0.0077725343011468455
8.74500e-07;0.0077691452315646675
8.74750e-07;0.007763436444010423
8.75000e-07;0.007755463817838588
8.75250e-07;0.0077452876793791025
8.75500e-07;0.007732993774634637
8.75750e-07;0.007718713614689945
8.76000e-07;0.007702600804895857
8.76250e-07;0.0076847952757432905
8.76500e-07;0.007665185552318425
8.76750e-07;0.0076441807358012
8.77000e-07;0.00762230974728651
8.77250e-07;0.007598856018059325
8.77500e-07;0.007574882404460592
8.77750e-07;0.007549699902586713
8.78000e-07;0.007523850274070308
8.78250e-07;0.007497513365997102
8.78500e-07;0.007470862404365954
8.78750e-07;0.007444070615175751
8.79000e-07;0.007417310895019783
8.79250e-07;0.00739075751500789
8.79500e-07;0.0073645951105664196
8.79750e-07;0.007339026091612105
8.80000e-07;0.007314261646772408
8.80250e-07;0.007290508058017818
8.80500e-07;0.007267966161618864
8.80750e-07;0.007247144927317798
8.81000e-07;0.007227884012321539
8.81250e-07;0.007209567585501617
8.81500e-07;0.0071934755605170455
8.81750e-07;0.0071785905078116455
8.82000e-07;0.007164618176427904
8.82250e-07;0.007151325409320423
8.82500e-07;0.0071384883748459365
8.82750e-07;0.0071270477878353725
8.83000e-07;0.007116637231265677
8.83250e-07;0.007106844721933182
8.83500e-07;0.007098509482608403
8.83750e-07;0.007090973236132363
8.84000e-07;0.007084054212286545
8.84250e-07;0.007077595955892874
8.84500e-07;0.007071557526922953
8.84750e-07;0.00706628624115063
8.85000e-07;0.007061394430617349
8.85250e-07;0.007057463011681231
8.85500e-07;0.007054230266038836
8.85750e-07;0.00705156375563835
8.86000e-07;0.007049227998621214
8.86250e-07;0.0070471267783837645
8.86500e-07;0.007045454123039756
8.86750e-07;0.007044074803373148
8.87000e-07;0.007043231490781834
8.87250e-07;0.0070426327618406835
8.87500e-07;0.007042608106818548
8.87750e-07;0.007042919472161965
8.88000e-07;0.007043420290876464
8.88250e-07;0.007044050730690411
8.88500e-07;0.007044918024838021
8.88750e-07;0.0070459467277244605
8.89000e-07;0.007047270369933633
8.89250e-07;0.007048727174352338
8.89500e-07;0.007050492031910624
8.89750e-07;0.007052415024232819
8.90000e-07;0.00705441084851022
8.90250e-07;0.007056450154325428
8.90500e-07;0.007058568913182678
8.90750e-07;0.007060729671252582
8.91000e-07;0.00706300011429704
8.91250e-07;0.007065380324581227
8.91500e-07;0.007067955874349125
8.91750e-07;0.0070708914893801034
8.92000e-07;0.007074416680632273
8.92250e-07;0.007078456059469022
8.92500e-07;0.00708300918749821
8.92750e-07;0.007088501080305396
8.93000e-07;0.007093992973112581
8.93250e-07;0.007099484865919767
8.93500e-07;0.007105729368147437
8.93750e-07;0.007113349100206972
8.94000e-07;0.00712096883226651
8.94250e-07;0.0071285885643260485
8.94500e-07;0.007137008363086337
8.94750e-07;0.007146890109524152
8.95000e-07;0.007156771855961964
8.95250e-07;0.007166653602399779
8.95500e-07;0.007176535348837594
8.95750e-07;0.007188109439292955
8.96000e-07;0.007199973557570982
8.96250e-07;0.007211837675849007
8.96500e-07;0.007223701794127029
8.96750e-07;0.007235986124135322
8.97000e-07;0.007249038299577699
8.97250e-07;0.007262090475020077
8.97500e-07;0.007275327337196269
8.97750e-07;0.007288901674162148
8.98000e-07;0.007302476011128021
8.98250e-07;0.007316108323477642
8.98500e-07;0.007329846573216653
8.98750e-07;0.007343584822955664
8.99000e-07;0.007357229247002615
8.99250e-07;0.007370702225028285
8.99500e-07;0.007384017911885
8.99750e-07;0.007397046183381296
9.00000e-07;0.00740977645262101
9.00250e-07;0.007421962187628137
9.00500e-07;0.0074341479226352645
9.00750e-07;0.007445900873598791
