Time(s);Current(A)
5.25000e-06;0.0014674427112129065
5.25025e-06;0.0014402522829857203
5.25050e-06;0.001413061854758534
5.25075e-06;0.0013870115881959738
5.25100e-06;0.001366003977711016
5.25125e-06;0.0013449963672260584
5.25150e-06;0.001325220772514402
5.25175e-06;0.0013108940821286632
5.25200e-06;0.0012965673917428755
5.25225e-06;0.0012834669207899276
5.25250e-06;0.001275789718366514
5.25275e-06;0.0012681125159430743
5.25300e-06;0.0012614454367875774
5.25325e-06;0.0012592458856969793
5.25350e-06;0.0012570463346063738
5.25375e-06;0.001255856305681722
5.25400e-06;0.0012591311462949284
5.25425e-06;0.0012624059869081456
5.25450e-06;0.0012669763368391542
5.25475e-06;0.001277276407507412
5.25500e-06;0.0012875764781757049
5.25525e-06;0.001297876548843963
5.25550e-06;0.001308176619512221
5.25575e-06;0.0013184766901805137
5.25600e-06;0.0013287767608487716
5.25625e-06;0.0013390768315170644
5.25650e-06;0.0013530510304298829
5.25675e-06;0.0013687194306827453
5.25700e-06;0.0013843878309356607
5.25725e-06;0.001400056231188523
5.25750e-06;0.0014157246314413854
5.25775e-06;0.0014313930316943008
5.25800e-06;0.001447061431947163
5.25825e-06;0.0014625179230989183
5.25850e-06;0.001477037192144942
5.25875e-06;0.0014915564611909166
5.25900e-06;0.001506075730236891
5.25925e-06;0.0015205949992829148
5.25950e-06;0.0015351142683288892
5.25975e-06;0.001549633537374864
5.26000e-06;0.0015625938208115784
5.26025e-06;0.0015686590923402821
5.26050e-06;0.0015747243638690065
5.26075e-06;0.0015807896353977103
5.26100e-06;0.0015868549069264141
5.26125e-06;0.0015929201784551385
5.26150e-06;0.0015989854499838423
5.26175e-06;0.0016023577506873638
5.26200e-06;0.0015938197003294268
5.26225e-06;0.001585281649971519
5.26250e-06;0.0015767435996136107
5.26275e-06;0.0015682055492556737
5.26300e-06;0.0015596674988977656
5.26325e-06;0.0015511294485398576
5.26350e-06;0.0015425913981819207
5.26375e-06;0.0015340533478240125
5.26400e-06;0.0015157494136442016
5.26425e-06;0.0014929422688102815
5.26450e-06;0.0014701351239764387
5.26475e-06;0.0014473279791425188
5.26500e-06;0.0014245208343086758
5.26525e-06;0.001401713689474833
5.26550e-06;0.0013789065446409132
5.26575e-06;0.0013560993998070702
5.26600e-06;0.0013320490876630676
5.26625e-06;0.0013025005506768549
5.26650e-06;0.0012729520136907425
5.26675e-06;0.00124340347670463
5.26700e-06;0.0012138549397184171
5.26725e-06;0.0011843064027323045
5.26750e-06;0.001154821400079616
5.26775e-06;0.0011256173942383514
5.26800e-06;0.0010964133883971856
5.26825e-06;0.0010672093825560198
5.26850e-06;0.0010380053767147551
5.26875e-06;0.0010088013708735894
5.26900e-06;0.0009803433361784645
5.26925e-06;0.0009551845493426947
5.26950e-06;0.0009300257625069249
5.26975e-06;0.0009056054151524226
5.27000e-06;0.0008844510049466412
5.27025e-06;0.0008642307394334283
5.27050e-06;0.0008481419673339087
5.27075e-06;0.0008333551392064651
5.27100e-06;0.0008243264907145162
5.27125e-06;0.0008166163379672045
5.27150e-06;0.0008147375692959005
5.27175e-06;0.0008141466616357597
5.27200e-06;0.0008192516481208708
5.27225e-06;0.0008257189141901684
5.27250e-06;0.0008382112095447731
5.27275e-06;0.0008521712886166643
5.27300e-06;0.0008726230159398984
5.27325e-06;0.0008944279955836578
5.27350e-06;0.0009222180791335745
5.27375e-06;0.0009512173330039991
5.27400e-06;0.0009855644513482734
5.27425e-06;0.0010210424679468328
5.27450e-06;0.0010615221708218509
5.27475e-06;0.0011033018640877073
5.27500e-06;0.0011508310967759555
5.27525e-06;0.0011983603294642036
5.27550e-06;0.0012473615652936632
5.27575e-06;0.001302873110852868
5.27600e-06;0.0013583846564120732
5.27625e-06;0.0014138962019714662
5.27650e-06;0.001469407747530671
5.27675e-06;0.0015249192930898762
5.27700e-06;0.0015828011005059113
5.27725e-06;0.00164177587489097
5.27750e-06;0.0017007506492762285
5.27775e-06;0.001759725423661287
5.27800e-06;0.0018187001980463457
5.27825e-06;0.0018754073998788906
5.27850e-06;0.0019220856831307126
5.27875e-06;0.0019687639663825344
5.27900e-06;0.0020154422496345146
5.27925e-06;0.002062120532886337
5.27950e-06;0.0021087988161381586
5.27975e-06;0.0021554770993901387
5.28000e-06;0.002202155382641961
5.28025e-06;0.002248833665893783
5.28050e-06;0.002295511949145763
5.28075e-06;0.002337850211633091
5.28100e-06;0.0023609936241784147
5.28125e-06;0.0023841370367238164
5.28150e-06;0.0024072804492691396
5.28175e-06;0.0024304238618145417
5.28200e-06;0.002453567274359865
5.28225e-06;0.002476710686905188
5.28250e-06;0.0024998540994505903
5.28275e-06;0.0025229975119959135
5.28300e-06;0.0025461409245412367
5.28325e-06;0.0025662589535646136
5.28350e-06;0.002572996451510239
5.28375e-06;0.0025797339494558645
5.28400e-06;0.002586471447401513
5.28425e-06;0.0025932089453471383
5.28450e-06;0.0025999464432927637
5.28475e-06;0.002606683941238412
5.28500e-06;0.0026134214391840375
5.28525e-06;0.002620158937129663
5.28550e-06;0.0026268964350753114
5.28575e-06;0.002633633933020937
5.28600e-06;0.00263426828084186
5.28625e-06;0.002632088365135543
5.28650e-06;0.002629908449429226
5.28675e-06;0.0026277285337229016
5.28700e-06;0.0026255486180165846
5.28725e-06;0.0026233687023102677
5.28750e-06;0.0026211887866039434
5.28775e-06;0.0026190088708976265
5.28800e-06;0.0026168289551913096
5.28825e-06;0.002614649039484985
5.28850e-06;0.002612578782671427
5.28875e-06;0.002610993520309513
5.28900e-06;0.002609408257947594
5.28925e-06;0.00260782299558568
5.28950e-06;0.0026062377332237664
5.28975e-06;0.0026046524708618467
5.29000e-06;0.002603067208499933
5.29025e-06;0.0026014819461380135
5.29050e-06;0.0025998966837761
5.29075e-06;0.002598311421414186
5.29100e-06;0.0025967261590522667
5.29125e-06;0.0025951408966903527
5.29150e-06;0.0025935556343284387
5.29175e-06;0.0025919703719665195
5.29200e-06;0.0025903851096046055
5.29225e-06;0.0025887998472426915
5.29250e-06;0.0025872145848807723
5.29275e-06;0.0025856293225188583
5.29300e-06;0.0025840440601569447
5.29325e-06;0.002582458797795025
5.29350e-06;0.002581898032195604
5.29375e-06;0.0025858683651049795
5.29400e-06;0.002589838698014368
5.29425e-06;0.002593809030923744
5.29450e-06;0.0025977793638331326
5.29475e-06;0.0026017496967425083
5.29500e-06;0.0026057200296518836
5.29525e-06;0.0026096903625612723
5.29550e-06;0.002613660695470648
5.29575e-06;0.002617631028380023
5.29600e-06;0.0026216013612894123
5.29625e-06;0.0026255716941987876
5.29650e-06;0.002629542027108163
5.29675e-06;0.002633512360017552
5.29700e-06;0.0026374826929269272
5.29725e-06;0.002641453025836303
5.29750e-06;0.0026454233587456916
5.29775e-06;0.002649393691655067
5.29800e-06;0.0026533640245644426
5.29825e-06;0.0026573343574738313
5.29850e-06;0.0026613979849899336
5.29875e-06;0.0026658742317244104
5.29900e-06;0.0026703504784588725
5.29925e-06;0.002674826725193334
5.29950e-06;0.0026793029719278114
5.29975e-06;0.0026813804876710348
5.30000e-06;0.0026823519088565013
5.30025e-06;0.0026833233300419712
5.30050e-06;0.0026842947512274377
5.30075e-06;0.0026822371670115275
5.30100e-06;0.0026667830330389494
5.30125e-06;0.002651328899066424
5.30150e-06;0.0026330105141147016
5.30175e-06;0.0026020242479039214
5.30200e-06;0.002571037981693246
5.30225e-06;0.002537575025010955
5.30250e-06;0.002493158272366921
5.30275e-06;0.002446211180898826
5.30300e-06;0.0023880730199322925
5.30325e-06;0.0023276656130843663
5.30350e-06;0.0022572218869396352
5.30375e-06;0.00218487852823272
5.30400e-06;0.002104133559505489
5.30425e-06;0.0020215848339836186
5.30450e-06;0.00193105853350086
5.30475e-06;0.0018386558502226603
5.30500e-06;0.001737954384951247
5.30525e-06;0.001635509094184326
5.30550e-06;0.0015253512899311254
5.30575e-06;0.0014151934856779247
5.30600e-06;0.0013037655779666322
5.30625e-06;0.001186720313430738
5.30650e-06;0.001069675048894844
5.30675e-06;0.0009519275462438235
5.30700e-06;0.0008310742162352198
5.30725e-06;0.0007102208862262067
5.30750e-06;0.0005898857184436927
5.30775e-06;0.000469789483838895
5.30800e-06;0.000350253702774514
5.30825e-06;0.00023367144187233516
5.30850e-06;0.00011972649753872643
5.30875e-06;8.796742695833553e-06
5.30900e-06;-9.853517219171151e-05
5.30925e-06;-0.00020151191638719204
5.30950e-06;-0.00029935542543131535
5.30975e-06;-0.00039128775760061157
5.31000e-06;-0.00047655768268566317
5.31025e-06;-0.0005547046149640174
5.31050e-06;-0.0006261926434613488
5.31075e-06;-0.0006920786303545533
5.31100e-06;-0.0007527760012081057
5.31125e-06;-0.0008080384757989297
5.31150e-06;-0.0008575353503999674
5.31175e-06;-0.0009009360744385315
5.31200e-06;-0.0009379268468642639
5.31225e-06;-0.0009683760843325732
5.31250e-06;-0.0009927312932641434
5.31275e-06;-0.0010118111622866774
5.31300e-06;-0.001026031353117669
5.31325e-06;-0.0010349380015295248
5.31350e-06;-0.001037831678976516
5.31375e-06;-0.0010388868859885182
5.31400e-06;-0.0010318109881048943
5.31425e-06;-0.0010230631357713376
5.31450e-06;-0.0010069206380007945
5.31475e-06;-0.0009894845365469066
5.31500e-06;-0.0009663271425214319
5.31525e-06;-0.0009420117469809213
5.31550e-06;-0.0009125747940807798
5.31575e-06;-0.0008820753826800094
5.31600e-06;-0.000846876977294992
5.31625e-06;-0.0008107038993458389
5.31650e-06;-0.0007702200831293123
5.31675e-06;-0.000729736266912923
5.31700e-06;-0.0006886424282716484
5.31725e-06;-0.0006448506097059653
5.31750e-06;-0.0006010587911404305
5.31775e-06;-0.0005572669725748957
5.31800e-06;-0.0005132084001368318
5.31825e-06;-0.00046902682307377785
5.31850e-06;-0.0004248452460107239
5.31875e-06;-0.0003811960060962654
5.31900e-06;-0.0003399011631378151
5.31925e-06;-0.0002991148631965425
5.31950e-06;-0.0002609913391112327
5.31975e-06;-0.0002251666773793838
5.32000e-06;-0.00019191792561018412
5.32025e-06;-0.0001612422629940577
5.32050e-06;-0.00013227952060684167
5.32075e-06;-0.00010371981461678738
5.32100e-06;-7.502397713982395e-05
5.32125e-06;-4.635567639919883e-05
5.32150e-06;-1.79647635541137e-05
5.32175e-06;9.89894666072388e-06
5.32200e-06;3.7002108455261694e-05
5.32225e-06;6.331915741937825e-05
5.32250e-06;8.93752820444073e-05
5.32275e-06;0.00011565099808178298
5.32300e-06;0.00014289791320599922
5.32325e-06;0.00017027758264376595
5.32350e-06;0.0001982443919281736
5.32375e-06;0.0002262555350459315
5.32400e-06;0.000254462755860385
5.32425e-06;0.00028266997667493406
5.32450e-06;0.00031087719748938757
5.32475e-06;0.000339084418303841
5.32500e-06;0.0003672916391183901
5.32525e-06;0.00039613488843105217
5.32550e-06;0.0004252714210099992
5.32575e-06;0.00045440795358904496
5.32600e-06;0.00048354448616799196
5.32625e-06;0.000512681018746939
5.32650e-06;0.0005416797116138709
5.32675e-06;0.0005700687731610007
5.32700e-06;0.0005984578347081304
5.32725e-06;0.0006268468962553563
5.32750e-06;0.0006552359578024861
5.32775e-06;0.0006836250193496158
5.32800e-06;0.0007097390748277993
5.32825e-06;0.0007348040873579767
5.32850e-06;0.0007598690998882391
5.32875e-06;0.0007849341124184165
5.32900e-06;0.000809999124948594
5.32925e-06;0.0008342498700212209
5.32950e-06;0.0008548993093660243
5.32975e-06;0.0008755487487108278
5.33000e-06;0.0008956754411414748
5.33025e-06;0.0009134901518777495
5.33050e-06;0.0009313048626140243
5.33075e-06;0.0009491195733503593
5.33100e-06;0.000966934284086634
5.33125e-06;0.0009851696417017865
5.33150e-06;0.0010052654175370707
5.33175e-06;0.0010253611933722867
5.33200e-06;0.0010454569692075028
5.33225e-06;0.0010655527450427868
5.33250e-06;0.0010867702282369774
5.33275e-06;0.001112948748616861
5.33300e-06;0.0011391272689966559
5.33325e-06;0.0011653057893764509
5.33350e-06;0.0011914843097563345
5.33375e-06;0.0012176628301361295
5.33400e-06;0.0012438413505159245
5.33425e-06;0.0012700198708958082
5.33450e-06;0.0012961983912756032
5.33475e-06;0.0013235186619492756
5.33500e-06;0.0013558886148052238
5.33525e-06;0.0013882585676610625
5.33550e-06;0.0014206285205169012
5.33575e-06;0.0014529984733728496
5.33600e-06;0.0014853684262286881
5.33625e-06;0.001517738379084527
5.33650e-06;0.0015501083319404752
5.33675e-06;0.001582478284796314
5.33700e-06;0.0016148489690297155
5.33725e-06;0.0016472228879665267
5.33750e-06;0.001679596806903338
5.33775e-06;0.001711970725840259
5.33800e-06;0.0017443446447770702
5.33825e-06;0.0017767185637138814
5.33850e-06;0.0018090924826508023
5.33875e-06;0.0018369367953147027
5.33900e-06;0.0018626924315654394
5.33925e-06;0.0018884480678162635
5.33950e-06;0.0019142037040670004
5.33975e-06;0.001939959340317737
5.34000e-06;0.001965714976568561
5.34025e-06;0.0019894107100613552
5.34050e-06;0.002003995997681979
5.34075e-06;0.0020185812853026524
5.34100e-06;0.002030943411525374
5.34125e-06;0.0020334730388584673
5.34150e-06;0.002036002666191552
5.34175e-06;0.002036343752738925
5.34200e-06;0.0020270054588934386
5.34225e-06;0.002017667165047984
5.34250e-06;0.00200591822323148
5.34275e-06;0.001983507575287788
5.34300e-06;0.0019610969273441722
5.34325e-06;0.001936387536583266
5.34350e-06;0.0019015113688089474
5.34375e-06;0.001866635201034747
5.34400e-06;0.0018297820803751946
5.34425e-06;0.0017841853808342263
5.34450e-06;0.0017385886812934126
5.34475e-06;0.0016911963970807444
5.34500e-06;0.0016358626812170312
5.34525e-06;0.0015805289653535053
5.34550e-06;0.001523892625697508
5.34575e-06;0.0014614950997412746
5.34600e-06;0.0013990975737850414
5.34625e-06;0.0013357928543290553
5.34650e-06;0.0012684758400017826
5.34675e-06;0.0012011588256745098
5.34700e-06;0.001133841811347009
5.34725e-06;0.001066367152655862
5.34750e-06;0.0009981952715165836
5.34775e-06;0.0009300233903770742
5.34800e-06;0.0008618515092377958
5.34825e-06;0.0007942673180004311
5.34850e-06;0.0007292823353997753
5.34875e-06;0.0006650336061315084
5.34900e-06;0.0006040411452007884
5.34925e-06;0.0005437998739131013
5.34950e-06;0.0004874916233992784
5.34975e-06;0.00043457739361600146
5.35000e-06;0.0003855008584473983
5.35025e-06;0.00034066663186898226
5.35050e-06;0.00030032949115127547
5.35075e-06;0.00026457150921341065
5.35100e-06;0.0002334452936636177
5.35125e-06;0.00020704050834473599
5.35150e-06;0.00018545438110401745
5.35175e-06;0.00016878409344921573
5.35200e-06;0.000157124839250442
5.35225e-06;0.00015054727010257305
5.35250e-06;0.00014902818371300176
5.35275e-06;0.0001524362023934353
5.35300e-06;0.00016062150497801828
5.35325e-06;0.00017345745343717495
5.35350e-06;0.00019082219116731413
5.35375e-06;0.00021259379953903398
5.35400e-06;0.0002386491378003385
5.35425e-06;0.0002688497084850247
5.35450e-06;0.0003029982026524429
5.35475e-06;0.00034082956739354145
5.35500e-06;0.00038206720174118977
5.35525e-06;0.00042644909076155037
5.35550e-06;0.00047393886498127023
5.35575e-06;0.000524594256514198
5.35600e-06;0.0005760401078981878
5.35625e-06;0.0006309819697886303
5.35650e-06;0.0006866273249527384
5.35675e-06;0.0007453840587316026
5.35700e-06;0.0008041407925106658
5.35725e-06;0.0008628975262895299
5.35750e-06;0.0009217363587928963
5.35775e-06;0.0009809382938664576
5.35800e-06;0.0010401402289398184
5.35825e-06;0.0010993421640133798
5.35850e-06;0.0011577529826748156
5.35875e-06;0.0012126648870222554
5.35900e-06;0.001267576791369881
5.35925e-06;0.0013213737552870714
5.35950e-06;0.0013702396104928755
5.35975e-06;0.0014178664656893606
5.36000e-06;0.001460013527011245
5.36025e-06;0.0015004993463773833
5.36050e-06;0.001533637899058107
5.36075e-06;0.0015647281001012108
5.36100e-06;0.0015867589430573663
5.36125e-06;0.0016066954071379384
5.36150e-06;0.001617368945919641
5.36175e-06;0.0016259443918741024
5.36200e-06;0.0016252404866306735
5.36225e-06;0.001622357028506319
5.36250e-06;0.0016098339412990489
5.36275e-06;0.00159507183504967
5.36300e-06;0.00157040709543718
5.36325e-06;0.0015436575301768932
5.36350e-06;0.0015076872912081632
5.36375e-06;0.001469812954345485
5.36400e-06;0.001423517258407158
5.36425e-06;0.0013754494279298087
5.36450e-06;0.001319543880005469
5.36475e-06;0.001262011943306455
5.36500e-06;0.0011972868870158285
5.36525e-06;0.0011312150509818987
5.36550e-06;0.0010591867376838764
5.36575e-06;0.0009861077678777449
5.36600e-06;0.0009083820014182649
5.36625e-06;0.0008297289832575737
5.36650e-06;0.0007469749577113607
5.36675e-06;0.0006642209321648674
5.36700e-06;0.0005809680835631343
5.36725e-06;0.0004955090626429786
5.36750e-06;0.00041005004172253327
5.36775e-06;0.00032516299592178464
5.36800e-06;0.00024053969731407533
5.36825e-06;0.00015633721115675266
5.36850e-06;7.436010171316073e-05
5.36875e-06;-5.5490506565166915e-06
5.36900e-06;-8.287722251796505e-05
5.36925e-06;-0.00015706816060421288
5.36950e-06;-0.00022756093512999267
5.36975e-06;-0.0002937947028469603
5.37000e-06;-0.0003552171418772548
5.37025e-06;-0.0004113732334782359
5.37050e-06;-0.00046213955971665066
5.37075e-06;-0.0005076726626942443
5.37100e-06;-0.0005480158598436346
5.37125e-06;-0.0005830370045804649
5.37150e-06;-0.0006125791690510529
5.37175e-06;-0.0006364854361356047
5.37200e-06;-0.0006546042602340097
5.37225e-06;-0.000666845093500801
5.37250e-06;-0.0006733250902239305
5.37275e-06;-0.0006743368167506273
5.37300e-06;-0.0006701017596489957
5.37325e-06;-0.0006607316126076362
5.37350e-06;-0.000646322560688221
5.37375e-06;-0.0006269706679991569
5.37400e-06;-0.0006027754533269461
5.37425e-06;-0.0005738747162351585
5.37450e-06;-0.0005405361850414627
5.37475e-06;-0.0005031374763935164
5.37500e-06;-0.0004620118497206741
5.37525e-06;-0.0004174235478589189
5.37550e-06;-0.00036962717875329865
5.37575e-06;-0.00031887726613497237
5.37600e-06;-0.00026543046091430475
5.37625e-06;-0.0002095673175618104
5.37650e-06;-0.00015164991151396875
5.37675e-06;-9.210903855662444e-05
5.37700e-06;-3.1347596078959016e-05
5.37725e-06;3.0293230643186566e-05
5.37750e-06;9.248315412634433e-05
5.37775e-06;0.0001546730776092914
5.37800e-06;0.00021668496362814972
5.37825e-06;0.00027790940391569013
5.37850e-06;0.0003386289359736596
5.37875e-06;0.00039711538247907204
5.37900e-06;0.00045501955436719085
5.37925e-06;0.0005098578454338128
5.37950e-06;0.000561958985436551
5.37975e-06;0.0006109074858225373
5.38000e-06;0.0006563020918864857
5.38025e-06;0.000697614286220465
5.38050e-06;0.0007346872693252006
5.38075e-06;0.0007707048407750738
5.38100e-06;0.0008020545847244293
5.38125e-06;0.0008322777669376432
5.38150e-06;0.0008575184422510415
5.38175e-06;0.0008815072743662681
5.38200e-06;0.0008999595103294637
5.38225e-06;0.0009172027047763218
5.38250e-06;0.0009290986044372474
5.38275e-06;0.0009400081977042038
5.38300e-06;0.0009465555991305638
5.38325e-06;0.0009521343461669912
5.38350e-06;0.0009534289718571981
5.38375e-06;0.0009537386812017975
5.38400e-06;0.0009496923465495674
5.38425e-06;0.0009445725671826588
5.38450e-06;0.0009347052045045744
5.38475e-06;0.0009248378418265234
5.38500e-06;0.0009139860529872038
5.38525e-06;0.0008987803881165126
5.38550e-06;0.0008835747232458731
5.38575e-06;0.0008675251612721899
5.38600e-06;0.0008477432489055738
5.38625e-06;0.0008279613365390246
5.38650e-06;0.0008075576879247872
5.38675e-06;0.000784404252020176
5.38700e-06;0.0007612508161156434
5.38725e-06;0.0007380973802111107
5.38750e-06;0.0007149439443064996
5.38775e-06;0.0006916901114887655
5.38800e-06;0.000667992247690177
5.38825e-06;0.0006442943838915082
5.38850e-06;0.0006205965200929196
5.38875e-06;0.0005968986562942509
5.38900e-06;0.0005737333423823178
5.38925e-06;0.000552923366308715
5.38950e-06;0.0005321133902350416
5.38975e-06;0.0005119037772976273
5.39000e-06;0.0004943494236078524
5.39025e-06;0.00047712193880441154
5.39050e-06;0.00046134011510349675
5.39075e-06;0.00044555829140258195
5.39100e-06;0.000429759774151164
5.39125e-06;0.00041388742541093276
5.39150e-06;0.0003980150766707015
5.39175e-06;0.0003821427279304165
5.39200e-06;0.00036631674454820406
5.39225e-06;0.00035069582379928854
5.39250e-06;0.00033507490305032005
5.39275e-06;0.00031945398230140453
5.39300e-06;0.0003035735922703128
5.39325e-06;0.0002865456330944845
5.39350e-06;0.00026951767391865633
5.39375e-06;0.0002524897147427704
5.39400e-06;0.0002354617555669422
5.39425e-06;0.00021778249050077823
5.39450e-06;0.00019980289751038693
5.39475e-06;0.00018182330452005653
5.39500e-06;0.00016384371152972617
5.39525e-06;0.00014568782316718703
5.39550e-06;0.00012675222351180845
5.39575e-06;0.00010781662385642983
5.39600e-06;8.89012481075137e-05
5.39625e-06;7.007531774859407e-05
5.39650e-06;5.124938738967445e-05
