Time(s);Current(A)
1.75000e-06;0.011527499072048246
1.75025e-06;0.011569132493095415
1.75050e-06;0.011610765914142581
1.75075e-06;0.011652399335189783
1.75100e-06;0.011694032756236952
1.75125e-06;0.011735666177284153
1.75150e-06;0.011777299598331322
1.75175e-06;0.011818933019378523
1.75200e-06;0.011860566440425692
1.75225e-06;0.011902199861472859
1.75250e-06;0.01194383328252006
1.75275e-06;0.01198744896256994
1.75300e-06;0.012033195188772336
1.75325e-06;0.012078941414974695
1.75350e-06;0.012124687641177053
1.75375e-06;0.012170433867379449
1.75400e-06;0.012216180093581807
1.75425e-06;0.012261926319784204
1.75450e-06;0.012307672545986562
1.75475e-06;0.01235341877218892
1.75500e-06;0.012399164998391317
1.75525e-06;0.012444911224593675
1.75550e-06;0.01248314760282055
1.75575e-06;0.012513312342735852
1.75600e-06;0.012543477082651182
1.75625e-06;0.012573641822566484
1.75650e-06;0.012603806562481787
1.75675e-06;0.012633971302397115
1.75700e-06;0.012664136042312419
1.75725e-06;0.012680867008903012
1.75750e-06;0.012683159259851307
1.75775e-06;0.0126854515107996
1.75800e-06;0.012687743761747894
1.75825e-06;0.012690036012696186
1.75850e-06;0.01269232826364448
1.75875e-06;0.012694620514592773
1.75900e-06;0.012680042486147455
1.75925e-06;0.012647332160760638
1.75950e-06;0.01261462183537385
1.75975e-06;0.012581911509987033
1.76000e-06;0.012549201184600242
1.76025e-06;0.012516490859213426
1.76050e-06;0.012483780533826637
1.76075e-06;0.012451070208439849
1.76100e-06;0.01241835988305303
1.76125e-06;0.012372611226212589
1.76150e-06;0.01231284887748118
1.76175e-06;0.01225308652874982
1.76200e-06;0.012193324180018462
1.76225e-06;0.012133561831287052
1.76250e-06;0.012073799482555693
1.76275e-06;0.012014037133824283
1.76300e-06;0.011954274785092926
1.76325e-06;0.011894512436361566
1.76350e-06;0.011832108004759844
1.76375e-06;0.011766863843594162
1.76400e-06;0.011701619682428426
1.76425e-06;0.011636375521262744
1.76450e-06;0.011571131360097062
1.76475e-06;0.011505887198931326
1.76500e-06;0.011440643037765643
1.76525e-06;0.011387976380820758
1.76550e-06;0.011335540627383572
1.76575e-06;0.011283104873946341
1.76600e-06;0.011230669120509157
1.76625e-06;0.011178233367071971
1.76650e-06;0.01112579761363474
1.76675e-06;0.011087396345762487
1.76700e-06;0.011064079443343536
1.76725e-06;0.011040762540924605
1.76750e-06;0.011017445638505673
1.76775e-06;0.010994128736086722
1.76800e-06;0.010970811833667792
1.76825e-06;0.01094749493124884
1.76850e-06;0.010924178028829909
1.76875e-06;0.010900861126410977
1.76900e-06;0.010877544223992026
1.76925e-06;0.010854227321573096
1.76950e-06;0.010830910419154145
1.76975e-06;0.010821970658428512
1.77000e-06;0.010828483552413233
1.77025e-06;0.010834996446397948
1.77050e-06;0.010841509340382662
1.77075e-06;0.010848022234367384
1.77100e-06;0.010854535128352098
1.77125e-06;0.01086104802233682
1.77150e-06;0.010867560916321534
1.77175e-06;0.010874073810306249
1.77200e-06;0.01088058670429097
1.77225e-06;0.010887099598275685
1.77250e-06;0.010893612492260406
1.77275e-06;0.010905799908859745
1.77300e-06;0.010924086342946632
1.77325e-06;0.010942372777033534
1.77350e-06;0.01096065921112042
1.77375e-06;0.010978945645207322
1.77400e-06;0.010997232079294207
1.77425e-06;0.01101551851338111
1.77450e-06;0.011033804947467996
1.77475e-06;0.011052091381554883
1.77500e-06;0.011070377815641784
1.77525e-06;0.011088664249728672
1.77550e-06;0.011103080388096924
1.77575e-06;0.01111333670494841
1.77600e-06;0.011123593021799896
1.77625e-06;0.011133849338651391
1.77650e-06;0.011144105655502876
1.77675e-06;0.01115436197235437
1.77700e-06;0.011164618289205857
1.77725e-06;0.011174874606057343
1.77750e-06;0.011185130922908838
1.77775e-06;0.011195387239760324
1.77800e-06;0.011205643556611817
1.77825e-06;0.011207645806607349
1.77850e-06;0.011200776526517409
1.77875e-06;0.011193907246427475
1.77900e-06;0.01118703796633754
1.77925e-06;0.0111801686862476
1.77950e-06;0.011173299406157664
1.77975e-06;0.011166430126067724
1.78000e-06;0.01115956084597779
1.78025e-06;0.011152691565887855
1.78050e-06;0.011145822285797915
1.78075e-06;0.01113895300570798
1.78100e-06;0.011132083725618039
1.78125e-06;0.01112123691703909
1.78150e-06;0.0111040591350868
1.78175e-06;0.011084671660004932
1.78200e-06;0.011065284184923078
1.78225e-06;0.01104589670984121
1.78250e-06;0.011026509234759356
1.78275e-06;0.011007121759677488
1.78300e-06;0.010987734284595636
1.78325e-06;0.010968346809513783
1.78350e-06;0.010948959334431914
1.78375e-06;0.010929571859350062
1.78400e-06;0.010910184384268194
1.78425e-06;0.01089079690918634
1.78450e-06;0.010871409434104487
1.78475e-06;0.010852021959022618
1.78500e-06;0.010836733293335255
1.78525e-06;0.010825850057297411
1.78550e-06;0.010814966821259578
1.78575e-06;0.010804083585221745
1.78600e-06;0.010793200349183902
1.78625e-06;0.010782317113146068
1.78650e-06;0.010771433877108227
1.78675e-06;0.010760550641070394
1.78700e-06;0.01074966740503255
1.78725e-06;0.010738784168994717
1.78750e-06;0.010727900932956884
1.78775e-06;0.01071701769691904
1.78800e-06;0.010706134460881207
1.78825e-06;0.010695251224843366
1.78850e-06;0.010697050279519477
1.78875e-06;0.010712480350951133
1.78900e-06;0.010727910422382803
1.78925e-06;0.01074334049381446
1.78950e-06;0.01075877056524613
1.78975e-06;0.010774200636677788
1.79000e-06;0.010789630708109444
1.79025e-06;0.010805060779541114
1.79050e-06;0.010820490850972772
1.79075e-06;0.010835920922404442
1.79100e-06;0.010851350993836098
1.79125e-06;0.010866781065267768
1.79150e-06;0.01089867392647563
1.79175e-06;0.010930869019018944
1.79200e-06;0.010963064111562284
1.79225e-06;0.010995259204105597
1.79250e-06;0.011027454296648937
1.79275e-06;0.011059649389192249
1.79300e-06;0.011091844481735563
1.79325e-06;0.011124039574278903
1.79350e-06;0.011156234666822216
1.79375e-06;0.011188429759365556
1.79400e-06;0.011220624851908868
1.79425e-06;0.011252505935807323
1.79450e-06;0.011284049520968719
1.79475e-06;0.011315593106130086
1.79500e-06;0.011347136691291481
1.79525e-06;0.011378680276452849
1.79550e-06;0.011410223861614244
1.79575e-06;0.01143768413414808
1.79600e-06;0.0114607556330686
1.79625e-06;0.01148382713198914
1.79650e-06;0.01150689863090966
1.79675e-06;0.0115299701298302
1.79700e-06;0.01155304162875072
1.79725e-06;0.011574987918100608
1.79750e-06;0.011595724824157229
1.79775e-06;0.011616461730213832
1.79800e-06;0.011637198636270453
1.79825e-06;0.011657935542327054
1.79850e-06;0.011678672448383658
1.79875e-06;0.011699409354440278
1.79900e-06;0.011720146260496882
1.79925e-06;0.0117408831665535
1.79950e-06;0.011761620072610104
1.79975e-06;0.011782356978666725
1.80000e-06;0.011803093884723326
1.80025e-06;0.011825019852374675
1.80050e-06;0.011848223831931454
1.80075e-06;0.011871427811488214
1.80100e-06;0.011894631791044993
1.80125e-06;0.01191783577060175
1.80150e-06;0.01194103975015851
1.80175e-06;0.01196424372971529
1.80200e-06;0.011987447709272049
1.80225e-06;0.012010651688828828
1.80250e-06;0.012033855668385586
1.80275e-06;0.012057059647942346
1.80300e-06;0.012080263627499125
1.80325e-06;0.012102034680853073
1.80350e-06;0.012122265614876946
1.80375e-06;0.012142496548900802
1.80400e-06;0.012162727482924659
1.80425e-06;0.012182958416948534
1.80450e-06;0.01220318935097239
1.80475e-06;0.012223420284996263
1.80500e-06;0.01224365121902012
1.80525e-06;0.012263882153043993
1.80550e-06;0.012284113087067849
1.80575e-06;0.012304344021091707
1.80600e-06;0.01232457495511558
1.80625e-06;0.012344805889139436
1.80650e-06;0.012351111482782251
1.80675e-06;0.01235716142873276
1.80700e-06;0.012363211374683268
1.80725e-06;0.012369261320633781
1.80750e-06;0.01237531126658429
1.80775e-06;0.012381361212534803
1.80800e-06;0.012387411158485311
1.80825e-06;0.012393461104435819
1.80850e-06;0.012399511050386332
1.80875e-06;0.01240556099633684
1.80900e-06;0.012411610942287354
1.80925e-06;0.012417660888237862
1.80950e-06;0.012416277077604877
1.80975e-06;0.012406903412235087
1.81000e-06;0.012397529746865298
1.81025e-06;0.012388156081495499
1.81050e-06;0.012378782416125708
1.81075e-06;0.012369408750755909
1.81100e-06;0.01236003508538612
1.81125e-06;0.01235066142001633
1.81150e-06;0.01234128775464653
1.81175e-06;0.01233191408927674
1.81200e-06;0.012322540423906942
1.81225e-06;0.012313166758537152
1.81250e-06;0.012303793093167361
1.81275e-06;0.012294419427797562
1.81300e-06;0.012285045762427772
1.81325e-06;0.012271506997684143
1.81350e-06;0.012257891768163838
1.81375e-06;0.012244276538643522
1.81400e-06;0.012230661309123219
1.81425e-06;0.012217046079602915
1.81450e-06;0.0122034308500826
1.81475e-06;0.012189815620562296
1.81500e-06;0.01217620039104198
1.81525e-06;0.012162585161521676
1.81550e-06;0.012148969932001371
1.81575e-06;0.012135354702481055
1.81600e-06;0.012121739472960752
1.81625e-06;0.012108124243440436
1.81650e-06;0.012094509013920132
1.81675e-06;0.012080851960633961
1.81700e-06;0.012067149954865134
1.81725e-06;0.012053447949096319
1.81750e-06;0.012039745943327492
1.81775e-06;0.012026043937558675
1.81800e-06;0.012012341931789848
1.81825e-06;0.011998639926021033
1.81850e-06;0.011984937920252218
1.81875e-06;0.01197123591448339
1.81900e-06;0.011957533908714573
1.81925e-06;0.011943831902945746
1.81950e-06;0.011930129897176931
1.81975e-06;0.011913196799439502
1.82000e-06;0.011892790900947943
1.82025e-06;0.011872385002456402
1.82050e-06;0.011851979103964842
1.82075e-06;0.011831573205473301
1.82100e-06;0.01181116730698176
1.82125e-06;0.0117907614084902
1.82150e-06;0.01177035550999866
1.82175e-06;0.011749949611507101
1.82200e-06;0.011729543713015558
1.82225e-06;0.011709137814524
1.82250e-06;0.011688731916032459
1.82275e-06;0.011667842950837504
1.82300e-06;0.011646434782095197
1.82325e-06;0.011625026613352907
1.82350e-06;0.011603618444610598
1.82375e-06;0.011582210275868308
1.82400e-06;0.011560802107126018
1.82425e-06;0.01153939393838371
1.82450e-06;0.01151798576964142
1.82475e-06;0.011496577600899113
1.82500e-06;0.011475169432156823
1.82525e-06;0.011453761263414533
1.82550e-06;0.011432353094672224
1.82575e-06;0.011410944925929934
1.82600e-06;0.011395311183092144
1.82625e-06;0.0113858838345105
1.82650e-06;0.011376456485928848
1.82675e-06;0.011367029137347204
1.82700e-06;0.011357601788765558
1.82725e-06;0.011348174440183906
1.82750e-06;0.011338747091602262
1.82775e-06;0.01132931974302061
1.82800e-06;0.011319892394438966
1.82825e-06;0.011310465045857322
1.82850e-06;0.01130103769727567
1.82875e-06;0.011291610348694026
1.82900e-06;0.011282183000112373
1.82925e-06;0.011280891030382817
1.82950e-06;0.011288343024020889
1.82975e-06;0.011295795017658967
1.83000e-06;0.011303247011297039
1.83025e-06;0.011310699004935115
1.83050e-06;0.011318150998573187
1.83075e-06;0.011325602992211265
1.83100e-06;0.011333054985849335
1.83125e-06;0.011340506979487406
1.83150e-06;0.011347958973125485
1.83175e-06;0.011355410966763556
1.83200e-06;0.011362862960401633
1.83225e-06;0.011370314954039704
1.83250e-06;0.011377766947677776
1.83275e-06;0.011385218941315854
1.83300e-06;0.011397701750339963
1.83325e-06;0.011410276917346435
1.83350e-06;0.011422852084352895
1.83375e-06;0.011435427251359355
1.83400e-06;0.011448002418365825
1.83425e-06;0.011460577585372285
1.83450e-06;0.011473152752378757
1.83475e-06;0.011485727919385217
1.83500e-06;0.011498303086391687
1.83525e-06;0.011510878253398147
1.83550e-06;0.011523453420404608
1.83575e-06;0.011536028587411078
1.83600e-06;0.011548603754417538
1.83625e-06;0.011561178921424008
1.83650e-06;0.011567136649813277
1.83675e-06;0.01156598190785471
1.83700e-06;0.01156482716589614
1.83725e-06;0.011563672423937573
1.83750e-06;0.011562517681979004
1.83775e-06;0.011561362940020435
1.83800e-06;0.011560208198061868
1.83825e-06;0.011559053456103299
1.83850e-06;0.01155789871414473
1.83875e-06;0.011556743972186163
1.83900e-06;0.011535274560710023
1.83925e-06;0.01151343220335057
1.83950e-06;0.011491589845991135
1.83975e-06;0.011469747488631698
1.84000e-06;0.011447905131272244
1.84025e-06;0.01142606277391281
1.84050e-06;0.011404220416553356
1.84075e-06;0.011382378059193921
1.84100e-06;0.011360535701834484
1.84125e-06;0.011331323340796562
1.84150e-06;0.011294189647101494
1.84175e-06;0.011257055953406392
1.84200e-06;0.011219922259711324
1.84225e-06;0.011182788566016255
1.84250e-06;0.011145654872321156
1.84275e-06;0.011108521178626088
1.84300e-06;0.011071387484930988
1.84325e-06;0.01103425379123592
1.84350e-06;0.010997120097540851
1.84375e-06;0.010959986403845752
1.84400e-06;0.010924283591266199
1.84425e-06;0.01089011869994191
1.84450e-06;0.01085595380861765
1.84475e-06;0.010821788917293362
1.84500e-06;0.010787624025969101
1.84525e-06;0.010753459134644842
1.84550e-06;0.010719294243320552
1.84575e-06;0.010685129351996293
1.84600e-06;0.010650964460672003
1.84625e-06;0.010616799569347744
1.84650e-06;0.010582634678023483
1.84675e-06;0.010557553617020163
1.84700e-06;0.010542235921804819
1.84725e-06;0.01052691822658946
1.84750e-06;0.010511600531374116
1.84775e-06;0.010496282836158772
1.84800e-06;0.010480965140943415
1.84825e-06;0.01046564744572807
1.84850e-06;0.010450329750512712
1.84875e-06;0.010435012055297368
1.84900e-06;0.010419694360082011
1.84925e-06;0.010404376664866667
1.84950e-06;0.010389058969651322
1.84975e-06;0.010373741274435964
1.85000e-06;0.01035842357922062
1.85025e-06;0.010343105884005263
1.85050e-06;0.010327788188789919
1.85075e-06;0.010312470493574574
1.85100e-06;0.010297152798359216
1.85125e-06;0.010281835103143872
1.85150e-06;0.010266517407928515
1.85175e-06;0.01025119971271317
1.85200e-06;0.010235882017497826
1.85225e-06;0.010220564322282468
1.85250e-06;0.010205246627067123
1.85275e-06;0.010194258749950924
1.85300e-06;0.01018792459229032
1.85325e-06;0.010181590434629711
1.85350e-06;0.010175256276969108
1.85375e-06;0.010168922119308504
1.85400e-06;0.010162587961647896
1.85425e-06;0.010156253803987292
1.85450e-06;0.010149919646326683
1.85475e-06;0.01014358548866608
1.85500e-06;0.010137251331005476
1.85525e-06;0.010130917173344868
1.85550e-06;0.010124583015684264
1.85575e-06;0.010118248858023655
1.85600e-06;0.010111914700363052
1.85625e-06;0.010105580542702448
1.85650e-06;0.01009924638504184
1.85675e-06;0.010092912227381236
1.85700e-06;0.010086578069720626
1.85725e-06;0.010080243912060022
1.85750e-06;0.010073909754399413
1.85775e-06;0.01006757559673881
1.85800e-06;0.010061241439078206
1.85825e-06;0.010054907281417598
1.85850e-06;0.010048573123756994
1.85875e-06;0.010040158018530853
1.85900e-06;0.01002950629598046
1.85925e-06;0.010018854573430068
1.85950e-06;0.010008202850879666
1.85975e-06;0.009997551128329275
1.86000e-06;0.009986899405778873
1.86025e-06;0.009976247683228481
1.86050e-06;0.009965595960678088
1.86075e-06;0.009954944238127688
1.86100e-06;0.009944292515577295
1.86125e-06;0.009933640793026895
1.86150e-06;0.009922989070476501
1.86175e-06;0.009912337347926101
1.86200e-06;0.009901685625375708
1.86225e-06;0.009891033902825317
1.86250e-06;0.009880382180274915
1.86275e-06;0.009869730457724523
1.86300e-06;0.009859078735174122
1.86325e-06;0.00984842701262373
1.86350e-06;0.009837775290073337
1.86375e-06;0.009828373675692803
1.86400e-06;0.009820315686512716
1.86425e-06;0.00981225769733262
1.86450e-06;0.009804199708152533
1.86475e-06;0.009796141718972444
1.86500e-06;0.00978808372979235
1.86525e-06;0.009780025740612262
1.86550e-06;0.009771967751432166
1.86575e-06;0.009763909762252079
1.86600e-06;0.009755851773071984
1.86625e-06;0.009747793783891895
1.86650e-06;0.009739735794711808
1.86675e-06;0.009731677805531712
1.86700e-06;0.009723619816351625
1.86725e-06;0.00971556182717153
1.86750e-06;0.009707503837991441
1.86775e-06;0.009699445848811354
1.86800e-06;0.00969138785963126
1.86825e-06;0.00968332987045117
1.86850e-06;0.009675271881271076
1.86875e-06;0.00967375656454809
1.86900e-06;0.009679273358968147
1.86925e-06;0.009684790153388209
1.86950e-06;0.009690306947808267
1.86975e-06;0.00969582374222833
1.87000e-06;0.009701340536648388
1.87025e-06;0.00970685733106845
1.87050e-06;0.009712374125488508
1.87075e-06;0.009717890919908566
1.87100e-06;0.009723407714328629
1.87125e-06;0.009728924508748687
1.87150e-06;0.009734441303168749
1.87175e-06;0.009739958097588807
1.87200e-06;0.009745474892008865
1.87225e-06;0.009750991686428928
1.87250e-06;0.009756508480848986
1.87275e-06;0.00976617796384838
1.87300e-06;0.00977592368378112
1.87325e-06;0.009785669403713861
1.87350e-06;0.009795415123646609
1.87375e-06;0.00980516084357935
1.87400e-06;0.009814906563512098
1.87425e-06;0.009824652283444838
1.87450e-06;0.009834398003377588
1.87475e-06;0.009844143723310328
1.87500e-06;0.009853889443243068
1.87525e-06;0.009863635163175817
1.87550e-06;0.009873380883108558
1.87575e-06;0.009883126603041307
1.87600e-06;0.009892872322974047
1.87625e-06;0.009902618042906788
1.87650e-06;0.009913551752933942
1.87675e-06;0.009925762323209726
1.87700e-06;0.00993797289348552
1.87725e-06;0.009950183463761303
1.87750e-06;0.009962394034037087
1.87775e-06;0.00997460460431288
1.87800e-06;0.009986815174588664
1.87825e-06;0.009999025744864458
1.87850e-06;0.010011236315140242
1.87875e-06;0.010030605693565937
1.87900e-06;0.010057669410182856
1.87925e-06;0.010084733126799751
1.87950e-06;0.010111796843416669
1.87975e-06;0.010138860560033564
1.88000e-06;0.010165924276650484
1.88025e-06;0.010192987993267379
1.88050e-06;0.010220051709884274
1.88075e-06;0.010247115426501193
1.88100e-06;0.01028057480185938
1.88125e-06;0.010320908276967146
1.88150e-06;0.010361241752074877
1.88175e-06;0.010401575227182606
1.88200e-06;0.010441908702290371
1.88225e-06;0.0104822421773981
1.88250e-06;0.010522575652505866
1.88275e-06;0.010562909127613597
1.88300e-06;0.010603242602721327
1.88325e-06;0.010643576077829092
1.88350e-06;0.010683909552936823
1.88375e-06;0.010724243028044587
1.88400e-06;0.010759831587011385
1.88425e-06;0.010795333036663756
1.88450e-06;0.010830834486316098
1.88475e-06;0.01086633593596844
1.88500e-06;0.01090183738562081
1.88525e-06;0.010937338835273152
1.88550e-06;0.010972840284925523
1.88575e-06;0.011008341734577865
1.88600e-06;0.011043843184230207
1.88625e-06;0.011079344633882578
1.88650e-06;0.01111484608353492
1.88675e-06;0.011140422861059167
1.88700e-06;0.011155332530010588
1.88725e-06;0.011170242198962009
1.88750e-06;0.011185151867913442
1.88775e-06;0.011200061536864862
1.88800e-06;0.011214971205816295
1.88825e-06;0.011229880874767716
1.88850e-06;0.01124479054371915
1.88875e-06;0.011259700212670571
1.88900e-06;0.011274609881621992
1.88925e-06;0.011289519550573425
1.88950e-06;0.011304429219524846
1.88975e-06;0.01131933888847628
1.89000e-06;0.011334248557427701
1.89025e-06;0.011349158226379122
1.89050e-06;0.011364067895330555
1.89075e-06;0.011378977564281976
1.89100e-06;0.011393887233233408
1.89125e-06;0.01140879690218483
1.89150e-06;0.011412701771148445
1.89175e-06;0.011416404609021597
1.89200e-06;0.011420107446894747
1.89225e-06;0.0114238102847679
1.89250e-06;0.01142751312264105
1.89275e-06;0.011431215960514203
1.89300e-06;0.011434918798387352
1.89325e-06;0.011438621636260502
1.89350e-06;0.011442324474133654
1.89375e-06;0.011446027312006803
1.89400e-06;0.011449730149879957
1.89425e-06;0.011453432987753106
1.89450e-06;0.011457135825626257
1.89475e-06;0.01146083866349941
1.89500e-06;0.011464541501372558
1.89525e-06;0.011468244339245712
1.89550e-06;0.011471947177118861
1.89575e-06;0.01147565001499201
1.89600e-06;0.01147541148571255
1.89625e-06;0.011470936746833686
1.89650e-06;0.01146646200795482
1.89675e-06;0.011461987269075956
1.89700e-06;0.011457512530197089
1.89725e-06;0.011453037791318225
1.89750e-06;0.011448563052439362
1.89775e-06;0.011433047091445004
1.89800e-06;0.011405663945967913
1.89825e-06;0.0113782808004908
1.89850e-06;0.011350897655013709
1.89875e-06;0.01132351450953662
1.89900e-06;0.011296131364059504
1.89925e-06;0.011268748218582415
1.89950e-06;0.01122708500529313
1.89975e-06;0.011170073473006328
1.90000e-06;0.011113061940719524
1.90025e-06;0.011056050408432673
1.90050e-06;0.01099903887614587
1.90075e-06;0.01094202734385902
1.90100e-06;0.010885015811572215
1.90125e-06;0.010828004279285364
1.90150e-06;0.010770992746998562
1.90175e-06;0.010704475455029118
1.90200e-06;0.01062774130457962
