Time(s);Current(A)
3.50000e-06;0.0011189451321813521
3.50025e-06;0.0011458031558595695
3.50050e-06;0.0011733116201133801
3.50075e-06;0.0012060048215028264
3.50100e-06;0.0012386980228922169
3.50125e-06;0.0012713912242816629
3.50150e-06;0.001304084425671109
3.50175e-06;0.001336777627060555
3.50200e-06;0.0013694708284499456
3.50225e-06;0.0014050255309332733
3.50250e-06;0.0014423984491596761
3.50275e-06;0.0014797713673860157
3.50300e-06;0.0015171442856124185
3.50325e-06;0.0015545172038388213
3.50350e-06;0.0015918901220652241
3.50375e-06;0.0016289771617284702
3.50400e-06;0.001663785430266215
3.50425e-06;0.00169859369880396
3.50450e-06;0.0017334019673416459
3.50475e-06;0.0017682102358793908
3.50500e-06;0.0018030185044171356
3.50525e-06;0.0018378267729548215
3.50550e-06;0.0018726350414925664
3.50575e-06;0.0019060883107892303
3.50600e-06;0.0019287407242524503
3.50625e-06;0.001951393137715632
3.50650e-06;0.001974045551178852
3.50675e-06;0.001996697964642072
3.50700e-06;0.0020193503781052533
3.50725e-06;0.0020420027915684733
3.50750e-06;0.0020646552050316933
3.50775e-06;0.0020855616084807793
3.50800e-06;0.00209255036395242
3.50825e-06;0.0020995391194240723
3.50850e-06;0.002106527874895725
3.50875e-06;0.0021135166303673657
3.50900e-06;0.002120505385839018
3.50925e-06;0.0021274941413106704
3.50950e-06;0.0021344828967823112
3.50975e-06;0.0021414716522539633
3.51000e-06;0.002148460407725616
3.51025e-06;0.0021554491631972685
3.51050e-06;0.002154596075124337
3.51075e-06;0.0021487602304770185
3.51100e-06;0.0021429243858297003
3.51125e-06;0.0021370885411823924
3.51150e-06;0.002131252696535074
3.51175e-06;0.002125416851887756
3.51200e-06;0.002119581007240438
3.51225e-06;0.0021137451625931297
3.51250e-06;0.0021079093179458114
3.51275e-06;0.0021020734732984936
3.51300e-06;0.002095755211640537
3.51325e-06;0.002085591548135779
3.51350e-06;0.0020754278846310207
3.51375e-06;0.0020652642211262794
3.51400e-06;0.0020551005576215212
3.51425e-06;0.002044936894116763
3.51450e-06;0.002034773230612005
3.51475e-06;0.0020246095671072636
3.51500e-06;0.0020144459036025054
3.51525e-06;0.0020042822400977473
3.51550e-06;0.001994118576593006
3.51575e-06;0.001983954913088248
3.51600e-06;0.0019737912495834896
3.51625e-06;0.0019638110696610723
3.51650e-06;0.0019551241623006546
3.51675e-06;0.001946437254940222
3.51700e-06;0.0019377503475797896
3.51725e-06;0.001929063440219372
3.51750e-06;0.0019203765328589396
3.51775e-06;0.0019116896254985072
3.51800e-06;0.0019030027181380896
3.51825e-06;0.0018943158107776572
3.51850e-06;0.0018856289034172248
3.51875e-06;0.0018769419960567924
3.51900e-06;0.0018682550886963748
3.51925e-06;0.0018595681813359424
3.51950e-06;0.001850065977698974
3.51975e-06;0.001835429157140715
3.52000e-06;0.0018207923365824309
3.52025e-06;0.0018061555160241469
3.52050e-06;0.0017915186954658628
3.52075e-06;0.0017768818749076037
3.52100e-06;0.0017622450543493197
3.52125e-06;0.0017476082337910357
3.52150e-06;0.0017329714132327766
3.52175e-06;0.0017183345926744926
3.52200e-06;0.001703150743934776
3.52225e-06;0.0016866579102086969
3.52250e-06;0.00167016507648259
3.52275e-06;0.0016536722427564828
3.52300e-06;0.0016371794090303759
3.52325e-06;0.0016206865753042967
3.52350e-06;0.0016041937415781895
3.52375e-06;0.0015877009078520826
3.52400e-06;0.0015712080741260034
3.52425e-06;0.0015547152403998963
3.52450e-06;0.0015403796813254832
3.52475e-06;0.0015286549454492041
3.52500e-06;0.0015169302095729446
3.52525e-06;0.0015052054736966656
3.52550e-06;0.0014934807378203863
3.52575e-06;0.0014817560019441268
3.52600e-06;0.0014700312660678478
3.52625e-06;0.0014583065301915685
3.52650e-06;0.001446581794315309
3.52675e-06;0.00143485705843903
3.52700e-06;0.0014231323225627507
3.52725e-06;0.0014114075866864715
3.52750e-06;0.0013996828508102122
3.52775e-06;0.001387958114933933
3.52800e-06;0.0013797932483555566
3.52825e-06;0.0013759366831509812
3.52850e-06;0.001372080117946399
3.52875e-06;0.0013682235527418172
3.52900e-06;0.0013643669875372415
3.52925e-06;0.0013605104223326596
3.52950e-06;0.0013566538571280775
3.52975e-06;0.0013527972919234956
3.53000e-06;0.00134894072671892
3.53025e-06;0.001345084161514338
3.53050e-06;0.0013412275963097559
3.53075e-06;0.0013373710311051805
3.53100e-06;0.0013335144659005983
3.53125e-06;0.0013296579006960162
3.53150e-06;0.0013275990824364952
3.53175e-06;0.0013277159720429664
3.53200e-06;0.001327832861649438
3.53225e-06;0.0013279497512559094
3.53250e-06;0.0013280666408623807
3.53275e-06;0.0013281835304688521
3.53300e-06;0.0013283004200753236
3.53325e-06;0.0013284173096817949
3.53350e-06;0.0013285341992882664
3.53375e-06;0.0013286510888947378
3.53400e-06;0.001328767978501209
3.53425e-06;0.0013288848681076804
3.53450e-06;0.0013290017577141518
3.53475e-06;0.0013291186473206233
3.53500e-06;0.0013306001969315992
3.53525e-06;0.001332149891825688
3.53550e-06;0.001333699586719777
3.53575e-06;0.0013352492816138658
3.53600e-06;0.0013367989765079523
3.53625e-06;0.0013383486714020412
3.53650e-06;0.00133989836629613
3.53675e-06;0.0013414480611902164
3.53700e-06;0.0013429977560843053
3.53725e-06;0.0013445474509783944
3.53750e-06;0.0013460971458724806
3.53775e-06;0.0013476468407665695
3.53800e-06;0.0013491965356606584
3.53825e-06;0.0013531556044207387
3.53850e-06;0.0013600305972973235
3.53875e-06;0.0013669055901739202
3.53900e-06;0.0013737805830505167
3.53925e-06;0.0013806555759271015
3.53950e-06;0.0013875305688036983
3.53975e-06;0.0013944055616802948
3.54000e-06;0.0014012805545568913
3.54025e-06;0.0014081555474334763
3.54050e-06;0.0014150305403100728
3.54075e-06;0.0014219055331866693
3.54100e-06;0.0014287805260632543
3.54125e-06;0.0014401449613991226
3.54150e-06;0.0014517335802872787
3.54175e-06;0.0014633221991754153
3.54200e-06;0.0014749108180635714
3.54225e-06;0.0014864994369517275
3.54250e-06;0.0014980880558398836
3.54275e-06;0.0015096766747280201
3.54300e-06;0.0015212652936161762
3.54325e-06;0.0015328539125043323
3.54350e-06;0.001544442531392469
3.54375e-06;0.001556031150280625
3.54400e-06;0.00156741823579535
3.54425e-06;0.0015785614172683679
3.54450e-06;0.0015897045987413672
3.54475e-06;0.0016008477802143851
3.54500e-06;0.001611990961687403
3.54525e-06;0.0016231341431604022
3.54550e-06;0.0016342773246334201
3.54575e-06;0.0016454205061064383
3.54600e-06;0.0016544828673034598
3.54625e-06;0.0016634413212368569
3.54650e-06;0.0016723997751702537
3.54675e-06;0.0016813582291036507
3.54700e-06;0.0016903166830370324
3.54725e-06;0.0016992751369704292
3.54750e-06;0.0017082335909038263
3.54775e-06;0.0017198065193187743
3.54800e-06;0.001734543593116507
3.54825e-06;0.0017492806669142395
3.54850e-06;0.0017640177407119721
3.54875e-06;0.0017787548145096798
3.54900e-06;0.0017934918883074124
3.54925e-06;0.001808228962105145
3.54950e-06;0.0018229660359028524
3.54975e-06;0.001837703109700585
3.55000e-06;0.0018524401834983176
3.55025e-06;0.0018671772572960252
3.55050e-06;0.0018819143310937578
3.55075e-06;0.0019002290951243579
3.55100e-06;0.0019228737281635692
3.55125e-06;0.001945518361202742
3.55150e-06;0.0019681629942419534
3.55175e-06;0.0019908076272811643
3.55200e-06;0.0020134522603203375
3.55225e-06;0.0020360968933595485
3.55250e-06;0.00205874152639876
3.55275e-06;0.0020813861594379712
3.55300e-06;0.002104030792477144
3.55325e-06;0.0021266754255163554
3.55350e-06;0.0021493200585555663
3.55375e-06;0.0021719231211170783
3.55400e-06;0.00219447587336354
3.55425e-06;0.002217028625610002
3.55450e-06;0.0022395813778564254
3.55475e-06;0.0022621341301028875
3.55500e-06;0.002284686882349349
3.55525e-06;0.0023072396345958112
3.55550e-06;0.0023297923868422347
3.55575e-06;0.0023444607595291987
3.55600e-06;0.002358735420027104
3.55625e-06;0.002373010080524985
3.55650e-06;0.0023872847410228906
3.55675e-06;0.0024015594015207964
3.55700e-06;0.0024158340620187018
3.55725e-06;0.002430108722516583
3.55750e-06;0.0024350841660579943
3.55775e-06;0.002428805311802379
3.55800e-06;0.0024225264575467743
3.55825e-06;0.002416247603291159
3.55850e-06;0.002409968749035544
3.55875e-06;0.0024036898947799395
3.55900e-06;0.0023974110405243242
3.55925e-06;0.002391132186268709
3.55950e-06;0.002384853332013094
3.55975e-06;0.002378574477757489
3.56000e-06;0.002350429421769545
3.56025e-06;0.0023211924612016113
3.56050e-06;0.0022919555006337268
3.56075e-06;0.002262718540065793
3.56100e-06;0.002233481579497859
3.56125e-06;0.002204244618929925
3.56150e-06;0.0021750076583620407
3.56175e-06;0.0021457706977941068
3.56200e-06;0.0021165337372261728
3.56225e-06;0.002082171417746756
3.56250e-06;0.002041606176475264
3.56275e-06;0.002001040935203772
3.56300e-06;0.001960475693932349
3.56325e-06;0.0019199104526608569
3.56350e-06;0.001879345211389365
3.56375e-06;0.0018387799701178732
3.56400e-06;0.001798553232447131
3.56425e-06;0.0017583433981981625
3.56450e-06;0.001718133563949194
3.56475e-06;0.0016779237297002935
3.56500e-06;0.001637713895451325
3.56525e-06;0.0015975040612023566
3.56550e-06;0.001560075819731713
3.56575e-06;0.0015260139771337497
3.56600e-06;0.0014919521345357286
3.56625e-06;0.0014609658137849273
3.56650e-06;0.0014337016170488561
3.56675e-06;0.001406437420312739
3.56700e-06;0.001381727549689553
3.56725e-06;0.0013601090304007914
3.56750e-06;0.0013384905111119931
3.56775e-06;0.0013194042839589383
3.56800e-06;0.0013033827417078283
3.56825e-06;0.0012873611994567453
3.56850e-06;0.0012740522943721058
3.56875e-06;0.0012640263352206192
3.56900e-06;0.0012540003760691497
3.56925e-06;0.0012460696111284244
3.56950e-06;0.0012406745370638884
3.56975e-06;0.0012352794629993526
3.57000e-06;0.0012332890825997836
3.57025e-06;0.001235419203592445
3.57050e-06;0.001237549324585106
3.57075e-06;0.0012396794455777637
3.57100e-06;0.001241809566570425
3.57125e-06;0.0012439396875630862
3.57150e-06;0.0012460698085557439
3.57175e-06;0.0012481999295484052
3.57200e-06;0.0012570117972918377
3.57225e-06;0.0012661573228863931
3.57250e-06;0.0012753028484809332
3.57275e-06;0.0012844483740754886
3.57300e-06;0.001293593899670044
3.57325e-06;0.001302739425264584
3.57350e-06;0.0013118849508591394
3.57375e-06;0.0013218970455628279
3.57400e-06;0.001332652396587751
3.57425e-06;0.0013430380169954935
3.57450e-06;0.0013534236374032537
3.57475e-06;0.0013638092578110138
3.57500e-06;0.0013741948782187564
3.57525e-06;0.0013845804986265164
3.57550e-06;0.0013949661190342767
3.57575e-06;0.0014053517394420191
3.57600e-06;0.0014157373598497793
3.57625e-06;0.0014261229802575394
3.57650e-06;0.0014337865547272709
3.57675e-06;0.0014381557963784118
3.57700e-06;0.0014425250380295602
3.57725e-06;0.0014468942796807085
3.57750e-06;0.0014512635213318496
3.57775e-06;0.0014556327629829979
3.57800e-06;0.001460002004634146
3.57825e-06;0.0014643712462852946
3.57850e-06;0.0014687404879364355
3.57875e-06;0.0014731097295875837
3.57900e-06;0.0014741065397535608
3.57925e-06;0.0014710218935543278
3.57950e-06;0.0014679372473550896
3.57975e-06;0.0014648526011558514
3.58000e-06;0.0014617679549566184
3.58025e-06;0.0014586833087573805
3.58050e-06;0.0014555986625581423
3.58075e-06;0.001452514016358904
3.58100e-06;0.001449429370159671
3.58125e-06;0.0014463447239604329
3.58150e-06;0.0014432600777611946
3.58175e-06;0.0014381375528253976
3.58200e-06;0.0014305487025757754
3.58225e-06;0.0014229598523261531
3.58250e-06;0.001415371002076531
3.58275e-06;0.0014077821518269217
3.58300e-06;0.0014001933015772995
3.58325e-06;0.0013926044513276772
3.58350e-06;0.001385015601078068
3.58375e-06;0.0013774267508284458
3.58400e-06;0.0013698379005788236
3.58425e-06;0.0013622490503292144
3.58450e-06;0.0013549082537691528
3.58475e-06;0.001347867662065632
3.58500e-06;0.0013408270703621108
3.58525e-06;0.001333786478658602
3.58550e-06;0.001326745886955081
3.58575e-06;0.0013197052952515602
3.58600e-06;0.0013126647035480513
3.58625e-06;0.0013056241118445304
3.58650e-06;0.0012985835201410095
3.58675e-06;0.001291746202850044
3.58700e-06;0.0012851548966785716
3.58725e-06;0.0012785635905070882
3.58750e-06;0.0012719722843356047
3.58775e-06;0.0012653809781641326
3.58800e-06;0.001258789671992649
3.58825e-06;0.0012521983658211656
3.58850e-06;0.0012456070596496933
3.58875e-06;0.0012390157534782097
3.58900e-06;0.001230927693575279
3.58925e-06;0.0012210282002684046
3.58950e-06;0.001211128706961547
3.58975e-06;0.0012012292136546726
3.59000e-06;0.001191329720347798
3.59025e-06;0.0011814302270409405
3.59050e-06;0.001171530733734066
3.59075e-06;0.0011616312404271916
3.59100e-06;0.0011517317471203172
3.59125e-06;0.0011418322538134596
3.59150e-06;0.001131932760506585
3.59175e-06;0.0011197715354142959
3.59200e-06;0.001107497369111294
3.59225e-06;0.0010952232028082715
3.59250e-06;0.001082949036505249
3.59275e-06;0.0010706748702022473
3.59300e-06;0.0010584007038992246
3.59325e-06;0.001046126537596202
3.59350e-06;0.0010338523712931796
3.59375e-06;0.0010215782049901778
3.59400e-06;0.0010093040386871552
3.59425e-06;0.000997623284886131
3.59450e-06;0.000986660703491111
3.59475e-06;0.0009756981220960724
3.59500e-06;0.000964735540701034
3.59525e-06;0.0009537729593059954
3.59550e-06;0.0009428103779109754
3.59575e-06;0.0009318477965159368
3.59600e-06;0.0009220185491025473
3.59625e-06;0.0009135609094487938
3.59650e-06;0.0009051032697950259
3.59675e-06;0.000896645630141258
3.59700e-06;0.0008881879904875045
3.59725e-06;0.0008797303508337366
3.59750e-06;0.0008712727111799688
3.59775e-06;0.0008620158045374829
3.59800e-06;0.0008517915918568109
3.59825e-06;0.0008415673791761216
3.59850e-06;0.0008313431664954323
3.59875e-06;0.0008211189538147603
3.59900e-06;0.0008108947411340709
3.59925e-06;0.0008006705284533816
3.59950e-06;0.0007904463157726924
3.59975e-06;0.0007802221030920204
3.60000e-06;0.0007699978904113311
3.60025e-06;0.0007597736777306417
3.60050e-06;0.0007479912263339267
3.60075e-06;0.000734322929856254
3.60100e-06;0.0007206546333785812
3.60125e-06;0.0007069863369009317
3.60150e-06;0.0006933180404232589
3.60175e-06;0.0006796497439455862
3.60200e-06;0.0006659814474679135
3.60225e-06;0.0006523131509902639
3.60250e-06;0.0006386448545125912
3.60275e-06;0.0006249765580349184
3.60300e-06;0.0006113082615572689
3.60325e-06;0.0005973953276806744
3.60350e-06;0.0005831863234840257
3.60375e-06;0.0005689773192874009
3.60400e-06;0.0005547683150907521
3.60425e-06;0.0005405593108941033
3.60450e-06;0.0005263503066974545
3.60475e-06;0.0005131204779620145
3.60500e-06;0.0005010756879551509
3.60525e-06;0.0004890308979482873
3.60550e-06;0.0004769861079414442
3.60575e-06;0.0004649413179345806
3.60600e-06;0.000452896527927717
3.60625e-06;0.00044229603220540236
3.60650e-06;0.00043344348129028534
3.60675e-06;0.0004245909303751534
3.60700e-06;0.00041698007308013467
3.60725e-06;0.00041087196487069895
3.60750e-06;0.0004058497981538585
3.60775e-06;0.0004021418828421761
3.60800e-06;0.0003995291066723451
3.60825e-06;0.0003982417132840056
3.60850e-06;0.00039807387198194724
3.60875e-06;0.0003992609590186175
3.60900e-06;0.00040160493519870647
3.60925e-06;0.0004053490265716466
3.60950e-06;0.0004101937414399198
3.60975e-06;0.0004163704764815724
3.61000e-06;0.0004237973500381863
3.61025e-06;0.0004327371930421349
3.61050e-06;0.0004416770360460834
3.61075e-06;0.0004519705245868241
3.61100e-06;0.0004639022510630017
3.61125e-06;0.00047583397753917927
3.61150e-06;0.0004888723539350933
3.61175e-06;0.0005032500439330693
3.61200e-06;0.0005176277339310454
3.61225e-06;0.0005330209049762594
3.61250e-06;0.0005496430532752284
3.61275e-06;0.0005662652015741972
3.61300e-06;0.0005828873498731661
3.61325e-06;0.0005995094981721068
3.61350e-06;0.0006161316464710757
3.61375e-06;0.0006328927405034004
3.61400e-06;0.0006498219924213201
3.61425e-06;0.0006667512443392684
3.61450e-06;0.0006836804962572167
3.61475e-06;0.0007006097481751651
3.61500e-06;0.0007175390000930847
3.61525e-06;0.0007329490926803706
3.61550e-06;0.0007465206356785256
3.61575e-06;0.0007600921786766575
3.61600e-06;0.0007736637216748125
3.61625e-06;0.0007872352646729674
3.61650e-06;0.0008008068076710994
3.61675e-06;0.0008130936161766339
3.61700e-06;0.0008238255857486167
3.61725e-06;0.0008345575553205995
3.61750e-06;0.0008452895248925641
3.61775e-06;0.000856021494464547
3.61800e-06;0.0008667534640365299
3.61825e-06;0.0008774406454814011
3.61850e-06;0.0008880736224784717
3.61875e-06;0.0008987065994755423
3.61900e-06;0.0009093395764726129
3.61925e-06;0.0009199725534696655
3.61950e-06;0.0009306055304667361
3.61975e-06;0.0009412385074638067
3.62000e-06;0.0009518714844608592
3.62025e-06;0.0009625044614579299
3.62050e-06;0.0009731374384550004
3.62075e-06;0.000983770415452053
3.62100e-06;0.0009944033924491236
3.62125e-06;0.001005036369446194
3.62150e-06;0.0010159044630928022
3.62175e-06;0.0010270571046539522
3.62200e-06;0.0010382097462151212
3.62225e-06;0.0010493623877762901
3.62250e-06;0.00106051502933744
3.62275e-06;0.001071667670898609
3.62300e-06;0.0010828203124597778
3.62325e-06;0.0010939729540209466
3.62350e-06;0.0011051255955820966
3.62375e-06;0.0011162782371432656
3.62400e-06;0.0011274308787044345
3.62425e-06;0.0011385835202655844
3.62450e-06;0.0011497361618267533
3.62475e-06;0.001159929901251511
3.62500e-06;0.0011689631375654441
3.62525e-06;0.0011779963738793927
3.62550e-06;0.0011870296101933412
3.62575e-06;0.0011960628465072897
3.62600e-06;0.001205096082821223
3.62625e-06;0.0012131436897074486
3.62650e-06;0.0012211420784760468
3.62675e-06;0.0012291404672446315
3.62700e-06;0.00123713885601323
3.62725e-06;0.0012451372447818282
3.62750e-06;0.0012569378016938746
3.62775e-06;0.001273339900088421
3.62800e-06;0.0012897419984829951
3.62825e-06;0.0013061440968775695
3.62850e-06;0.001322546195272116
3.62875e-06;0.00133894829366669
3.62900e-06;0.0013553503920612645
3.62925e-06;0.001371752490455811
3.62950e-06;0.001388154588850385
3.62975e-06;0.0014045566872449595
3.63000e-06;0.0014209587856395336
3.63025e-06;0.0014492156777637388
3.63050e-06;0.0014780645475785004
3.63075e-06;0.0015069134173932618
3.63100e-06;0.0015357622872079746
3.63125e-06;0.001564611157022736
3.63150e-06;0.0015934600268374976
3.63175e-06;0.0016223088966522592
3.63200e-06;0.0016511577664669718
3.63225e-06;0.0016800066362817334
3.63250e-06;0.001708855506096495
3.63275e-06;0.0017396934784651911
3.63300e-06;0.001772938745190807
3.63325e-06;0.0018061840119164229
3.63350e-06;0.0018394292786419824
3.63375e-06;0.0018726745453675983
3.63400e-06;0.0019059198120932141
3.63425e-06;0.00193916507881883
3.63450e-06;0.0019724103455443895
3.63475e-06;0.0020005321670615766
3.63500e-06;0.0020283981456403065
3.63525e-06;0.0020562641242189887
3.63550e-06;0.0020841301027977183
3.63575e-06;0.0021119960813764478
3.63600e-06;0.0021398620599551773
3.63625e-06;0.00216772803853386
3.63650e-06;0.002188072573472839
3.63675e-06;0.0021993143455634545
3.63700e-06;0.002210556117654051
3.63725e-06;0.002221797889744666
3.63750e-06;0.0022330396618352815
3.63775e-06;0.002244281433925878
3.63800e-06;0.0022555232060164935
3.63825e-06;0.002266764978107109
3.63850e-06;0.002278006750197724
3.63875e-06;0.0022892485222883205
3.63900e-06;0.002300490294378936
3.63925e-06;0.002311732066469551
3.63950e-06;0.0023049239142113953
3.63975e-06;0.0022972144259387267
3.64000e-06;0.002289504937666058
3.64025e-06;0.0022817954493933893
3.64050e-06;0.0022740859611207337
3.64075e-06;0.002266376472848065
3.64100e-06;0.0022586669845753964
3.64125e-06;0.002250957496302741
3.64150e-06;0.0022432480080300725
3.64175e-06;0.002235538519757404
3.64200e-06;0.002227829031484748
3.64225e-06;0.0022159349733727345
3.64250e-06;0.0021989765753952406
3.64275e-06;0.0021820181774177467
3.64300e-06;0.002165059779440281
3.64325e-06;0.002148101381462787
3.64350e-06;0.002131142983485293
3.64375e-06;0.002114184585507828
3.64400e-06;0.0020972261875303335
3.64425e-06;0.0020802677895528396
3.64450e-06;0.002064239818915017
3.64475e-06;0.0020482583098387235
3.64500e-06;0.0020322768007624034
3.64525e-06;0.0020162952916860833
3.64550e-06;0.00200031378260979
3.64575e-06;0.00198433227353347
3.64600e-06;0.0019683507644571497
3.64625e-06;0.0019523692553808565
3.64650e-06;0.0019405664398869336
3.64675e-06;0.0019338208525689425
3.64700e-06;0.0019270752652509513
3.64725e-06;0.0019203296779329716
3.64750e-06;0.0019135840906149804
3.64775e-06;0.0019068385032969893
