Time(s);Current(A)
1.22500e-05;0.0011434395358107562
1.22503e-05;0.0011172927709439257
1.22505e-05;0.001091146006076918
1.22508e-05;0.0010649992412099102
1.22510e-05;0.0010432599711313899
1.22513e-05;0.0010248771436461436
1.22515e-05;0.0010064943161608973
1.22518e-05;0.0009881114886757755
1.22520e-05;0.0009697286611905293
1.22523e-05;0.0009513458337052829
1.22525e-05;0.0009329630062201612
1.22528e-05;0.0009167890243146683
1.22530e-05;0.0009022971461308437
1.22532e-05;0.0008878052679471172
1.22535e-05;0.0008733133897632925
1.22538e-05;0.0008588215115794679
1.22540e-05;0.0008443296333956431
1.22543e-05;0.0008298377552119167
1.22545e-05;0.0008168280340699191
1.22548e-05;0.0008049470210183124
1.22550e-05;0.0007930660079667861
1.22553e-05;0.0007811849949151794
1.22555e-05;0.0007693039818635727
1.22558e-05;0.0007574229688120465
1.22560e-05;0.0007455419557604398
1.22563e-05;0.0007336609427088331
1.22565e-05;0.000721779929657307
1.22568e-05;0.0007098989166057002
1.22570e-05;0.0006980179035540935
1.22573e-05;0.0006861368905025673
1.22575e-05;0.00067585734777208
1.22578e-05;0.0006667973738572828
1.22580e-05;0.0006577373999425471
1.22583e-05;0.00064867742602775
1.22585e-05;0.000639617452112953
1.22588e-05;0.0006305574781982173
1.22590e-05;0.0006214975042834201
1.22593e-05;0.000612437530368623
1.22595e-05;0.0006033775564538873
1.22598e-05;0.0005943175825390901
1.22600e-05;0.000585257608624293
1.22603e-05;0.0005761976347095573
1.22605e-05;0.0005687013427815631
1.22608e-05;0.0005623958426926827
1.22610e-05;0.0005560903426038449
1.22613e-05;0.0005511241461131103
1.22615e-05;0.000547177870429977
1.22617e-05;0.0005449066673695754
1.22620e-05;0.000543911083537308
1.22623e-05;0.0005445451866741222
1.22625e-05;0.0005464203464704559
1.22628e-05;0.0005498569743192611
1.22630e-05;0.0005544827080282395
1.22633e-05;0.0005608605064043529
1.22635e-05;0.0005685725558140477
1.22638e-05;0.0005781788243007996
1.22640e-05;0.0005892275987685808
1.22643e-05;0.0006023521789862343
1.22645e-05;0.0006170575490113226
1.22648e-05;0.000631762919036411
1.22650e-05;0.0006486530677428371
1.22653e-05;0.0006672069924896485
1.22655e-05;0.0006857609172364598
1.22658e-05;0.000706315500633912
1.22660e-05;0.0007283936470158366
1.22663e-05;0.0007504717933977611
1.22665e-05;0.0007743602826879087
1.22668e-05;0.0007996274036819153
1.22670e-05;0.0008248945246759219
1.22673e-05;0.0008501616456697572
1.22675e-05;0.0008754287666637639
1.22678e-05;0.0009006958876577704
1.22680e-05;0.0009263754117460744
1.22683e-05;0.0009523689934521116
1.22685e-05;0.0009783625751581487
1.22688e-05;0.0010043561568640097
1.22690e-05;0.0010303497385700468
1.22693e-05;0.0010563433202760838
1.22695e-05;0.001080053979221597
1.22698e-05;0.001102026122397524
1.22700e-05;0.0011239982655734512
1.22702e-05;0.0011459704087492294
1.22705e-05;0.0011679425519251563
1.22708e-05;0.0011893627704177429
1.22710e-05;0.00120318097278869
1.22713e-05;0.0012169991751595434
1.22715e-05;0.0012308173775304905
1.22718e-05;0.0012446355799014376
1.22720e-05;0.0012584537822722909
1.22723e-05;0.0012690337286950608
1.22725e-05;0.0012750335678231358
1.22728e-05;0.001279423473193888
1.22730e-05;0.0012838133785646698
1.22733e-05;0.0012850639250643445
1.22735e-05;0.001283923753402374
1.22738e-05;0.0012827835817403959
1.22740e-05;0.0012787575632092487
1.22743e-05;0.0012725338836890871
1.22745e-05;0.0012663102041688833
1.22748e-05;0.0012559471472212845
1.22750e-05;0.0012424318272800767
1.22753e-05;0.0012289165073387774
1.22755e-05;0.0012154011873974782
1.22758e-05;0.0012018858674562704
1.22760e-05;0.001188370547514971
1.22763e-05;0.0011748552275736718
1.22765e-05;0.0011576350938853207
1.22768e-05;0.001137593630786965
1.22770e-05;0.0011175521676886095
1.22773e-05;0.0010975107045903894
1.22775e-05;0.0010774692414920338
1.22778e-05;0.0010574277783936782
1.22780e-05;0.001037386315295458
1.22783e-05;0.0010166603855841785
1.22785e-05;0.000995413213533323
1.22787e-05;0.0009741660414826117
1.22790e-05;0.0009529188694317563
1.22793e-05;0.0009316716973809009
1.22795e-05;0.0009106507423845073
1.22798e-05;0.0008927456213927809
1.22800e-05;0.0008748405004009331
1.22803e-05;0.0008569353794090854
1.22805e-05;0.0008390302584173591
1.22808e-05;0.0008211251374255113
1.22810e-05;0.0008060350714758634
1.22813e-05;0.0007930887563662213
1.22815e-05;0.0007828782527701643
1.22818e-05;0.0007747511536342461
1.22820e-05;0.0007695769472290751
1.22823e-05;0.0007666514592953848
1.22825e-05;0.00076660359032542
1.22828e-05;0.0007687471165423816
1.22830e-05;0.0007738211152745843
1.22833e-05;0.0007811267587958583
1.22835e-05;0.0007916805909296171
1.22838e-05;0.0008047080184148298
1.22840e-05;0.0008208419096720858
1.22843e-05;0.0008393414684634787
1.22845e-05;0.0008606226374697664
1.22848e-05;0.0008840220880531499
1.22850e-05;0.0009105837472919826
1.22853e-05;0.0009395535255056326
1.22855e-05;0.0009685233037192826
1.22858e-05;0.0010009154609151134
1.22860e-05;0.001035913864777232
1.22863e-05;0.0010709122686393508
1.22865e-05;0.0011091075826497306
1.22868e-05;0.0011497374418873516
1.22870e-05;0.001190367301124973
1.22872e-05;0.0012309971603623189
1.22875e-05;0.0012716270195999402
1.22878e-05;0.0013122568788375612
1.22880e-05;0.0013537580148555474
1.22883e-05;0.001395922654890742
1.22885e-05;0.0014380872949262223
1.22888e-05;0.0014802519349617026
1.22890e-05;0.001522416574996897
1.22893e-05;0.0015645812150323773
1.22895e-05;0.0016028147117752305
1.22898e-05;0.001638054522209512
1.22900e-05;0.0016732943326440324
1.22903e-05;0.0017085341430785527
1.22905e-05;0.0017437739535128341
1.22908e-05;0.0017790137639473545
1.22910e-05;0.0018048166187482019
1.22913e-05;0.0018234329421073863
1.22915e-05;0.001842049265466697
1.22918e-05;0.0018606655888260075
1.22920e-05;0.0018792819121851922
1.22923e-05;0.0018978982355445028
1.22925e-05;0.0019072152857531844
1.22928e-05;0.001909450653957788
1.22930e-05;0.0019116860221624066
1.22933e-05;0.0019074352677339959
1.22935e-05;0.0018982451317881403
1.22938e-05;0.0018890549958422223
1.22940e-05;0.0018736503572653056
1.22943e-05;0.0018535131841417843
1.22945e-05;0.0018333760110181266
1.22948e-05;0.0018077003672686343
1.22950e-05;0.0017778070080994729
1.22953e-05;0.001747913648930109
1.22955e-05;0.0017131593491254947
1.22957e-05;0.0016747032937900546
1.22960e-05;0.001636247238454354
1.22963e-05;0.001592915318703654
1.22965e-05;0.0015458702785056252
1.22968e-05;0.0014988252383072774
1.22970e-05;0.0014517801981089296
1.22973e-05;0.0014047351579105818
1.22975e-05;0.0013573692483621084
1.22978e-05;0.00130558379742539
1.22980e-05;0.0012537983464886717
1.22983e-05;0.001202012895552304
1.22985e-05;0.0011502274446155856
1.22988e-05;0.0010984419936788674
1.22990e-05;0.0010477905487410427
1.22993e-05;0.0009980026841863692
1.22995e-05;0.0009482148196316958
1.22998e-05;0.0009006082751739689
1.23000e-05;0.0008546628729391762
1.23003e-05;0.0008113553569284957
1.23005e-05;0.0007700566722647049
1.23008e-05;0.0007321329487353293
1.23010e-05;0.0006967793617263166
1.23013e-05;0.0006648718956665974
1.23015e-05;0.0006355887565104197
1.23018e-05;0.0006086603347696105
1.23020e-05;0.0005851542278579344
1.23023e-05;0.0005645852183004196
1.23025e-05;0.0005470718672225862
1.23028e-05;0.000532732652378346
1.23030e-05;0.0005216376502403118
1.23033e-05;0.0005136959848856767
1.23035e-05;0.0005086749461988272
1.23038e-05;0.0005063899850011119
1.23040e-05;0.0005067767119199387
1.23042e-05;0.0005098137128919212
1.23045e-05;0.0005154798003285206
1.23048e-05;0.0005244701761355322
1.23050e-05;0.0005351295704555967
1.23053e-05;0.0005483996229119365
1.23055e-05;0.0005636577716901665
1.23058e-05;0.000581065468955202
1.23060e-05;0.0006001101133872154
1.23063e-05;0.0006214594028693342
1.23065e-05;0.0006445637503131632
1.23068e-05;0.0006676680977568356
1.23070e-05;0.0006933022495741822
1.23073e-05;0.0007208629250909067
1.23075e-05;0.0007484236006074445
1.23078e-05;0.0007759842761241692
1.23080e-05;0.0008035449516408937
1.23083e-05;0.0008319186367108906
1.23085e-05;0.0008609114535167301
1.23088e-05;0.0008899042703225696
1.23090e-05;0.0009188970871282127
1.23093e-05;0.0009478899039340523
1.23095e-05;0.0009737572094233794
1.23098e-05;0.0009972443420867485
1.23100e-05;0.0010207314747502764
1.23103e-05;0.0010442186074138046
1.23105e-05;0.0010677057400771735
1.23108e-05;0.0010911928727407017
1.23110e-05;0.0011146800054042299
1.23113e-05;0.0011372843021390233
1.23115e-05;0.0011477287278063586
1.23118e-05;0.0011581731534736936
1.23120e-05;0.001168617579140958
1.23123e-05;0.001179062004808293
1.23125e-05;0.0011895064304756281
1.23127e-05;0.0011999508561428924
1.23130e-05;0.0012103952818102275
1.23133e-05;0.0012150900693740575
1.23135e-05;0.0012154063309983525
1.23138e-05;0.0012157225926226498
1.23140e-05;0.001213076477947826
1.23143e-05;0.0012081744227712082
1.23145e-05;0.0012032723675946234
1.23148e-05;0.0011955892584413752
1.23150e-05;0.001185788291301873
1.23153e-05;0.001175987324162437
1.23155e-05;0.0011628091777179759
1.23158e-05;0.0011470592055476136
1.23160e-05;0.0011313092333773583
1.23163e-05;0.0011155592612069963
1.23165e-05;0.001099809289036634
1.23168e-05;0.0010840593168663787
1.23170e-05;0.001068002172870044
1.23173e-05;0.0010477141523543728
1.23175e-05;0.001027426131838839
1.23178e-05;0.001007138111323168
1.23180e-05;0.0009868500908074968
1.23183e-05;0.0009665620702919631
1.23185e-05;0.000946274049776292
1.23188e-05;0.0009261705606055421
1.23190e-05;0.0009062075977195282
1.23193e-05;0.0008862446348333789
1.23195e-05;0.0008662816719472297
1.23198e-05;0.0008463187090612158
1.23200e-05;0.0008266842397160712
1.23203e-05;0.0008115743246837657
1.23205e-05;0.0007964644096515627
1.23208e-05;0.0007813544946192571
1.23210e-05;0.0007662445795869516
1.23212e-05;0.0007511346645547485
1.23215e-05;0.0007396851549809347
1.23218e-05;0.0007310231565450798
1.23220e-05;0.0007248298766198243
1.23223e-05;0.0007205166016346304
1.23225e-05;0.0007186461388240692
1.23228e-05;0.0007186359524834093
1.23230e-05;0.0007211182761863554
1.23233e-05;0.0007254987228122437
1.23235e-05;0.0007325570386546457
1.23238e-05;0.0007416546341209157
1.23240e-05;0.0007533067132699928
1.23243e-05;0.0007669041101708701
1.23245e-05;0.0007833514298258704
1.23248e-05;0.0008019690531562748
1.23250e-05;0.0008205866764866791
1.23253e-05;0.0008423124322992824
1.23255e-05;0.0008664051264228685
1.23258e-05;0.0008904978205464544
1.23260e-05;0.0009180479200743943
1.23263e-05;0.0009482309399670173
1.23265e-05;0.0009784139598596404
1.23268e-05;0.0010085969797520588
1.23270e-05;0.0010387799996446818
1.23273e-05;0.001068963019537305
1.23275e-05;0.0011011064397211988
1.23278e-05;0.0011347427649153886
1.23280e-05;0.0011683790901095786
1.23283e-05;0.0012020154153035408
1.23285e-05;0.0012356517404977306
1.23288e-05;0.0012692880656919206
1.23290e-05;0.0013012046926180777
1.23293e-05;0.0013318117165153482
1.23295e-05;0.0013624187404126184
1.23297e-05;0.0013930257643096813
1.23300e-05;0.0014236327882069517
1.23303e-05;0.0014542398121042222
1.23305e-05;0.0014786923739500046
1.23308e-05;0.0014984581239893735
1.23310e-05;0.0015182238740287424
1.23313e-05;0.0015379896240681112
1.23315e-05;0.001557755374107346
1.23318e-05;0.001577521124146715
1.23320e-05;0.0015898318083299862
1.23323e-05;0.0015964652309778695
1.23325e-05;0.0016030986536257976
1.23328e-05;0.0016043886301333988
1.23330e-05;0.0016016094083503235
1.23333e-05;0.0015988301865672292
1.23335e-05;0.0015904801552990603
1.23338e-05;0.0015778877815728486
1.23340e-05;0.0015652954078465514
1.23343e-05;0.0015475613754265928
1.23345e-05;0.0015259118120521209
1.23348e-05;0.0015042622486775021
1.23350e-05;0.0014780603737229606
1.23353e-05;0.0014483917737351383
1.23355e-05;0.0014187231737471148
1.23358e-05;0.0013851359981253424
1.23360e-05;0.0013485647068502678
1.23363e-05;0.0013119934155749453
1.23365e-05;0.0012718890023416542
1.23368e-05;0.0012290940082633677
1.23370e-05;0.0011862990141847912
1.23373e-05;0.0011435040201062145
1.23375e-05;0.001100709026027928
1.23378e-05;0.0010561699010990353
1.23380e-05;0.0010103025669790599
1.23382e-05;0.000964435232859395
1.23385e-05;0.0009185678987394195
1.23388e-05;0.000872700564619444
1.23390e-05;0.0008279288790593422
1.23393e-05;0.0007839915635158496
1.23395e-05;0.0007400542479723569
1.23398e-05;0.000698047312431549
1.23400e-05;0.0006575104205299581
1.23403e-05;0.0006193020257904955
1.23405e-05;0.0005828668531302192
1.23408e-05;0.000548605945715421
1.23410e-05;0.0005181377007515419
1.23413e-05;0.0004892967651953238
1.23415e-05;0.00046223208236346157
1.23418e-05;0.0004365200705158165
1.23420e-05;0.0004124413639314733
1.23423e-05;0.0003896064694514443
1.23425e-05;0.00036823586121875876
1.23428e-05;0.00034908427905229553
1.23430e-05;0.0003323294284194321
1.23433e-05;0.0003167595630650953
1.23435e-05;0.0003022711468004487
1.23438e-05;0.00028917287266623206
1.23440e-05;0.00027745251114498596
1.23443e-05;0.0002664528930468462
1.23445e-05;0.0002564970623721241
1.23448e-05;0.00024809680909120604
1.23450e-05;0.0002413316272081779
1.23453e-05;0.00023537044968683306
1.23455e-05;0.00023033434975218496
1.23458e-05;0.00022600272480190268
1.23460e-05;0.00022246620379787332
1.23463e-05;0.0002195351788604485
1.23465e-05;0.00021747563860335248
1.23467e-05;0.00021607976068699136
1.23470e-05;0.00021551747034758928
1.23473e-05;0.00021558998254117247
1.23475e-05;0.00021621580483532145
1.23478e-05;0.00021726298975898993
1.23480e-05;0.00021831017468265838
1.23483e-05;0.0002198712484584508
1.23485e-05;0.00022182366437271232
1.23488e-05;0.00022377608028698707
1.23490e-05;0.00022605992322065785
1.23493e-05;0.00022859615800517336
1.23495e-05;0.00023113239278970603
1.23498e-05;0.0002336686275742387
1.23500e-05;0.0002362048623587542
1.23503e-05;0.00023869063155928087
1.23505e-05;0.0002404813055815951
1.23508e-05;0.00024227197960389717
1.23510e-05;0.0002440626536262114
1.23513e-05;0.00024585332764852564
1.23515e-05;0.00024764400167082774
1.23518e-05;0.0002487461020659502
1.23520e-05;0.00024932383250307263
1.23523e-05;0.0002499015629401911
1.23525e-05;0.000249937479764067
1.23528e-05;0.00024956078888646463
1.23530e-05;0.00024918409800886486
1.23533e-05;0.0002482306552112051
1.23535e-05;0.00024683799811873997
1.23538e-05;0.0002454453410262843
1.23540e-05;0.00024348022770722533
1.23543e-05;0.0002410791713958216
1.23545e-05;0.00023867811508443418
1.23548e-05;0.00023552356321447589
1.23550e-05;0.00023179520134252268
1.23552e-05;0.00022806683947059476
1.23555e-05;0.00022433847759864155
1.23558e-05;0.00022061011572668837
1.23560e-05;0.00021688175385476042
1.23563e-05;0.00021307055693811804
1.23565e-05;0.0002081184192930706
1.23568e-05;0.00020316628164802317
1.23570e-05;0.00019821414400300927
1.23573e-05;0.00019326200635796183
1.23575e-05;0.00018830986871291438
1.23578e-05;0.00018335773106790048
1.23580e-05;0.0001782591338455616
1.23583e-05;0.00017304900315843588
1.23585e-05;0.00016783887247134548
1.23588e-05;0.00016262874178421977
1.23590e-05;0.0001574186110970941
1.23593e-05;0.00015225480329945104
1.23595e-05;0.00014772903066489606
1.23598e-05;0.00014320325803034105
1.23600e-05;0.00013867748539581672
1.23603e-05;0.00013415171276126174
1.23605e-05;0.00012962594012670676
1.23608e-05;0.00012572955179549852
1.23610e-05;0.00012231245893497741
1.23613e-05;0.00011889536607445628
1.23615e-05;0.00011581214015464502
1.23618e-05;0.00011298316416073794
1.23620e-05;0.00011046236906354698
1.23623e-05;0.00010817626318118603
1.23625e-05;0.0001058901572988096
1.23628e-05;0.00010403029435363822
1.23630e-05;0.00010249502849194864
1.23633e-05;0.00010095976263024866
1.23635e-05;9.976663223072516e-05
1.23637e-05;9.883404849012954e-05
1.23640e-05;9.790146474952761e-05
1.23643e-05;9.728233170265454e-05
1.23645e-05;9.69019009828402e-05
1.23648e-05;9.652147026302329e-05
1.23650e-05;9.644567993487403e-05
1.23653e-05;9.660188261825487e-05
1.23655e-05;9.675808530163466e-05
1.23658e-05;9.724097218943713e-05
1.23660e-05;9.79726391289859e-05
1.23663e-05;9.87043060685297e-05
1.23665e-05;9.943597300807847e-05
1.23668e-05;0.00010016763994762723
1.23670e-05;0.00010089930688717104
1.23673e-05;0.00010166289019825923
1.23675e-05;0.00010286607836943961
1.23678e-05;0.00010406926654061186
1.23680e-05;0.00010527245471179226
1.23683e-05;0.00010647564288297265
1.23685e-05;0.00010767883105414489
1.23688e-05;0.00010888201922532529
1.23690e-05;0.00011010573865068698
1.23693e-05;0.00011134509325646509
1.23695e-05;0.00011258444786225159
1.23698e-05;0.00011382380246803809
1.23700e-05;0.0001150631570738162
1.23703e-05;0.0001162215766843501
1.23705e-05;0.00011727846968853855
1.23708e-05;0.00011825994905335475
1.23710e-05;0.00011933736707593291
1.23713e-05;0.00012122362726313133
1.23715e-05;0.00012496368616899696
1.23718e-05;0.0001311775767710904
1.23720e-05;0.0001399026942520119
1.23723e-05;0.00015098880755722398
1.23725e-05;0.0001642848760677543
1.23728e-05;0.00017963987371633034
1.23730e-05;0.0001970157739864687
1.23733e-05;0.0002167137549795446
1.23735e-05;0.00023924294856016615
1.23738e-05;0.00026484629544212536
1.23740e-05;0.00029340172280853345
1.23743e-05;0.000324669664319571
1.23745e-05;0.00035841005111958505
1.23748e-05;0.00039438284269464923
1.23750e-05;0.00043303680547885287
1.23753e-05;0.00047303176950569886
1.23755e-05;0.0005156169458177337
1.23758e-05;0.0005601746483125189
1.23760e-05;0.0006073413512443487
1.23763e-05;0.0006564948881126076
1.23765e-05;0.0007056484249811998
1.23768e-05;0.0007571147455848404
1.23770e-05;0.0008103423220116414
1.23773e-05;0.0008635698984388032
1.23775e-05;0.0009167974748659649
1.23778e-05;0.0009700250512927658
1.23780e-05;0.0010235914588024588
1.23783e-05;0.0010774158965846273
1.23785e-05;0.001131240334366431
1.23788e-05;0.0011850647721485994
1.23790e-05;0.0012388892099307676
1.23793e-05;0.0012902996177871855
1.23795e-05;0.0013398716677377454
1.23798e-05;0.0013894437176883052
1.23800e-05;0.0014355196238929205
1.23803e-05;0.0014789331092932992
1.23805e-05;0.001522346594693678
1.23808e-05;0.0015606173199432308
1.23810e-05;0.0015949716754398956
1.23813e-05;0.0016293260309365606
1.23815e-05;0.0016582715356092466
1.23818e-05;0.001683098034311415
1.23820e-05;0.0017079245330135836
1.23823e-05;0.0017271280570949833
1.23825e-05;0.001742049513359835
1.23828e-05;0.0017569709696247879
1.23830e-05;0.0017660029420410311
1.23833e-05;0.0017705498916809372
1.23835e-05;0.0017750968413208742
1.23838e-05;0.001774353963889652
1.23840e-05;0.0017695827207297038
1.23843e-05;0.0017648114775697234
1.23845e-05;0.0017550635303479401
1.23848e-05;0.0017415256701829617
1.23850e-05;0.0017279878100178914
1.23853e-05;0.0017100852389191428
1.23855e-05;0.0016888588064344016
1.23858e-05;0.0016676323739495164
1.23860e-05;0.0016416421165502764
1.23863e-05;0.0016120240602146801
1.23865e-05;0.0015824060038788833
1.23868e-05;0.0015527879475430864
1.23870e-05;0.0015231698912074902
1.23873e-05;0.0014935518348716931
1.23875e-05;0.0014607802218511217
1.23878e-05;0.001425607078591179
1.23880e-05;0.0013904339353309981
1.23883e-05;0.0013552607920708172
1.23885e-05;0.0013200876488108746
1.23888e-05;0.0012849145055506936
1.23890e-05;0.0012508842871088125
1.23893e-05;0.0012177244410077424
1.23895e-05;0.0011845645949064476
1.23898e-05;0.0011514047488051526
1.23900e-05;0.0011182449027040825
1.23903e-05;0.0010857246877747245
1.23905e-05;0.0010620145273431878
1.23908e-05;0.001038304366911651
1.23910e-05;0.0010145942064802749
1.23913e-05;0.0009908840460487382
1.23915e-05;0.0009671738856172013
1.23918e-05;0.0009489809967084277
1.23920e-05;0.0009349896794623184
1.23923e-05;0.0009242007190798883
1.23925e-05;0.0009158504517720838
1.23928e-05;0.0009107836968904956
1.23930e-05;0.0009082174375361339
1.23933e-05;0.0009089932276923814
1.23935e-05;0.0009123140911628278
1.23938e-05;0.0009188751301213503
1.23940e-05;0.0009279036621979466
1.23943e-05;0.000939970901739454
1.23945e-05;0.0009543522103136835
1.23948e-05;0.0009722312707643625
1.23950e-05;0.0009927739766616042
1.23953e-05;0.001013316682558846
1.23955e-05;0.0010375432760343808
1.23958e-05;0.0010645752630085606
1.23960e-05;0.0010916072499827403
1.23963e-05;0.0011225076190618565
1.23965e-05;0.0011563538798864076
