Time(s);Current(A)
3.25000e-06;0.0014515293715170621
3.25025e-06;0.0014538754694262339
3.25050e-06;0.0014562215673354017
3.25075e-06;0.0014585676652445734
3.25100e-06;0.001460913763153745
3.25125e-06;0.0014632598610629128
3.25150e-06;0.0014726857883839515
3.25175e-06;0.0014869343398355526
3.25200e-06;0.0015011828912871537
3.25225e-06;0.0015154314427387307
3.25250e-06;0.0015296799941903318
3.25275e-06;0.0015439285456419329
3.25300e-06;0.0015581770970935099
3.25325e-06;0.001572425648545111
3.25350e-06;0.0015872714491535754
3.25375e-06;0.0016025240827559338
3.25400e-06;0.0016177767163582663
3.25425e-06;0.0016330293499606247
3.25450e-06;0.0016482819835629832
3.25475e-06;0.0016635346171653157
3.25500e-06;0.0016787872507676741
3.25525e-06;0.0016940398843700325
3.25550e-06;0.0017073101215131282
3.25575e-06;0.0017192299937752865
3.25600e-06;0.001731149866037445
3.25625e-06;0.0017430697382996036
3.25650e-06;0.0017549896105617418
3.25675e-06;0.0017669094828239003
3.25700e-06;0.001779193232094507
3.25725e-06;0.0017949506190253382
3.25750e-06;0.001810708005956196
3.25775e-06;0.001826465392887054
3.25800e-06;0.001842222779817912
3.25825e-06;0.0018579801667487432
3.25850e-06;0.0018737375536796012
3.25875e-06;0.0018951374206732754
3.25900e-06;0.0019203808210242323
3.25925e-06;0.001945624221375232
3.25950e-06;0.0019708676217262315
3.25975e-06;0.0019961110220771882
3.26000e-06;0.002021354422428188
3.26025e-06;0.0020465978227791875
3.26050e-06;0.0020718412231301867
3.26075e-06;0.002097084623481144
3.26100e-06;0.002123049075664823
3.26125e-06;0.002155896822871508
3.26150e-06;0.0021887445700781373
3.26175e-06;0.002221592317284822
3.26200e-06;0.0022544400644915075
3.26225e-06;0.0022872878116981924
3.26250e-06;0.002320135558904822
3.26275e-06;0.0023529833061115067
3.26300e-06;0.0023858310533181916
3.26325e-06;0.002418678800524821
3.26350e-06;0.002450143868807476
3.26375e-06;0.002480667086608067
3.26400e-06;0.002511190304408606
3.26425e-06;0.0025417135222091966
3.26450e-06;0.0025722367400097877
3.26475e-06;0.0026027599578103784
3.26500e-06;0.0026332831756109175
3.26525e-06;0.002663806393411508
3.26550e-06;0.002694329611212099
3.26575e-06;0.002716392764891659
3.26600e-06;0.0027326931089035086
3.26625e-06;0.0027489934529153584
3.26650e-06;0.002765293796927208
3.26675e-06;0.0027815941409390305
3.26700e-06;0.0027978944849508802
3.26725e-06;0.00281419482896273
3.26750e-06;0.0028304951729745524
3.26775e-06;0.002846795516986402
3.26800e-06;0.0028512311558422706
3.26825e-06;0.002847584818415077
3.26850e-06;0.0028439384809878765
3.26875e-06;0.0028402921435606767
3.26900e-06;0.0028366458061334764
3.26925e-06;0.0028329994687062822
3.26950e-06;0.0028293531312790824
3.26975e-06;0.002825706793851882
3.27000e-06;0.0028220604564246883
3.27025e-06;0.002818414118997488
3.27050e-06;0.0028055338041078127
3.27075e-06;0.0027863635067980497
3.27100e-06;0.0027671932094883197
3.27125e-06;0.002748022912178557
3.27150e-06;0.0027288526148687943
3.27175e-06;0.002709682317559064
3.27200e-06;0.002690512020249301
3.27225e-06;0.0026713417229395383
3.27250e-06;0.002652171425629808
3.27275e-06;0.002633001128320045
3.27300e-06;0.0026111653409153315
3.27325e-06;0.002587513880264023
3.27350e-06;0.0025638624196127552
3.27375e-06;0.002540210958961447
3.27400e-06;0.0025165594983101386
3.27425e-06;0.0024929080376588702
3.27450e-06;0.002469256577007562
3.27475e-06;0.0024456051163562536
3.27500e-06;0.0024256885576350597
3.27525e-06;0.0024083161319894994
3.27550e-06;0.0023909437063439096
3.27575e-06;0.0023735712806983197
3.27600e-06;0.0023561988550527594
3.27625e-06;0.0023388264294071696
3.27650e-06;0.0023214540037615797
3.27675e-06;0.0023040815781160194
3.27700e-06;0.002296511366157667
3.27725e-06;0.0022956182066421883
3.27750e-06;0.0022947250471267093
3.27775e-06;0.0022938318876112324
3.27800e-06;0.0022929387280957534
3.27825e-06;0.002292045568580275
3.27850e-06;0.002291152409064798
3.27875e-06;0.002290259249549319
3.27900e-06;0.0022893660900338403
3.27925e-06;0.0022884729305183617
3.27950e-06;0.0022875797710028845
3.27975e-06;0.0022970284425419198
3.28000e-06;0.002313521742009922
3.28025e-06;0.002330015041477896
3.28050e-06;0.0023465083409458984
3.28075e-06;0.0023630016404139007
3.28100e-06;0.002379494939881875
3.28125e-06;0.002395988239349877
3.28150e-06;0.0024124815388178794
3.28175e-06;0.0024289748382858817
3.28200e-06;0.0024454681377538558
3.28225e-06;0.002461961437221858
3.28250e-06;0.002482396731096753
3.28275e-06;0.0025055172248891516
3.28300e-06;0.0025286377186815897
3.28325e-06;0.002551758212474028
3.28350e-06;0.002574878706266466
3.28375e-06;0.0025979992000588646
3.28400e-06;0.0026211196938513027
3.28425e-06;0.0026442401876437408
3.28450e-06;0.0026668853897069997
3.28475e-06;0.0026849933684436507
3.28500e-06;0.002703101347180302
3.28525e-06;0.002721209325916923
3.28550e-06;0.002739317304653574
3.28575e-06;0.0027574252833902253
3.28600e-06;0.0027755332621268764
3.28625e-06;0.002793641240863497
3.28650e-06;0.002811749219600148
3.28675e-06;0.002820334263023691
3.28700e-06;0.0028224324922920107
3.28725e-06;0.002824530721560334
3.28750e-06;0.002826628950828658
3.28775e-06;0.0028287271800969812
3.28800e-06;0.0028308254093653016
3.28825e-06;0.002832923638633625
3.28850e-06;0.0028350218679019487
3.28875e-06;0.0028371200971702686
3.28900e-06;0.0028392183264385924
3.28925e-06;0.002841316555706916
3.28950e-06;0.0028417754465149053
3.28975e-06;0.002826584907200207
3.29000e-06;0.0028113943678855086
3.29025e-06;0.00279620382857081
3.29050e-06;0.002781013289256138
3.29075e-06;0.0027658227499414395
3.29100e-06;0.0027506322106267407
3.29125e-06;0.0027354416713120683
3.29150e-06;0.00272025113199737
3.29175e-06;0.0027050605926826716
3.29200e-06;0.0026898700533679733
3.29225e-06;0.0026746795140533005
3.29250e-06;0.00265571253431101
3.29275e-06;0.0026341731263817042
3.29300e-06;0.002612633718452435
3.29325e-06;0.0025910943105231297
3.29350e-06;0.002569554902593824
3.29375e-06;0.002548015494664555
3.29400e-06;0.0025264760867352493
3.29425e-06;0.0025049366788059435
3.29450e-06;0.002483397270876638
3.29475e-06;0.0024622750855301865
3.29500e-06;0.002445135784630115
3.29525e-06;0.002427996483730043
3.29550e-06;0.0024108571828300005
3.29575e-06;0.0023937178819299285
3.29600e-06;0.0023765785810298565
3.29625e-06;0.002359439280129785
3.29650e-06;0.002342299979229742
3.29675e-06;0.0023251606783296704
3.29700e-06;0.0023080213774295984
3.29725e-06;0.0022883945270768323
3.29750e-06;0.0022670732127302996
3.29775e-06;0.0022457518983837665
3.29800e-06;0.0022244305840372703
3.29825e-06;0.0022031092696907376
3.29850e-06;0.0021817879553442045
3.29875e-06;0.002160466640997672
3.29900e-06;0.002139145326651175
3.29925e-06;0.0021178240123046425
3.29950e-06;0.00209650269795811
3.29975e-06;0.002075181383611613
3.30000e-06;0.0020529793008037464
3.30025e-06;0.0020223692382978606
3.30050e-06;0.001991759175792027
3.30075e-06;0.001961149113286141
3.30100e-06;0.0019305390507802556
3.30125e-06;0.0018999289882743698
3.30150e-06;0.001869318925768536
3.30175e-06;0.0018387088632626505
3.30200e-06;0.0018080988007567649
3.30225e-06;0.0017774887382509311
3.30250e-06;0.0017468786757450453
3.30275e-06;0.0017162686132391597
3.30300e-06;0.0016847085334328648
3.30325e-06;0.0016525013227294766
3.30350e-06;0.0016202941120260343
3.30375e-06;0.0015880869013225917
3.30400e-06;0.0015558796906192038
3.30425e-06;0.0015236724799157614
3.30450e-06;0.0014944822834262177
3.30475e-06;0.0014673472106846062
3.30500e-06;0.0014402121379429487
3.30525e-06;0.0014130770652012912
3.30550e-06;0.0013859419924596337
3.30575e-06;0.0013588069197180222
3.30600e-06;0.0013363142675572644
3.30625e-06;0.001316983930224082
3.30650e-06;0.0012976535928909323
3.30675e-06;0.0012829313069021304
3.30700e-06;0.0012713479241726797
3.30725e-06;0.0012637969600109628
3.30750e-06;0.001258992790717474
3.30775e-06;0.0012581573334149874
3.30800e-06;0.0012600252754613633
3.30825e-06;0.0012659945707462607
3.30850e-06;0.0012747576176814688
3.30875e-06;0.001287938404104171
3.30900e-06;0.0013041284575335983
3.30925e-06;0.0013254207268368233
3.30950e-06;0.0013501885134116836
3.30975e-06;0.0013749562999865442
3.31000e-06;0.0014051093004365353
3.31025e-06;0.0014389305901745546
3.31050e-06;0.0014727518799125738
3.31075e-06;0.0015114230174602928
3.31100e-06;0.0015533977647033197
3.31125e-06;0.0015953725119463465
3.31150e-06;0.0016421966107341304
3.31175e-06;0.0016923239811722736
3.31200e-06;0.0017424513516105017
3.31225e-06;0.0017925787220487298
3.31250e-06;0.001842706092486873
3.31275e-06;0.0018928334629251008
3.31300e-06;0.0019449382878129985
3.31325e-06;0.001998390111193994
3.31350e-06;0.00205184193457508
3.31375e-06;0.0021052937579561664
3.31400e-06;0.0021587455813372528
3.31425e-06;0.0022121974047182484
3.31450e-06;0.002256666684077795
3.31475e-06;0.002295017251947322
3.31500e-06;0.0023333678198167833
3.31525e-06;0.00237171838768631
3.31550e-06;0.0024100689555558363
3.31575e-06;0.0024484195234253632
3.31600e-06;0.0024867700912948247
3.31625e-06;0.002525120659164351
3.31650e-06;0.0025634712270338777
3.31675e-06;0.0026018217949033396
3.31700e-06;0.002640172362772866
3.31725e-06;0.002675346732414413
3.31750e-06;0.002680200522473444
3.31775e-06;0.002685054312532484
3.31800e-06;0.0026899081025915234
3.31825e-06;0.002694761892650563
3.31850e-06;0.0026996156827095944
3.31875e-06;0.002704469472768634
3.31900e-06;0.0027093232628276737
3.31925e-06;0.002714177052886705
3.31950e-06;0.0027190308429457448
3.31975e-06;0.002723884633004784
3.32000e-06;0.0027287384230638236
3.32025e-06;0.0027209816251191478
3.32050e-06;0.0027046347718927242
3.32075e-06;0.002688287918666301
3.32100e-06;0.0026719410654399054
3.32125e-06;0.0026555942122134823
3.32150e-06;0.0026360472391457946
3.32175e-06;0.0026113685290224888
3.32200e-06;0.002584679059208185
3.32225e-06;0.0025579895893938815
3.32250e-06;0.002531300119579578
3.32275e-06;0.0025046106497653197
3.32300e-06;0.002477921179951016
3.32325e-06;0.0024512317101367124
3.32350e-06;0.0024244338204869893
3.32375e-06;0.002396600934903751
3.32400e-06;0.0023687680493205123
3.32425e-06;0.0023409351637372735
3.32450e-06;0.002313102278154082
3.32475e-06;0.0022852693925708434
3.32500e-06;0.002257436506987605
3.32525e-06;0.0022296036214044133
3.32550e-06;0.0022097255341558993
3.32575e-06;0.0021952660806327357
3.32600e-06;0.002180806627109596
3.32625e-06;0.002166347173586432
3.32650e-06;0.0021518877200632685
3.32675e-06;0.0021374282665401045
3.32700e-06;0.0021229688130169648
3.32725e-06;0.0021085093594938008
3.32750e-06;0.0020940499059706372
3.32775e-06;0.0020795904524474975
3.32800e-06;0.0020651309989243335
3.32825e-06;0.00205067154540117
3.32850e-06;0.0020379904485823665
3.32875e-06;0.00204228587593455
3.32900e-06;0.002046581303286741
3.32925e-06;0.002050876730638932
3.32950e-06;0.0020551721579911155
3.32975e-06;0.0020594675853433065
3.33000e-06;0.0020637630126954976
3.33025e-06;0.002068058440047681
3.33050e-06;0.002072353867399872
3.33075e-06;0.002076649294752063
3.33100e-06;0.0020809447221042535
3.33125e-06;0.002085240149456437
3.33150e-06;0.002089535576808628
3.33175e-06;0.002099434183000416
3.33200e-06;0.0021131495514220304
3.33225e-06;0.0021268649198436674
3.33250e-06;0.002140580288265305
3.33275e-06;0.0021542956566869423
3.33300e-06;0.0021680110251085564
3.33325e-06;0.002181726393530194
3.33350e-06;0.002195441761951831
3.33375e-06;0.002209138484199434
3.33400e-06;0.002222657206598628
3.33425e-06;0.002236175928997822
3.33450e-06;0.002249694651396993
3.33475e-06;0.002263213373796187
3.33500e-06;0.002276732096195381
3.33525e-06;0.002290250818594575
3.33550e-06;0.0023037695409937465
3.33575e-06;0.0023172882633929405
3.33600e-06;0.0023221568139337677
3.33625e-06;0.002321133057593623
3.33650e-06;0.0023201093012534765
3.33675e-06;0.0023190855449133304
3.33700e-06;0.002318061788573184
3.33725e-06;0.002317038032233039
3.33750e-06;0.002316014275892893
3.33775e-06;0.0023149905195527466
3.33800e-06;0.002313966763212602
3.33825e-06;0.0023129430068724558
3.33850e-06;0.0023119192505323093
3.33875e-06;0.0023108954941921645
3.33900e-06;0.0022943404668436273
3.33925e-06;0.002267205879165803
3.33950e-06;0.002240071291487979
3.33975e-06;0.0022129367038102006
3.34000e-06;0.0021858021161323764
3.34025e-06;0.0021586675284545522
3.34050e-06;0.002131532940776774
3.34075e-06;0.0021043983530989498
3.34100e-06;0.0020772637654211256
3.34125e-06;0.0020501291777433013
3.34150e-06;0.002022994590065523
3.34175e-06;0.001995860002387699
3.34200e-06;0.001961391244780458
3.34225e-06;0.0019219266118716345
3.34250e-06;0.001882461978962744
3.34275e-06;0.0018429973460538536
3.34300e-06;0.00180353271314503
3.34325e-06;0.0017640680802361397
3.34350e-06;0.0017247019780326596
3.34375e-06;0.0016862764682864064
3.34400e-06;0.0016478509585402185
3.34425e-06;0.0016094254487939654
3.34450e-06;0.0015709999390477124
3.34475e-06;0.0015325744293015243
3.34500e-06;0.0014941489195552714
3.34525e-06;0.0014594656598340358
3.34550e-06;0.001427331538550147
3.34575e-06;0.0013951974172663126
3.34600e-06;0.0013665592290029306
3.34625e-06;0.0013403023934491355
3.34650e-06;0.0013185786270602103
3.34675e-06;0.0012999426877191719
3.34700e-06;0.0012867638745136095
3.34725e-06;0.0012773023356474553
3.34750e-06;0.001273225837540289
3.34775e-06;0.0012728175107989807
3.34800e-06;0.0012777387239240408
3.34825e-06;0.0012862903024271357
3.34850e-06;0.0013006735948122166
3.34875e-06;0.0013190293224736333
3.34900e-06;0.0013432874298447371
3.34925e-06;0.0013715661085003615
3.34950e-06;0.0014051939237193184
3.34975e-06;0.0014424654531554298
3.35000e-06;0.0014845433321965368
3.35025e-06;0.001529895190912995
3.35050e-06;0.0015809319729408837
3.35075e-06;0.0016358411997358284
3.35100e-06;0.001690750426530866
3.35125e-06;0.0017512439733349192
3.35150e-06;0.0018155414361483665
3.35175e-06;0.0018798388989619227
3.35200e-06;0.0019487985689555652
3.35225e-06;0.002020934031973863
3.35250e-06;0.002093069494992039
3.35275e-06;0.002165204958010337
3.35300e-06;0.0022373404210286347
3.35325e-06;0.0023095664930384346
3.35350e-06;0.0023826575353511543
3.35375e-06;0.0024557485776638744
3.35400e-06;0.0025288396199765945
3.35425e-06;0.0026019306622891906
3.35450e-06;0.0026750217046019108
3.35475e-06;0.0027364279308638296
3.35500e-06;0.0027898747173419006
3.35525e-06;0.0028433215038200627
3.35550e-06;0.0028967682902982243
3.35575e-06;0.0029502150767762958
3.35600e-06;0.0030036618632544574
3.35625e-06;0.003057108649732619
3.35650e-06;0.003110555436210781
3.35675e-06;0.003164002222688852
3.35700e-06;0.003217449009167014
3.35725e-06;0.003253135579243563
3.35750e-06;0.003276724280394835
3.35775e-06;0.003300312981546146
3.35800e-06;0.0033239016826974574
3.35825e-06;0.003347490383848769
3.35850e-06;0.0033710790850000403
3.35875e-06;0.003394667786151352
3.35900e-06;0.0034182564873026632
3.35925e-06;0.0034418451884539345
3.35950e-06;0.003465433889605246
3.35975e-06;0.003476590623602535
3.36000e-06;0.003479278974911547
3.36025e-06;0.003481967326220563
3.36050e-06;0.0034846556775295794
3.36075e-06;0.003487344028838596
3.36100e-06;0.0034900323801476075
3.36125e-06;0.003492720731456624
3.36150e-06;0.00349540908276564
3.36175e-06;0.0034980974340746516
3.36200e-06;0.003500785785383668
3.36225e-06;0.003502514205845012
3.36250e-06;0.0034950789477218723
3.36275e-06;0.003487643689598745
3.36300e-06;0.0034802084314756055
3.36325e-06;0.003472773173352466
3.36350e-06;0.0034653379152293387
3.36375e-06;0.003457902657106199
3.36400e-06;0.0034504673989830593
3.36425e-06;0.003443032140859932
3.36450e-06;0.0034355968827367925
3.36475e-06;0.0034281616246136528
3.36500e-06;0.0034231612503182306
3.36525e-06;0.0034198194653513926
3.36550e-06;0.0034164776803845484
3.36575e-06;0.0034131358954177047
3.36600e-06;0.003409794110450866
3.36625e-06;0.0034064523254840225
3.36650e-06;0.0034031105405171783
3.36675e-06;0.0033997687555503346
3.36700e-06;0.003396426970583496
3.36725e-06;0.0033930851856166524
3.36750e-06;0.0033897434006498082
3.36775e-06;0.00338640161568297
3.36800e-06;0.003383059830716126
3.36825e-06;0.003379718045749282
3.36850e-06;0.0033763762607824438
3.36875e-06;0.0033730344758155996
3.36900e-06;0.003369692690848756
3.36925e-06;0.003367374892253542
3.36950e-06;0.0033748322582006418
3.36975e-06;0.003382289624147754
3.37000e-06;0.003389746990094866
3.37025e-06;0.0033972043560419655
3.37050e-06;0.0034046617219890777
3.37075e-06;0.0034121190879361895
3.37100e-06;0.0034195764538833017
3.37125e-06;0.0034270338198304014
3.37150e-06;0.0034344911857775136
3.37175e-06;0.0034419485517246254
3.37200e-06;0.003449405917671725
3.37225e-06;0.0034568632836188373
3.37250e-06;0.003464320649565949
3.37275e-06;0.0034717780155130488
3.37300e-06;0.003479235381460161
3.37325e-06;0.003486692747407273
3.37350e-06;0.003494150113354385
3.37375e-06;0.0035006922255114118
3.37400e-06;0.00350661088690996
3.37425e-06;0.003512529548308508
3.37450e-06;0.0035184482097070455
3.37475e-06;0.0035243668711055936
3.37500e-06;0.0035302855325041412
3.37525e-06;0.0035362041939026893
3.37550e-06;0.003542122855301227
3.37575e-06;0.003548041516699775
3.37600e-06;0.003553960178098323
3.37625e-06;0.0035598788394968607
3.37650e-06;0.003565797500895409
3.37675e-06;0.0035717161622939564
3.37700e-06;0.0035776348236924945
3.37725e-06;0.0035835534850910426
3.37750e-06;0.0035894721464895902
3.37775e-06;0.0035953908078881383
3.37800e-06;0.003599875400144263
3.37825e-06;0.0035906701013798965
3.37850e-06;0.00358146480261553
3.37875e-06;0.003572259503851179
3.37900e-06;0.003563054205086813
3.37925e-06;0.0035538489063224464
3.37950e-06;0.0035446436075580955
3.37975e-06;0.003535438308793729
3.38000e-06;0.003526233010029363
3.38025e-06;0.0035170277112649964
3.38050e-06;0.0035078224125006455
3.38075e-06;0.0034986171137362794
3.38100e-06;0.003489411814971913
3.38125e-06;0.003480206516207562
3.38150e-06;0.0034710012174431954
3.38175e-06;0.0034617959186788293
3.38200e-06;0.003452590619914463
3.38225e-06;0.003443385321150112
3.38250e-06;0.003430981282875364
3.38275e-06;0.003416398333575397
3.38300e-06;0.0034018153842754546
3.38325e-06;0.003387232434975488
3.38350e-06;0.0033726494856755208
3.38375e-06;0.0033580665363755788
3.38400e-06;0.0033434835870756116
3.38425e-06;0.003328900637775645
3.38450e-06;0.0033143176884756777
3.38475e-06;0.0032997347391757357
3.38500e-06;0.0032851517898757686
3.38525e-06;0.003270568840575802
3.38550e-06;0.0032559858912758594
3.38575e-06;0.0032414029419758927
3.38600e-06;0.0032268199926759255
3.38625e-06;0.003212643287312216
3.38650e-06;0.0032023446621968084
3.38675e-06;0.0031920460370813836
3.38700e-06;0.0031817474119659587
3.38725e-06;0.0031714487868505516
3.38750e-06;0.0031611501617351268
3.38775e-06;0.003150851536619702
3.38800e-06;0.003140552911504295
3.38825e-06;0.00313025428638887
3.38850e-06;0.003119955661273445
3.38875e-06;0.00310965703615802
3.38900e-06;0.003099358411042613
3.38925e-06;0.0030890597859271882
3.38950e-06;0.0030787611608117634
3.38975e-06;0.003068462535696356
3.39000e-06;0.003058163910580931
3.39025e-06;0.0030476498883374174
3.39050e-06;0.003036989142306081
3.39075e-06;0.0030263283962747626
3.39100e-06;0.0030156676502434256
3.39125e-06;0.003005006904212089
3.39150e-06;0.0029943461581807707
3.39175e-06;0.0029836854121494337
3.39200e-06;0.002973024666118097
3.39225e-06;0.002962363920086779
3.39250e-06;0.002951703174055442
3.39275e-06;0.0029410424280241054
3.39300e-06;0.002930381681992769
3.39325e-06;0.00291972093596145
3.39350e-06;0.00290923975962827
3.39375e-06;0.0029004727890655554
3.39400e-06;0.0028917058185028554
3.39425e-06;0.0028829388479401407
3.39450e-06;0.0028741718773774264
3.39475e-06;0.0028654049068147116
3.39500e-06;0.0028566379362520117
3.39525e-06;0.002847870965689297
3.39550e-06;0.002839103995126582
3.39575e-06;0.0028303370245638827
3.39600e-06;0.002821570054001168
3.39625e-06;0.002812803083438453
3.39650e-06;0.0028040361128757532
3.39675e-06;0.002795269142313039
3.39700e-06;0.0027808599162460735
3.39725e-06;0.0027626073097828992
3.39750e-06;0.0027443547033197554
3.39775e-06;0.002726102096856581
3.39800e-06;0.0027078494903934065
3.39825e-06;0.002689596883930263
