Time(s);Current(A)
1.25000e-06;-0.009954269938820884
1.25025e-06;-0.009934775258603078
1.25050e-06;-0.009926964814963316
1.25075e-06;-0.00991915437132356
1.25100e-06;-0.009911343927683799
1.25125e-06;-0.009903533484044044
1.25150e-06;-0.009895723040404286
1.25175e-06;-0.009887912596764525
1.25200e-06;-0.00988010215312477
1.25225e-06;-0.009878275583673955
1.25250e-06;-0.009880567452114762
1.25275e-06;-0.009882859320555569
1.25300e-06;-0.009885151188996378
1.25325e-06;-0.009887443057437184
1.25350e-06;-0.009889734925877993
1.25375e-06;-0.0098920267943188
1.25400e-06;-0.009894318662759607
1.25425e-06;-0.00989982560288963
1.25450e-06;-0.009907545335710618
1.25475e-06;-0.00991526506853161
1.25500e-06;-0.009922984801352598
1.25525e-06;-0.009930704534173593
1.25550e-06;-0.00993842426699458
1.25575e-06;-0.009946143999815568
1.25600e-06;-0.009953863732636563
1.25625e-06;-0.00996138503453872
1.25650e-06;-0.009968769765151257
1.25675e-06;-0.009976154495763787
1.25700e-06;-0.009983539226376317
1.25725e-06;-0.009990923956988853
1.25750e-06;-0.009998308687601383
1.25775e-06;-0.01000569341821392
1.25800e-06;-0.01001307814882645
1.25825e-06;-0.01001996004107614
1.25850e-06;-0.010021898506839683
1.25875e-06;-0.010023836972603223
1.25900e-06;-0.010025775438366765
1.25925e-06;-0.010027713904130306
1.25950e-06;-0.01002965236989385
1.25975e-06;-0.01003159083565739
1.26000e-06;-0.010033529301420931
1.26025e-06;-0.010035467767184473
1.26050e-06;-0.010033460437642458
1.26075e-06;-0.01002873739042572
1.26100e-06;-0.010024014343208987
1.26125e-06;-0.010019291295992255
1.26150e-06;-0.010014568248775517
1.26175e-06;-0.010009845201558783
1.26200e-06;-0.010005122154342046
1.26225e-06;-0.010000399107125314
1.26250e-06;-0.00999567605990858
1.26275e-06;-0.00998803203817693
1.26300e-06;-0.009978377637927607
1.26325e-06;-0.009968723237678277
1.26350e-06;-0.009959068837428954
1.26375e-06;-0.009949414437179624
1.26400e-06;-0.009939760036930301
1.26425e-06;-0.00993010563668098
1.26450e-06;-0.009920451236431649
1.26475e-06;-0.009910796836182328
1.26500e-06;-0.009900227486448775
1.26525e-06;-0.009889028417154713
1.26550e-06;-0.009877829347860651
1.26575e-06;-0.00986663027856658
1.26600e-06;-0.009855431209272519
1.26625e-06;-0.009844310059292559
1.26650e-06;-0.009833954937582474
1.26675e-06;-0.009823599815872391
1.26700e-06;-0.009813244694162298
1.26725e-06;-0.009802889572452213
1.26750e-06;-0.00979253445074212
1.26775e-06;-0.009783106774172256
1.26800e-06;-0.009774317417374315
1.26825e-06;-0.009766588879082943
1.26850e-06;-0.009759590455595995
1.26875e-06;-0.00975529243948955
1.26900e-06;-0.009752852995225774
1.26925e-06;-0.009750413550961996
1.26950e-06;-0.009751289693193606
1.26975e-06;-0.009754447808044128
1.27000e-06;-0.00975760592289465
1.27025e-06;-0.009764157406564758
1.27050e-06;-0.009773044397012605
1.27075e-06;-0.009781931387460445
1.27100e-06;-0.009794652697114206
1.27125e-06;-0.009810013000337353
1.27150e-06;-0.009825373303560486
1.27175e-06;-0.00984301466997899
1.27200e-06;-0.009865879597128997
1.27225e-06;-0.009891259140250042
1.27250e-06;-0.00991663868337111
1.27275e-06;-0.009942018226492155
1.27300e-06;-0.009967397769613223
1.27325e-06;-0.009992777312734269
1.27350e-06;-0.010018837854930657
1.27375e-06;-0.010051593329562259
1.27400e-06;-0.010084348804193859
1.27425e-06;-0.010117104278825487
1.27450e-06;-0.010149859753457089
1.27475e-06;-0.010182615228088717
1.27500e-06;-0.010215370702720317
1.27525e-06;-0.010249103003961596
1.27550e-06;-0.010283507612072211
1.27575e-06;-0.010317912220182798
1.27600e-06;-0.010351495424884002
1.27625e-06;-0.010384513293680986
1.27650e-06;-0.01041753116247797
1.27675e-06;-0.010448792585032151
1.27700e-06;-0.010478845122751561
1.27725e-06;-0.010508897660470995
1.27750e-06;-0.0105360321657964
1.27775e-06;-0.010561158317536972
1.27800e-06;-0.010586284469277523
1.27825e-06;-0.01060444481853882
1.27850e-06;-0.010617810911777026
1.27875e-06;-0.010631177005015221
1.27900e-06;-0.010644543098253427
1.27925e-06;-0.010657909191491623
1.27950e-06;-0.010671275284729819
1.27975e-06;-0.010684641377968027
1.28000e-06;-0.010696390399464833
1.28025e-06;-0.010692241916188462
1.28050e-06;-0.010688093432912096
1.28075e-06;-0.010683944949635728
1.28100e-06;-0.010679796466359357
1.28125e-06;-0.010675647983082992
1.28150e-06;-0.01067149949980662
1.28175e-06;-0.010667351016530253
1.28200e-06;-0.010654859040177277
1.28225e-06;-0.010636624603848682
1.28250e-06;-0.010618390167520086
1.28275e-06;-0.010600155731191475
1.28300e-06;-0.01058192129486288
1.28325e-06;-0.010563686858534269
1.28350e-06;-0.010544694749716994
1.28375e-06;-0.010518253928702079
1.28400e-06;-0.01049181310768714
1.28425e-06;-0.010465372286672223
1.28450e-06;-0.010438931465657286
1.28475e-06;-0.010412490644642369
1.28500e-06;-0.010386049823627452
1.28525e-06;-0.010358187929875142
1.28550e-06;-0.010329347974147883
1.28575e-06;-0.0103005080184206
1.28600e-06;-0.010271940392769312
1.28625e-06;-0.01024356019995303
1.28650e-06;-0.010215180007136773
1.28675e-06;-0.010187732650563197
1.28700e-06;-0.010160927324220591
1.28725e-06;-0.010135783560718314
1.28750e-06;-0.010111783377970453
1.28775e-06;-0.010087783195222612
1.28800e-06;-0.010066595496277617
1.28825e-06;-0.010047343506456008
1.28850e-06;-0.010028091516634415
1.28875e-06;-0.010012182695692812
1.28900e-06;-0.009998574831114247
1.28925e-06;-0.009984966966535683
1.28950e-06;-0.009977340407701202
1.28975e-06;-0.009973830519009642
1.29000e-06;-0.009970320630318077
1.29025e-06;-0.009966810741626515
1.29050e-06;-0.009963300852934951
1.29075e-06;-0.00995979096424339
1.29100e-06;-0.009956281075551828
1.29125e-06;-0.009960602535071904
1.29150e-06;-0.009970313967741748
1.29175e-06;-0.0099800254004116
1.29200e-06;-0.009989736833081443
1.29225e-06;-0.009999448265751287
1.29250e-06;-0.01000915969842114
1.29275e-06;-0.010018871131090984
1.29300e-06;-0.010034352446587699
1.29325e-06;-0.01005380491911552
1.29350e-06;-0.01007325739164334
1.29375e-06;-0.010092709864171177
1.29400e-06;-0.010112162336698998
1.29425e-06;-0.010131614809226835
1.29450e-06;-0.010151067281754656
1.29475e-06;-0.010170832492559165
1.29500e-06;-0.010193672247379037
1.29525e-06;-0.010216512002198906
1.29550e-06;-0.010239351757018797
1.29575e-06;-0.010262191511838669
1.29600e-06;-0.01028503126665856
1.29625e-06;-0.010307871021478432
1.29650e-06;-0.010330710776298302
1.29675e-06;-0.01035223632243958
1.29700e-06;-0.010372857356445858
1.29725e-06;-0.010393478390452153
1.29750e-06;-0.010409309099806608
1.29775e-06;-0.010421842839015783
1.29800e-06;-0.010434376578224968
1.29825e-06;-0.010446910317434142
1.29850e-06;-0.010459444056643327
1.29875e-06;-0.010471977795852502
1.29900e-06;-0.010484511535061688
1.29925e-06;-0.010497045274270861
1.29950e-06;-0.010509579013480036
1.29975e-06;-0.010520921316051174
1.30000e-06;-0.010520550551632523
1.30025e-06;-0.01052017978721387
1.30050e-06;-0.010519809022795217
1.30075e-06;-0.010519438258376566
1.30100e-06;-0.010519067493957913
1.30125e-06;-0.01051869672953926
1.30150e-06;-0.010518325965120609
1.30175e-06;-0.010517955200701956
1.30200e-06;-0.010517584436283303
1.30225e-06;-0.010511386920566823
1.30250e-06;-0.010501179107747607
1.30275e-06;-0.010490971294928384
1.30300e-06;-0.010480763482109167
1.30325e-06;-0.010470555669289942
1.30350e-06;-0.010460347856470726
1.30375e-06;-0.010450140043651511
1.30400e-06;-0.010439932230832286
1.30425e-06;-0.01042972441801307
1.30450e-06;-0.010417122821987116
1.30475e-06;-0.010402873690075786
1.30500e-06;-0.010388624558164455
1.30525e-06;-0.010374375426253113
1.30550e-06;-0.01036012629434178
1.30575e-06;-0.010345877162430439
1.30600e-06;-0.010331628030519109
1.30625e-06;-0.010317378898607777
1.30650e-06;-0.010303129766696435
1.30675e-06;-0.010290959715837064
1.30700e-06;-0.0102802206051865
1.30725e-06;-0.010269481494535946
1.30750e-06;-0.010258742383885381
1.30775e-06;-0.010248003273234826
1.30800e-06;-0.01023726416258427
1.30825e-06;-0.010226525051933706
1.30850e-06;-0.010215785941283152
1.30875e-06;-0.010205046830632588
1.30900e-06;-0.010194307719982032
1.30925e-06;-0.010183568609331476
1.30950e-06;-0.010172829498680912
1.30975e-06;-0.010162090388030358
1.31000e-06;-0.010151351277379794
1.31025e-06;-0.010140612166729238
1.31050e-06;-0.010130106756024482
1.31075e-06;-0.010121898859961072
1.31100e-06;-0.010113690963897666
1.31125e-06;-0.010105483067834256
1.31150e-06;-0.01009727517177085
1.31175e-06;-0.010089067275707447
1.31200e-06;-0.010080859379644034
1.31225e-06;-0.01007265148358063
1.31250e-06;-0.01006444358751722
1.31275e-06;-0.010056235691453815
1.31300e-06;-0.010048027795390404
1.31325e-06;-0.010039819899326998
1.31350e-06;-0.010031612003263595
1.31375e-06;-0.010023404107200182
1.31400e-06;-0.010015196211136779
1.31425e-06;-0.010006988315073366
1.31450e-06;-0.00999907589410584
1.31475e-06;-0.009991366835674361
1.31500e-06;-0.009983657777242876
1.31525e-06;-0.009975948718811396
1.31550e-06;-0.00996823966037991
1.31575e-06;-0.00996053060194843
1.31600e-06;-0.00995290876018601
1.31625e-06;-0.009946144349405979
1.31650e-06;-0.009939379938625953
1.31675e-06;-0.00993261552784592
1.31700e-06;-0.009925851117065895
1.31725e-06;-0.009919086706285864
1.31750e-06;-0.009912322295505838
1.31775e-06;-0.009906174018615602
1.31800e-06;-0.009900449799631153
1.31825e-06;-0.009894725580646708
1.31850e-06;-0.009887660306129363
1.31875e-06;-0.009879672041966027
1.31900e-06;-0.009871683777802691
1.31925e-06;-0.009861011931513048
1.31950e-06;-0.009848493093465067
1.31975e-06;-0.009835974255417075
1.32000e-06;-0.009821135554952657
1.32025e-06;-0.009804700195037559
1.32050e-06;-0.009788264835122448
1.32075e-06;-0.009767330570984634
1.32100e-06;-0.009743299908588875
1.32125e-06;-0.009719269246193134
1.32150e-06;-0.009695238583797375
1.32175e-06;-0.009671207921401637
1.32200e-06;-0.009646419859508574
1.32225e-06;-0.009614185769212844
1.32250e-06;-0.009581951678917141
1.32275e-06;-0.009549717588621411
1.32300e-06;-0.009517483498325709
1.32325e-06;-0.009485249408030007
1.32350e-06;-0.009450131537646487
1.32375e-06;-0.00941302888803724
1.32400e-06;-0.009375926238427961
1.32425e-06;-0.009337975798261398
1.32450e-06;-0.009299441861075395
1.32475e-06;-0.009260387720118262
1.32500e-06;-0.009220975545744397
1.32525e-06;-0.009181468763791766
1.32550e-06;-0.009141896867596354
1.32575e-06;-0.009102591968882577
1.32600e-06;-0.009063828852163697
1.32625e-06;-0.009025777183447485
1.32650e-06;-0.008988565784430582
1.32675e-06;-0.00895229992361968
1.32700e-06;-0.008917146180547
1.32725e-06;-0.008883329649441449
1.32750e-06;-0.008851091714822623
1.32775e-06;-0.008820674520559898
1.32800e-06;-0.008792319107227347
1.32825e-06;-0.00876630381973974
1.32850e-06;-0.00874297236756497
1.32875e-06;-0.008722630874308048
1.32900e-06;-0.008705433470313
1.32925e-06;-0.008691421633983011
1.32950e-06;-0.008681565720277293
1.32975e-06;-0.008673674624102576
1.33000e-06;-0.008669632373856801
1.33025e-06;-0.008668239115285177
1.33050e-06;-0.008671838268302628
1.33075e-06;-0.008678873479031278
1.33100e-06;-0.008685908689759924
1.33125e-06;-0.008700350432696027
1.33150e-06;-0.008719889766575974
1.33175e-06;-0.008739429100455923
1.33200e-06;-0.008758968434335887
1.33225e-06;-0.008778507768215834
1.33250e-06;-0.008805734643636254
1.33275e-06;-0.008838252516387013
1.33300e-06;-0.008870770389137772
1.33325e-06;-0.008903288261888558
1.33350e-06;-0.008935806134639318
1.33375e-06;-0.008972712107323736
1.33400e-06;-0.00901263821653836
1.33425e-06;-0.009052564325753017
1.33450e-06;-0.009094435544720487
1.33475e-06;-0.009137645497333206
1.33500e-06;-0.00918085544994596
1.33525e-06;-0.009224732712380296
1.33550e-06;-0.009269069254867479
1.33575e-06;-0.009313405797354624
1.33600e-06;-0.009356985111446775
1.33625e-06;-0.009400043258479866
1.33650e-06;-0.009443101405512922
1.33675e-06;-0.009484491737698367
1.33700e-06;-0.009524734186147502
1.33725e-06;-0.009554869440030565
1.33750e-06;-0.009578048355637784
1.33775e-06;-0.009601227271244983
1.33800e-06;-0.009624406186852202
1.33825e-06;-0.0096475851024594
1.33850e-06;-0.009670764018066621
1.33875e-06;-0.00969394293367382
1.33900e-06;-0.00971712184928102
1.33925e-06;-0.009740300764888238
1.33950e-06;-0.009763479680495438
1.33975e-06;-0.009786658596102657
1.34000e-06;-0.009809837511709857
1.34025e-06;-0.009833016427317055
1.34050e-06;-0.009856195342924274
1.34075e-06;-0.009879374258531474
1.34100e-06;-0.009902553174138693
1.34125e-06;-0.009925732089745893
1.34150e-06;-0.009947410146296215
1.34175e-06;-0.009954297703157266
1.34200e-06;-0.009961185260018312
1.34225e-06;-0.009968072816879364
1.34250e-06;-0.00997496037374041
1.34275e-06;-0.00998184793060146
1.34300e-06;-0.009988735487462508
1.34325e-06;-0.009995623044323554
1.34350e-06;-0.010002510601184605
1.34375e-06;-0.01000939815804565
1.34400e-06;-0.010016285714906703
1.34425e-06;-0.010023173271767749
1.34450e-06;-0.010030060828628794
1.34475e-06;-0.010036948385489845
1.34500e-06;-0.010043835942350893
1.34525e-06;-0.010050723499211944
1.34550e-06;-0.01005761105607299
1.34575e-06;-0.010064498612934035
1.34600e-06;-0.010068774680556834
1.34625e-06;-0.010071250378858648
1.34650e-06;-0.010073726077160465
1.34675e-06;-0.01007620177546228
1.34700e-06;-0.010078152498590894
1.34725e-06;-0.010079901565240641
1.34750e-06;-0.010081650631890388
1.34775e-06;-0.010083399698540135
1.34800e-06;-0.010084523499222751
1.34825e-06;-0.010085539572151657
1.34850e-06;-0.010083134758367654
1.34875e-06;-0.010080140556290265
1.34900e-06;-0.010077146354212873
1.34925e-06;-0.01006781908929764
1.34950e-06;-0.010057400694096264
1.34975e-06;-0.0100469822988949
1.35000e-06;-0.010030828529453842
1.35025e-06;-0.010013686606145456
1.35050e-06;-0.009996544682837083
1.35075e-06;-0.009969903403605854
1.35100e-06;-0.00994162547000829
1.35125e-06;-0.009913347536410724
1.35150e-06;-0.009885069602813136
1.35175e-06;-0.009856791669215572
1.35200e-06;-0.00981830064894201
1.35225e-06;-0.00977805000485422
1.35250e-06;-0.009737799360766394
1.35275e-06;-0.009697548716678602
1.35300e-06;-0.00965729807259081
1.35325e-06;-0.00961023118329194
1.35350e-06;-0.00956198991569029
1.35375e-06;-0.0095137486480886
1.35400e-06;-0.009462887428273415
1.35425e-06;-0.009411574814041113
1.35450e-06;-0.009358831798850418
1.35475e-06;-0.009305842338322521
1.35500e-06;-0.009252022681181707
1.35525e-06;-0.009197825626840085
1.35550e-06;-0.0091436247386021
1.35575e-06;-0.009089745541930845
1.35600e-06;-0.009036498247673191
1.35625e-06;-0.00898416556443657
1.35650e-06;-0.008932950485251525
1.35675e-06;-0.008883019166527607
1.35700e-06;-0.008834630580868263
1.35725e-06;-0.008788106477653669
1.35750e-06;-0.008743785283986914
1.35775e-06;-0.008702011699286928
1.35800e-06;-0.008663119327531027
1.35825e-06;-0.008627345974866541
1.35850e-06;-0.008594595517458396
1.35875e-06;-0.008564543891708227
1.35900e-06;-0.00853706520118883
1.35925e-06;-0.008513438883690997
1.35950e-06;-0.008490411467372342
1.35975e-06;-0.008472383105777645
1.36000e-06;-0.008455216036759744
1.36025e-06;-0.008444410895470026
1.36050e-06;-0.00843470185762965
1.36075e-06;-0.008424992819789284
1.36100e-06;-0.008423948492358523
1.36125e-06;-0.008424397017310457
1.36150e-06;-0.008424845542262393
1.36175e-06;-0.008425294067214328
1.36200e-06;-0.008425742592166262
1.36225e-06;-0.008435695239720336
1.36250e-06;-0.008447285362896911
1.36275e-06;-0.008458875486073486
1.36300e-06;-0.00847046560925007
1.36325e-06;-0.008482055732426644
1.36350e-06;-0.008500803845225531
1.36375e-06;-0.008520785215843478
1.36400e-06;-0.008540766586461423
1.36425e-06;-0.008560747957079387
1.36450e-06;-0.008580729327697332
1.36475e-06;-0.008600710698315295
1.36500e-06;-0.008624055755496837
1.36525e-06;-0.008647980345895725
1.36550e-06;-0.008671904936294593
1.36575e-06;-0.008695829526693462
1.36600e-06;-0.00871975411709235
1.36625e-06;-0.008743678707491218
1.36650e-06;-0.008766834406066973
1.36675e-06;-0.008789857631434042
1.36700e-06;-0.008812880856801111
1.36725e-06;-0.008829667809397793
1.36750e-06;-0.00884538030777456
1.36775e-06;-0.00886109280615134
1.36800e-06;-0.008876805304528106
1.36825e-06;-0.008892517802904874
1.36850e-06;-0.008908230301281654
1.36875e-06;-0.00892394279965842
1.36900e-06;-0.0089396552980352
1.36925e-06;-0.008955367796411966
1.36950e-06;-0.008971080294788747
1.36975e-06;-0.008986792793165515
1.37000e-06;-0.00900250529154228
1.37025e-06;-0.009013755648634452
1.37050e-06;-0.009024237218550462
1.37075e-06;-0.00903471878846648
1.37100e-06;-0.00904520035838249
1.37125e-06;-0.0090556819282985
1.37150e-06;-0.009066163498214519
1.37175e-06;-0.009076645068130529
1.37200e-06;-0.009087126638046547
1.37225e-06;-0.009097608207962557
1.37250e-06;-0.009108089777878567
1.37275e-06;-0.009118571347794587
1.37300e-06;-0.009129052917710597
1.37325e-06;-0.009138131953407675
1.37350e-06;-0.0091469693449584
1.37375e-06;-0.009155806736509132
1.37400e-06;-0.009164644128059856
1.37425e-06;-0.009173481519610581
1.37450e-06;-0.009182318911161311
1.37475e-06;-0.009191156302712037
1.37500e-06;-0.009199993694262769
1.37525e-06;-0.009208831085813492
1.37550e-06;-0.009217668477364216
1.37575e-06;-0.009226505868914948
1.37600e-06;-0.009235343260465673
1.37625e-06;-0.009244180652016404
1.37650e-06;-0.009249693773773092
1.37675e-06;-0.009254634153470635
1.37700e-06;-0.009259574533168181
1.37725e-06;-0.009264514912865725
1.37750e-06;-0.009269455292563272
1.37775e-06;-0.009274395672260814
1.37800e-06;-0.009279336051958362
1.37825e-06;-0.009284276431655905
1.37850e-06;-0.009289216811353447
1.37875e-06;-0.009294157191050995
1.37900e-06;-0.009299097570748538
1.37925e-06;-0.009304037950446084
1.37950e-06;-0.009308978330143628
1.37975e-06;-0.009310028108320953
1.38000e-06;-0.009310407570529967
1.38025e-06;-0.009310787032738979
1.38050e-06;-0.009311166494947993
1.38075e-06;-0.009311545957157006
1.38100e-06;-0.009311925419366018
1.38125e-06;-0.00931230488157503
1.38150e-06;-0.009312684343784045
1.38175e-06;-0.009313063805993057
1.38200e-06;-0.00931344326820207
1.38225e-06;-0.009313822730411083
1.38250e-06;-0.009314202192620096
1.38275e-06;-0.009314581654829108
1.38300e-06;-0.00931496111703812
1.38325e-06;-0.009315340579247135
1.38350e-06;-0.009315720041456147
1.38375e-06;-0.00931609950366516
1.38400e-06;-0.009316478965874174
1.38425e-06;-0.009315059977706633
1.38450e-06;-0.00931333113256729
1.38475e-06;-0.009311602287427943
1.38500e-06;-0.0093098734422886
1.38525e-06;-0.009308144597149254
1.38550e-06;-0.009306415752009908
1.38575e-06;-0.009304686906870564
1.38600e-06;-0.009302958061731217
1.38625e-06;-0.009301229216591874
1.38650e-06;-0.009299500371452529
1.38675e-06;-0.009297771526313182
1.38700e-06;-0.009296042681173839
1.38725e-06;-0.009294313836034492
1.38750e-06;-0.009292584990895148
1.38775e-06;-0.009290856145755802
1.38800e-06;-0.009289127300616457
1.38825e-06;-0.009287398455477113
1.38850e-06;-0.009285669610337766
1.38875e-06;-0.009282370409244801
1.38900e-06;-0.009278800649816297
1.38925e-06;-0.009275230890387795
1.38950e-06;-0.009271661130959294
1.38975e-06;-0.00926809137153079
1.39000e-06;-0.009264521612102289
1.39025e-06;-0.009260951852673786
1.39050e-06;-0.009257382093245285
1.39075e-06;-0.009253812333816783
1.39100e-06;-0.009250242574388279
1.39125e-06;-0.009246672814959778
1.39150e-06;-0.009243103055531273
1.39175e-06;-0.009237231983147288
1.39200e-06;-0.009230964415050764
1.39225e-06;-0.009224696846954246
1.39250e-06;-0.009218429278857727
1.39275e-06;-0.009212161710761203
1.39300e-06;-0.009205894142664685
1.39325e-06;-0.009199626574568161
1.39350e-06;-0.009193359006471643
1.39375e-06;-0.009187091438375124
1.39400e-06;-0.009180823870278599
1.39425e-06;-0.00917455630218208
1.39450e-06;-0.009168288734085556
1.39475e-06;-0.009161341715603196
1.39500e-06;-0.009154277633874738
1.39525e-06;-0.009147213552146274
1.39550e-06;-0.009140149470417816
1.39575e-06;-0.00913308538868935
1.39600e-06;-0.009126021306960892
1.39625e-06;-0.009118957225232429
1.39650e-06;-0.00911189314350397
1.39675e-06;-0.009104829061775512
1.39700e-06;-0.009098943232507374
1.39725e-06;-0.009093260405637358
1.39750e-06;-0.009087577578767334
