Time(s);Current(A)
4.00000e-06;-0.0027918414072912383
4.00025e-06;-0.0027521466679117862
4.00050e-06;-0.0027102474602029615
4.00075e-06;-0.0026652864152972235
4.00100e-06;-0.0026172902028117023
4.00125e-06;-0.0025666508503596037
4.00150e-06;-0.002513760008678646
4.00175e-06;-0.0024590093541707954
4.00200e-06;-0.0024027476440783026
4.00225e-06;-0.002344963229627422
4.00250e-06;-0.0022851460591504892
4.00275e-06;-0.0022229312073416122
4.00300e-06;-0.0021585076733985848
4.00325e-06;-0.002092292778621112
4.00350e-06;-0.0020247043652285002
4.00375e-06;-0.0019561596065433874
4.00400e-06;-0.0018870491219900936
4.00425e-06;-0.0018175375967456864
4.00450e-06;-0.0017474775647623995
4.00475e-06;-0.0016768124511637927
4.00500e-06;-0.0016058327237084677
4.00525e-06;-0.001534971999875434
4.00550e-06;-0.0014646637087052515
4.00575e-06;-0.0013953412920703386
4.00600e-06;-0.001327421215948871
4.00625e-06;-0.0012611785537885894
4.00650e-06;-0.0011966930853605556
4.00675e-06;-0.0011341010167145009
4.00700e-06;-0.0010737562338349231
4.00725e-06;-0.0010161020832612508
4.00750e-06;-0.0009615821063871337
4.00775e-06;-0.0009106394677301875
4.00800e-06;-0.0008637164252205113
4.00825e-06;-0.0008212374124902943
4.00850e-06;-0.0007835369541448691
4.00875e-06;-0.0007508000245964567
4.00900e-06;-0.000723117732811621
4.00925e-06;-0.0007005629039729228
4.00950e-06;-0.0006832084066731465
4.00975e-06;-0.0006711270512971964
4.01000e-06;-0.000664390916729809
4.01025e-06;-0.0006630610074634424
4.01050e-06;-0.0006671419335282341
4.01075e-06;-0.0006765445430076862
4.01100e-06;-0.0006911210043319488
4.01125e-06;-0.0007107120179307708
4.01150e-06;-0.0007351583636551917
4.01175e-06;-0.0007643006615306329
4.01200e-06;-0.0007979790812376774
4.01225e-06;-0.0008362777143251615
4.01250e-06;-0.0008799639899284112
4.01275e-06;-0.0009245771452523599
4.01300e-06;-0.0009755553273688833
4.01325e-06;-0.0010273060091365966
4.01350e-06;-0.0010843615658177972
4.01375e-06;-0.001142034635377446
4.01400e-06;-0.0012039482616459521
4.01425e-06;-0.0012663161162446257
4.01450e-06;-0.0013318032272319313
4.01475e-06;-0.0013975547054406617
4.01500e-06;-0.0014651216343602954
4.01525e-06;-0.0015327521561337542
4.01550e-06;-0.0016008193798987102
4.01575e-06;-0.0016687490596084115
4.01600e-06;-0.0017357342029569861
4.01625e-06;-0.0018023755231609448
4.01650e-06;-0.0018666557565070884
4.01675e-06;-0.0019303692550728983
4.01700e-06;-0.001990190898008377
4.01725e-06;-0.0020494439268633558
4.01750e-06;-0.0021040798954860907
4.01775e-06;-0.002153824395333552
4.01800e-06;-0.002202397854414861
4.01825e-06;-0.0022429295949387357
4.01850e-06;-0.0022820404217627705
4.01875e-06;-0.0023113936138388575
4.01900e-06;-0.002339261241329709
4.01925e-06;-0.002356927266417006
4.01950e-06;-0.0023730887859409106
4.01975e-06;-0.00237891863242736
4.02000e-06;-0.0023832064465376785
4.02025e-06;-0.0023769048851671865
4.02050e-06;-0.0023690299204256354
4.02075e-06;-0.0023503501507158658
4.02100e-06;-0.002330539604616064
4.02125e-06;-0.0023022477543219047
4.02150e-06;-0.002268350686050297
4.02175e-06;-0.0022290713627722706
4.02200e-06;-0.0021846275504841133
4.02225e-06;-0.002135200867242383
4.02250e-06;-0.002080950730402055
4.02275e-06;-0.002022118341705076
4.02300e-06;-0.001959053861351244
4.02325e-06;-0.0018921425668308425
4.02350e-06;-0.0018217701125095595
4.02375e-06;-0.0017483219643160883
4.02400e-06;-0.0016721807450659001
4.02425e-06;-0.0015937059553183047
4.02450e-06;-0.0015132433047902007
4.02475e-06;-0.001431189984216803
4.02500e-06;-0.001348011039064841
4.02525e-06;-0.001264193682254367
4.02550e-06;-0.0011802252283222663
4.02575e-06;-0.0010965929622101477
4.02600e-06;-0.001013782145515491
4.02625e-06;-0.0009322637207500691
4.02650e-06;-0.0008524999492426776
4.02675e-06;-0.0007749852139414305
4.02700e-06;-0.0007002564409311592
4.02725e-06;-0.0006288642968810638
4.02750e-06;-0.0005613595860884746
4.02775e-06;-0.0004982928225631962
4.02800e-06;-0.0004401553585224461
4.02825e-06;-0.00038693117198421303
4.02850e-06;-0.00033784478547309977
4.02875e-06;-0.000292183964877405
4.02900e-06;-0.000249906240226733
4.02925e-06;-0.0002112646727804715
4.02950e-06;-0.00017651224388570884
4.02975e-06;-0.00014590178370479465
4.03000e-06;-0.0001196490136825296
4.03025e-06;-9.765185302038583e-05
4.03050e-06;-7.933250741509511e-05
4.03075e-06;-6.4152844632689e-05
4.03100e-06;-5.1994301331602e-05
4.03125e-06;-4.292344056233164e-05
4.03150e-06;-3.700676266638944e-05
4.03175e-06;-3.4310652190964715e-05
4.03200e-06;-3.4878252750809025e-05
4.03225e-06;-3.855361883590726e-05
4.03250e-06;-4.488286792343252e-05
4.03275e-06;-5.3436983558625835e-05
4.03300e-06;-6.404978820279033e-05
4.03325e-06;-7.667107855040674e-05
4.03350e-06;-9.125060498854168e-05
4.03375e-06;-0.000107738056184713
4.03400e-06;-0.00012606855811771243
4.03425e-06;-0.00014605252080305599
4.03450e-06;-0.00016731378062375584
4.03475e-06;-0.00018953071781876142
4.03500e-06;-0.00021265814945078102
4.03525e-06;-0.00023591013281124105
4.03550e-06;-0.00026001743220715963
4.03575e-06;-0.00028418208725221214
4.03600e-06;-0.00030874061243545023
4.03625e-06;-0.000333228349412646
4.03650e-06;-0.00035722997280009447
4.03675e-06;-0.00038102391872135656
4.03700e-06;-0.0004033917112747007
4.03725e-06;-0.0004254626335919976
4.03750e-06;-0.000445494901958774
4.03775e-06;-0.00046515608623005374
4.03800e-06;-0.00048226897846754565
4.03825e-06;-0.0004990424529406167
4.03850e-06;-0.0005134850929869441
4.03875e-06;-0.0005279277330332229
4.03900e-06;-0.000542042292156381
4.03925e-06;-0.000553903868699881
4.03950e-06;-0.0005657654452433811
4.03975e-06;-0.0005772269158216052
4.04000e-06;-0.0005859407966858876
4.04025e-06;-0.0005946546775501701
4.04050e-06;-0.0006031208347440116
4.04075e-06;-0.0006098858350747512
4.04100e-06;-0.0006153328185307345
4.04125e-06;-0.0006208812479034393
4.04150e-06;-0.0006264434376142822
4.04175e-06;-0.0006287063358826521
4.04200e-06;-0.0006309692341510297
4.04225e-06;-0.0006332321324193996
4.04250e-06;-0.0006354950306877695
4.04275e-06;-0.0006377579289561471
4.04300e-06;-0.000640020827224517
4.04325e-06;-0.0006422837254928946
4.04350e-06;-0.0006444772294228133
4.04375e-06;-0.0006435195692311819
4.04400e-06;-0.0006425619090395473
4.04425e-06;-0.0006416042488479161
4.04450e-06;-0.0006406465886562847
4.04475e-06;-0.0006396889284646501
4.04500e-06;-0.0006387312682730188
4.04525e-06;-0.0006377736080813874
4.04550e-06;-0.0006368159478897529
4.04575e-06;-0.0006348204825076827
4.04600e-06;-0.0006327026986287528
4.04625e-06;-0.0006305849147498157
4.04650e-06;-0.0006284671308708858
4.04675e-06;-0.0006264232089866199
4.04700e-06;-0.0006243879926746889
4.04725e-06;-0.0006223527763627647
4.04750e-06;-0.0006203175600508336
4.04775e-06;-0.0006184960800960467
4.04800e-06;-0.0006168114308177691
4.04825e-06;-0.0006156545523116903
4.04850e-06;-0.0006165806672855147
4.04875e-06;-0.0006177451406459191
4.04900e-06;-0.0006221815415549868
4.04925e-06;-0.0006270035806003803
4.04950e-06;-0.0006348139192177387
4.04975e-06;-0.0006429764668191534
4.05000e-06;-0.0006539042439994631
4.05025e-06;-0.0006651579385374901
4.05050e-06;-0.0006799832523481014
4.05075e-06;-0.000695229526763505
4.05100e-06;-0.0007143020972339077
4.05125e-06;-0.0007338256451962817
4.05150e-06;-0.0007573292186664893
4.05175e-06;-0.000781301888593353
4.05200e-06;-0.0008052745585201354
4.05225e-06;-0.0008334932821048147
4.05250e-06;-0.0008622124569357759
4.05275e-06;-0.0008909316317666397
4.05300e-06;-0.0009236323421497374
4.05325e-06;-0.0009568023269673546
4.05350e-06;-0.0009899723117848596
4.05375e-06;-0.0010256209909354328
4.05400e-06;-0.0010615618156329695
4.05425e-06;-0.0010975026403303846
4.05450e-06;-0.0011349481634279116
4.05475e-06;-0.0011725710343054242
4.05500e-06;-0.0012101939051828094
4.05525e-06;-0.0012480175945958074
4.05550e-06;-0.0012858649530189104
4.05575e-06;-0.0013237123114418852
4.05600e-06;-0.0013603901318730454
4.05625e-06;-0.0013969301074267964
4.05650e-06;-0.0014318614171622396
4.05675e-06;-0.0014666031252398475
4.05700e-06;-0.0014983061381862025
4.05725e-06;-0.001529651002393212
4.05750e-06;-0.0015609958666003277
4.05775e-06;-0.0015880362366990594
4.05800e-06;-0.0016145692676038889
4.05825e-06;-0.001638094134043523
4.05850e-06;-0.0016612644501697205
4.05875e-06;-0.0016839032827713615
4.05900e-06;-0.0017064794733026916
4.05925e-06;-0.0017290556638339455
4.05950e-06;-0.0017501030126130127
4.05975e-06;-0.0017709701680122569
4.06000e-06;-0.0017918373234114303
4.06025e-06;-0.0018127044788106745
4.06050e-06;-0.0018330314809481597
4.06075e-06;-0.0018532948191768474
4.06100e-06;-0.0018735581574056037
4.06125e-06;-0.0018938214956342914
4.06150e-06;-0.0019142484422455708
4.06175e-06;-0.0019346946721786845
4.06200e-06;-0.001955140902111729
4.06225e-06;-0.0019755871320447736
4.06250e-06;-0.001996165598918523
4.06275e-06;-0.002016946975628056
4.06300e-06;-0.0020377283523375887
4.06325e-06;-0.002058509729047192
4.06350e-06;-0.002079291105756725
4.06375e-06;-0.0020997500085664414
4.06400e-06;-0.0021201709037395045
4.06425e-06;-0.002140591798912499
4.06450e-06;-0.002161012694085562
4.06475e-06;-0.0021814335892585564
4.06500e-06;-0.0022018544844315505
4.06525e-06;-0.002221461907475239
4.06550e-06;-0.0022398211052087375
4.06575e-06;-0.0022581803029422362
4.06600e-06;-0.0022765395006757974
4.06625e-06;-0.002294898698409296
4.06650e-06;-0.002313257896142795
4.06675e-06;-0.0023316170938763557
4.06700e-06;-0.002347695259539254
4.06725e-06;-0.0023635045766586737
4.06750e-06;-0.0023781819853959203
4.06775e-06;-0.0023918241234393467
4.06800e-06;-0.002404316889618063
4.06825e-06;-0.0024149671400851176
4.06850e-06;-0.0024224156645980275
4.06875e-06;-0.0024256981112864644
4.06900e-06;-0.002424658816116544
4.06925e-06;-0.00241761406373721
4.06950e-06;-0.0024099152856741253
4.06975e-06;-0.00239523958222068
4.07000e-06;-0.0023797415596718257
4.07025e-06;-0.0023568575459375434
4.07050e-06;-0.0023331029995187573
4.07075e-06;-0.002300560203531404
4.07100e-06;-0.002266981600934173
4.07125e-06;-0.0022271568302488732
4.07150e-06;-0.0021828047210067435
4.07175e-06;-0.002134494975924314
4.07200e-06;-0.0020825278632839615
4.07225e-06;-0.0020269927814184807
4.07250e-06;-0.0019677174323613346
4.07275e-06;-0.0019046852864595552
4.07300e-06;-0.0018381961849786793
4.07325e-06;-0.0017686595829233729
4.07350e-06;-0.0016964937605447453
4.07375e-06;-0.0016221166856709083
4.07400e-06;-0.001545938687015706
4.07425e-06;-0.001468237667199809
4.07450e-06;-0.0013891280420165308
4.07475e-06;-0.001308821028091676
4.07500e-06;-0.001227726573811091
4.07525e-06;-0.001146323327047081
4.07550e-06;-0.0010650950425597303
4.07575e-06;-0.0009845255301519416
4.07600e-06;-0.0009050935610631137
4.07625e-06;-0.0008271951439898444
4.07650e-06;-0.0007511237094173851
4.07675e-06;-0.0006772333881226119
4.07700e-06;-0.0006060027686848249
4.07725e-06;-0.0005379533248385965
4.07750e-06;-0.00047360984309428275
4.07775e-06;-0.00041349693840712887
4.07800e-06;-0.0003581524852967106
4.07825e-06;-0.00030831582188452407
4.07850e-06;-0.00026489710223304326
4.07875e-06;-0.000228484571016196
4.07900e-06;-0.00019923981070951017
4.07925e-06;-0.0001771920797392851
4.07950e-06;-0.00016236028183435865
4.07975e-06;-0.0001547633053808171
4.08000e-06;-0.0001544282138319952
4.08025e-06;-0.0001615083157834124
4.08050e-06;-0.0001762639026994773
4.08075e-06;-0.00019875349209174054
4.08100e-06;-0.00022876843705504316
4.08125e-06;-0.0002660171682926924
4.08150e-06;-0.00031020162813104817
4.08175e-06;-0.0003610238147783225
4.08200e-06;-0.00041819081098768974
4.08225e-06;-0.0004814887941548364
4.08250e-06;-0.0005507709656673322
4.08275e-06;-0.0006257641658143838
4.08300e-06;-0.0007060279098026315
4.08325e-06;-0.0007910696571268602
4.08350e-06;-0.0008820626868801848
4.08375e-06;-0.0009736984253799579
4.08400e-06;-0.0010711556450250603
4.08425e-06;-0.0011692990000146486
4.08450e-06;-0.0012717033876084316
4.08475e-06;-0.0013746099919058907
4.08500e-06;-0.0014798634133342532
4.08525e-06;-0.0015853934369094397
4.08550e-06;-0.0016910606141634973
4.08575e-06;-0.0017967439567175305
4.08600e-06;-0.0019003640059760483
4.08625e-06;-0.002003740869966027
4.08650e-06;-0.00210427609092804
4.08675e-06;-0.002200252638108247
4.08700e-06;-0.0022957313627965385
4.08725e-06;-0.0023835144851462207
4.08750e-06;-0.002470390583212789
4.08775e-06;-0.0025471061659307864
4.08800e-06;-0.0026226242031235658
4.08825e-06;-0.002690217631947797
4.08850e-06;-0.002753758855807891
4.08875e-06;-0.002814233435431753
4.08900e-06;-0.002874389888832603
4.08925e-06;-0.002930094002637279
4.08950e-06;-0.0029852733517842494
4.08975e-06;-0.00303441189886763
4.09000e-06;-0.0030828384608566845
4.09025e-06;-0.003125604127100933
4.09050e-06;-0.0031677025850259544
4.09075e-06;-0.0032067634933702826
4.09100e-06;-0.0032454663879933634
4.09125e-06;-0.003284169282616444
4.09150e-06;-0.003317258318507212
4.09175e-06;-0.003349685689986783
4.09200e-06;-0.0033821130614663537
4.09225e-06;-0.0034145404329460343
4.09250e-06;-0.003441962111697526
4.09275e-06;-0.0034687938061105025
4.09300e-06;-0.00349562550052357
4.09325e-06;-0.0035224571949365466
4.09350e-06;-0.003545444420691508
4.09375e-06;-0.003567978527083998
4.09400e-06;-0.003590512633476411
4.09425e-06;-0.0036130467398689014
4.09450e-06;-0.0036322450542518843
4.09475e-06;-0.0036510502032631982
4.09500e-06;-0.003669855352274576
4.09525e-06;-0.00368866050128589
4.09550e-06;-0.003704325820382079
4.09575e-06;-0.0037196210707234273
4.09600e-06;-0.0037349163210647234
4.09625e-06;-0.0037502115714060195
4.09650e-06;-0.0037655068217473677
4.09675e-06;-0.0037776381022928424
4.09700e-06;-0.003789396468892521
4.09725e-06;-0.0038011548354922402
4.09750e-06;-0.003812913202091919
4.09775e-06;-0.003824671568691598
4.09800e-06;-0.003831913312935315
4.09825e-06;-0.0038386227159832743
4.09850e-06;-0.0038453321190312557
4.09875e-06;-0.003852041522079215
4.09900e-06;-0.003858750925127174
4.09925e-06;-0.0038654603281751557
4.09950e-06;-0.0038656358910155726
4.09975e-06;-0.0038650413579670024
4.10000e-06;-0.0038644468249184306
4.10025e-06;-0.0038638522918698604
4.10050e-06;-0.0038632577588212902
4.10075e-06;-0.003862663225772718
4.10100e-06;-0.003855084864272921
4.10125e-06;-0.0038466833700657945
4.10150e-06;-0.0038382818758586393
4.10175e-06;-0.0038298803816515124
4.10200e-06;-0.003821478887444386
4.10225e-06;-0.0038130773932372303
4.10250e-06;-0.003804675899030104
4.10275e-06;-0.0037906648059524216
4.10300e-06;-0.0037759925505428064
4.10325e-06;-0.0037613202951331907
4.10350e-06;-0.0037466480397235257
4.10375e-06;-0.0037319757843139105
4.10400e-06;-0.0037173035289042953
4.10425e-06;-0.00370263127349463
4.10450e-06;-0.003685703849981092
4.10475e-06;-0.003668510626320901
4.10500e-06;-0.0036513174026606516
4.10525e-06;-0.0036337879424686594
4.10550e-06;-0.0036162188525393968
4.10575e-06;-0.0035986497626100743
4.10600e-06;-0.003581383653524253
4.10625e-06;-0.003564153254571292
4.10650e-06;-0.0035475710291183594
4.10675e-06;-0.0035310651991284493
4.10700e-06;-0.003516136361220051
4.10725e-06;-0.003501393391817813
4.10750e-06;-0.003486650422415575
4.10775e-06;-0.003473069776132004
4.10800e-06;-0.003461272646556303
4.10825e-06;-0.0034494755169806016
4.10850e-06;-0.003437678387404861
4.10875e-06;-0.003427441057721592
4.10900e-06;-0.0034173875702270045
4.10925e-06;-0.0034073340827323823
4.10950e-06;-0.0033972805952377943
4.10975e-06;-0.0033872271077432068
4.11000e-06;-0.0033787207387443226
4.11025e-06;-0.0033703967172707956
4.11050e-06;-0.0033620726957972686
4.11075e-06;-0.0033537486743237133
4.11100e-06;-0.0033454246528501863
4.11125e-06;-0.0033382937628867373
4.11150e-06;-0.0033313034985953875
4.11175e-06;-0.0033243132343040377
4.11200e-06;-0.0033173229700126645
4.11225e-06;-0.0033103327057213148
4.11250e-06;-0.003303342441429965
4.11275e-06;-0.0032963521771385918
4.11300e-06;-0.003289361912847242
4.11325e-06;-0.0032823716485558922
4.11350e-06;-0.003275381384264519
4.11375e-06;-0.0032683911199731693
4.11400e-06;-0.003261989057878551
4.11425e-06;-0.0032564895575831433
4.11450e-06;-0.0032509900572877536
4.11475e-06;-0.0032454905569923643
4.11500e-06;-0.0032399910566969564
4.11525e-06;-0.0032344915564015667
4.11550e-06;-0.0032289920561061588
4.11575e-06;-0.0032234925558107695
4.11600e-06;-0.0032179930555153798
4.11625e-06;-0.003212493555219972
4.11650e-06;-0.003206994054924582
4.11675e-06;-0.003201494554629193
4.11700e-06;-0.0031969983848209056
4.11725e-06;-0.003192620470228282
4.11750e-06;-0.003188242555635658
4.11775e-06;-0.0031844162411349755
4.11800e-06;-0.003180654939696962
4.11825e-06;-0.003176893638258948
4.11850e-06;-0.003172090788101028
4.11875e-06;-0.0031671651782243155
4.11900e-06;-0.0031622395683476036
4.11925e-06;-0.0031548113533664273
4.11950e-06;-0.0031470881746519133
4.11975e-06;-0.0031393649959373733
4.12000e-06;-0.0031316418172228594
4.12025e-06;-0.003123918638508346
4.12050e-06;-0.003112606386490579
4.12075e-06;-0.00310087111669075
4.12100e-06;-0.0030891358468909218
4.12125e-06;-0.0030774005770910534
4.12150e-06;-0.003065665307291225
4.12175e-06;-0.0030499697928948284
4.12200e-06;-0.003033807513474604
4.12225e-06;-0.003017645234054434
4.12250e-06;-0.003001482954634264
4.12275e-06;-0.0029853206752140397
4.12300e-06;-0.0029691583957938694
4.12325e-06;-0.002951675059795729
4.12350e-06;-0.002932164639899642
4.12375e-06;-0.0029126542200036214
4.12400e-06;-0.0028931438001075344
4.12425e-06;-0.0028736333802115138
4.12450e-06;-0.0028541229603154927
4.12475e-06;-0.0028346125404194056
4.12500e-06;-0.002814379440823082
4.12525e-06;-0.0027940611642637693
4.12550e-06;-0.002773742887704387
4.12575e-06;-0.002753861552010885
4.12600e-06;-0.0027340317153368506
4.12625e-06;-0.0027149607540315848
4.12650e-06;-0.002695979235807703
4.12675e-06;-0.0026783119768338153
4.12700e-06;-0.00266079961997133
4.12725e-06;-0.0026432872631089043
4.12750e-06;-0.002627703180753054
4.12775e-06;-0.0026123463699895236
4.12800e-06;-0.002598854099448872
4.12825e-06;-0.002585581588607338
4.12850e-06;-0.0025726794031139502
4.12875e-06;-0.002559820865156878
4.12900e-06;-0.0025463606700069138
4.12925e-06;-0.0025328295619305398
4.12950e-06;-0.002519298453854166
4.12975e-06;-0.0025057588756441755
4.13000e-06;-0.0024922182991216264
4.13025e-06;-0.0024786777225990777
4.13050e-06;-0.0024637293808437077
4.13075e-06;-0.002448615116111655
4.13100e-06;-0.002433500851379602
4.13125e-06;-0.002418386586647498
4.13150e-06;-0.0024032723219154454
4.13175e-06;-0.0023873632603229507
4.13200e-06;-0.0023702346295276255
4.13225e-06;-0.002353105998732358
4.13250e-06;-0.0023359773679370328
4.13275e-06;-0.0023188487371417653
4.13300e-06;-0.002301720106346498
4.13325e-06;-0.0022833150352581824
4.13350e-06;-0.0022647595195019726
4.13375e-06;-0.0022462040037457627
4.13400e-06;-0.002227508939067536
4.13425e-06;-0.002208797426780078
4.13450e-06;-0.00219008591449262
4.13475e-06;-0.002171260402538507
4.13500e-06;-0.002152421454278756
4.13525e-06;-0.002133582506019005
4.13550e-06;-0.002115303211420824
4.13575e-06;-0.002097089879100571
4.13600e-06;-0.0020788765467803175
4.13625e-06;-0.0020618852742233214
4.13650e-06;-0.0020450380368996005
4.13675e-06;-0.002028190799575822
4.13700e-06;-0.0020129789228773183
4.13725e-06;-0.001997959794157353
4.13750e-06;-0.001982940665437336
4.13775e-06;-0.0019702924798441547
4.13800e-06;-0.0019579237399511154
4.13825e-06;-0.0019455550000580344
4.13850e-06;-0.0019342222199853888
4.13875e-06;-0.0019230115409087768
4.13900e-06;-0.0019118008618321269
4.13925e-06;-0.0019009327024602316
4.13950e-06;-0.0018901049133771084
4.13975e-06;-0.0018792771242939486
4.14000e-06;-0.0018684493352108254
4.14025e-06;-0.0018576215461277021
4.14050e-06;-0.001846733771836297
4.14075e-06;-0.0018358389275278015
4.14100e-06;-0.0018249440832192692
4.14125e-06;-0.0018140492389107736
4.14150e-06;-0.001803154394602278
4.14175e-06;-0.0017917100746778416
4.14200e-06;-0.0017802009920872988
4.14225e-06;-0.0017686919094967559
4.14250e-06;-0.001757182826906174
4.14275e-06;-0.0017456737443156312
4.14300e-06;-0.0017341646617250884
4.14325e-06;-0.0017226555791345064
