Time(s);Current(A)
1.05000e-05;0.007098208864818824
1.05002e-05;0.007150633159594507
1.05005e-05;0.007203057454370545
1.05008e-05;0.0072554817491465836
1.05010e-05;0.007307906043922266
1.05013e-05;0.007353899261867958
1.05015e-05;0.007377865109856926
1.05017e-05;0.00740183095784573
1.05020e-05;0.007425796805834696
1.05023e-05;0.007449762653823663
1.05025e-05;0.007473728501812467
1.05028e-05;0.0074976943498014335
1.05030e-05;0.007521660197790401
1.05033e-05;0.0075130326910171
1.05035e-05;0.007492102954621527
1.05038e-05;0.007471173218225813
1.05040e-05;0.007450243481830098
1.05043e-05;0.007429313745434525
1.05045e-05;0.00740838400903881
1.05048e-05;0.0073874542726430955
1.05050e-05;0.007356595833194222
1.05053e-05;0.007291730147194828
1.05055e-05;0.007226864461195435
1.05058e-05;0.007161998775196481
1.05060e-05;0.0070971330891970875
1.05063e-05;0.007032267403197694
1.05065e-05;0.00696740171719874
1.05068e-05;0.006902536031199347
1.05070e-05;0.006831608870218395
1.05073e-05;0.006739920279163444
1.05075e-05;0.006648231688107872
1.05078e-05;0.0065565430970523
1.05080e-05;0.00646485450599735
1.05083e-05;0.006373165914941778
1.05085e-05;0.006281477323886206
1.05087e-05;0.006189788732831255
1.05090e-05;0.006098270423909915
1.05093e-05;0.006007335355971009
1.05095e-05;0.005916400288032718
1.05098e-05;0.005825465220093811
1.05100e-05;0.005734530152154904
1.05102e-05;0.005643595084216613
1.05105e-05;0.005552660016277707
1.05108e-05;0.0054678169815757195
1.05110e-05;0.005403840043405107
1.05113e-05;0.005339863105234061
1.05115e-05;0.005275886167063015
1.05118e-05;0.0052119092288919686
1.05120e-05;0.005147932290721356
1.05123e-05;0.00508395535255031
1.05125e-05;0.00502982506851807
1.05128e-05;0.005009421001627702
1.05130e-05;0.004989016934737196
1.05133e-05;0.00496861286784669
1.05135e-05;0.004948208800956323
1.05138e-05;0.004927804734065817
1.05140e-05;0.004907400667175312
1.05143e-05;0.0048869966002849435
1.05145e-05;0.004866592533394438
1.05148e-05;0.004846188466503932
1.05150e-05;0.004835436384392789
1.05153e-05;0.004857743748662911
1.05155e-05;0.004880051112933032
1.05158e-05;0.004902358477203002
1.05160e-05;0.004924665841473123
1.05163e-05;0.004946973205743244
1.05165e-05;0.004969280570013214
1.05168e-05;0.004991587934283336
1.05170e-05;0.005013895298553457
1.05172e-05;0.005036202662823427
1.05175e-05;0.0050631262404483126
1.05178e-05;0.0051058610176744805
1.05180e-05;0.005148595794900358
1.05183e-05;0.005191330572126526
1.05185e-05;0.005234065349352693
1.05187e-05;0.005276800126578571
1.05190e-05;0.005319534903804738
1.05193e-05;0.005362269681030906
1.05195e-05;0.005405004458256785
1.05198e-05;0.005444584367074209
1.05200e-05;0.005482973483599859
1.05203e-05;0.005521362600125509
1.05205e-05;0.005559751716650899
1.05208e-05;0.005598140833176549
1.05210e-05;0.005636529949702199
1.05213e-05;0.00567491906622759
1.05215e-05;0.00571330818275324
1.05218e-05;0.00574764310950136
1.05220e-05;0.005768091848831196
1.05223e-05;0.005788540588161169
1.05225e-05;0.005808989327491143
1.05228e-05;0.005829438066820979
1.05230e-05;0.005849886806150953
1.05233e-05;0.005870335545480926
1.05235e-05;0.005890784284810761
1.05238e-05;0.0059112330241407355
1.05240e-05;0.00593168176347071
1.05243e-05;0.005952130502800545
1.05245e-05;0.005972579242130518
1.05248e-05;0.0059930279814604925
1.05250e-05;0.006013476720790328
1.05253e-05;0.006033925460120302
1.05255e-05;0.006054374199450275
1.05257e-05;0.006074822938780111
1.05260e-05;0.006095271678110085
1.05263e-05;0.0061135739558116475
1.05265e-05;0.006124524291423473
1.05268e-05;0.0061354746270353725
1.05270e-05;0.006146424962647273
1.05272e-05;0.006157375298259098
1.05275e-05;0.006168325633870998
1.05278e-05;0.006179275969482897
1.05280e-05;0.006190226305094723
1.05283e-05;0.006201176640706622
1.05285e-05;0.006212126976318523
1.05288e-05;0.006223077311930422
1.05290e-05;0.006234027647542248
1.05293e-05;0.006244977983154147
1.05295e-05;0.0062559283187660466
1.05298e-05;0.006266878654377872
1.05300e-05;0.0062778289899897725
1.05303e-05;0.006288779325601672
1.05305e-05;0.006299729661213498
1.05308e-05;0.006308633938480469
1.05310e-05;0.006310530169450049
1.05313e-05;0.006312426400419615
1.05315e-05;0.006314322631389195
1.05318e-05;0.006316218862358775
1.05320e-05;0.006318115093328342
1.05323e-05;0.006320011324297921
1.05325e-05;0.006321907555267501
1.05328e-05;0.006317727973571976
1.05330e-05;0.006292737853134937
1.05333e-05;0.006267747732697899
1.05335e-05;0.00624275761226103
1.05338e-05;0.006217767491823991
1.05340e-05;0.0061927773713869524
1.05342e-05;0.006167787250950084
1.05345e-05;0.006142797130513045
1.05348e-05;0.006110460467319588
1.05350e-05;0.0060529608306979414
1.05353e-05;0.005995461194075905
1.05355e-05;0.005937961557453869
1.05357e-05;0.005880461920832222
1.05360e-05;0.005822962284210186
1.05363e-05;0.0057654626475881505
1.05365e-05;0.005707963010966504
1.05368e-05;0.005650463374344467
1.05370e-05;0.0055784234390601805
1.05373e-05;0.005500895326985272
1.05375e-05;0.0054233672149108895
1.05378e-05;0.005345839102835982
1.05380e-05;0.005268310990761073
1.05383e-05;0.005190782878686691
1.05385e-05;0.005113254766611782
1.05388e-05;0.005035726654536874
1.05390e-05;0.00495851885341771
1.05393e-05;0.004882408163731816
1.05395e-05;0.004806297474045921
1.05398e-05;0.004730186784360542
1.05400e-05;0.004654076094674647
1.05403e-05;0.0045779654049887515
1.05405e-05;0.0045018547153033725
1.05408e-05;0.004441041979505376
1.05410e-05;0.004386003394392731
1.05413e-05;0.004330964809280458
1.05415e-05;0.004275926224167814
1.05418e-05;0.004220887639055169
1.05420e-05;0.004165849053942896
1.05423e-05;0.004117139199537957
1.05425e-05;0.00409010616482582
1.05427e-05;0.004063073130113866
1.05430e-05;0.00404061994781662
1.05433e-05;0.004033853423650736
1.05435e-05;0.004027086899484898
1.05438e-05;0.004025064668308947
1.05440e-05;0.0040392923280609516
1.05442e-05;0.004053519987812859
1.05445e-05;0.004072347353513344
1.05448e-05;0.0041069293785744735
1.05450e-05;0.004141511403635369
1.05453e-05;0.004180192587075444
1.05455e-05;0.00423291398192228
1.05458e-05;0.004285635376769117
1.05460e-05;0.00434380681713551
1.05463e-05;0.004420645453108078
1.05465e-05;0.004497484089080646
1.05468e-05;0.004574322725052693
1.05470e-05;0.004651161361025261
1.05473e-05;0.004727999996997829
1.05475e-05;0.004804838632969877
1.05478e-05;0.004885452286565426
1.05480e-05;0.004978995922512789
1.05483e-05;0.005072539558459519
1.05485e-05;0.005166083194406883
1.05488e-05;0.005259626830354247
1.05490e-05;0.005353170466300976
1.05493e-05;0.00544671410224834
1.05495e-05;0.0055380413021332035
1.05498e-05;0.005621776887345344
1.05500e-05;0.005705512472558051
1.05503e-05;0.005789248057770759
1.05505e-05;0.005872983642982899
1.05508e-05;0.005956719228195607
1.05510e-05;0.0060404548134083145
1.05512e-05;0.006124190398620454
1.05515e-05;0.00617934415565452
1.05518e-05;0.006223709817494164
1.05520e-05;0.0062680754793335075
1.05523e-05;0.0063124411411731515
1.05525e-05;0.006356806803012796
1.05527e-05;0.0064011724648521395
1.05530e-05;0.006445538126691784
1.05533e-05;0.006476982075274628
1.05535e-05;0.006464167283608559
1.05538e-05;0.006451352491942403
1.05540e-05;0.006438537700276247
1.05543e-05;0.00642572290861009
1.05545e-05;0.0064129081169440215
1.05548e-05;0.006400093325277865
1.05550e-05;0.006387278533611709
1.05553e-05;0.00637446374194564
1.05555e-05;0.006350155075564602
1.05558e-05;0.006286478222831609
1.05560e-05;0.006222801370099048
1.05563e-05;0.006159124517366056
1.05565e-05;0.0060954476646330625
1.05568e-05;0.006031770811900501
1.05570e-05;0.005968093959167508
1.05573e-05;0.005904417106434516
1.05575e-05;0.005840740253701955
1.05578e-05;0.00577210073414431
1.05580e-05;0.005686463361625022
1.05583e-05;0.005600825989106314
1.05585e-05;0.005515188616587024
1.05588e-05;0.005429551244067736
1.05590e-05;0.005343913871549027
1.05593e-05;0.005258276499029739
1.05595e-05;0.005174216941243579
1.05597e-05;0.005095561627543675
1.05600e-05;0.005016906313843238
1.05603e-05;0.0049382510001428
1.05605e-05;0.004859595686442895
1.05608e-05;0.004780940372742458
1.05610e-05;0.00470228505904202
1.05612e-05;0.004630118079131633
1.05615e-05;0.004580174582609482
1.05618e-05;0.004530231086087332
1.05620e-05;0.004480287589565519
1.05623e-05;0.004430344093043369
1.05625e-05;0.004380400596521218
1.05628e-05;0.004330457099999067
1.05630e-05;0.004280513603477256
1.05633e-05;0.004230570106955105
1.05635e-05;0.004180626610432955
1.05638e-05;0.004145847942780238
1.05640e-05;0.004116793178318093
1.05643e-05;0.004087738413855948
1.05645e-05;0.004058683649394
1.05648e-05;0.004029628884931856
1.05650e-05;0.00400057412046971
1.05653e-05;0.003971519356007763
1.05655e-05;0.003942464591545618
1.05658e-05;0.003913409827083473
1.05660e-05;0.0038877392926636597
1.05663e-05;0.0038736602365156414
1.05665e-05;0.003859581180367623
1.05668e-05;0.0038455021242197007
1.05670e-05;0.0038314230680716824
1.05673e-05;0.003817344011923664
1.05675e-05;0.0038032649557757413
1.05678e-05;0.0037891858996277235
1.05680e-05;0.003775106843479705
1.05682e-05;0.0037610277873317824
1.05685e-05;0.003746948731183764
1.05688e-05;0.0037328696750357463
1.05690e-05;0.0037187906188878234
1.05693e-05;0.003704711562739805
1.05695e-05;0.003690632506591787
1.05697e-05;0.0036765534504438644
1.05700e-05;0.003662474394295846
1.05703e-05;0.003648395338147828
1.05705e-05;0.003641140466428592
1.05708e-05;0.0036364613554630337
1.05710e-05;0.003631782244497475
1.05713e-05;0.0036271031335319164
1.05715e-05;0.0036224240225663897
1.05718e-05;0.0036177449116008313
1.05720e-05;0.003613065800635273
1.05723e-05;0.003608386689669746
1.05725e-05;0.0036037075787041877
1.05728e-05;0.0035990284677386293
1.05730e-05;0.0035943493567731025
1.05733e-05;0.003589670245807544
1.05735e-05;0.0035849911348419857
1.05738e-05;0.003580312023876459
1.05740e-05;0.0035756329129109005
1.05743e-05;0.0035709538019453417
1.05745e-05;0.003566274690979815
1.05748e-05;0.0035627626454146615
1.05750e-05;0.0035632479679563226
1.05753e-05;0.0035637332904979806
1.05755e-05;0.0035642186130396417
1.05758e-05;0.003564703935581303
1.05760e-05;0.003565189258122961
1.05763e-05;0.0035656745806646223
1.05765e-05;0.0035661599032062834
1.05767e-05;0.0035666452257479414
1.05770e-05;0.0035671305482896025
1.05773e-05;0.003567615870831264
1.05775e-05;0.0035681011933729216
1.05778e-05;0.003568586515914583
1.05780e-05;0.003569071838456244
1.05782e-05;0.0035705808359191766
1.05785e-05;0.0035724762153322358
1.05788e-05;0.003574371594745295
1.05790e-05;0.003576266974158341
1.05793e-05;0.0035781623535714
1.05795e-05;0.0035800577329844594
1.05798e-05;0.0035819531123975185
1.05800e-05;0.003583848491810565
1.05803e-05;0.0035857438712236242
1.05805e-05;0.0035876392506366834
1.05808e-05;0.0035895346300497295
1.05810e-05;0.0035914300094627887
1.05813e-05;0.003593325388875848
1.05815e-05;0.0035977597865758447
1.05818e-05;0.003610890689819863
1.05820e-05;0.0036240215930638817
1.05823e-05;0.003637152496307811
1.05825e-05;0.00365028339955183
1.05828e-05;0.0036634143027958485
1.05830e-05;0.003676545206039778
1.05833e-05;0.0036896761092837967
1.05835e-05;0.003726981196334744
1.05838e-05;0.003773410731087593
1.05840e-05;0.0038198402658407567
1.05843e-05;0.00386626980059392
1.05845e-05;0.003912699335346769
1.05848e-05;0.003959128870099933
1.05850e-05;0.004005558404853097
1.05853e-05;0.004059365344309381
1.05855e-05;0.004138440963887742
1.05858e-05;0.004217516583466105
1.05860e-05;0.00429659220304393
1.05863e-05;0.004375667822622291
1.05865e-05;0.004454743442200653
1.05867e-05;0.004533819061778479
1.05870e-05;0.00461289468135684
1.05873e-05;0.004705427623251579
1.05875e-05;0.004803039976913567
1.05878e-05;0.004900652330576217
1.05880e-05;0.004998264684238867
1.05883e-05;0.0050958770379015165
1.05885e-05;0.005193489391563505
1.05888e-05;0.0052911017452261545
1.05890e-05;0.00538750192491101
1.05893e-05;0.00547975023307228
1.05895e-05;0.005571998541234174
1.05898e-05;0.005664246849396069
1.05900e-05;0.005756495157557338
1.05903e-05;0.005848743465719232
1.05905e-05;0.005940991773881127
1.05908e-05;0.006033240082042396
1.05910e-05;0.006102768050662726
1.05913e-05;0.006163720319203586
1.05915e-05;0.006224672587744032
1.05918e-05;0.006285624856284891
1.05920e-05;0.00634657712482575
1.05923e-05;0.006407529393366196
1.05925e-05;0.006468481661907055
1.05928e-05;0.006519098076648402
1.05930e-05;0.006534312694411556
1.05933e-05;0.006549527312174812
1.05935e-05;0.006564741929938069
1.05938e-05;0.006579956547701223
1.05940e-05;0.006595171165464479
1.05943e-05;0.006610385783227736
1.05945e-05;0.0066256004009908895
1.05948e-05;0.006640815018754146
1.05950e-05;0.006656029636517403
1.05952e-05;0.0066712442542805565
1.05955e-05;0.006656640602063367
1.05958e-05;0.006630782164686971
1.05960e-05;0.006604923727310749
1.05963e-05;0.006579065289934353
1.05965e-05;0.006553206852557957
1.05968e-05;0.006527348415181561
1.05970e-05;0.006501489977805339
1.05973e-05;0.006475631540428943
1.05975e-05;0.006449773103052547
1.05978e-05;0.006423914665676326
1.05980e-05;0.0063944614408803025
1.05983e-05;0.00635269554826822
1.05985e-05;0.0063109296556564205
1.05988e-05;0.006269163763044337
1.05990e-05;0.006227397870432255
1.05993e-05;0.006185631977820455
1.05995e-05;0.006143866085208373
1.05998e-05;0.0061029790045989156
1.06000e-05;0.006065101982443479
1.06003e-05;0.006027224960287785
1.06005e-05;0.005989347938132091
1.06008e-05;0.005951470915976654
1.06010e-05;0.005913593893820961
1.06013e-05;0.005875716871665267
1.06015e-05;0.0058387870429253376
1.06018e-05;0.005805101488887262
1.06020e-05;0.005771415934849186
1.06023e-05;0.005737730380811338
1.06025e-05;0.005704044826773263
1.06028e-05;0.005670359272735187
1.06030e-05;0.0056366737186973395
1.06033e-05;0.005602988164659263
1.06035e-05;0.005569302610621187
1.06037e-05;0.0055242710403174385
1.06040e-05;0.005474956962154741
1.06043e-05;0.005425642883992042
1.06045e-05;0.005376328805829679
1.06048e-05;0.00532701472766698
1.06050e-05;0.005277700649504282
1.06053e-05;0.005228386571341584
1.06055e-05;0.0051790724931792195
1.06058e-05;0.005126111909782702
1.06060e-05;0.0050606615175574935
1.06063e-05;0.004995211125332727
1.06065e-05;0.004929760733107518
1.06068e-05;0.004864310340882309
1.06070e-05;0.004798859948657543
1.06073e-05;0.004733409556432333
1.06075e-05;0.004667959164207124
1.06078e-05;0.004602508771982358
1.06080e-05;0.004534360252170828
1.06083e-05;0.0044651933350360945
1.06085e-05;0.004396026417901829
1.06088e-05;0.004326859500767095
1.06090e-05;0.004257692583632362
1.06093e-05;0.0041885256664980965
1.06095e-05;0.004119358749363363
1.06098e-05;0.004050191832228629
1.06100e-05;0.0039851522199026365
1.06103e-05;0.003934249224621715
1.06105e-05;0.003883346229340794
1.06108e-05;0.0038324432340602174
1.06110e-05;0.003781540238779296
1.06113e-05;0.0037306372434983744
1.06115e-05;0.003679734248217798
1.06118e-05;0.0036288312529368766
1.06120e-05;0.003577928257655955
1.06122e-05;0.0035270252623753784
1.06125e-05;0.0034815123436059735
1.06128e-05;0.003454461217952885
1.06130e-05;0.0034274100922999807
1.06133e-05;0.0034003589666468923
1.06135e-05;0.0033733078409938044
1.06138e-05;0.003346256715340716
1.06140e-05;0.0033192055896878116
1.06143e-05;0.0032921544640347232
1.06145e-05;0.0032651033383816353
1.06148e-05;0.0032380522127287304
1.06150e-05;0.0032145614603972866
1.06153e-05;0.003203265502619918
1.06155e-05;0.003191969544842626
1.06158e-05;0.0031806735870652577
1.06160e-05;0.0031693776292878893
1.06163e-05;0.003158081671510597
1.06165e-05;0.003146785713733229
1.06168e-05;0.0031354897559558604
1.06170e-05;0.0031241937981785683
1.06173e-05;0.0031128978404012
1.06175e-05;0.0031016018826238315
1.06178e-05;0.0030903059248465394
1.06180e-05;0.003079009967069171
1.06183e-05;0.00306953125923204
1.06185e-05;0.0030662768957754644
1.06188e-05;0.0030630225323188664
1.06190e-05;0.003059768168862269
1.06193e-05;0.003056513805405693
1.06195e-05;0.0030532594419490954
1.06198e-05;0.003050005078492498
1.06200e-05;0.003046750715035922
1.06203e-05;0.0030434963515793244
1.06205e-05;0.003040241988122727
1.06207e-05;0.003036987624666151
1.06210e-05;0.0030337332612095534
1.06213e-05;0.003030478897752956
1.06215e-05;0.003029330782171379
1.06218e-05;0.003035396870776569
1.06220e-05;0.003041462959381759
1.06222e-05;0.0030475290479869076
1.06225e-05;0.0030535951365920975
1.06228e-05;0.003059661225197287
1.06230e-05;0.003065727313802477
1.06233e-05;0.0030717934024076256
1.06235e-05;0.0030778594910128155
1.06238e-05;0.003083925579618005
1.06240e-05;0.0030899916682231537
1.06243e-05;0.0030960577568283436
1.06245e-05;0.0031159069756309045
1.06248e-05;0.00314095858107306
1.06250e-05;0.0031660101865153855
1.06253e-05;0.003191061791957711
1.06255e-05;0.0032161133973998665
1.06258e-05;0.003241165002842192
1.06260e-05;0.0032662166082845175
1.06263e-05;0.003291268213726673
1.06265e-05;0.0033163198191689986
1.06268e-05;0.003341371424611324
1.06270e-05;0.0033664230300534796
1.06273e-05;0.0033936605794886703
1.06275e-05;0.0034283853038642098
1.06278e-05;0.0034631100282395137
1.06280e-05;0.003497834752615053
1.06283e-05;0.0035325594769905926
1.06285e-05;0.0035672842013658966
1.06288e-05;0.003602008925741436
1.06290e-05;0.0036367336501169755
1.06292e-05;0.0036714583744922795
1.06295e-05;0.00370497681547485
1.06298e-05;0.003734363561033695
1.06300e-05;0.0037637503065923402
1.06303e-05;0.003793137052151185
1.06305e-05;0.0038225237977100295
1.06307e-05;0.0038519105432686753
1.06310e-05;0.0038812972888275198
1.06313e-05;0.003910684034386365
1.06315e-05;0.0039400707799452095
1.06318e-05;0.003964510346719636
1.06320e-05;0.0039720051092595075
1.06323e-05;0.003979499871799379
1.06325e-05;0.0039869946343392
1.06328e-05;0.003994489396879072
1.06330e-05;0.004001984159418943
1.06333e-05;0.004009478921958765
1.06335e-05;0.004016973684498636
1.06338e-05;0.004024468447038508
1.06340e-05;0.004031963209578329
1.06343e-05;0.004039457972118201
1.06345e-05;0.004046952734658073
1.06348e-05;0.004054447497197893
1.06350e-05;0.004044379510932299
1.06353e-05;0.004027682536297166
1.06355e-05;0.0040109855616621455
1.06358e-05;0.003994288587027012
1.06360e-05;0.003977591612391879
1.06363e-05;0.003960894637756859
1.06365e-05;0.003944197663121726
1.06368e-05;0.003927500688486593
1.06370e-05;0.0039108037138515725
1.06373e-05;0.0038941067392164394
1.06375e-05;0.0038774097645813063
1.06377e-05;0.003860712789946286
1.06380e-05;0.0038420502256947715
1.06383e-05;0.003816655232171015
1.06385e-05;0.0037912602386474307
1.06388e-05;0.0037658652451236737
1.06390e-05;0.003740470251599917
1.06392e-05;0.0037150752580763324
1.06395e-05;0.003689680264552576
1.06398e-05;0.0036642852710288194
1.06400e-05;0.0036388902775050624
1.06403e-05;0.003615071190359128
1.06405e-05;0.0035966498109237344
1.06408e-05;0.003578228431488341
1.06410e-05;0.0035598070520530723
1.06413e-05;0.0035413856726176788
1.06415e-05;0.0035229642931822853
1.06418e-05;0.0035045429137470162
1.06420e-05;0.0034861215343116227
1.06423e-05;0.0034677001548762292
1.06425e-05;0.0034540958870267905
1.06428e-05;0.003456990924416408
1.06430e-05;0.003459885961806026
1.06433e-05;0.0034627809991956246
1.06435e-05;0.003465676036585242
1.06438e-05;0.0034685710739748602
1.06440e-05;0.0034714661113644588
1.06443e-05;0.0034743611487540764
1.06445e-05;0.0034772561861436944
1.06448e-05;0.003480151223533293
1.06450e-05;0.003483046260922911
1.06453e-05;0.0034908929835430857
1.06455e-05;0.003515699945637472
1.06458e-05;0.0035405069077320264
1.06460e-05;0.0035653138698265806
1.06462e-05;0.0035901208319209666
1.06465e-05;0.003614927794015521
1.06468e-05;0.003639734756110075
1.06470e-05;0.0036645417182044615
1.06473e-05;0.0036893486802990158
1.06475e-05;0.00371415564239357
1.06477e-05;0.003738962604487956
1.06480e-05;0.0037654209118502023
1.06483e-05;0.0037975353160548467
1.06485e-05;0.0038296497202594914
1.06488e-05;0.0038617641244639185
1.06490e-05;0.0038938785286685633
1.06493e-05;0.003925992932873208
1.06495e-05;0.003958107337077635
1.06498e-05;0.00399022174128228
1.06500e-05;0.004022336145486924
