Time(s);Current(A)
1.75000e-06;0.00915123642537878
1.75025e-06;0.009171077587600551
1.75050e-06;0.009190918749822323
1.75075e-06;0.009210759912044113
1.75100e-06;0.009230601074265885
1.75125e-06;0.009250442236487674
1.75150e-06;0.009270283398709446
1.75175e-06;0.009289474702574458
1.75200e-06;0.009308533819925717
1.75225e-06;0.009327592937276977
1.75250e-06;0.009346652054628252
1.75275e-06;0.009365711171979513
1.75300e-06;0.009384770289330787
1.75325e-06;0.009403829406682046
1.75350e-06;0.009422888524033307
1.75375e-06;0.009441947641384582
1.75400e-06;0.009461006758735842
1.75425e-06;0.009480065876087117
1.75450e-06;0.009499124993438378
1.75475e-06;0.009518184110789637
1.75500e-06;0.009537243228140911
1.75525e-06;0.009548351001719881
1.75550e-06;0.00955784140683422
1.75575e-06;0.009567331811948548
1.75600e-06;0.009576822217062887
1.75625e-06;0.009586312622177217
1.75650e-06;0.009595803027291546
1.75675e-06;0.009605293432405885
1.75700e-06;0.009614783837520215
1.75725e-06;0.009624274242634552
1.75750e-06;0.009633764647748882
1.75775e-06;0.009643255052863212
1.75800e-06;0.009652745457977549
1.75825e-06;0.00966223586309188
1.75850e-06;0.009671726268206216
1.75875e-06;0.009681216673320546
1.75900e-06;0.009690707078434876
1.75925e-06;0.009700197483549214
1.75950e-06;0.009709687888663544
1.75975e-06;0.00971917829377788
1.76000e-06;0.00972866869889221
1.76025e-06;0.00973815910400655
1.76050e-06;0.009747649509120878
1.76075e-06;0.009757139914235208
1.76100e-06;0.009766630319349547
1.76125e-06;0.009772822035335868
1.76150e-06;0.009772345806388326
1.76175e-06;0.009771869577440783
1.76200e-06;0.009771393348493241
1.76225e-06;0.009770917119545698
1.76250e-06;0.009770440890598158
1.76275e-06;0.009769964661650615
1.76300e-06;0.009769488432703073
1.76325e-06;0.00976901220375553
1.76350e-06;0.009768535974807988
1.76375e-06;0.009768059745860445
1.76400e-06;0.009767583516912903
1.76425e-06;0.00976710728796536
1.76450e-06;0.009766631059017818
1.76475e-06;0.009766154830070276
1.76500e-06;0.009765678601122735
1.76525e-06;0.009765202372175192
1.76550e-06;0.00976472614322765
1.76575e-06;0.009764249914280107
1.76600e-06;0.009763773685332565
1.76625e-06;0.009763297456385022
1.76650e-06;0.00976282122743748
1.76675e-06;0.009762344998489937
1.76700e-06;0.009761868769542395
1.76725e-06;0.009761392540594853
1.76750e-06;0.009753400810150777
1.76775e-06;0.009743880365131762
1.76800e-06;0.009734359920112755
1.76825e-06;0.00972483947509374
1.76850e-06;0.009715319030074733
1.76875e-06;0.009705798585055726
1.76900e-06;0.009696278140036712
1.76925e-06;0.009686757695017706
1.76950e-06;0.009659696809547588
1.76975e-06;0.009629068054790243
1.77000e-06;0.009598439300032872
1.77025e-06;0.009567810545275527
1.77050e-06;0.009537181790518183
1.77075e-06;0.009506553035760812
1.77100e-06;0.009475924281003467
1.77125e-06;0.009445295526246096
1.77150e-06;0.009396798020635184
1.77175e-06;0.00934466586471157
1.77200e-06;0.00929253370878791
1.77225e-06;0.009240401552864297
1.77250e-06;0.009188269396940639
1.77275e-06;0.009136137241017025
1.77300e-06;0.00908400508509341
1.77325e-06;0.009031872929169751
1.77350e-06;0.008979740773246137
1.77375e-06;0.00892760861732248
1.77400e-06;0.008873814034337372
1.77425e-06;0.008816659034025334
1.77450e-06;0.008759504033713342
1.77475e-06;0.008702349033401353
1.77500e-06;0.008645194033089314
1.77525e-06;0.008588039032777325
1.77550e-06;0.008530884032465286
1.77575e-06;0.008473729032153297
1.77600e-06;0.008416574031841307
1.77625e-06;0.008359419031529269
1.77650e-06;0.008302264031217277
1.77675e-06;0.00826367810996352
1.77700e-06;0.008228869291516559
1.77725e-06;0.008194060473069599
1.77750e-06;0.008159251654622607
1.77775e-06;0.008124442836175647
1.77800e-06;0.008089634017728655
1.77825e-06;0.008054825199281695
1.77850e-06;0.008020016380834705
1.77875e-06;0.007985207562387743
1.77900e-06;0.007960985912314483
1.77925e-06;0.007958165083286903
1.77950e-06;0.007955344254259327
1.77975e-06;0.007952523425231745
1.78000e-06;0.007949702596204169
1.78025e-06;0.00794688176717659
1.78050e-06;0.007944060938149011
1.78075e-06;0.007941240109121433
1.78100e-06;0.007938419280093853
1.78125e-06;0.007935598451066275
1.78150e-06;0.007952726942632816
1.78175e-06;0.007973913289441905
1.78200e-06;0.007995099636250976
1.78225e-06;0.008016285983060064
1.78250e-06;0.008037472329869134
1.78275e-06;0.008058658676678224
1.78300e-06;0.008079845023487294
1.78325e-06;0.0081047206261768
1.78350e-06;0.00813705366244061
1.78375e-06;0.008169386698704392
1.78400e-06;0.0082017197349682
1.78425e-06;0.008234052771231983
1.78450e-06;0.008266385807495764
1.78475e-06;0.008298718843759574
1.78500e-06;0.008331051880023355
1.78525e-06;0.008364784650896928
1.78550e-06;0.008396499645475649
1.78575e-06;0.008427746293956142
1.78600e-06;0.008458992942436664
1.78625e-06;0.008490239590917159
1.78650e-06;0.00852148623939768
1.78675e-06;0.008552732887878176
1.78700e-06;0.008577600115600829
1.78725e-06;0.00860116971687834
1.78750e-06;0.00862473931815585
1.78775e-06;0.00864830891943338
1.78800e-06;0.00867187852071089
1.78825e-06;0.00869544812198842
1.78850e-06;0.008721937640110635
1.78875e-06;0.008749021093240274
1.78900e-06;0.008776104546369935
1.78925e-06;0.008803187999499572
1.78950e-06;0.008830271452629233
1.78975e-06;0.008857354905758872
1.79000e-06;0.00888443835888851
1.79025e-06;0.008911521812018172
1.79050e-06;0.00893860526514781
1.79075e-06;0.008965688718277472
1.79100e-06;0.00899277217140711
1.79125e-06;0.009027775618730968
1.79150e-06;0.009064390057757844
1.79175e-06;0.00910100449678472
1.79200e-06;0.009137618935811626
1.79225e-06;0.009174233374838503
1.79250e-06;0.00921084781386541
1.79275e-06;0.009247462252892285
1.79300e-06;0.009284076691919161
1.79325e-06;0.009320691130946069
1.79350e-06;0.009357305569972944
1.79375e-06;0.009393920008999851
1.79400e-06;0.009431431087995632
1.79425e-06;0.009469124550906736
1.79450e-06;0.009506818013817872
1.79475e-06;0.009544511476728978
1.79500e-06;0.009582204939640114
1.79525e-06;0.00961989840255122
1.79550e-06;0.009657591865462356
1.79575e-06;0.00969528532837346
1.79600e-06;0.009732978791284565
1.79625e-06;0.009770672254195702
1.79650e-06;0.009801447426593404
1.79675e-06;0.009818238019547692
1.79700e-06;0.009835028612501963
1.79725e-06;0.009851819205456237
1.79750e-06;0.009868609798410524
1.79775e-06;0.009885400391364797
1.79800e-06;0.009902190984319085
1.79825e-06;0.009918981577273358
1.79850e-06;0.00993577217022763
1.79875e-06;0.009952562763181917
1.79900e-06;0.00996935335613619
1.79925e-06;0.009950344703958617
1.79950e-06;0.009924054192039223
1.79975e-06;0.009897763680119808
1.80000e-06;0.009871473168200416
1.80025e-06;0.009845182656281024
1.80050e-06;0.009818892144361609
1.80075e-06;0.009792601632442216
1.80100e-06;0.009766311120522802
1.80125e-06;0.00974002060860341
1.80150e-06;0.00968361069368369
1.80175e-06;0.009621074245443357
1.80200e-06;0.009558537797203077
1.80225e-06;0.009496001348962745
1.80250e-06;0.009433464900722464
1.80275e-06;0.009370928452482184
1.80300e-06;0.00930839200424185
1.80325e-06;0.00924585555600157
1.80350e-06;0.009183319107761238
1.80375e-06;0.009108515040755334
1.80400e-06;0.009031215639591283
1.80425e-06;0.008953916238427168
1.80450e-06;0.008876616837263117
1.80475e-06;0.008799317436099002
1.80500e-06;0.00872201803493495
1.80525e-06;0.008644718633770835
1.80550e-06;0.008570698566600912
1.80575e-06;0.008503307320043672
1.80600e-06;0.008435916073486375
1.80625e-06;0.008368524826929137
1.80650e-06;0.00830113358037184
1.80675e-06;0.0082337423338146
1.80700e-06;0.00816635108725736
1.80725e-06;0.008098959840700064
1.80750e-06;0.008058443514663033
1.80775e-06;0.008023393767629637
1.80800e-06;0.007988344020596273
1.80825e-06;0.007953294273562908
1.80850e-06;0.007918244526529514
1.80875e-06;0.00788319477949615
1.80900e-06;0.007848145032462754
1.80925e-06;0.00781309528542939
1.80950e-06;0.007778045538395995
1.80975e-06;0.007742995791362631
1.81000e-06;0.007707946044329265
1.81025e-06;0.007672896297295871
1.81050e-06;0.007637846550262506
1.81075e-06;0.007602796803229112
1.81100e-06;0.007575906361259469
1.81125e-06;0.007565509076036462
1.81150e-06;0.007555111790813446
1.81175e-06;0.007544714505590438
1.81200e-06;0.007534317220367422
1.81225e-06;0.007523919935144414
1.81250e-06;0.0075135226499214065
1.81275e-06;0.007503125364698391
1.81300e-06;0.007492728079475383
1.81325e-06;0.007482330794252367
1.81350e-06;0.007471933509029359
1.81375e-06;0.007461536223806343
1.81400e-06;0.0074511389385833356
1.81425e-06;0.0074407416533603275
1.81450e-06;0.007430344368137312
1.81475e-06;0.007426415244679795
1.81500e-06;0.007423801798314993
1.81525e-06;0.0074211883519501925
1.81550e-06;0.007418574905585393
1.81575e-06;0.007415961459220591
1.81600e-06;0.00741334801285579
1.81625e-06;0.007411646870480608
1.81650e-06;0.0074101312982108505
1.81675e-06;0.007408615725941092
1.81700e-06;0.007407100153671333
1.81725e-06;0.007405584581401576
1.81750e-06;0.007404069009131817
1.81775e-06;0.007413016491765794
1.81800e-06;0.007424092245484418
1.81825e-06;0.007435167999203032
1.81850e-06;0.007446243752921647
1.81875e-06;0.007457319506640271
1.81900e-06;0.0074683952603588856
1.81925e-06;0.00747947101407751
1.81950e-06;0.007490546767796124
1.81975e-06;0.007523780315874077
1.82000e-06;0.007561520940849522
1.82025e-06;0.007599261565824935
1.82050e-06;0.00763700219080038
1.82075e-06;0.007674742815775793
1.82100e-06;0.007712483440751206
1.82125e-06;0.0077502240657266516
1.82150e-06;0.007787964690702065
1.82175e-06;0.007846510809301287
1.82200e-06;0.00790928893574968
1.82225e-06;0.007972067062198126
1.82250e-06;0.008034845188646519
1.82275e-06;0.008097623315094912
1.82300e-06;0.008160401441543359
1.82325e-06;0.008223179567991751
1.82350e-06;0.008285957694440196
1.82375e-06;0.00834873582088859
1.82400e-06;0.008411513947336982
1.82425e-06;0.008478012540517867
1.82450e-06;0.008545267907111466
1.82475e-06;0.008612523273705121
1.82500e-06;0.008679778640298721
1.82525e-06;0.00874703400689232
1.82550e-06;0.008814289373485978
1.82575e-06;0.008881544740079577
1.82600e-06;0.008948800106673233
1.82625e-06;0.009016055473266832
1.82650e-06;0.00908331083986049
1.82675e-06;0.009128842931382254
1.82700e-06;0.0091699563307897
1.82725e-06;0.00921106973019718
1.82750e-06;0.009252183129604625
1.82775e-06;0.009293296529012104
1.82800e-06;0.009334409928419548
1.82825e-06;0.009375523327826993
1.82850e-06;0.009416636727234473
1.82875e-06;0.009444750510420328
1.82900e-06;0.009446586968970109
1.82925e-06;0.009448423427519888
1.82950e-06;0.009450259886069668
1.82975e-06;0.00945209634461945
1.83000e-06;0.009453932803169229
1.83025e-06;0.00945576926171901
1.83050e-06;0.009457605720268792
1.83075e-06;0.009459442178818573
1.83100e-06;0.009429460433861841
1.83125e-06;0.009393006605646242
1.83150e-06;0.009356552777430614
1.83175e-06;0.009320098949215016
1.83200e-06;0.009283645120999388
1.83225e-06;0.00924719129278379
1.83250e-06;0.009210737464568193
1.83275e-06;0.009174283636352564
1.83300e-06;0.009137829808136967
1.83325e-06;0.009101375979921339
1.83350e-06;0.009058879270875094
1.83375e-06;0.009004167528814567
1.83400e-06;0.008949455786753994
1.83425e-06;0.008894744044693467
1.83450e-06;0.008840032302632892
1.83475e-06;0.008785320560572366
1.83500e-06;0.008730608818511792
1.83525e-06;0.008675897076451264
1.83550e-06;0.008621185334390737
1.83575e-06;0.008566473592330164
1.83600e-06;0.008511761850269636
1.83625e-06;0.008467756615848627
1.83650e-06;0.008425929172792819
1.83675e-06;0.00838410172973701
1.83700e-06;0.008342274286681167
1.83725e-06;0.008300446843625358
1.83750e-06;0.008258619400569515
1.83775e-06;0.008216791957513707
1.83800e-06;0.008174964514457898
1.83825e-06;0.008160294915263138
1.83850e-06;0.008151149443995736
1.83875e-06;0.008142003972728327
1.83900e-06;0.008132858501460925
1.83925e-06;0.008123713030193516
1.83950e-06;0.008114567558926113
1.83975e-06;0.008105422087658711
1.84000e-06;0.0080962766163913
1.84025e-06;0.00812121540794917
1.84050e-06;0.008153087217795079
1.84075e-06;0.008184959027640958
1.84100e-06;0.008216830837486838
1.84125e-06;0.008248702647332747
1.84150e-06;0.008280574457178625
1.84175e-06;0.008312446267024534
1.84200e-06;0.008344318076870414
1.84225e-06;0.008376189886716293
1.84250e-06;0.008408061696562202
1.84275e-06;0.008448799304583084
1.84300e-06;0.008507458169109652
1.84325e-06;0.008566117033636172
1.84350e-06;0.008624775898162691
1.84375e-06;0.008683434762689261
1.84400e-06;0.00874209362721578
1.84425e-06;0.008800752491742348
1.84450e-06;0.008859411356268868
1.84475e-06;0.008918070220795438
1.84500e-06;0.008976729085321955
1.84525e-06;0.009035387949848475
1.84550e-06;0.009088656740023694
1.84575e-06;0.009140829144918618
1.84600e-06;0.009193031091052217
1.84625e-06;0.009245284660823317
1.84650e-06;0.009297538230594418
1.84675e-06;0.009363659262243846
1.84700e-06;0.009394799872270076
1.84725e-06;0.009425940482296334
1.84750e-06;0.009457081092322564
1.84775e-06;0.009488221702348794
1.84800e-06;0.00951936231237505
1.84825e-06;0.009550502922401281
1.84850e-06;0.009581643532427537
1.84875e-06;0.009612784142453767
1.84900e-06;0.009643924752480024
1.84925e-06;0.009675065362506254
1.84950e-06;0.009706205972532484
1.84975e-06;0.009729166019882484
1.85000e-06;0.009728732762044322
1.85025e-06;0.009728299504206162
1.85050e-06;0.009727866246368
1.85075e-06;0.00972743298852984
1.85100e-06;0.00972699973069168
1.85125e-06;0.00972656647285352
1.85150e-06;0.00972613321501536
1.85175e-06;0.009725699957177198
1.85200e-06;0.009725266699339038
1.85225e-06;0.009724833441500876
1.85250e-06;0.009724400183662716
1.85275e-06;0.009720357482099339
1.85300e-06;0.009702793048782948
1.85325e-06;0.009685228615466545
1.85350e-06;0.009667664182150154
1.85375e-06;0.009650099748833765
1.85400e-06;0.00963253531551736
1.85425e-06;0.00961497088220097
1.85450e-06;0.009597406448884566
1.85475e-06;0.009579842015568175
1.85500e-06;0.009561934363790343
1.85525e-06;0.009542740943810649
1.85550e-06;0.00952354752383097
1.85575e-06;0.009504354103851276
1.85600e-06;0.009485160683871598
1.85625e-06;0.00946596726389192
1.85650e-06;0.009446773843912225
1.85675e-06;0.009427580423932547
1.85700e-06;0.009408387003952853
1.85725e-06;0.00938898176180062
1.85750e-06;0.009368782989449653
1.85775e-06;0.009348584217098705
1.85800e-06;0.009328385444747758
1.85825e-06;0.009308186672396792
1.85850e-06;0.009287987900045844
1.85875e-06;0.00926778912769488
1.85900e-06;0.009247590355343931
1.85925e-06;0.009214672873865095
1.85950e-06;0.00917657793109665
1.85975e-06;0.009138482988328237
1.86000e-06;0.009100388045559793
1.86025e-06;0.009062293102791379
1.86050e-06;0.009024198160022966
1.86075e-06;0.008986103217254522
1.86100e-06;0.0089434617003855
1.86125e-06;0.008883787765210507
1.86150e-06;0.008824113830035564
1.86175e-06;0.008764439894860572
1.86200e-06;0.00870476595968563
1.86225e-06;0.008645092024510687
1.86250e-06;0.008585418089335696
1.86275e-06;0.008525744154160754
1.86300e-06;0.008466070218985761
1.86325e-06;0.008406396283810819
1.86350e-06;0.0083449353418827
1.86375e-06;0.008276779898586807
1.86400e-06;0.008208624455290971
1.86425e-06;0.008140469011995076
1.86450e-06;0.00807231356869924
1.86475e-06;0.008004158125403404
1.86500e-06;0.007936002682107509
1.86525e-06;0.007867847238811673
1.86550e-06;0.007799691795515778
1.86575e-06;0.007731536352219941
1.86600e-06;0.0076667566539205
1.86625e-06;0.007614623203015021
1.86650e-06;0.007562489752109542
1.86675e-06;0.0075103563012040185
1.86700e-06;0.0074582228502985395
1.86725e-06;0.007406089399393016
1.86750e-06;0.007353955948487537
1.86775e-06;0.0073018224975820575
1.86800e-06;0.007273935467638568
1.86825e-06;0.007255918535727257
1.86850e-06;0.007237901603815931
1.86875e-06;0.007219884671904621
1.86900e-06;0.00720186773999331
1.86925e-06;0.0071838508080819844
1.86950e-06;0.007165833876170674
1.86975e-06;0.007157340766004074
1.87000e-06;0.007184525885692585
1.87025e-06;0.007211711005381119
1.87050e-06;0.00723889612506963
1.87075e-06;0.0072660812447581415
1.87100e-06;0.007293266364446675
1.87125e-06;0.0073204514841351855
1.87150e-06;0.00734763660382372
1.87175e-06;0.00737482172351223
1.87200e-06;0.007402006843200742
1.87225e-06;0.007436445166236941
1.87250e-06;0.007498055507309023
1.87275e-06;0.007559665848381158
1.87300e-06;0.00762127618945324
1.87325e-06;0.007682886530525323
1.87350e-06;0.007744496871597457
1.87375e-06;0.0078061072126695405
1.87400e-06;0.007867717553741676
1.87425e-06;0.007929327894813758
1.87450e-06;0.007990938235885892
1.87475e-06;0.008053279604809515
1.87500e-06;0.008118359557089245
1.87525e-06;0.00818343950936903
1.87550e-06;0.00824851946164876
1.87575e-06;0.008313599413928546
1.87600e-06;0.008378679366208275
1.87625e-06;0.008443759318488007
1.87650e-06;0.008508839270767793
1.87675e-06;0.008558974194869095
1.87700e-06;0.008603025380119412
1.87725e-06;0.008647076565369692
1.87750e-06;0.008691127750619972
1.87775e-06;0.008735178935870289
1.87800e-06;0.00877923012112057
1.87825e-06;0.008823281306370886
1.87850e-06;0.008859876763452458
1.87875e-06;0.008868541502125888
1.87900e-06;0.008877206240799325
1.87925e-06;0.008885870979472755
1.87950e-06;0.008894535718146194
1.87975e-06;0.008903200456819624
1.88000e-06;0.00891186519549306
1.88025e-06;0.00892052993416649
1.88050e-06;0.008929194672839922
1.88075e-06;0.00893785941151336
1.88100e-06;0.00894652415018679
1.88125e-06;0.008955188888860228
1.88150e-06;0.008963853627533658
1.88175e-06;0.00896613474533649
1.88200e-06;0.008944501483091916
1.88225e-06;0.008922868220847362
1.88250e-06;0.008901234958602788
1.88275e-06;0.008879601696358234
1.88300e-06;0.00885796843411368
1.88325e-06;0.008836335171869106
1.88350e-06;0.008814701909624552
1.88375e-06;0.008793068647379979
1.88400e-06;0.008771435385135425
1.88425e-06;0.008749802122890851
1.88450e-06;0.008728168860646295
1.88475e-06;0.008706535598401741
1.88500e-06;0.008684070697778956
1.88525e-06;0.008658490305706881
1.88550e-06;0.008632909913634785
1.88575e-06;0.008607329521562712
1.88600e-06;0.008581749129490637
1.88625e-06;0.008556168737418542
1.88650e-06;0.008530588345346467
1.88675e-06;0.008505007953274371
1.88700e-06;0.008479427561202298
1.88725e-06;0.008453847169130222
1.88750e-06;0.008436472837107958
1.88775e-06;0.008422438982315966
1.88800e-06;0.00840840512752396
1.88825e-06;0.008394371272731967
1.88850e-06;0.008380337417939962
1.88875e-06;0.008366303563147968
1.88900e-06;0.008352269708355975
1.88925e-06;0.008338235853563969
1.88950e-06;0.008324201998771976
1.88975e-06;0.00831325621227747
1.89000e-06;0.008313878976041583
1.89025e-06;0.008314501739805696
1.89050e-06;0.008315124503569811
1.89075e-06;0.008315747267333924
1.89100e-06;0.008316370031098037
1.89125e-06;0.00831699279486215
1.89150e-06;0.008317615558626264
1.89175e-06;0.008318238322390377
1.89200e-06;0.00831886108615449
1.89225e-06;0.008319483849918605
1.89250e-06;0.008320106613682718
1.89275e-06;0.008320729377446831
1.89300e-06;0.008321352141210945
1.89325e-06;0.008321974904975058
1.89350e-06;0.008322597668739171
1.89375e-06;0.008324523743399804
1.89400e-06;0.008331332293496857
1.89425e-06;0.008338140843593906
1.89450e-06;0.008344949393690954
1.89475e-06;0.00835175794378801
1.89500e-06;0.008358566493885057
1.89525e-06;0.008365375043982111
1.89550e-06;0.00837218359407916
1.89575e-06;0.008378992144176207
1.89600e-06;0.008385800694273261
1.89625e-06;0.00839260924437031
1.89650e-06;0.008399417794467364
1.89675e-06;0.008406226344564413
1.89700e-06;0.008413034894661466
1.89725e-06;0.008419843444758515
1.89750e-06;0.008426651994855563
1.89775e-06;0.008430732336569623
1.89800e-06;0.008424592238593893
1.89825e-06;0.008418452140618156
1.89850e-06;0.008412312042642426
1.89875e-06;0.008406171944666696
1.89900e-06;0.00840003184669096
1.89925e-06;0.00839389174871523
1.89950e-06;0.008387751650739492
1.89975e-06;0.008381611552763762
1.90000e-06;0.00837547145478803
1.90025e-06;0.008369331356812296
1.90050e-06;0.008363191258836564
1.90075e-06;0.008357051160860829
1.90100e-06;0.008338659398021347
1.90125e-06;0.008315280295672045
1.90150e-06;0.008291901193322763
1.90175e-06;0.00826852209097348
