Time(s);Current(A)
7.75000e-06;0.0017076241450492305
7.75025e-06;0.001730708407865048
7.75050e-06;0.0017537926706807092
7.75075e-06;0.0017768769334965268
7.75100e-06;0.0017999611963123445
7.75125e-06;0.0018210448207710743
7.75150e-06;0.001827156938592858
7.75175e-06;0.0018332690564146418
7.75200e-06;0.001839381174236384
7.75225e-06;0.0018454932920581677
7.75250e-06;0.0018516054098799515
7.75275e-06;0.0018577175277017352
7.75300e-06;0.0018638296455234776
7.75325e-06;0.0018699417633452613
7.75350e-06;0.0018760538811670449
7.75375e-06;0.0018821659989887872
7.75400e-06;0.001888278116810571
7.75425e-06;0.0018943902346323547
7.75450e-06;0.001899344756741633
7.75475e-06;0.0018956365678539449
7.75500e-06;0.0018919283789662568
7.75525e-06;0.001888220190078594
7.75550e-06;0.001884512001190906
7.75575e-06;0.0018808038123032179
7.75600e-06;0.001877095623415555
7.75625e-06;0.0018733874345278668
7.75650e-06;0.0018696792456401787
7.75675e-06;0.001865971056752516
7.75700e-06;0.0018619657862137457
7.75725e-06;0.001855737345306889
7.75750e-06;0.0018495089044000745
7.75775e-06;0.0018432804634932179
7.75800e-06;0.001837052022586361
7.75825e-06;0.0018308235816795466
7.75850e-06;0.00182459514077269
7.75875e-06;0.0018183666998658331
7.75900e-06;0.0018121382589590188
7.75925e-06;0.0018059098180521619
7.75950e-06;0.0017995201313155663
7.75975e-06;0.0017919237832137236
7.76000e-06;0.0017843274351118296
7.76025e-06;0.0017767310870099356
7.76050e-06;0.001769134738908093
7.76075e-06;0.001761538390806199
7.76100e-06;0.0017539420427043048
7.76125e-06;0.0017463456946024108
7.76150e-06;0.0017311781212569395
7.76175e-06;0.0017113281757763148
7.76200e-06;0.0016914782302956898
7.76225e-06;0.0016716282848151995
7.76250e-06;0.0016517783393345748
7.76275e-06;0.0016319283938539498
7.76300e-06;0.0016120784483734595
7.76325e-06;0.0015909877680894329
7.76350e-06;0.0015606122166570617
7.76375e-06;0.0015302366652248964
7.76400e-06;0.0014990004189428846
7.76425e-06;0.0014613232791229743
7.76450e-06;0.0014236461393033195
7.76475e-06;0.0013859689994834095
7.76500e-06;0.0013482918596634994
7.76525e-06;0.0013106147198438446
7.76550e-06;0.0012722034228994884
7.76575e-06;0.0012282981603746056
7.76600e-06;0.00118439289785002
7.76625e-06;0.001140487635325137
7.76650e-06;0.0010965823728002542
7.76675e-06;0.0010526771102756687
7.76700e-06;0.0010087124342261558
7.76725e-06;0.0009643031450979054
7.76750e-06;0.0009198938559699557
7.76775e-06;0.0008754845668417051
7.76800e-06;0.0008310752777134546
7.76825e-06;0.0007894089918903428
7.76850e-06;0.0007494390975796763
7.76875e-06;0.0007094692032690098
7.76900e-06;0.0006694993089586142
7.76925e-06;0.0006302193070496079
7.76950e-06;0.0005961020216545667
7.76975e-06;0.000562428047134009
7.77000e-06;0.0005323923955745544
7.77025e-06;0.0005050613803116212
7.77050e-06;0.0004802874002118344
7.77075e-06;0.00045794276417232907
7.77100e-06;0.0004380623470151495
7.77125e-06;0.0004207394556208934
7.77150e-06;0.0004060673900086997
7.77175e-06;0.00039413906607382854
7.77200e-06;0.0003850329534483029
7.77225e-06;0.00037871824891727774
7.77250e-06;0.00037501589187884874
7.77275e-06;0.00037375925061937506
7.77300e-06;0.0003748836231887634
7.77325e-06;0.00037836086618301036
7.77350e-06;0.00038416282933662467
7.77375e-06;0.00039226111205763035
7.77400e-06;0.0004027348864809333
7.77425e-06;0.0004160008198567389
7.77450e-06;0.0004296901472116574
7.77475e-06;0.0004465478861675351
7.77500e-06;0.0004637697161225973
7.77525e-06;0.0004837161718451369
7.77550e-06;0.0005040443620554852
7.77575e-06;0.0005272292106943576
7.77600e-06;0.0005504140593330728
7.77625e-06;0.0005739548557609684
7.77650e-06;0.0006001593393445379
7.77675e-06;0.0006263638229279299
7.77700e-06;0.0006525683065114994
7.77725e-06;0.0006787727900950689
7.77750e-06;0.0007049896392726486
7.77775e-06;0.0007312990247027165
7.77800e-06;0.0007576084101327842
7.77825e-06;0.000783917795562852
7.77850e-06;0.0008102271809927415
7.77875e-06;0.0008361716494269218
7.77900e-06;0.0008593853108579462
7.77925e-06;0.0008825989722888133
7.77950e-06;0.0009053028394226185
7.77975e-06;0.0009241917298554332
7.78000e-06;0.00094308062028812
7.78025e-06;0.0009614716941207725
7.78050e-06;0.0009761374247287787
7.78075e-06;0.0009908031553366857
7.78100e-06;0.0010050176490233155
7.78125e-06;0.0010158553722139014
7.78150e-06;0.0010266930954044137
7.78175e-06;0.001036609221300437
7.78200e-06;0.0010396286984377023
7.78225e-06;0.0010426481755749473
7.78250e-06;0.001045667652712213
7.78275e-06;0.0010486871298494784
7.78300e-06;0.0010517066069867234
7.78325e-06;0.001054726084123989
7.78350e-06;0.0010577455612612546
7.78375e-06;0.0010607650383984996
7.78400e-06;0.0010627670021303634
7.78425e-06;0.001057154541854864
7.78450e-06;0.0010515420815794024
7.78475e-06;0.001045929621303903
7.78500e-06;0.0010403171610284035
7.78525e-06;0.001034704700752942
7.78550e-06;0.0010290922404774423
7.78575e-06;0.0010234797802019429
7.78600e-06;0.0010178673199264813
7.78625e-06;0.0010118040255912035
7.78650e-06;0.0010023669755195254
7.78675e-06;0.0009929299254478475
7.78700e-06;0.0009834928753762334
7.78725e-06;0.0009740558253045554
7.78750e-06;0.0009646187752328774
7.78775e-06;0.0009551817251612634
7.78800e-06;0.0009458068971002261
7.78825e-06;0.0009368976990438519
7.78850e-06;0.000927988500987538
7.78875e-06;0.0009190793029311637
7.78900e-06;0.0009101701048747894
7.78925e-06;0.0009012609068184755
7.78950e-06;0.0008923517087621012
7.78975e-06;0.0008843372822063579
7.79000e-06;0.0008830187572098177
7.79025e-06;0.0008817002322132686
7.79050e-06;0.0008803817072167194
7.79075e-06;0.0008790631822201792
7.79100e-06;0.0008777446572236301
7.79125e-06;0.0008764261322270809
7.79150e-06;0.0008751076072305407
7.79175e-06;0.0008737890822339916
7.79200e-06;0.0008724705572374424
7.79225e-06;0.0008711520322409022
7.79250e-06;0.000869833507244353
7.79275e-06;0.0008766790775465664
7.79300e-06;0.0008885736763927021
7.79325e-06;0.0009004682752389184
7.79350e-06;0.0009123628740851348
7.79375e-06;0.0009242574729312705
7.79400e-06;0.0009361520717774868
7.79425e-06;0.0009480466706237032
7.79450e-06;0.0009599412694698389
7.79475e-06;0.0009718358683160552
7.79500e-06;0.0009837304671622715
7.79525e-06;0.0009956250660084877
7.79550e-06;0.0010083294169339824
7.79575e-06;0.001027093438075171
7.79600e-06;0.0010458574592163595
7.79625e-06;0.0010646214803574207
7.79650e-06;0.0010833855014986092
7.79675e-06;0.0011021495226397977
7.79700e-06;0.0011209135437808592
7.79725e-06;0.0011396656888389243
7.79750e-06;0.0011583289608344519
7.79775e-06;0.0011769922328298528
7.79800e-06;0.0011956555048253802
7.79825e-06;0.0012143187768209076
7.79850e-06;0.0012329820488163085
7.79875e-06;0.0012516453208118359
7.79900e-06;0.0012696067590315147
7.79925e-06;0.0012823161190689844
7.79950e-06;0.00129502547910654
7.79975e-06;0.0013077348391440959
7.80000e-06;0.0013204441991815656
7.80025e-06;0.0013331535592191214
7.80050e-06;0.001345862919256677
7.80075e-06;0.0013570002783603223
7.80100e-06;0.0013563737809905293
7.80125e-06;0.0013557472836207365
7.80150e-06;0.0013551207862509476
7.80175e-06;0.0013544942888811546
7.80200e-06;0.0013538677915113616
7.80225e-06;0.001353241294141573
7.80250e-06;0.001351270283536679
7.80275e-06;0.0013392377898981836
7.80300e-06;0.0013272052962597695
7.80325e-06;0.0013144235801764257
7.80350e-06;0.0012960351592121448
7.80375e-06;0.0012776467382478642
7.80400e-06;0.001258599029343774
7.80425e-06;0.0012346176282678543
7.80450e-06;0.001210636227191935
7.80475e-06;0.0011859089175140915
7.80500e-06;0.0011555997016487395
7.80525e-06;0.0011252904857833876
7.80550e-06;0.001094981269918241
7.80575e-06;0.0010646720540528891
7.80600e-06;0.0010343628381875372
7.80625e-06;0.0010014274551199164
7.80650e-06;0.0009668679370210852
7.80675e-06;0.0009323084189222541
7.80700e-06;0.0008977489008236571
7.80725e-06;0.0008631893827248259
7.80750e-06;0.0008287053551458926
7.80775e-06;0.000794786250667697
7.80800e-06;0.0007608671461892715
7.80825e-06;0.0007269480417108461
7.80850e-06;0.0006930289372326505
7.80875e-06;0.000662105375832495
7.80900e-06;0.0006330343874315522
7.80925e-06;0.0006039633990308064
7.80950e-06;0.0005748924106298637
7.80975e-06;0.0005465110657132298
7.81000e-06;0.0005232905745834822
7.81025e-06;0.0005003065148902572
7.81050e-06;0.0004790917578920237
7.81075e-06;0.00045797838991490163
7.81100e-06;0.0004376237529700712
7.81125e-06;0.0004172691160252408
7.81150e-06;0.0003971693167633523
7.81175e-06;0.00037897656085123215
7.81200e-06;0.00036078380493911205
7.81225e-06;0.00034270956807586355
7.81250e-06;0.0003255222524933718
7.81275e-06;0.00030833493691076366
7.81300e-06;0.0002911852248813595
7.81325e-06;0.0002743169139591826
7.81350e-06;0.0002574486030368915
7.81375e-06;0.00024058029211460036
7.81400e-06;0.0002238003734572402
7.81425e-06;0.00020768192636464562
7.81450e-06;0.00019156347927205104
7.81475e-06;0.0001754450321795657
7.81500e-06;0.00015933043246756697
7.81525e-06;0.00014324462410817004
7.81550e-06;0.00012715881574888206
7.81575e-06;0.00011115106397329707
7.81600e-06;9.572743809104775e-05
7.81625e-06;8.034458343640391e-05
7.81650e-06;6.526683475126003e-05
7.81675e-06;5.020338391301551e-05
7.81700e-06;3.526957787920695e-05
7.81725e-06;2.0539254753873532e-05
7.81750e-06;6.1086549078559646e-06
7.81775e-06;-7.926233726429382e-06
7.81800e-06;-2.1479280305524223e-05
7.81825e-06;-3.4536653737308464e-05
7.81850e-06;-4.7168168192766267e-05
7.81875e-06;-5.9403888425067895e-05
7.81900e-06;-7.118484587790494e-05
7.81925e-06;-8.242375709870703e-05
7.81950e-06;-9.303336089183558e-05
7.81975e-06;-0.00010292557371697427
7.82000e-06;-0.00011197759588351635
7.82025e-06;-0.00011981732835168447
7.82050e-06;-0.00012581975321325476
7.82075e-06;-0.00012957516372470018
7.82100e-06;-0.00013103470310651174
7.82125e-06;-0.00013025750093630556
7.82150e-06;-0.00012730271843998416
7.82175e-06;-0.0001222289483201414
7.82200e-06;-0.00011507311890073465
7.82225e-06;-0.00010571594238614102
7.82250e-06;-9.387974628198231e-05
7.82275e-06;-7.942175858109014e-05
7.82300e-06;-6.242525318526434e-05
7.82325e-06;-4.304113366998628e-05
7.82350e-06;-2.142030542930653e-05
7.82375e-06;2.286656217082822e-06
7.82400e-06;2.794280399948985e-05
7.82425e-06;5.550900251580186e-05
7.82450e-06;8.504534498066403e-05
7.82475e-06;0.00011652741570972304
7.82500e-06;0.00014978919067993522
7.82525e-06;0.00018462232669006992
7.82550e-06;0.00022087578691175298
7.82575e-06;0.0002585984693756895
7.82600e-06;0.00029656010597988624
7.82625e-06;0.0003363099235918874
7.82650e-06;0.00037605974120415793
7.82675e-06;0.00041594085291270434
7.82700e-06;0.00045680448624287317
7.82725e-06;0.000497668119573319
7.82750e-06;0.0005385317529037646
7.82775e-06;0.0005791525865714141
7.82800e-06;0.0006179564617849031
7.82825e-06;0.000656760336998392
7.82850e-06;0.000695564212211618
7.82875e-06;0.0007338323376405886
7.82900e-06;0.0007680912519759089
7.82925e-06;0.0008023501663112294
7.82950e-06;0.0008360014966996746
7.82975e-06;0.0008651060547521697
7.83000e-06;0.0008935481308895355
7.83025e-06;0.0009170326131640776
7.83050e-06;0.0009405170954387788
7.83075e-06;0.0009633381569317445
7.83100e-06;0.0009811945986802624
7.83125e-06;0.0009990510404289015
7.83150e-06;0.0010161584381301685
7.83175e-06;0.0010276604659521281
7.83200e-06;0.0010391624937741656
7.83225e-06;0.0010499773352523056
7.83250e-06;0.0010556497106134046
7.83275e-06;0.0010613220859745421
7.83300e-06;0.0010664031240132734
7.83325e-06;0.0010670589691313362
7.83350e-06;0.0010677148142494034
7.83375e-06;0.00106778452297746
7.83400e-06;0.0010634679592594488
7.83425e-06;0.0010591513955414084
7.83450e-06;0.001054170021346625
7.83475e-06;0.0010442136278125181
7.83500e-06;0.001034257234278344
7.83525e-06;0.0010243008407441695
7.83550e-06;0.0010143444472100625
7.83575e-06;0.0010043880536758883
7.83600e-06;0.000994431660141714
7.83625e-06;0.0009816584706679016
7.83650e-06;0.0009671432531309847
7.83675e-06;0.0009526280355940675
7.83700e-06;0.0009381128180572487
7.83725e-06;0.0009235976005203317
7.83750e-06;0.0009090823829834146
7.83775e-06;0.0008945398040529246
7.83800e-06;0.0008797924698321545
7.83825e-06;0.0008650451356112846
7.83850e-06;0.0008502978013904146
7.83875e-06;0.0008355504671696446
7.83900e-06;0.0008208031329487745
7.83925e-06;0.0008083948719352201
7.83950e-06;0.0007974331946488592
7.83975e-06;0.0007864715173624239
7.84000e-06;0.0007755098400759887
7.84025e-06;0.0007645481627896277
7.84050e-06;0.0007543339503912861
7.84075e-06;0.0007497132904500892
7.84100e-06;0.0007450926305089235
7.84125e-06;0.0007410056687967807
7.84150e-06;0.0007409125656431493
7.84175e-06;0.000741239979830061
7.84200e-06;0.0007447142786946759
7.84225e-06;0.0007486495084774374
7.84250e-06;0.0007560340524830299
7.84275e-06;0.000763993659741189
7.84300e-06;0.0007762566751194556
7.84325e-06;0.000788519690497639
7.84350e-06;0.0008013848270134815
7.84375e-06;0.0008187558556752094
7.84400e-06;0.0008361268843368196
7.84425e-06;0.0008540411291168217
7.84450e-06;0.0008760204582930688
7.84475e-06;0.0008979997874691669
7.84500e-06;0.0009205703853536291
7.84525e-06;0.000947565662696326
7.84550e-06;0.0009745609400388401
7.84575e-06;0.001001556217381537
7.84600e-06;0.0010285514947242342
7.84625e-06;0.001055546772066931
7.84650e-06;0.001082852483778258
7.84675e-06;0.0011124812891287702
7.84700e-06;0.0011421100944792825
7.84725e-06;0.001171738899829594
7.84750e-06;0.0012013677051801062
7.84775e-06;0.0012309965105306185
7.84800e-06;0.0012599491027272692
7.84825e-06;0.0012838413451887122
7.84850e-06;0.001307733587650155
7.84875e-06;0.001331625830111436
7.84900e-06;0.0013555180725728791
7.84925e-06;0.0013794103150343222
7.84950e-06;0.001403302557495603
7.84975e-06;0.001427194799957046
7.85000e-06;0.001451087042418489
7.85025e-06;0.0014749792848797701
7.85050e-06;0.0014976120714743923
7.85075e-06;0.001510819890321542
7.85100e-06;0.0015240277091686022
7.85125e-06;0.0015372355280157516
7.85150e-06;0.0015504433468629013
7.85175e-06;0.0015636511657099615
7.85200e-06;0.0015768589845571112
7.85225e-06;0.0015900668034042607
7.85250e-06;0.0016032746222513208
7.85275e-06;0.0016164824410984705
7.85300e-06;0.0016288528938207714
7.85325e-06;0.0016349570303274491
7.85350e-06;0.0016410611668341683
7.85375e-06;0.0016471653033408875
7.85400e-06;0.0016532694398475652
7.85425e-06;0.0016593735763542844
7.85450e-06;0.0016654777128610036
7.85475e-06;0.0016715818493677227
7.85500e-06;0.0016776859858744007
7.85525e-06;0.0016837901223811199
7.85550e-06;0.001689894258887839
7.85575e-06;0.0016959983953945168
7.85600e-06;0.001702102531901236
7.85625e-06;0.0017082066684079552
7.85650e-06;0.001714310804914633
7.85675e-06;0.0017199248763624696
7.85700e-06;0.0017218716121791679
7.85725e-06;0.0017238183479958528
7.85750e-06;0.0017257650838125508
7.85775e-06;0.001727711819629249
7.85800e-06;0.001729658555445934
7.85825e-06;0.0017316052912626323
7.85850e-06;0.0017335520270793303
7.85875e-06;0.0017354987628960153
7.85900e-06;0.0017374454987127135
7.85925e-06;0.0017393922345294117
7.85950e-06;0.0017413389703460967
7.85975e-06;0.0017432857061627947
7.86000e-06;0.001745232441979493
7.86025e-06;0.001747179177796178
7.86050e-06;0.001747633462967925
7.86075e-06;0.0017369191954543365
7.86100e-06;0.0017262049279408204
7.86125e-06;0.0017154906604272319
7.86150e-06;0.0017047763929136433
7.86175e-06;0.0016940621254001272
7.86200e-06;0.0016833478578865387
7.86225e-06;0.0016726335903729502
7.86250e-06;0.001661919322859434
7.86275e-06;0.0016512050553458455
7.86300e-06;0.001640490787832257
7.86325e-06;0.001618456560173485
7.86350e-06;0.0015894215810644098
7.86375e-06;0.0015603866019551378
7.86400e-06;0.0015313516228458658
7.86425e-06;0.0015023166437367907
7.86450e-06;0.0014732816646275187
7.86475e-06;0.001444246685518247
7.86500e-06;0.0014152117064091716
7.86525e-06;0.0013861767272998998
7.86550e-06;0.0013571417481906278
7.86575e-06;0.0013271004457834888
7.86600e-06;0.001289528458984953
7.86625e-06;0.0012519564721864174
7.86650e-06;0.0012143844853881364
7.86675e-06;0.0011768124985896005
7.86700e-06;0.001139240511791065
7.86725e-06;0.001101797018910965
7.86750e-06;0.0010644329922100567
7.86775e-06;0.0010270689655091482
7.86800e-06;0.0009897049388084929
7.86825e-06;0.0009523409121075843
7.86850e-06;0.0009154397415672537
7.86875e-06;0.000882002292548078
7.86900e-06;0.0008485648435286757
7.86925e-06;0.0008156162547079914
7.86950e-06;0.0007863259851135502
7.86975e-06;0.0007575373687762192
7.87000e-06;0.0007325028067901155
7.87025e-06;0.000707803698081643
7.87050e-06;0.0006856149086375987
7.87075e-06;0.000663693565820176
7.87100e-06;0.0006437736236871823
7.87125e-06;0.0006238536815540537
7.87150e-06;0.0006043752811982251
7.87175e-06;0.0005882010990576463
7.87200e-06;0.0005720269169171771
7.87225e-06;0.0005561831540820867
7.87250e-06;0.0005428120394630105
7.87275e-06;0.0005294409248440249
7.87300e-06;0.0005162968993086971
7.87325e-06;0.0005048522642403203
7.87350e-06;0.000493407629172021
7.87375e-06;0.00048225093341013444
7.87400e-06;0.00047324899253326804
7.87425e-06;0.0004642470516564627
7.87450e-06;0.00045540702467876545
7.87475e-06;0.00044777865848285827
7.87500e-06;0.00044015029228700275
7.87525e-06;0.0004326820674649268
7.87550e-06;0.0004264122389709095
7.87575e-06;0.00042014241047693465
7.87600e-06;0.00041410199273172457
7.87625e-06;0.0004097783393206044
7.87650e-06;0.0004054546859095135
7.87675e-06;0.00040113103249839335
7.87700e-06;0.0003968073790872732
7.87725e-06;0.0003924837256761823
7.87750e-06;0.0003881600722650621
7.87775e-06;0.0003838364188539419
7.87800e-06;0.0003805317344202498
7.87825e-06;0.0003778572243386407
7.87850e-06;0.0003751827142570316
7.87875e-06;0.0003725082041754406
7.87900e-06;0.00036983369409383153
7.87925e-06;0.00036715918401222244
7.87950e-06;0.0003644846739306315
7.87975e-06;0.000361952777120077
7.88000e-06;0.0003604881074497816
7.88025e-06;0.00035902343777948625
7.88050e-06;0.00035787594493497186
7.88075e-06;0.00035910200200062686
7.88100e-06;0.00036062635621019634
7.88125e-06;0.0003643829767821322
7.88150e-06;0.00036841005613005303
7.88175e-06;0.0003744610771760582
7.88200e-06;0.0003807968475545887
7.88225e-06;0.00038926350108041803
7.88250e-06;0.0003980883636780149
7.88275e-06;0.0004095938354532452
7.88300e-06;0.0004214334396885229
7.88325e-06;0.00043577347903116475
7.88350e-06;0.0004503966672874066
7.88375e-06;0.00046713876217296447
7.88400e-06;0.0004842085020757727
7.88425e-06;0.0005037301291851381
7.88450e-06;0.0005232517562946359
7.88475e-06;0.0005431448841286684
7.88500e-06;0.0005658180874279576
7.88525e-06;0.0005884912907274005
7.88550e-06;0.0006114756808604975
7.88575e-06;0.0006367887956077311
7.88600e-06;0.0006621019103551361
7.88625e-06;0.0006874150251025412
7.88650e-06;0.0007127281398497747
7.88675e-06;0.0007380412545971798
7.88700e-06;0.0007633821671159782
7.88725e-06;0.0007889311005001243
7.88750e-06;0.0008144800338844434
7.88775e-06;0.0008400289672687625
7.88800e-06;0.0008655779006529086
7.88825e-06;0.0008911268340372277
7.88850e-06;0.0009161980492032697
7.88875e-06;0.0009376943246429825
7.88900e-06;0.000959190600082841
7.88925e-06;0.0009806868755226994
7.88950e-06;0.0010021831509625578
7.88975e-06;0.0010231183734204013
7.89000e-06;0.0010398550317104298
7.89025e-06;0.0010565916900004584
7.89050e-06;0.0010733283482903735
7.89075e-06;0.0010900650065804021
7.89100e-06;0.001106857756825853
7.89125e-06;0.001124070263639235
7.89150e-06;0.0011412827704527337
7.89175e-06;0.0011584952772662324
7.89200e-06;0.0011757077840796144
7.89225e-06;0.0011929202908931129
7.89250e-06;0.0012101327977066115
7.89275e-06;0.0012273453045199936
7.89300e-06;0.0012445578113334922
7.89325e-06;0.001261770318146991
7.89350e-06;0.001278982824960373
7.89375e-06;0.0012961953317738716
7.89400e-06;0.0013134078385873703
7.89425e-06;0.001330938136408455
7.89450e-06;0.001350846580289797
7.89475e-06;0.001370755024171139
7.89500e-06;0.0013906634680523463
7.89525e-06;0.0014105719119336883
7.89550e-06;0.0014304803558150303
7.89575e-06;0.0014503887996962376
7.89600e-06;0.0014702972435775795
7.89625e-06;0.0014902056874589215
7.89650e-06;0.0015101141313401288
