Time(s);Current(A)
0.00000e+00;2.211696296357392e-20
2.50000e-10;1.6479506414286842e-14
5.00000e-10;2.18542002112275e-15
7.50000e-10;1.759515182442949e-06
1.00000e-09;1.1738857467064297e-05
1.25000e-09;3.4625614387718294e-05
1.50000e-09;6.565536760983525e-05
1.75000e-09;9.823907995157229e-05
2.00000e-09;0.00013045670559162263
2.25000e-09;0.00016214377666647967
2.50000e-09;0.00019313584798452276
2.75000e-09;0.0002243705792927082
3.00000e-09;0.00025973000472114807
3.25000e-09;0.00030198536568389305
3.50000e-09;0.0003479872163776872
3.75000e-09;0.0003934435208042845
4.00000e-09;0.00043698709838100095
4.25000e-09;0.00047835057419183633
4.50000e-09;0.0005172666004502152
4.75000e-09;0.0005541581577969052
5.00000e-09;0.0005912924171854034
5.25000e-09;0.0006302405722048888
5.50000e-09;0.0006688651875434646
5.75000e-09;0.0007043133193114883
6.00000e-09;0.0007355855416502523
6.25000e-09;0.0007625359098354809
6.50000e-09;0.0007852655625803384
6.75000e-09;0.0008043470702367354
7.00000e-09;0.0008213903113548094
7.25000e-09;0.0008365478028527042
7.50000e-09;0.0008510537631327799
7.75000e-09;0.000861660186274474
8.00000e-09;0.0008660595803699632
8.25000e-09;0.0008684533413211991
8.50000e-09;0.0008654325618456252
8.75000e-09;0.000859970966125945
9.00000e-09;0.0008514062827396485
9.25000e-09;0.0008414427610057685
9.50000e-09;0.0008279396109535397
9.75000e-09;0.0008128408347508908
1.00000e-08;0.0007931102460819716
1.02500e-08;0.0007712916864651675
1.05000e-08;0.0007454958344797023
1.07500e-08;0.0007179070621250549
1.10000e-08;0.000688127662539619
1.12500e-08;0.0006573607518990962
1.15000e-08;0.0006244683510847301
1.17500e-08;0.0005906178022958249
1.20000e-08;0.0005542962982090707
1.22500e-08;0.0005168609142074881
1.25000e-08;0.0004775794118729503
1.27500e-08;0.0004374656993672027
1.30000e-08;0.0003973519868614548
1.32500e-08;0.00035720161679014166
1.35000e-08;0.00031703472188487273
1.37500e-08;0.0002769247149838308
1.40000e-08;0.0002370583695149223
1.42500e-08;0.00019719202404601405
1.45000e-08;0.0001580203240647058
1.47500e-08;0.00011993974636139684
1.50000e-08;8.339142976842724e-05
1.52500e-08;4.882469362340416e-05
1.55000e-08;1.633010555131121e-05
1.57500e-08;-1.4070706551804164e-05
1.60000e-08;-4.2193278500557496e-05
1.62500e-08;-6.789430732924903e-05
1.65000e-08;-9.119171699006082e-05
1.67500e-08;-0.00011208669968418578
1.70000e-08;-0.00013039163663665365
1.72500e-08;-0.0001459216587449336
1.75000e-08;-0.000158711509169198
1.77500e-08;-0.00016883908345348523
1.80000e-08;-0.00017628029699718052
1.82500e-08;-0.0001810368534614739
1.85000e-08;-0.000183211433421089
1.87500e-08;-0.0001828962401936603
1.90000e-08;-0.00018006520889290333
1.92500e-08;-0.00017469401914425753
1.95000e-08;-0.000166895875049922
1.97500e-08;-0.00015681103935343463
2.00000e-08;-0.000144515878911604
2.02500e-08;-0.00013010290470258533
2.05000e-08;-0.00011372788836802125
2.07500e-08;-9.554001730142772e-05
2.10000e-08;-7.561438046830748e-05
2.12500e-08;-5.4027167949191565e-05
2.15000e-08;-3.0940714512291176e-05
2.17500e-08;-6.53428387829199e-06
2.20000e-08;1.905289491972497e-05
2.22500e-08;4.567148562340163e-05
2.25000e-08;7.313254015678049e-05
2.27500e-08;0.00010141726082658916
2.30000e-08;0.0001299640585202962
2.32500e-08;0.0001589461464161264
2.35000e-08;0.0001881244584256373
2.37500e-08;0.0002173027704351482
2.40000e-08;0.00024594687298543945
2.42500e-08;0.00027435015969116435
2.45000e-08;0.00030275344639688924
2.47500e-08;0.0003298090961419005
2.50000e-08;0.00035625724572520333
2.52500e-08;0.000381023366724074
2.55000e-08;0.0004050312474350707
2.57500e-08;0.00042680177957076876
2.60000e-08;0.0004475637391747564
2.62500e-08;0.00046672158256665515
2.65000e-08;0.0004851563077251928
2.67500e-08;0.0005035910328837302
2.70000e-08;0.000521638930209294
2.72500e-08;0.0005395124497328714
2.75000e-08;0.0005573859692564487
2.77500e-08;0.000575259488780026
2.80000e-08;0.0005931330083036035
2.82500e-08;0.0006110014116788078
2.85000e-08;0.0006288479016812992
2.87500e-08;0.0006466943916837906
2.90000e-08;0.0006645408816862818
2.92500e-08;0.0006823873716887731
2.95000e-08;0.0007002338616912646
2.97500e-08;0.000718860173965417
3.00000e-08;0.0007378380216826815
3.02500e-08;0.0007568158693999456
3.05000e-08;0.0007757937171172098
3.07500e-08;0.0007947715648344739
3.10000e-08;0.0008137494125517381
3.12500e-08;0.0008327272602690028
3.15000e-08;0.0008517051079862669
3.17500e-08;0.00087071854756635
3.20000e-08;0.0008898844334202051
3.22500e-08;0.0009090503192740601
3.25000e-08;0.0009282162051279151
3.27500e-08;0.0009473820909817702
3.30000e-08;0.0009665479768356256
3.32500e-08;0.0009857138626894807
3.35000e-08;0.0010048797485433356
3.37500e-08;0.0010240456343971907
3.40000e-08;0.001040604126307603
3.42500e-08;0.0010559872332378938
3.45000e-08;0.0010713703401681852
3.47500e-08;0.001086753447098476
3.50000e-08;0.001102136554028767
3.52500e-08;0.0011175196609590579
3.55000e-08;0.0011329027678893488
3.57500e-08;0.0011482858748196399
3.60000e-08;0.0011620691949824904
3.62500e-08;0.0011690003441093427
3.65000e-08;0.001175931493236195
3.67500e-08;0.0011828626423630473
3.70000e-08;0.0011897937914898996
3.72500e-08;0.0011967249406167517
3.75000e-08;0.0012036560897436043
3.77500e-08;0.0012105872388704566
3.80000e-08;0.0012175183879973089
3.82500e-08;0.0012172753973623053
3.85000e-08;0.001213798382140193
3.87500e-08;0.0012103213669180807
3.90000e-08;0.0012068443516959682
3.92500e-08;0.0012033673364738558
3.95000e-08;0.0011998903212517436
3.97500e-08;0.0011964133060296312
4.00000e-08;0.0011929362908075188
4.02500e-08;0.0011894592755854066
4.05000e-08;0.0011805411060891717
4.07500e-08;0.001169170123114404
4.10000e-08;0.0011577991401396364
4.12500e-08;0.0011464281571648687
4.15000e-08;0.001135057174190101
4.17500e-08;0.0011236861912153333
4.20000e-08;0.0011123152082405654
4.22500e-08;0.0011009442252657977
4.25000e-08;0.00108957324229103
4.27500e-08;0.001076354176946333
4.30000e-08;0.0010623020160638091
4.32500e-08;0.001048249855181285
4.35000e-08;0.0010341976942987606
4.37500e-08;0.0010201455334162364
4.40000e-08;0.0010060933725337124
4.42500e-08;0.0009920412116511883
4.45000e-08;0.0009795125511917603
4.47500e-08;0.0009676706682402027
4.50000e-08;0.0009558287852886447
4.52500e-08;0.0009439869023370871
4.55000e-08;0.0009321450193855294
4.57500e-08;0.0009203031364339718
4.60000e-08;0.0009084612534824142
4.62500e-08;0.0009002419750918316
4.65000e-08;0.0008936557276441154
4.67500e-08;0.0008870694801963991
4.70000e-08;0.000880483232748683
4.72500e-08;0.0008738969853009669
4.75000e-08;0.0008673107378532508
4.77500e-08;0.0008607244904055345
4.80000e-08;0.0008541382429578183
4.82500e-08;0.0008475519955101021
4.85000e-08;0.000840965748062386
4.87500e-08;0.0008343795006146698
4.90000e-08;0.0008285867656718822
4.92500e-08;0.0008261927858092259
4.95000e-08;0.0008237988059465696
4.97500e-08;0.0008214048260839133
5.00000e-08;0.0008190108462212569
5.02500e-08;0.0008166168663586007
5.05000e-08;0.0008142228864959444
5.07500e-08;0.0008118289066332881
5.10000e-08;0.0008094349267706319
5.12500e-08;0.0008070409469079755
5.15000e-08;0.0008046469670453192
5.17500e-08;0.0008022529871826629
5.20000e-08;0.0008015283942486929
5.22500e-08;0.0008015563428809561
5.25000e-08;0.0008015842915132193
5.27500e-08;0.0008016122401454825
5.30000e-08;0.0008016401887777458
5.32500e-08;0.000801668137410009
5.35000e-08;0.0008016960860422722
5.37500e-08;0.0008017240346745353
5.40000e-08;0.0008017519833067986
5.42500e-08;0.0008017799319390618
5.45000e-08;0.000801807880571325
5.47500e-08;0.0008018358292035883
5.50000e-08;0.0008018637778358515
5.52500e-08;0.0008018917264681147
5.55000e-08;0.000801919675100378
5.57500e-08;0.0008019476237326412
5.60000e-08;0.0008019755723649044
5.62500e-08;0.0008020035209971676
5.65000e-08;0.0008020314696294309
5.67500e-08;0.000802059418261694
5.70000e-08;0.0008020873668939572
5.72500e-08;0.0008021153155262204
5.75000e-08;0.0008021432641584837
5.77500e-08;0.0008021712127907469
5.80000e-08;0.0008021991614230101
5.82500e-08;0.0008022271100552734
5.85000e-08;0.0008031241988371929
5.87500e-08;0.0008044130865952875
5.90000e-08;0.000805701974353382
5.92500e-08;0.0008069908621114764
5.95000e-08;0.000808279749869571
5.97500e-08;0.0008095686376276655
6.00000e-08;0.0008108575253857601
6.02500e-08;0.0008121464131438545
6.05000e-08;0.0008134353009019491
6.07500e-08;0.0008147241886600436
6.10000e-08;0.0008160130764181382
6.12500e-08;0.0008173019641762327
6.15000e-08;0.0008185908519343271
6.17500e-08;0.0008198797396924217
6.20000e-08;0.0008211686274505162
6.22500e-08;0.0008224575152086108
6.25000e-08;0.0008237464029667053
6.27500e-08;0.0008250352907247998
6.30000e-08;0.0008263241784828944
6.32500e-08;0.0008276130662409889
6.35000e-08;0.0008289019539990833
6.37500e-08;0.0008301908417571778
6.40000e-08;0.0008314797295152724
6.42500e-08;0.000832768617273367
6.45000e-08;0.0008340575050314614
6.47500e-08;0.000835346392789556
6.50000e-08;0.0008367425985339659
6.52500e-08;0.0008381871820655259
6.55000e-08;0.0008396317655970858
6.57500e-08;0.0008410763491286458
6.60000e-08;0.0008425209326602057
6.62500e-08;0.0008439655161917657
6.65000e-08;0.0008454100997233256
6.67500e-08;0.0008468546832548855
6.70000e-08;0.0008482992667864454
6.72500e-08;0.0008497438503180054
6.75000e-08;0.0008511884338495653
6.77500e-08;0.0008526330173811253
6.80000e-08;0.0008540776009126851
6.82500e-08;0.0008555221844442451
6.85000e-08;0.000856966767975805
6.87500e-08;0.000858411351507365
6.90000e-08;0.000859855935038925
6.92500e-08;0.0008613005185704849
6.95000e-08;0.0008627451021020449
6.97500e-08;0.0008641896856336047
7.00000e-08;0.0008658227304939576
7.02500e-08;0.0008682629887185205
7.05000e-08;0.0008707032469430833
7.07500e-08;0.0008731435051676462
7.10000e-08;0.0008755837633922089
7.12500e-08;0.0008780240216167718
7.15000e-08;0.0008804642798413346
7.17500e-08;0.0008829045380658975
7.20000e-08;0.0008853447962904604
7.22500e-08;0.0008877850545150231
7.25000e-08;0.0008902253127395861
7.27500e-08;0.0008926655709641489
7.30000e-08;0.0008951058291887117
7.32500e-08;0.0008975460874132746
7.35000e-08;0.0008999863456378373
7.37500e-08;0.0009024266038624003
7.40000e-08;0.0009048668620869631
7.42500e-08;0.0009073071203115259
7.45000e-08;0.0009097473785360887
7.47500e-08;0.0009121876367606517
7.50000e-08;0.0009146278949852145
7.52500e-08;0.0009159454806138431
7.55000e-08;0.0009167569775824981
7.57500e-08;0.0009175684745511532
7.60000e-08;0.0009183799715198082
7.62500e-08;0.0009191914684884632
7.65000e-08;0.0009200029654571182
7.67500e-08;0.0009208144624257733
7.70000e-08;0.0009216259593944282
7.72500e-08;0.000921321741742792
7.75000e-08;0.000916238720089743
7.77500e-08;0.0009111556984366938
7.80000e-08;0.0009060726767836446
7.82500e-08;0.0009009896551305956
7.85000e-08;0.0008959066334775464
7.87500e-08;0.0008908236118244974
7.90000e-08;0.0008857405901714483
7.92500e-08;0.000880657568518399
7.95000e-08;0.0008712489774147868
7.97500e-08;0.0008598904664014975
8.00000e-08;0.0008485319553882089
8.02500e-08;0.0008371734443749196
8.05000e-08;0.000825814933361631
8.07500e-08;0.0008144564223483417
8.10000e-08;0.0008030979113350525
8.12500e-08;0.0007910461615495144
8.15000e-08;0.0007760251469013352
8.17500e-08;0.0007610041322531567
8.20000e-08;0.0007459831176049775
8.22500e-08;0.0007309621029567989
8.25000e-08;0.0007159410883086197
8.27500e-08;0.0007009200736604404
8.30000e-08;0.000685899059012262
8.32500e-08;0.0006706677307761348
8.35000e-08;0.0006553415954499587
8.37500e-08;0.0006400154601237818
8.40000e-08;0.0006246893247976049
8.42500e-08;0.0006093631894714289
8.45000e-08;0.000594037054145252
8.47500e-08;0.0005806974352269283
8.50000e-08;0.0005682533164130064
8.52500e-08;0.000555809197599085
8.55000e-08;0.000543365078785163
8.57500e-08;0.000530920959971241
8.60000e-08;0.0005184768411573196
8.62500e-08;0.0005084093723425978
8.65000e-08;0.0004994132716343769
8.67500e-08;0.0004904171709261554
8.70000e-08;0.00048261666053037367
8.72500e-08;0.0004753551093122667
8.75000e-08;0.00046809355809415937
8.77500e-08;0.00046225936501455696
8.80000e-08;0.00045706860954110713
8.82500e-08;0.0004518778540676576
8.85000e-08;0.0004478541224856156
8.87500e-08;0.00044435647264770946
8.90000e-08;0.0004408588228098035
8.92500e-08;0.00043915123505309064
8.95000e-08;0.00043825058791577655
8.97500e-08;0.0004373499407784625
9.00000e-08;0.0004364492936411484
9.02500e-08;0.0004355486465038343
9.05000e-08;0.00043464799936652023
9.07500e-08;0.0004337473522292062
9.10000e-08;0.0004328467050918921
9.12500e-08;0.00043376173084863406
9.15000e-08;0.0004354952423021285
9.17500e-08;0.000437228753755623
9.20000e-08;0.0004389622652091173
9.22500e-08;0.0004406957766626118
9.25000e-08;0.0004424292881161061
9.27500e-08;0.0004441627995696006
9.30000e-08;0.000445896311023095
9.32500e-08;0.0004481756199751692
9.35000e-08;0.0004507009685345833
9.37500e-08;0.0004532263170939973
9.40000e-08;0.00045575166565341136
9.42500e-08;0.00045827701421282535
9.45000e-08;0.00046080236277223945
9.47500e-08;0.00046332771133165355
9.50000e-08;0.0004658530598910675
9.52500e-08;0.0004683784084504816
9.55000e-08;0.0004708498893213199
9.57500e-08;0.00047309064530872254
9.60000e-08;0.00047533140129612513
9.62500e-08;0.0004775721572835277
9.65000e-08;0.0004798129132709303
9.67500e-08;0.0004820536692583328
9.70000e-08;0.00048429442524573546
9.72500e-08;0.00048653518123313794
9.75000e-08;0.0004887759372205406
9.77500e-08;0.0004910166932079432
9.80000e-08;0.0004942077215662039
9.82500e-08;0.0004978271224281873
9.85000e-08;0.0005014465232901706
9.87500e-08;0.0005050659241521542
9.90000e-08;0.0005086853250141375
9.92500e-08;0.000512304725876121
9.95000e-08;0.0005159241267381045
9.97500e-08;0.0005195435276000878
1.00000e-07;0.0005231629284620713
1.00250e-07;0.0005267823293240546
1.00500e-07;0.000530401730186038
1.00750e-07;0.0005340211310480216
1.01000e-07;0.0005385581078215057
1.01250e-07;0.0005435087178885802
1.01500e-07;0.0005484593279556544
1.01750e-07;0.000553409938022729
1.02000e-07;0.0005583605480898032
1.02250e-07;0.0005633111581568777
1.02500e-07;0.0005682617682239523
1.02750e-07;0.0005732123782910265
1.03000e-07;0.000578162988358101
1.03250e-07;0.0005831135984251752
1.03500e-07;0.0005880642084922496
1.03750e-07;0.0005930148185593242
1.04000e-07;0.0005978819781348734
1.04250e-07;0.0006022056694992523
1.04500e-07;0.000604750346529339
1.04750e-07;0.0006101925209784072
1.05000e-07;0.0006134157898150729
1.05250e-07;0.0006187638083196564
1.05500e-07;0.0006216554711173308
1.05750e-07;0.0006245471339150052
1.06000e-07;0.0006274387967126798
1.06250e-07;0.0006303304595103542
1.06500e-07;0.0006332221223080286
1.06750e-07;0.0006361137851057031
1.07000e-07;0.0006390054479033775
1.07250e-07;0.0006416670350852896
1.07500e-07;0.0006425546646719297
1.07750e-07;0.0006434422942585699
1.08000e-07;0.00064432992384521
1.08250e-07;0.0006452175534318502
1.08500e-07;0.0006461051830184903
1.08750e-07;0.0006469928126051305
1.09000e-07;0.0006478804421917707
1.09250e-07;0.0006487680717784108
1.09500e-07;0.0006475816003099743
1.09750e-07;0.0006462749193070387
1.10000e-07;0.0006449682383041031
1.10250e-07;0.0006436615573011675
1.10500e-07;0.0006423548762982319
1.10750e-07;0.0006410481952952963
1.11000e-07;0.0006397415142923606
1.11250e-07;0.0006384348332894251
1.11500e-07;0.0006371281522864895
1.11750e-07;0.0006358214712835538
1.12000e-07;0.0006345147902806182
1.12250e-07;0.0006327343839264822
1.12500e-07;0.0006303636719435841
1.12750e-07;0.0006279929599606861
1.13000e-07;0.000625622247977788
1.13250e-07;0.0006232515359948899
1.13500e-07;0.0006208808240119919
1.13750e-07;0.0006185101120290938
1.14000e-07;0.0006161394000461957
1.14250e-07;0.0006137686880632977
1.14500e-07;0.0006113979760803996
1.14750e-07;0.0006090272640975016
1.15000e-07;0.0006066565521146035
1.15250e-07;0.0006047031951089328
1.15500e-07;0.0006027740269186579
1.15750e-07;0.000600844858728383
1.16000e-07;0.0005984250366860909
1.16250e-07;0.0005953938145363612
1.16500e-07;0.0005923625923866315
1.16750e-07;0.0005893313702369018
1.17000e-07;0.000582195865980083
1.17250e-07;0.000574822488144084
1.17500e-07;0.0005674491103080851
1.17750e-07;0.0005570988611341064
1.18000e-07;0.0005465760801941698
1.18250e-07;0.0005335395128891753
1.18500e-07;0.0005203572530259328
1.18750e-07;0.0005037634082683204
1.19000e-07;0.00048697183687098597
1.19250e-07;0.00046705134021553143
1.19500e-07;0.00044694949914204874
1.19750e-07;0.00042426761518439196
1.20000e-07;0.0004014361986119454
1.20250e-07;0.00037624211885806753
1.20500e-07;0.0003509111052549316
1.20750e-07;0.00032298989777922204
1.21000e-07;0.00029491856936368665
1.21250e-07;0.0002647689773759116
1.21500e-07;0.00023449893460490375
1.21750e-07;0.0002028292589737381
1.22000e-07;0.0001710784642407949
1.22250e-07;0.00013839892628186477
1.22500e-07;0.00010566556076684714
1.22750e-07;7.219561243695274e-05
1.23000e-07;3.8682973671565486e-05
1.23250e-07;5.013520704329644e-06
1.23500e-07;-2.8513901063657827e-05
1.23750e-07;-6.169396927007578e-05
1.24000e-07;-9.432595000618415e-05
1.24250e-07;-0.00012625767594085017
1.24500e-07;-0.00015740271306958586
1.24750e-07;-0.00018764038815162137
1.25000e-07;-0.0002167787902394316
1.25250e-07;-0.00024460231012947756
1.25500e-07;-0.0002708957925927476
1.25750e-07;-0.00029544645815873463
1.26000e-07;-0.00031805220956568353
1.26250e-07;-0.000338131215289176
1.26500e-07;-0.00035806998760061015
1.26750e-07;-0.00037586218348902934
1.27000e-07;-0.00039352996935800933
1.27250e-07;-0.00040897471627755283
1.27500e-07;-0.00042429062160732417
1.27750e-07;-0.0004369578479660645
1.28000e-07;-0.0004494715637398854
1.28250e-07;-0.00045939432913115767
1.28500e-07;-0.00046916692973724257
1.28750e-07;-0.00047717658700618167
1.29000e-07;-0.00048508406863744576
1.29250e-07;-0.0004907856313692609
1.29500e-07;-0.0004963593447451377
1.29750e-07;-0.0005019330581210142
1.30000e-07;-0.000504685860421465
1.30250e-07;-0.00050727517000954
1.30500e-07;-0.0005098644795976147
1.30750e-07;-0.0005105312268286504
1.31000e-07;-0.0005110865473163185
1.31250e-07;-0.0005116418678039866
1.31500e-07;-0.0005097040431866479
1.31750e-07;-0.0005076217223251294
1.32000e-07;-0.0005055394014636108
1.32250e-07;-0.0005034570806020924
1.32500e-07;-0.000501374759740574
1.32750e-07;-0.0004992924388790554
1.33000e-07;-0.0004963825997772596
1.33250e-07;-0.0004924415963649648
1.33500e-07;-0.0004885005929526699
1.33750e-07;-0.0004845595895403747
1.34000e-07;-0.0004806185861280799
1.34250e-07;-0.0004766775827157851
1.34500e-07;-0.00047273657930348986
1.34750e-07;-0.000468870776392038
1.35000e-07;-0.00046500933190718165
1.35250e-07;-0.0004611478874223253
1.35500e-07;-0.00045728644293746855
1.35750e-07;-0.0004541992977568812
1.36000e-07;-0.000452077001167351
1.36250e-07;-0.0004499547045778206
1.36500e-07;-0.0004478324079882904
1.36750e-07;-0.00044571011139876016
1.37000e-07;-0.0004471033273628912
1.37250e-07;-0.00044870029334515964
1.37500e-07;-0.0004502972593274279
1.37750e-07;-0.0004543342496597073
1.38000e-07;-0.00045851265749455056
1.38250e-07;-0.00046472987346774045
1.38500e-07;-0.00047106525348922316
1.38750e-07;-0.0004798561823623946
1.39000e-07;-0.0004887894284981062
1.39250e-07;-0.000500502486585494
1.39500e-07;-0.0005123766553863051
1.39750e-07;-0.0005242508241871173
1.40000e-07;-0.000538933451450672
1.40250e-07;-0.0005537788497053646
1.40500e-07;-0.0005686242479600586
1.40750e-07;-0.00058615643953382
1.41000e-07;-0.0006038443507015609
1.41250e-07;-0.0006215322618693017
1.41500e-07;-0.0006417643298389393
1.41750e-07;-0.0006621438505588103
1.42000e-07;-0.0006825233712786812
1.42250e-07;-0.0007029028919985543
1.42500e-07;-0.0007232824127184252
1.42750e-07;-0.0007436619334382961
1.43000e-07;-0.0007648450236389136
1.43250e-07;-0.0007860746866489817
1.43500e-07;-0.0008073043496590475
1.43750e-07;-0.0008285340126691132
1.44000e-07;-0.0008497636756791812
1.44250e-07;-0.0008709933386892469
1.44500e-07;-0.000888240068377169
1.44750e-07;-0.0009052559575477487
1.45000e-07;-0.0009222718467183301
1.45250e-07;-0.0009392877358889097
1.45500e-07;-0.0009563036250594893
