Time(s);Current(A)
7.25000e-06;-0.0015275452344776464
7.25025e-06;-0.0015327479401148647
7.25050e-06;-0.0015394702739999976
7.25075e-06;-0.0015475766337077232
7.25100e-06;-0.0015569141798106932
7.25125e-06;-0.0015673823334009045
7.25150e-06;-0.0015789149518611678
7.25175e-06;-0.001591449144555683
7.25200e-06;-0.0016049219703382816
7.25225e-06;-0.0016192661247512998
7.25250e-06;-0.0016343869120249038
7.25275e-06;-0.001650142209170361
7.25300e-06;-0.0016663791823932485
7.25325e-06;-0.0016829777182519135
7.25350e-06;-0.0016998392217230185
7.25375e-06;-0.0017168672493029717
7.25400e-06;-0.0017339651894555084
7.25425e-06;-0.0017510338750409222
7.25450e-06;-0.0017679569503001675
7.25475e-06;-0.0017845882779801093
7.25500e-06;-0.0018007749848428269
7.25525e-06;-0.0018163848119163366
7.25550e-06;-0.0018312990265400124
7.25575e-06;-0.0018454000876750648
7.25600e-06;-0.0018585705454426424
7.25625e-06;-0.0018707263715328952
7.25650e-06;-0.0018819906765453456
7.25675e-06;-0.0018928072369204913
7.25700e-06;-0.0019036140756863214
7.25725e-06;-0.0019145201876357815
7.25750e-06;-0.0019254418242673878
7.25775e-06;-0.0019362253276573886
7.25800e-06;-0.0019468636508042745
7.25825e-06;-0.001957318294226238
7.25850e-06;-0.0019674920783198232
7.25875e-06;-0.001977703505750323
7.25900e-06;-0.0019882638375755372
7.25925e-06;-0.001999103384606202
7.25950e-06;-0.002010118326804786
7.25975e-06;-0.0020213534530989816
7.26000e-06;-0.0020326118587401104
7.26025e-06;-0.00204389948834445
7.26050e-06;-0.0020552494714987874
7.26075e-06;-0.0020666777308119325
7.26100e-06;-0.002078332589532732
7.26125e-06;-0.002090271912108659
7.26150e-06;-0.0021023295412546574
7.26175e-06;-0.0021145356877482115
7.26200e-06;-0.002126700024328273
7.26225e-06;-0.0021388118744111884
7.26250e-06;-0.0021509237244940627
7.26275e-06;-0.002163012794196087
7.26300e-06;-0.0021750732663169694
7.26325e-06;-0.002187133738437811
7.26350e-06;-0.002199088412551256
7.26375e-06;-0.0022109102720674592
7.26400e-06;-0.0022224886017418568
7.26425e-06;-0.002233761213769719
7.26450e-06;-0.0022447285101946826
7.26475e-06;-0.0022553125255939
7.26500e-06;-0.002265578888884952
7.26525e-06;-0.0022754464843936467
7.26550e-06;-0.0022850029315584605
7.26575e-06;-0.0022939165739796403
7.26600e-06;-0.0023022276535044836
7.26625e-06;-0.0023098321612368845
7.26650e-06;-0.0023164583379029617
7.26675e-06;-0.002321595292883944
7.26700e-06;-0.002324791158482822
7.26725e-06;-0.0023259124456974072
7.26750e-06;-0.0023250004158634086
7.26775e-06;-0.002322110921973362
7.26800e-06;-0.002317299869743699
7.26825e-06;-0.002310605562326723
7.26850e-06;-0.002301961323808526
7.26875e-06;-0.002290113164112265
7.26900e-06;-0.0022756719986600626
7.26925e-06;-0.0022612308332078117
7.26950e-06;-0.0022443910519446327
7.26975e-06;-0.0022245401440973474
7.27000e-06;-0.002203049513383276
7.27025e-06;-0.0021795004400075144
7.27050e-06;-0.0021544004253097417
7.27075e-06;-0.002127353420758955
7.27100e-06;-0.0020987924327850807
7.27125e-06;-0.0020683308504298795
7.27150e-06;-0.0020366581226297646
7.27175e-06;-0.002003464971163216
7.27200e-06;-0.0019693944825364125
7.27225e-06;-0.0019342226198447714
7.27250e-06;-0.0018984124333318146
7.27275e-06;-0.0018618009205626767
7.27300e-06;-0.0018247577075325046
7.27325e-06;-0.0017871725552193914
7.27350e-06;-0.001749528662558545
7.27375e-06;-0.0017118110296091926
7.27400e-06;-0.001674427127518756
7.27425e-06;-0.0016374621778325507
7.27450e-06;-0.0016009644410255207
7.27475e-06;-0.001565452122170038
7.27500e-06;-0.001530925145435602
7.27525e-06;-0.0014975969941901262
7.27550e-06;-0.0014657082044235495
7.27575e-06;-0.0014355013856664604
7.27600e-06;-0.0014077223375012888
7.27625e-06;-0.0013817213828247812
7.27650e-06;-0.001357726374887142
7.27675e-06;-0.0013362495524475609
7.27700e-06;-0.0013166778683997087
7.27725e-06;-0.001299497819073438
7.27750e-06;-0.0012843192257915496
7.27775e-06;-0.0012716531805690753
7.27800e-06;-0.0012611159567756853
7.27825e-06;-0.0012532511704637012
7.27850e-06;-0.0012469972530165273
7.27875e-06;-0.0012437600126032997
7.27900e-06;-0.0012427169031651501
7.27925e-06;-0.0012437897732022352
7.27950e-06;-0.0012469435223386497
7.27975e-06;-0.0012521471193006437
7.28000e-06;-0.001259369597612639
7.28025e-06;-0.0012685742096751383
7.28050e-06;-0.001279686496362028
7.28075e-06;-0.0012925646039366066
7.28100e-06;-0.0013070444172857995
7.28125e-06;-0.001322999501325269
7.28150e-06;-0.0013403302253678934
7.28175e-06;-0.0013589396154506427
7.28200e-06;-0.0013787306976105042
7.28225e-06;-0.0013996029362990368
7.28250e-06;-0.0014214320716889365
7.28275e-06;-0.001444051659850122
7.28300e-06;-0.001467281468837087
7.28325e-06;-0.0014909646836926346
7.28350e-06;-0.0015149614214971093
7.28375e-06;-0.0015391334588271295
7.28400e-06;-0.0015633424810994785
7.28425e-06;-0.0015874480837886108
7.28450e-06;-0.0016112949976290593
7.28475e-06;-0.0016347014348108535
7.28500e-06;-0.0016574769782041886
7.28525e-06;-0.0016794460678710192
7.28550e-06;-0.0017004435994164358
7.28575e-06;-0.001719997182082113
7.28600e-06;-0.001738480850182202
7.28625e-06;-0.0017556574939307642
7.28650e-06;-0.0017711933514592123
7.28675e-06;-0.0017853172899292087
7.28700e-06;-0.001797668761549552
7.28725e-06;-0.0018100202331698535
7.28750e-06;-0.0018209630548195795
7.28775e-06;-0.0018301375135021476
7.28800e-06;-0.0018380578812482594
7.28825e-06;-0.0018444039132716893
7.28850e-06;-0.0018498093770928144
7.28875e-06;-0.0018534917990586037
7.28900e-06;-0.0018559916811373611
7.28925e-06;-0.0018573625739658414
7.28950e-06;-0.0018576067630868564
7.28975e-06;-0.0018567219586301746
7.29000e-06;-0.0018547059618856546
7.29025e-06;-0.0018515625353737646
7.29050e-06;-0.0018473349872115167
7.29075e-06;-0.0018421329955297238
7.29100e-06;-0.001836078432173357
7.29125e-06;-0.0018292430401667282
7.29150e-06;-0.0018216662766564794
7.29175e-06;-0.0018133848124689642
7.29200e-06;-0.0018044354216648812
7.29225e-06;-0.001794858621103712
7.29250e-06;-0.0017847196458312474
7.29275e-06;-0.0017741254296129941
7.29300e-06;-0.0017631902848462473
7.29325e-06;-0.0017519971862714205
7.29350e-06;-0.0017406090662805992
7.29375e-06;-0.001729087042917705
7.29400e-06;-0.0017174921826094806
7.29425e-06;-0.0017058879129919693
7.29450e-06;-0.0016943531985707694
7.29475e-06;-0.0016829930600551
7.29500e-06;-0.001671917180598669
7.29525e-06;-0.0016612156614324522
7.29550e-06;-0.0016509659605017186
7.29575e-06;-0.0016412442902994323
7.29600e-06;-0.0016321270972557882
7.29625e-06;-0.001623706737965833
7.29650e-06;-0.0016161701663981334
7.29675e-06;-0.0016098349266323593
7.29700e-06;-0.0016049749521504448
7.29725e-06;-0.0016016744894933631
7.29750e-06;-0.0015999153549283766
7.29775e-06;-0.001599997716685027
7.29800e-06;-0.0016013251423921586
7.29825e-06;-0.0016036308942668227
7.29850e-06;-0.0016082437258220373
7.29875e-06;-0.0016142110005959033
7.29900e-06;-0.001621707150349045
7.29925e-06;-0.001631122588747764
7.29950e-06;-0.0016419377301398646
7.29975e-06;-0.001654510002820607
7.30000e-06;-0.0016683237976552535
7.30025e-06;-0.0016836961498641956
7.30050e-06;-0.0017002364439410859
7.30075e-06;-0.001718242925637006
7.30100e-06;-0.0017373632285905562
7.30125e-06;-0.0017578817783085884
7.30150e-06;-0.0017793013832798805
7.30175e-06;-0.0018018521370633915
7.30200e-06;-0.0018250730624666633
7.30225e-06;-0.001849135294581038
7.30250e-06;-0.0018736897480970283
7.30275e-06;-0.0018988621167203446
7.30300e-06;-0.001924361041415054
7.30325e-06;-0.0019502699115719962
7.30350e-06;-0.0019762403352126313
7.30375e-06;-0.0020022880306407643
7.30400e-06;-0.002028120895377583
7.30425e-06;-0.002053684070236272
7.30450e-06;-0.0020787893491162413
7.30475e-06;-0.002103319803655087
7.30500e-06;-0.002127366450392184
7.30525e-06;-0.0021503866126407977
7.30550e-06;-0.0021723850890540295
7.30575e-06;-0.0021931895849554264
7.30600e-06;-0.002212628012137532
7.30625e-06;-0.002230507791479974
7.30650e-06;-0.0022465202746514337
7.30675e-06;-0.002260206331285665
7.30700e-06;-0.0022711847011320386
7.30725e-06;-0.0022793310727738454
7.30750e-06;-0.0022846557213494346
7.30775e-06;-0.0022871798608092783
7.30800e-06;-0.0022869243426769737
7.30825e-06;-0.0022838973975229135
7.30850e-06;-0.002278034589402918
7.30875e-06;-0.002268487370090153
7.30900e-06;-0.0022563493265598264
7.30925e-06;-0.002242199916486452
7.30950e-06;-0.002224266780627878
7.30975e-06;-0.0022029912667849596
7.31000e-06;-0.002179503544283801
7.31025e-06;-0.002153842635388988
7.31050e-06;-0.0021254535950082716
7.31075e-06;-0.002094982420934524
7.31100e-06;-0.0020618974193018402
7.31125e-06;-0.0020274066754659755
7.31150e-06;-0.0019903415519175395
7.31175e-06;-0.001951238965290241
7.31200e-06;-0.0019108546065637992
7.31225e-06;-0.001869409592272086
7.31250e-06;-0.0018266330733049383
7.31275e-06;-0.0017830814708054037
7.31300e-06;-0.0017385568593658478
7.31325e-06;-0.0016936912390451001
7.31350e-06;-0.0016483264013117402
7.31375e-06;-0.0016029186239601648
7.31400e-06;-0.0015577330747314087
7.31425e-06;-0.0015130318770602046
7.31450e-06;-0.0014690591738959352
7.31475e-06;-0.0014260359611619738
7.31500e-06;-0.0013841951273617784
7.31525e-06;-0.001343809189497996
7.31550e-06;-0.0013051713691912623
7.31575e-06;-0.0012691309918069736
7.31600e-06;-0.0012350152489148311
7.31625e-06;-0.001202632036574911
7.31650e-06;-0.001173361348366335
7.31675e-06;-0.0011457450609287565
7.31700e-06;-0.0011191804902805056
7.31725e-06;-0.0010931838429709937
7.31750e-06;-0.0010677913489117272
7.31775e-06;-0.0010439811723101382
7.31800e-06;-0.0010212052712942903
7.31825e-06;-0.0009993902498402149
7.31850e-06;-0.000979293985200086
7.31875e-06;-0.0009600713397568874
7.31900e-06;-0.0009413301681787714
7.31925e-06;-0.0009228305802834227
7.31950e-06;-0.0009046305913886802
7.31975e-06;-0.000887259209108827
7.32000e-06;-0.0008704558797639881
7.32025e-06;-0.0008542029959965841
7.32050e-06;-0.000838935931151195
7.32075e-06;-0.0008241630227942951
7.32100e-06;-0.0008096484201090605
7.32125e-06;-0.0007952625713372798
7.32150e-06;-0.0007811488096107331
7.32175e-06;-0.0007673766151040859
7.32200e-06;-0.0007540464442943087
7.32225e-06;-0.0007412711723961731
7.32250e-06;-0.0007288832228912988
7.32275e-06;-0.0007169815024643221
7.32300e-06;-0.000705252247930577
7.32325e-06;-0.0006937395001976545
7.32350e-06;-0.0006824909549861572
7.32375e-06;-0.000671574079077969
7.32400e-06;-0.0006611566122633878
7.32425e-06;-0.0006513660836977425
7.32450e-06;-0.0006415755551320641
7.32475e-06;-0.0006322730067566774
7.32500e-06;-0.0006235830492410303
7.32525e-06;-0.0006148930917253539
7.32550e-06;-0.0006065246662092671
7.32575e-06;-0.0005987655735869235
7.32600e-06;-0.0005914977273173571
7.32625e-06;-0.0005847909248275202
7.32650e-06;-0.0005787621337414206
7.32675e-06;-0.0005735906344633171
7.32700e-06;-0.0005694264614285868
7.32725e-06;-0.0005663178475483428
7.32750e-06;-0.0005642593620017469
7.32775e-06;-0.0005634684252209576
7.32800e-06;-0.0005635387691791718
7.32825e-06;-0.0005645312023906809
7.32850e-06;-0.0005666811896580112
7.32875e-06;-0.0005700924813628421
7.32900e-06;-0.0005750871643305049
7.32925e-06;-0.0005800818472981677
7.32950e-06;-0.0005862705388085899
7.32975e-06;-0.0005939581410007534
7.33000e-06;-0.0006024902389246163
7.33025e-06;-0.0006120824830933923
7.33050e-06;-0.000622465734693979
7.33075e-06;-0.0006338419854620594
7.33100e-06;-0.000645958607211204
7.33125e-06;-0.000659004661147909
7.33150e-06;-0.0006726551651338529
7.33175e-06;-0.0006870644715929817
7.33200e-06;-0.0007019327321830996
7.33225e-06;-0.0007173771454763049
7.33250e-06;-0.0007331611868910795
7.33275e-06;-0.0007493715838980233
7.33300e-06;-0.0007658040509055931
7.33325e-06;-0.0007825152957308669
7.33350e-06;-0.0007992776673701485
7.33375e-06;-0.0008161042215717489
7.33400e-06;-0.0008328049847124762
7.33425e-06;-0.0008493478347747273
7.33450e-06;-0.0008656043643551502
7.33475e-06;-0.0008815014586272273
7.33500e-06;-0.000896952877287134
7.33525e-06;-0.0009118448125667773
7.33550e-06;-0.000926098256268794
7.33575e-06;-0.0009395501631212638
7.33600e-06;-0.0009524001104532652
7.33625e-06;-0.00096405535192193
7.33650e-06;-0.0009748370776912868
7.33675e-06;-0.000985104574998292
7.33700e-06;-0.000995193664029459
7.33725e-06;-0.0010052314005310377
7.33750e-06;-0.0010151026458275444
7.33775e-06;-0.0010247648847085363
7.33800e-06;-0.001034207389266246
7.33825e-06;-0.0010431943687284084
7.33850e-06;-0.001051842021590568
7.33875e-06;-0.0010604138240265322
7.33900e-06;-0.0010690696912554374
7.33925e-06;-0.0010777255584843428
7.33950e-06;-0.0010864236571670857
7.33975e-06;-0.0010951747715317991
7.34000e-06;-0.0011038226257335632
7.34025e-06;-0.0011123408512469619
7.34050e-06;-0.0011207976265109098
7.34075e-06;-0.0011291772595837018
7.34100e-06;-0.0011376455193497102
7.34125e-06;-0.0011462250375300507
7.34150e-06;-0.001154800400527656
7.34175e-06;-0.0011633705472745895
7.34200e-06;-0.001171940694021523
7.34225e-06;-0.0011803733154027087
7.34250e-06;-0.0011886332929271879
7.34275e-06;-0.001196893270451667
7.34300e-06;-0.0012050801752589895
7.34325e-06;-0.001213175347492869
7.34350e-06;-0.0012212705197267486
7.34375e-06;-0.0012291489514336046
7.34400e-06;-0.001236755295731133
7.34425e-06;-0.001244361640028687
7.34450e-06;-0.0012516424347896302
7.34475e-06;-0.001258514547652396
7.34500e-06;-0.001265386660515185
7.34525e-06;-0.0012719657168544095
7.34550e-06;-0.0012781768817275029
7.34575e-06;-0.0012841511495658654
7.34600e-06;-0.001289640655966204
7.34625e-06;-0.0012946697909746016
7.34650e-06;-0.0012990789582231516
7.34675e-06;-0.0013025751839051648
7.34700e-06;-0.0013049005988458207
7.34725e-06;-0.0013059784126182804
7.34750e-06;-0.0013058308329810364
7.34775e-06;-0.0013042335898826864
7.34800e-06;-0.001301661102308607
7.34825e-06;-0.001298328680843216
7.34850e-06;-0.0012934938878029617
7.34875e-06;-0.0012870386537140943
7.34900e-06;-0.0012794133919267691
7.34925e-06;-0.0012710238684480728
7.34950e-06;-0.001261674921337688
7.34975e-06;-0.0012528789953926832
7.35000e-06;-0.0012392615472755994
7.35025e-06;-0.0012273069579334277
7.35050e-06;-0.0012102145687249923
7.35075e-06;-0.0011936554344720456
7.35100e-06;-0.0011764610459565675
7.35125e-06;-0.0011593880954716186
7.35150e-06;-0.0011400924420529401
7.35175e-06;-0.001121493143415851
7.35200e-06;-0.0011005947222393166
7.35225e-06;-0.0010809078840680227
7.35250e-06;-0.0010583116018497757
7.35275e-06;-0.0010385253425240393
7.35300e-06;-0.001019191593197008
7.35325e-06;-0.0009974719128894003
7.35350e-06;-0.0009768892827086133
7.35375e-06;-0.0009534078575600829
7.35400e-06;-0.0009301494431132991
7.35425e-06;-0.0009084894557990884
7.35450e-06;-0.0008867777106714156
7.35475e-06;-0.0008649884626372527
7.35500e-06;-0.0008441989214983976
7.35525e-06;-0.0008246350790852933
7.35550e-06;-0.0008058665608627681
7.35575e-06;-0.0007872500951822454
7.35600e-06;-0.0007698219882947948
7.35625e-06;-0.0007545138540721392
7.35650e-06;-0.000740516362585255
7.35675e-06;-0.0007282828294097266
7.35700e-06;-0.0007188648377692587
7.35725e-06;-0.0007124344896277684
7.35750e-06;-0.0007085983647286344
7.35775e-06;-0.000706829739831242
7.35800e-06;-0.000707653972649345
7.35825e-06;-0.0007116062721455094
7.35850e-06;-0.0007190279817426453
7.35875e-06;-0.0007268023271612569
7.35900e-06;-0.0007401756536714478
7.35925e-06;-0.0007538049867249075
7.35950e-06;-0.0007716332342329347
7.35975e-06;-0.0007917380229399686
7.36000e-06;-0.0008143876807200025
7.36025e-06;-0.0008405586599739502
7.36050e-06;-0.0008669853112347666
7.36075e-06;-0.0008974713990153157
7.36100e-06;-0.0009281567014792845
7.36125e-06;-0.0009621566488801247
7.36150e-06;-0.0009985637945517944
7.36175e-06;-0.0010351394154980089
7.36200e-06;-0.0010743900054053113
7.36225e-06;-0.0011137638667913508
7.36250e-06;-0.0011550949731225502
7.36275e-06;-0.0011965183045781558
7.36300e-06;-0.0012394059419698423
7.36325e-06;-0.0012823264949812139
7.36350e-06;-0.0013257696662888057
7.36375e-06;-0.0013691861505609256
7.36400e-06;-0.0014121789109882218
7.36425e-06;-0.0014550873544552537
7.36450e-06;-0.0014966570539885374
7.36475e-06;-0.0015381332833704373
7.36500e-06;-0.0015780462330812776
7.36525e-06;-0.0016166023134692768
7.36550e-06;-0.0016534608246040656
7.36575e-06;-0.0016882606101416378
7.36600e-06;-0.001720802634369725
7.36625e-06;-0.0017508764486274077
7.36650e-06;-0.0017779950453565448
7.36675e-06;-0.0018006848572419017
7.36700e-06;-0.0018229881485650732
7.36725e-06;-0.001839154453268875
7.36750e-06;-0.0018550185750638153
7.36775e-06;-0.0018656774530819214
7.36800e-06;-0.0018698689479391929
7.36825e-06;-0.0018740604427964645
7.36850e-06;-0.0018778342247364101
7.36875e-06;-0.0018747694815909204
7.36900e-06;-0.0018682290296581558
7.36925e-06;-0.0018583101594873976
7.36950e-06;-0.0018450978147062777
7.36975e-06;-0.0018286692073979985
7.37000e-06;-0.001809164878446558
7.37025e-06;-0.0017867211163999988
7.37050e-06;-0.001761402903818662
7.37075e-06;-0.0017333295338984003
7.37100e-06;-0.001702685222133295
7.37125e-06;-0.0016696655290891864
7.37150e-06;-0.0016344579214409934
7.37175e-06;-0.0015972455382316669
7.37200e-06;-0.0015582506576963797
7.37225e-06;-0.0015176932560818021
7.37250e-06;-0.0014757483268765974
7.37275e-06;-0.0014326251482346822
7.37300e-06;-0.0013885735439187316
7.37325e-06;-0.00134385037877526
7.37350e-06;-0.0012987075255872494
7.37375e-06;-0.0012533939257843955
7.37400e-06;-0.001208183292481132
7.37425e-06;-0.0011633478049774707
7.37450e-06;-0.0011191313212803378
7.37475e-06;-0.0010757991223498255
7.37500e-06;-0.0010336421662534537
7.37525e-06;-0.0009929555029081437
7.37550e-06;-0.0009540311554324711
7.37575e-06;-0.0009171592789534216
7.37600e-06;-0.0008826455766571523
7.37625e-06;-0.0008507942691559998
7.37650e-06;-0.0008218844168517942
7.37675e-06;-0.000796149860599629
7.37700e-06;-0.000773729584166307
7.37725e-06;-0.0007546881348482616
7.37750e-06;-0.000739071386335024
7.37775e-06;-0.0007269240635785337
7.37800e-06;-0.0007183004846729807
7.37825e-06;-0.0007132542180493712
7.37850e-06;-0.0007118227863194779
7.37875e-06;-0.0007141189758983701
7.37900e-06;-0.000721421738140429
7.37925e-06;-0.0007291244851717794
7.37950e-06;-0.0007431779973035747
7.37975e-06;-0.0007576063436425185
7.38000e-06;-0.0007779861262968635
7.38025e-06;-0.0007987147079515467
7.38050e-06;-0.0008249813514962948
7.38075e-06;-0.0008515613435325916
7.38100e-06;-0.0008831165314210351
7.38125e-06;-0.0009149383034104425
7.38150e-06;-0.0009509927688645143
7.38175e-06;-0.0009872655831032653
7.38200e-06;-0.0010270052337775643
7.38225e-06;-0.001066914446107671
7.38250e-06;-0.0011095158764306459
7.38275e-06;-0.0011522322010282774
7.38300e-06;-0.0011967727613669235
7.38325e-06;-0.0012413664543584563
7.38350e-06;-0.0012868037619211353
7.38375e-06;-0.0013322417213124116
7.38400e-06;-0.0013776696613417036
7.38425e-06;-0.0014227380312906988
7.38450e-06;-0.0014671798262131405
7.38475e-06;-0.0015107206285887118
7.38500e-06;-0.0015530719216922527
7.38525e-06;-0.0015939333117628057
7.38550e-06;-0.0016330018723377886
7.38575e-06;-0.0016698951072714717
7.38600e-06;-0.0017032883766762406
7.38625e-06;-0.0017363474201056723
7.38650e-06;-0.0017640997850913171
7.38675e-06;-0.0017914456320565204
7.38700e-06;-0.001812336982440151
7.38725e-06;-0.001833228332823711
7.38750e-06;-0.0018536062262101678
7.38775e-06;-0.0018658316976471452
7.38800e-06;-0.0018780571690841226
7.38825e-06;-0.001889831344060249
7.38850e-06;-0.0018944400520283947
7.38875e-06;-0.0018987958401542756
7.38900e-06;-0.00189897664309951
7.38925e-06;-0.0018964722762569147
7.38950e-06;-0.001891325121701293
7.38975e-06;-0.0018835777124110201
7.39000e-06;-0.001873273231572897
7.39025e-06;-0.0018604571187523648
7.39050e-06;-0.0018452180479479761
7.39075e-06;-0.0018277367997712954
7.39100e-06;-0.0018082240355532222
7.39125e-06;-0.0017868376820346769
7.39150e-06;-0.0017637034953540116
7.39175e-06;-0.0017389476490269546
7.39200e-06;-0.001712696029402516
7.39225e-06;-0.00168507663534109
7.39250e-06;-0.001656244126223722
7.39275e-06;-0.001626410866686279
7.39300e-06;-0.001595807933677711
7.39325e-06;-0.0015646335800952984
