Time(s);Current(A)
5.25000e-06;0.006955281221237903
5.25025e-06;0.007009810364942211
5.25050e-06;0.007064339508646519
5.25075e-06;0.007118868652351013
5.25100e-06;0.007173397796055321
5.25125e-06;0.00722688078365621
5.25150e-06;0.007280300256513044
5.25175e-06;0.007333719729369699
5.25200e-06;0.007387139202226533
5.25225e-06;0.007440558675083188
5.25250e-06;0.007493978147939842
5.25275e-06;0.007547397620796677
5.25300e-06;0.007600817093653331
5.25325e-06;0.007654236566509985
5.25350e-06;0.007680131358638611
5.25375e-06;0.007704355058804364
5.25400e-06;0.007728578758970117
5.25425e-06;0.007752802459135952
5.25450e-06;0.007777026159301705
5.25475e-06;0.007801249859467458
5.25500e-06;0.007825473559633292
5.25525e-06;0.007849697259799046
5.25550e-06;0.007873920959964798
5.25575e-06;0.00787995432501186
5.25600e-06;0.007863094298341733
5.25625e-06;0.007846234271671549
5.25650e-06;0.007829374245001422
5.25675e-06;0.007812514218331295
5.25700e-06;0.007795654191661111
5.25725e-06;0.007778794164990985
5.25750e-06;0.007761934138320858
5.25775e-06;0.007745074111650674
5.25800e-06;0.0077282140849805475
5.25825e-06;0.007681909605794405
5.25850e-06;0.007633817480516481
5.25875e-06;0.007585725355238719
5.25900e-06;0.007537633229960958
5.25925e-06;0.007489541104683033
5.25950e-06;0.007441448979405271
5.25975e-06;0.007393356854127509
5.26000e-06;0.0073452647288495855
5.26025e-06;0.007297172603571824
5.26050e-06;0.007245729640223602
5.26075e-06;0.0071900694896705405
5.26100e-06;0.00713440933911748
5.26125e-06;0.007078749188564231
5.26150e-06;0.00702308903801117
5.26175e-06;0.006967428887458109
5.26200e-06;0.00691176873690486
5.26225e-06;0.006856108586351799
5.26250e-06;0.006800448435798739
5.26275e-06;0.006744788285245489
5.26300e-06;0.006709618441069143
5.26325e-06;0.006675692614456865
5.26350e-06;0.006641766787844472
5.26375e-06;0.006607840961232194
5.26400e-06;0.006573915134619916
5.26425e-06;0.0065399893080075235
5.26450e-06;0.006506063481395246
5.26475e-06;0.006472137654782853
5.26500e-06;0.006438211828170576
5.26525e-06;0.006420203545834213
5.26550e-06;0.006422228241111434
5.26575e-06;0.006424252936388647
5.26600e-06;0.006426277631665861
5.26625e-06;0.0064283023269430814
5.26650e-06;0.0064303270222202955
5.26675e-06;0.0064323517174975095
5.26700e-06;0.00643437641277473
5.26725e-06;0.006436401108051944
5.26750e-06;0.006438425803329157
5.26775e-06;0.00646934245029274
5.26800e-06;0.0065020131996441225
5.26825e-06;0.006534683948995505
5.26850e-06;0.0065673546983469975
5.26875e-06;0.00660002544769838
5.26900e-06;0.006632696197049873
5.26925e-06;0.006665366946401255
5.26950e-06;0.006698037695752637
5.26975e-06;0.006730708445104131
5.27000e-06;0.006763379194455512
5.27025e-06;0.0068064118939231465
5.27050e-06;0.00685007369320513
5.27075e-06;0.006893735492486966
5.27100e-06;0.0069373972917688015
5.27125e-06;0.0069810590910507845
5.27150e-06;0.00702472089033262
5.27175e-06;0.007068382689614456
5.27200e-06;0.0071120444888964395
5.27225e-06;0.007155706288178275
5.27250e-06;0.007199368087460111
5.27275e-06;0.007229502732726874
5.27300e-06;0.007258816110762896
5.27325e-06;0.007288129488799017
5.27350e-06;0.007317442866835039
5.27375e-06;0.007346756244871061
5.27400e-06;0.007376069622907183
5.27425e-06;0.007405383000943205
5.27450e-06;0.0074346963789792275
5.27475e-06;0.007429958264836102
5.27500e-06;0.007423152799745082
5.27525e-06;0.0074163473346540625
5.27550e-06;0.007409541869563019
5.27575e-06;0.007402736404471999
5.27600e-06;0.0073959309393809795
5.27625e-06;0.007389125474289937
5.27650e-06;0.007382320009198917
5.27675e-06;0.007335151299532424
5.27700e-06;0.007285532036701178
5.27725e-06;0.007235912773870099
5.27750e-06;0.007186293511038852
5.27775e-06;0.007136674248207774
5.27800e-06;0.007087054985376695
5.27825e-06;0.007037435722545448
5.27850e-06;0.00698781645971437
5.27875e-06;0.006938197196883291
5.27900e-06;0.006862026436535747
5.27925e-06;0.006784243668607438
5.27950e-06;0.0067064609006791285
5.27975e-06;0.006628678132750556
5.28000e-06;0.006550895364822247
5.28025e-06;0.006473112596893938
5.28050e-06;0.006395329828965366
5.28075e-06;0.006317547061037057
5.28100e-06;0.006239764293108748
5.28125e-06;0.0061619822373487525
5.28150e-06;0.006084200224826549
5.28175e-06;0.0060064182123040835
5.28200e-06;0.00592863619978188
5.28225e-06;0.005850854187259677
5.28250e-06;0.0057730721747372106
5.28275e-06;0.0056952901622150075
5.28300e-06;0.005629823564024665
5.28325e-06;0.005579856493603901
5.28350e-06;0.005529889423183307
5.28375e-06;0.005479922352762712
5.28400e-06;0.005429955282341949
5.28425e-06;0.005379988211921354
5.28450e-06;0.00533002114150076
5.28475e-06;0.005280054071079996
5.28500e-06;0.005277863130954295
5.28525e-06;0.005278572798756152
5.28550e-06;0.005279282466558011
5.28575e-06;0.005279992134359868
5.28600e-06;0.005280701802161727
5.28625e-06;0.005281411469963584
5.28650e-06;0.005282121137765441
5.28675e-06;0.005282830805567301
5.28700e-06;0.005283540473369158
5.28725e-06;0.005332132843101381
5.28750e-06;0.0053836322909903535
5.28775e-06;0.005435131738879152
5.28800e-06;0.00548663118676795
5.28825e-06;0.005538130634656922
5.28850e-06;0.00558963008254572
5.28875e-06;0.005641129530434519
5.28900e-06;0.005692628978323492
5.28925e-06;0.00574412842621229
5.28950e-06;0.005820804066815715
5.28975e-06;0.0058990082168172055
5.29000e-06;0.0059772123668184315
5.29025e-06;0.006055416516819922
5.29050e-06;0.006133620666821147
5.29075e-06;0.006211824816822373
5.29100e-06;0.006290028966823864
5.29125e-06;0.006367416214583014
5.29150e-06;0.006443775352475721
5.29175e-06;0.006520134490368685
5.29200e-06;0.006596493628261391
5.29225e-06;0.006672852766154097
5.29250e-06;0.006749211904047062
5.29275e-06;0.0068255710419397675
5.29300e-06;0.006901930179832473
5.29325e-06;0.006945312082380967
5.29350e-06;0.006986691854794202
5.29375e-06;0.007028071627207437
5.29400e-06;0.007069451399620813
5.29425e-06;0.007110831172034048
5.29450e-06;0.007152210944447424
5.29475e-06;0.00719359071686066
5.29500e-06;0.007234970489273895
5.29525e-06;0.007276350261687271
5.29550e-06;0.007317730034100506
5.29575e-06;0.007359109806513742
5.29600e-06;0.007400489578927118
5.29625e-06;0.007441869351340353
5.29650e-06;0.007450229777408877
5.29675e-06;0.007456585516679164
5.29700e-06;0.007462941255949429
5.29725e-06;0.007469296995219694
5.29750e-06;0.007475652734489981
5.29775e-06;0.007482008473760246
5.29800e-06;0.007488364213030512
5.29825e-06;0.0074947199523007985
5.29850e-06;0.007501075691571064
5.29875e-06;0.007507431430841351
5.29900e-06;0.007513787170111616
5.29925e-06;0.007520142909381881
5.29950e-06;0.007526498648652168
5.29975e-06;0.00751850527184588
5.30000e-06;0.007509640724445965
5.30025e-06;0.007500776177046019
5.30050e-06;0.007491911629646104
5.30075e-06;0.007483047082246189
5.30100e-06;0.007474182534846243
5.30125e-06;0.007465317987446328
5.30150e-06;0.0074564534400464125
5.30175e-06;0.007446986903229624
5.30200e-06;0.007436762734438136
5.30225e-06;0.0074265385656466475
5.30250e-06;0.0074163143968551245
5.30275e-06;0.007406090228063635
5.30300e-06;0.0073958660592721125
5.30325e-06;0.007385641890480624
5.30350e-06;0.007375417721689136
5.30375e-06;0.007365193552897613
5.30400e-06;0.007348362680156196
5.30425e-06;0.007331130697954859
5.30450e-06;0.007313898715753463
5.30475e-06;0.007296666733552125
5.30500e-06;0.007279434751350787
5.30525e-06;0.007262202769149391
5.30550e-06;0.007244970786948053
5.30575e-06;0.007227738804746715
5.30600e-06;0.0072105068225453185
5.30625e-06;0.0071932748403439805
5.30650e-06;0.0071573822077830645
5.30675e-06;0.007120356640638784
5.30700e-06;0.007083331073494628
5.30725e-06;0.007046305506350347
5.30750e-06;0.007009279939206191
5.30775e-06;0.006972254372062036
5.30800e-06;0.006935228804917756
5.30825e-06;0.0068982032377736
5.30850e-06;0.006861177670629444
5.30875e-06;0.006824152103485163
5.30900e-06;0.00677479133992107
5.30925e-06;0.006724681675844808
5.30950e-06;0.006674572011768376
5.30975e-06;0.006624462347692114
5.31000e-06;0.006574352683615853
5.31025e-06;0.006524243019539421
5.31050e-06;0.006474133355463159
5.31075e-06;0.006424023691386897
5.31100e-06;0.006373914027310465
5.31125e-06;0.006326016624743868
5.31150e-06;0.0062809034572633045
5.31175e-06;0.0062357902897828945
5.31200e-06;0.006190677122302484
5.31225e-06;0.006145563954821921
5.31250e-06;0.00610045078734151
5.31275e-06;0.006055337619861099
5.31300e-06;0.0060102244523805365
5.31325e-06;0.0059651112849001256
5.31350e-06;0.005919998117419715
5.31375e-06;0.0058865872747131025
5.31400e-06;0.0058538869093038475
5.31425e-06;0.0058211865438945925
5.31450e-06;0.005788486178485227
5.31475e-06;0.005755785813075972
5.31500e-06;0.005723085447666717
5.31525e-06;0.005690385082257351
5.31550e-06;0.005657684716848096
5.31575e-06;0.00562498435143873
5.31600e-06;0.005592283986029475
5.31625e-06;0.005556339263575297
5.31650e-06;0.005520197568120459
5.31675e-06;0.005484055872665742
5.31700e-06;0.005447914177211025
5.31725e-06;0.005411772481756186
5.31750e-06;0.005375630786301469
5.31775e-06;0.005339489090846752
5.31800e-06;0.005303347395391914
5.31825e-06;0.005267205699937196
5.31850e-06;0.00523106400448248
5.31875e-06;0.005190784505862749
5.31900e-06;0.005150253790902417
5.31925e-06;0.005109723075942085
5.31950e-06;0.005069192360981616
5.31975e-06;0.005028661646021284
5.32000e-06;0.004988130931060815
5.32025e-06;0.004947600216100483
5.32050e-06;0.004907069501140151
5.32075e-06;0.004866538786179682
5.32100e-06;0.0048260080712193495
5.32125e-06;0.004788584409998935
5.32150e-06;0.004755071121940841
5.32175e-06;0.004721557833882861
5.32200e-06;0.004688044545824881
5.32225e-06;0.004654531257766786
5.32250e-06;0.004621017969708806
5.32275e-06;0.004587504681650826
5.32300e-06;0.004553991393592732
5.32325e-06;0.004520478105534752
5.32350e-06;0.004486964817476772
5.32375e-06;0.004453451529418677
5.32400e-06;0.004435596993578236
5.32425e-06;0.0044186931396029425
5.32450e-06;0.004401789285627706
5.32475e-06;0.00438488543165247
5.32500e-06;0.004367981577677176
5.32525e-06;0.00435107772370194
5.32550e-06;0.004334173869726703
5.32575e-06;0.0043172700157514095
5.32600e-06;0.004300366161776173
5.32625e-06;0.004283462307800937
5.32650e-06;0.004266558453825643
5.32675e-06;0.004249654599850407
5.32700e-06;0.00423275074587517
5.32725e-06;0.0042158468918998765
5.32750e-06;0.00419894303792464
5.32775e-06;0.004182039183949404
5.32800e-06;0.004174118312012114
5.32825e-06;0.004166742819297769
5.32850e-06;0.004159367326583398
5.32875e-06;0.004151991833869053
5.32900e-06;0.004144616341154707
5.32925e-06;0.004137240848440337
5.32950e-06;0.004129865355725991
5.32975e-06;0.004122489863011646
5.33000e-06;0.004115114370297276
5.33025e-06;0.0041077388775829305
5.33050e-06;0.004100363384868585
5.33075e-06;0.004092987892154214
5.33100e-06;0.004085612399439869
5.33125e-06;0.0040782369067255235
5.33150e-06;0.004070861414011153
5.33175e-06;0.004063485921296807
5.33200e-06;0.004058664507381565
5.33225e-06;0.004053998157954281
5.33250e-06;0.004049331808527013
5.33275e-06;0.004044665459099729
5.33300e-06;0.004039999109672461
5.33325e-06;0.004037797517023283
5.33350e-06;0.0040386979366215615
5.33375e-06;0.004039598356219838
5.33400e-06;0.004040498775818113
5.33425e-06;0.004041399195416392
5.33450e-06;0.004042299615014668
5.33475e-06;0.004061002847346589
5.33500e-06;0.004080786932799212
5.33525e-06;0.004100571018251769
5.33550e-06;0.004133764018231318
5.33575e-06;0.004167771106823089
5.33600e-06;0.004201778195414744
5.33625e-06;0.004252668215305842
5.33650e-06;0.004304583240023667
5.33675e-06;0.004356498264741315
5.33700e-06;0.004435050364279341
5.33725e-06;0.004515219667001177
5.33750e-06;0.004595388969723013
5.33775e-06;0.004675558272445122
5.33800e-06;0.004755727575166958
5.33825e-06;0.004835896877888795
5.33850e-06;0.004916066180610902
5.33875e-06;0.00500838177724557
5.33900e-06;0.005115984055637066
5.33925e-06;0.005223586334028927
5.33950e-06;0.005331188612420422
5.33975e-06;0.005438790890811918
5.34000e-06;0.005546393169203779
5.34025e-06;0.005653995447595274
5.34050e-06;0.005761597725986771
5.34075e-06;0.005873538641459249
5.34100e-06;0.005985742966399035
5.34125e-06;0.006097947291339202
5.34150e-06;0.0062101516162789885
5.34175e-06;0.006322355941218775
5.34200e-06;0.006434560266158941
5.34225e-06;0.006530708227958508
5.34250e-06;0.0066232516396303375
5.34275e-06;0.0067157950513024815
5.34300e-06;0.006808338462974311
5.34325e-06;0.006900881874646142
5.34350e-06;0.006993425286318285
5.34375e-06;0.0070534067729629045
5.34400e-06;0.007114596621657773
5.34425e-06;0.007188236364221124
5.34450e-06;0.007232741280090667
5.34475e-06;0.007277246195960209
5.34500e-06;0.007321751111829903
5.34525e-06;0.007351351953285923
5.34550e-06;0.007374468099445202
5.34575e-06;0.0073975842456044045
5.34600e-06;0.007420700391763606
5.34625e-06;0.007407297164768032
5.34650e-06;0.0073855248608391
5.34675e-06;0.0073637525569101685
5.34700e-06;0.0073419802529811635
5.34725e-06;0.007320207949052231
5.34750e-06;0.0072984356451233
5.34775e-06;0.007276663341194295
5.34800e-06;0.007254891037265363
5.34825e-06;0.007233118733336432
5.34850e-06;0.007177162280628445
5.34875e-06;0.007113371910021731
5.34900e-06;0.007049581539415017
5.34925e-06;0.006985791168808087
5.34950e-06;0.006922000798201373
5.34975e-06;0.006858210427594443
5.35000e-06;0.0067944200569877294
5.35025e-06;0.0067306296863810155
5.35050e-06;0.006666839315774086
5.35075e-06;0.006593849172927479
5.35100e-06;0.006518750735359944
5.35125e-06;0.006443652297792155
5.35150e-06;0.00636855386022462
5.35175e-06;0.0062934554226570846
5.35200e-06;0.006218356985089295
5.35225e-06;0.006143258547521761
5.35250e-06;0.006074143914616354
5.35275e-06;0.006018129021660531
5.35300e-06;0.005962114128704897
5.35325e-06;0.005906099235749263
5.35350e-06;0.00585008434279344
5.35375e-06;0.005794069449837806
5.35400e-06;0.005738054556881983
5.35425e-06;0.005682039663926349
5.35450e-06;0.005662990811171887
5.35475e-06;0.00565241339720618
5.35500e-06;0.005641835983240508
5.35525e-06;0.005631258569274836
5.35550e-06;0.005620681155309128
5.35575e-06;0.005610103741343456
5.35600e-06;0.005599526327377784
5.35625e-06;0.005588948913412077
5.35650e-06;0.005594212786054053
5.35675e-06;0.005634156389524106
5.35700e-06;0.005674099992994295
5.35725e-06;0.005714043596464347
5.35750e-06;0.0057539871999344
5.35775e-06;0.005793930803404589
5.35800e-06;0.005833874406874641
5.35825e-06;0.005873818010344829
5.35850e-06;0.005913761613814883
5.35875e-06;0.005974109023727155
5.35900e-06;0.006039132336072522
5.35925e-06;0.00611473970635237
5.35950e-06;0.00619277260553466
5.35975e-06;0.006270805504717214
5.36000e-06;0.006348838403899504
5.36025e-06;0.006426871303081794
5.36050e-06;0.006504904202264348
5.36075e-06;0.006582937101446638
5.36100e-06;0.006660970000628928
5.36125e-06;0.006738275048415937
5.36150e-06;0.006815413295849987
5.36175e-06;0.006892551543284037
5.36200e-06;0.006969689790718349
5.36225e-06;0.0070468280381523985
5.36250e-06;0.0071239662855867095
5.36275e-06;0.007201104533020759
5.36300e-06;0.007278242780454809
5.36325e-06;0.007325994176060929
5.36350e-06;0.00736701104140521
5.36375e-06;0.007408027906749491
5.36400e-06;0.007449044772093911
5.36425e-06;0.007490061637438192
5.36450e-06;0.007531078502782474
5.36475e-06;0.007572095368126894
5.36500e-06;0.007613112233471175
5.36525e-06;0.007654129098815456
5.36550e-06;0.0076951459641598765
5.36575e-06;0.007721226067903047
5.36600e-06;0.007714606626180928
5.36625e-06;0.007707987184458786
5.36650e-06;0.007701367742736666
5.36675e-06;0.0076947483010145245
5.36700e-06;0.007688128859292405
5.36725e-06;0.007681509417570285
5.36750e-06;0.0076748899758481435
5.36775e-06;0.007668270534126024
5.36800e-06;0.007661651092403905
5.36825e-06;0.0076550316506817625
5.36850e-06;0.007622825850218538
5.36875e-06;0.00758475647143784
5.36900e-06;0.007546687092657013
5.36925e-06;0.007508617713876315
5.36950e-06;0.007470548335095617
5.36975e-06;0.00743247895631479
5.37000e-06;0.007394409577534092
5.37025e-06;0.007356340198753393
5.37050e-06;0.007318270819972566
5.37075e-06;0.00727827483613671
5.37100e-06;0.007234061130195318
5.37125e-06;0.007189847424254075
5.37150e-06;0.007145633718312832
5.37175e-06;0.0071014200123714405
5.37200e-06;0.007057206306430198
5.37225e-06;0.007012992600488955
5.37250e-06;0.006968778894547563
5.37275e-06;0.00692456518860632
5.37300e-06;0.006880351482665078
5.37325e-06;0.006854587713367727
5.37350e-06;0.00683305208178807
5.37375e-06;0.006811516450208413
5.37400e-06;0.006789980818628682
5.37425e-06;0.006768445187049025
5.37450e-06;0.006746909555469367
5.37475e-06;0.006725373923889637
5.37500e-06;0.00670383829230998
5.37525e-06;0.006682302660730249
5.37550e-06;0.006660767029150592
5.37575e-06;0.006639231397570934
5.37600e-06;0.006617695765991204
5.37625e-06;0.006622042631064072
5.37650e-06;0.0066323209398281725
5.37675e-06;0.006642599248592307
5.37700e-06;0.006652877557356407
5.37725e-06;0.006663155866120507
5.37750e-06;0.006673434174884642
5.37775e-06;0.006683712483648742
5.37800e-06;0.006693990792412842
5.37825e-06;0.006704269101176977
5.37850e-06;0.006714547409941077
5.37875e-06;0.006724825718705177
5.37900e-06;0.006735104027469313
5.37925e-06;0.006759270397854713
5.37950e-06;0.006786619469530027
5.37975e-06;0.0068139685412052465
5.38000e-06;0.006841317612880467
5.38025e-06;0.00686866668455578
5.38050e-06;0.006896015756231001
5.38075e-06;0.0069233648279062214
5.38100e-06;0.006950713899581534
5.38125e-06;0.006978062971256755
5.38150e-06;0.007004717087373686
5.38175e-06;0.007029849807389327
5.38200e-06;0.007054982527404882
5.38225e-06;0.007080115247420437
5.38250e-06;0.007105247967436078
5.38275e-06;0.007130380687451633
5.38300e-06;0.007155513407467189
5.38325e-06;0.00718064612748283
5.38350e-06;0.007205778847498384
5.38375e-06;0.007230911567514025
5.38400e-06;0.007233747464884728
5.38425e-06;0.007231473640818805
5.38450e-06;0.007229199816752873
5.38475e-06;0.0072269259926869495
5.38500e-06;0.007224652168621026
5.38525e-06;0.007222378344555094
5.38550e-06;0.007220104520489171
5.38575e-06;0.007217830696423247
5.38600e-06;0.00718153827253675
5.38625e-06;0.007137449869308079
5.38650e-06;0.007093361466079409
5.38675e-06;0.007049273062850589
5.38700e-06;0.007005184659621919
5.38725e-06;0.006961096256393249
5.38750e-06;0.006917007853164429
5.38775e-06;0.006872919449935759
5.38800e-06;0.006800244055684575
5.38825e-06;0.0067210174337920025
5.38850e-06;0.006641790811899699
5.38875e-06;0.006562564190007128
5.38900e-06;0.006483337568114825
5.38925e-06;0.0064041109462225215
5.38950e-06;0.006324884324329949
5.38975e-06;0.006245657702437646
5.39000e-06;0.006154993632237812
5.39025e-06;0.0060617084632507276
5.39050e-06;0.00596842329426396
5.39075e-06;0.0058751381252771925
5.39100e-06;0.005781852956290109
5.39125e-06;0.005688567787303342
5.39150e-06;0.005595282618316574
5.39175e-06;0.00550199744932949
5.39200e-06;0.005420566761770377
5.39225e-06;0.0053418527437036345
5.39250e-06;0.005263138725636626
5.39275e-06;0.005184424707569885
5.39300e-06;0.005105710689502875
5.39325e-06;0.005026996671436134
5.39350e-06;0.004948282653369392
5.39375e-06;0.004882609335365196
5.39400e-06;0.004845484706543195
5.39425e-06;0.004808360077721195
5.39450e-06;0.0047712354488990685
5.39475e-06;0.0047341108200770685
5.39500e-06;0.0046969861912550676
5.39525e-06;0.004659861562432942
5.39550e-06;0.004622736933610942
5.39575e-06;0.004615468083966388
5.39600e-06;0.004615041227786354
5.39625e-06;0.004614614371606322
5.39650e-06;0.004630858358913779
5.39675e-06;0.004650922772461363
5.39700e-06;0.004670987186008879
5.39725e-06;0.004716198415402237
5.39750e-06;0.004767172493878655
5.39775e-06;0.004818146572355072
5.39800e-06;0.004869120650831662
5.39825e-06;0.00492009472930808
5.39850e-06;0.004971068807784498
5.39875e-06;0.005022042886261088
5.39900e-06;0.005082090188273239
5.39925e-06;0.005162000583319333
5.39950e-06;0.005241910978365696
5.39975e-06;0.005321821373411789
5.40000e-06;0.005401731768457883
5.40025e-06;0.005481642163504247
5.40050e-06;0.0055615525585503405
5.40075e-06;0.0056414629535964335
