Time(s);Current(A)
1.37500e-05;0.0006570526413580578
1.37503e-05;0.0005995133790148597
1.37505e-05;0.0005402468989682289
1.37508e-05;0.0004782999779181001
1.37510e-05;0.0004150703257743171
1.37513e-05;0.00034985002415272357
1.37515e-05;0.0002837666896244071
1.37518e-05;0.00021634402839257634
1.37520e-05;0.00014892136716074562
1.37523e-05;8.149870592937176e-05
1.37525e-05;1.4253152553586985e-05
1.37528e-05;-5.234186160931313e-05
1.37530e-05;-0.00011783699018313781
1.37533e-05;-0.00018186675967993304
1.37535e-05;-0.00024403923764157025
1.37538e-05;-0.00030392450797536106
1.37540e-05;-0.00036107825509082626
1.37543e-05;-0.00041505609260030933
1.37545e-05;-0.0004654136797356093
1.37548e-05;-0.0005117594254907343
1.37550e-05;-0.0005539354942206181
1.37553e-05;-0.0005920968794625115
1.37555e-05;-0.0006264263456297525
1.37558e-05;-0.0006568940043477838
1.37560e-05;-0.0006833598017429135
1.37563e-05;-0.0007056824552341652
1.37565e-05;-0.0007237207074166043
1.37568e-05;-0.000737366326941004
1.37570e-05;-0.0007466576069245268
1.37573e-05;-0.0007518286948963172
1.37575e-05;-0.0007531311325575445
1.37578e-05;-0.000750683298958926
1.37580e-05;-0.0007438247046714547
1.37583e-05;-0.0007336318156497106
1.37585e-05;-0.0007206480249298116
1.37588e-05;-0.0007033330793493739
1.37590e-05;-0.0006835101747961536
1.37593e-05;-0.0006597952095869494
1.37595e-05;-0.000633989622788553
1.37598e-05;-0.0006049396344181642
1.37600e-05;-0.0005740759226181566
1.37603e-05;-0.0005403975229864031
1.37605e-05;-0.0005051742918849219
1.37608e-05;-0.00046755366200273686
1.37610e-05;-0.0004287801337487105
1.37613e-05;-0.000388217441301145
1.37615e-05;-0.00034688989643007716
1.37618e-05;-0.00030437538954739967
1.37620e-05;-0.00026186088266472217
1.37623e-05;-0.00021914320232353538
1.37625e-05;-0.000176110220402548
1.37628e-05;-0.0001332476182675613
1.37630e-05;-9.092350405798685e-05
1.37633e-05;-4.9436858587022746e-05
1.37635e-05;-9.12583444258641e-06
1.37638e-05;2.9704216059272973e-05
1.37640e-05;6.676492153894693e-05
1.37643e-05;0.00010176814119378909
1.37645e-05;0.00013442576175150354
1.37648e-05;0.00016444349948042331
1.37650e-05;0.00019151609815356525
1.37653e-05;0.00021537160110469448
1.37655e-05;0.00023584319462616006
1.37658e-05;0.00025286174447541274
1.37660e-05;0.0002663890483246255
1.37663e-05;0.0002763871864380287
1.37665e-05;0.00028281829984299055
1.37668e-05;0.0002856406479931592
1.37670e-05;0.0002848055972571927
1.37673e-05;0.00028028544097668775
1.37675e-05;0.00027211829848306293
1.37678e-05;0.0002604035113861186
1.37680e-05;0.00024525976333108227
1.37683e-05;0.00022680591062291145
1.37685e-05;0.00020516085440569197
1.37688e-05;0.00018044105144811963
1.37690e-05;0.00015275867600862307
1.37693e-05;0.0001222389618866838
1.37695e-05;8.904837458335253e-05
1.37698e-05;5.339171485817161e-05
1.37700e-05;1.5485913565385726e-05
1.37703e-05;-2.445201048791764e-05
1.37705e-05;-6.620504262276585e-05
1.37708e-05;-0.00010955769606599265
1.37710e-05;-0.0001542971907741203
1.37713e-05;-0.00020035098812009222
1.37715e-05;-0.00024725739883624845
1.37718e-05;-0.00029453015262919665
1.37720e-05;-0.0003423714282722218
1.37723e-05;-0.00039021270391492274
1.37725e-05;-0.0004380539795579479
1.37728e-05;-0.00048435268219947314
1.37730e-05;-0.0005304643587750428
1.37733e-05;-0.0005765760353509249
1.37735e-05;-0.0006212252331923048
1.37738e-05;-0.0006636048341192512
1.37740e-05;-0.0007043083452504611
1.37743e-05;-0.0007424107599422818
1.37745e-05;-0.0007783102723760444
1.37748e-05;-0.0008107911366957747
1.37750e-05;-0.000841044316036022
1.37753e-05;-0.0008659469554903815
1.37755e-05;-0.000885918874222308
1.37758e-05;-0.0009008173527751221
1.37760e-05;-0.0009106710740778309
1.37763e-05;-0.0009155106427717429
1.37765e-05;-0.0009153666430554943
1.37768e-05;-0.0009102314253633927
1.37770e-05;-0.0008999531681967487
1.37773e-05;-0.0008842602313720968
1.37775e-05;-0.0008630266762592008
1.37778e-05;-0.0008363921355887311
1.37780e-05;-0.0008046036410600379
1.37783e-05;-0.0007679092611358082
1.37785e-05;-0.0007265572035038668
1.37788e-05;-0.0006807717178284658
1.37790e-05;-0.000630686585154995
1.37793e-05;-0.0005763606718364907
1.37795e-05;-0.0005179440059011867
1.37798e-05;-0.00045575304712202426
1.37800e-05;-0.00039017150981503467
1.37803e-05;-0.00032158374427502905
1.37805e-05;-0.0002503740911684849
1.37808e-05;-0.0001769118306648
1.37810e-05;-0.00010150966554735916
1.37813e-05;-2.4433295006110152e-05
1.37815e-05;5.399443985024331e-05
1.37818e-05;0.00013326235759283705
1.37820e-05;0.00021278837786500632
1.37823e-05;0.00029231439813663673
1.37825e-05;0.00037184041840880594
1.37828e-05;0.0004503075605496163
1.37830e-05;0.0005271314284070725
1.37833e-05;0.0006023673316823999
1.37835e-05;0.0006751388986023823
1.37838e-05;0.0007455531987280542
1.37840e-05;0.000812309294930482
1.37843e-05;0.0008767855404066307
1.37845e-05;0.0009350347688792117
1.37848e-05;0.000989111053747488
1.37850e-05;0.0010407423799917172
1.37853e-05;0.0010885794147908758
1.37855e-05;0.0011354535159694727
1.37858e-05;0.0011808332561555083
1.37860e-05;0.0012243990942366542
1.37863e-05;0.0012651499672010384
1.37865e-05;0.0013059008401656988
1.37868e-05;0.0013435596749438645
1.37870e-05;0.0013764200260491727
1.37873e-05;0.001409280377154704
1.37875e-05;0.0014421407282602348
1.37878e-05;0.0014750010793655433
1.37880e-05;0.0015078614304710745
1.37883e-05;0.0015407217815766054
1.37885e-05;0.0015735821326819139
1.37888e-05;0.0016011533411231084
1.37890e-05;0.0016280832784261747
1.37893e-05;0.0016550132157290584
1.37895e-05;0.0016819431530321247
1.37898e-05;0.001708873090335191
1.37900e-05;0.0017358030276380747
1.37903e-05;0.001762732964941141
1.37905e-05;0.0017877060975586372
1.37908e-05;0.001809642496872822
1.37910e-05;0.0018315788961871552
1.37913e-05;0.0018535152955014888
1.37915e-05;0.001875451694815822
1.37918e-05;0.0018973880941300068
1.37920e-05;0.0019193244934443403
1.37923e-05;0.0019412608927586736
1.37925e-05;0.0019631972920728584
1.37928e-05;0.001979989172038224
1.37930e-05;0.0019961573154193145
1.37933e-05;0.0020123254588002956
1.37935e-05;0.0020284936021813865
1.37938e-05;0.0020446617455624773
1.37940e-05;0.0020608298889434585
1.37943e-05;0.0020769980323245493
1.37945e-05;0.0020931661757056397
1.37948e-05;0.0021062597275360454
1.37950e-05;0.002114581870842399
1.37953e-05;0.0021229040141487526
1.37955e-05;0.002126558262068204
1.37958e-05;0.0021229684792043327
1.37960e-05;0.002119378696340461
1.37963e-05;0.002111204714423545
1.37965e-05;0.00209591658869991
1.37968e-05;0.002080628462976275
1.37970e-05;0.0020602655171031536
1.37973e-05;0.0020320270405386667
1.37975e-05;0.0020037885639741797
1.37978e-05;0.0019702077400798788
1.37980e-05;0.001928336214422205
1.37983e-05;0.0018864646887645313
1.37985e-05;0.0018401826521947202
1.37988e-05;0.0017870560156126038
1.37990e-05;0.0017339293790304877
1.37993e-05;0.0016766284790368665
1.37995e-05;0.001612849607676942
1.37998e-05;0.0015490707363170174
1.38000e-05;0.0014821182623825787
1.38003e-05;0.0014102407263296068
1.38005e-05;0.0013383631902761479
1.38008e-05;0.0012643302341244934
1.38010e-05;0.0011869523166471566
1.38013e-05;0.0011095743991692956
1.38015e-05;0.0010321964816914346
1.38018e-05;0.0009542005301235618
1.38020e-05;0.0008752454615213351
1.38023e-05;0.0007962903929191084
1.38025e-05;0.0007173353243174168
1.38028e-05;0.0006396393673795066
1.38030e-05;0.000563897405315449
1.38033e-05;0.0004892762084802929
1.38035e-05;0.000417350821632923
1.38038e-05;0.0003480670463516818
1.38040e-05;0.00028193736547853584
1.38043e-05;0.00021947470865935862
1.38045e-05;0.00016119193219007403
1.38048e-05;0.00010754417472060554
1.38050e-05;5.8729528377991614e-05
1.38053e-05;1.4598360029253875e-05
1.38055e-05;-2.5037934390155118e-05
1.38058e-05;-6.0140924394326185e-05
1.38060e-05;-9.055314769820783e-05
1.38063e-05;-0.00011611574320506274
1.38065e-05;-0.00013666991033620262
1.38068e-05;-0.00015209303406538152
1.38070e-05;-0.00016242351328491056
1.38073e-05;-0.00016791756917387607
1.38075e-05;-0.00016885582506856616
1.38078e-05;-0.0001653766612597974
1.38080e-05;-0.00015754388203130182
1.38083e-05;-0.00014542044722616303
1.38085e-05;-0.00012906934638307548
1.38088e-05;-0.00010857622161208738
1.38090e-05;-8.412759191065534e-05
1.38093e-05;-5.604638591860531e-05
1.38095e-05;-2.4670798088634455e-05
1.38098e-05;9.750092076009526e-06
1.38100e-05;4.701392667629359e-05
1.38103e-05;8.691890144781296e-05
1.38105e-05;0.00012926319850977398
1.38108e-05;0.00017383081577155651
1.38110e-05;0.00022034259402914857
1.38113e-05;0.00026862994885702756
1.38115e-05;0.0003180348797624665
1.38118e-05;0.00036805462696330325
1.38120e-05;0.00041902849755522895
1.38123e-05;0.0004700023681471547
1.38125e-05;0.000520976238738735
1.38128e-05;0.0005708663850514892
1.38130e-05;0.0006206251374603259
1.38133e-05;0.0006703838898688252
1.38135e-05;0.0007186078845433625
1.38138e-05;0.0007644501136991861
1.38140e-05;0.0008084790528105729
1.38143e-05;0.0008496939766505891
1.38145e-05;0.0008885909689976576
1.38148e-05;0.0009238908012315774
1.38150e-05;0.0009569551019562785
1.38153e-05;0.0009865501177596305
1.38155e-05;0.0010142634600860882
1.38158e-05;0.0010390566640062142
1.38160e-05;0.0010617950119238804
1.38163e-05;0.0010813444622951624
1.38165e-05;0.001098637122531709
1.38168e-05;0.0011124275069323449
1.38170e-05;0.0011236865106188608
1.38173e-05;0.001131017105824105
1.38175e-05;0.001138347701029349
1.38178e-05;0.0011430521716964063
1.38180e-05;0.0011436812024853418
1.38183e-05;0.0011443102332742813
1.38185e-05;0.00114233445897634
1.38188e-05;0.001136316330109403
1.38190e-05;0.0011302982012424251
1.38193e-05;0.0011222165715027623
1.38195e-05;0.0011109326283836904
1.38198e-05;0.0010996486852645419
1.38200e-05;0.0010860628952813994
1.38203e-05;0.001068904906658731
1.38205e-05;0.0010517469180359464
1.38208e-05;0.0010345889294131618
1.38210e-05;0.0010174309407904936
1.38213e-05;0.001000272952167709
1.38215e-05;0.000981658899763666
1.38218e-05;0.0009607852057040581
1.38220e-05;0.0009399115116443086
1.38223e-05;0.0009190378175845592
1.38225e-05;0.0008981641235249512
1.38228e-05;0.0008772904294652018
1.38230e-05;0.0008568757473485805
1.38233e-05;0.0008371733983871157
1.38235e-05;0.0008174710494255173
1.38238e-05;0.000797768700463919
1.38240e-05;0.0007780663515024541
1.38243e-05;0.0007619571214575628
1.38245e-05;0.0007462835316683577
1.38248e-05;0.0007306099418792588
1.38250e-05;0.0007149363520900537
1.38253e-05;0.0006985616965255847
1.38255e-05;0.000681099068408251
1.38258e-05;0.0006636364402907989
1.38260e-05;0.0006448779065884169
1.38263e-05;0.000624108278125104
1.38265e-05;0.0006026329522536364
1.38268e-05;0.0005800624660731521
1.38270e-05;0.0005563542556646553
1.38273e-05;0.0005308804295656407
1.38275e-05;0.0005037467028451814
1.38278e-05;0.0004740370033979146
1.38280e-05;0.0004429785901459247
1.38283e-05;0.00040982712991650554
1.38285e-05;0.00037568217109101187
1.38288e-05;0.00033999541798308754
1.38290e-05;0.00030355304277082
1.38293e-05;0.00026528306695902383
1.38295e-05;0.00022536082203772857
1.38298e-05;0.00018392011797281762
1.38300e-05;0.00014122766554960637
1.38303e-05;9.75516397546527e-05
1.38305e-05;5.3160155496559957e-05
1.38308e-05;8.287714172519734e-06
1.38310e-05;-3.696807755002727e-05
1.38313e-05;-8.275206715369439e-05
1.38315e-05;-0.00012897449904932792
1.38318e-05;-0.00017519693094464824
1.38320e-05;-0.00022114784049091638
1.38323e-05;-0.00026667739749486644
1.38325e-05;-0.000312206954498508
1.38328e-05;-0.0003568388915123416
1.38330e-05;-0.000400077826689556
1.38333e-05;-0.000442357956799875
1.38335e-05;-0.00048315013295059184
1.38338e-05;-0.0005226197979210333
1.38340e-05;-0.0005600370793398186
1.38343e-05;-0.0005956731297262712
1.38345e-05;-0.0006285449166969164
1.38348e-05;-0.000659766879224451
1.38350e-05;-0.0006870864527040417
1.38353e-05;-0.0007108148882036293
1.38355e-05;-0.0007306352123237032
1.38358e-05;-0.0007464515056827416
1.38360e-05;-0.0007582522336965099
1.38363e-05;-0.0007660267065980255
1.38365e-05;-0.0007697643785792419
1.38368e-05;-0.0007694375588043248
1.38370e-05;-0.0007649590629164871
1.38373e-05;-0.0007562080695858861
1.38375e-05;-0.0007431587634200078
1.38378e-05;-0.0007259239157236145
1.38380e-05;-0.0007046690470287198
1.38383e-05;-0.0006795603197640903
1.38385e-05;-0.0006507637980195436
1.38388e-05;-0.0006184350023234063
1.38390e-05;-0.0005826920593417421
1.38393e-05;-0.0005436320603274246
1.38395e-05;-0.0005014116394574913
1.38398e-05;-0.00045627414157636283
1.38400e-05;-0.000408496031824315
1.38403e-05;-0.00035835405852550965
1.38405e-05;-0.00030612498140791735
1.38408e-05;-0.00025207890606694834
1.38410e-05;-0.00019646253134814856
1.38413e-05;-0.00013950929362298254
1.38415e-05;-8.148994097654227e-05
1.38418e-05;-2.2729546191650317e-05
1.38420e-05;3.639455965840205e-05
1.38423e-05;9.558212835345365e-05
1.38425e-05;0.00015437446949954063
1.38428e-05;0.00021255347041596577
1.38430e-05;0.00027011426902087357
1.38433e-05;0.00032613493216739466
1.38435e-05;0.00038052945847559565
1.38438e-05;0.00043292180062443243
1.38440e-05;0.0004829229528884022
1.38443e-05;0.0005301438135695284
1.38445e-05;0.0005741953517667341
1.38448e-05;0.0006146606289296168
1.38450e-05;0.0006510292842073839
1.38453e-05;0.0006827538570612059
1.38455e-05;0.0007094708928694982
1.38458e-05;0.0007310630303182604
1.38460e-05;0.0007475042159391911
1.38463e-05;0.0007587692914342719
1.38465e-05;0.0007648331693015979
1.38468e-05;0.0007656532898214714
1.38470e-05;0.0007611285694888716
1.38473e-05;0.0007511347058210635
1.38475e-05;0.0007356627576318288
1.38478e-05;0.0007148578587205039
1.38480e-05;0.0006889222940511777
1.38483e-05;0.0006580590235156267
1.38485e-05;0.0006224709464316649
1.38488e-05;0.0005823500386455054
1.38490e-05;0.000537851597849413
1.38493e-05;0.000489116423445414
1.38495e-05;0.00043635751356905535
1.38498e-05;0.00037988440136366353
1.38500e-05;0.00032004239275000465
1.38503e-05;0.0002571771545145765
1.38505e-05;0.00019163433200479355
1.38508e-05;0.0001237527202939707
1.38510e-05;5.38481029082167e-05
1.38513e-05;-1.777285057153687e-05
1.38515e-05;-9.075825289685279e-05
1.38518e-05;-0.00016474864125316037
1.38520e-05;-0.00023923934815465293
1.38523e-05;-0.00031373005505665023
1.38525e-05;-0.0003873349824271228
1.38528e-05;-0.00046083251529352
1.38530e-05;-0.0005331131515198013
1.38533e-05;-0.000603505305676963
1.38535e-05;-0.0006720650438707233
1.38538e-05;-0.0007377810855884016
1.38540e-05;-0.0008009003474279803
1.38543e-05;-0.000859989708884734
1.38545e-05;-0.0009166509680768988
1.38548e-05;-0.0009676669263631136
1.38550e-05;-0.0010137166833056378
1.38553e-05;-0.0010544145596467394
1.38555e-05;-0.0010895357109955502
1.38558e-05;-0.0011189728971310894
1.38560e-05;-0.0011426502357066992
1.38563e-05;-0.0011604920111436472
1.38565e-05;-0.0011724225739254141
1.38568e-05;-0.0011783651183425372
1.38570e-05;-0.0011782521652680957
1.38573e-05;-0.0011720737854486062
1.38575e-05;-0.0011588045279469447
1.38578e-05;-0.0011402255739058776
1.38580e-05;-0.001117325279614809
1.38583e-05;-0.0010877187677984265
1.38585e-05;-0.0010540794354246066
1.38588e-05;-0.0010141816345360108
1.38590e-05;-0.0009705639163346651
1.38593e-05;-0.000921173319065726
1.38595e-05;-0.0008685173330574415
1.38598e-05;-0.0008107938434674523
1.38600e-05;-0.0007503449159770356
1.38603e-05;-0.0006856664258151398
1.38605e-05;-0.0006188061893807181
1.38608e-05;-0.0005485601364524492
1.38610e-05;-0.00047669124864027006
1.38613e-05;-0.00040230390981340995
1.38615e-05;-0.000326843436180493
1.38618e-05;-0.0002497175821275793
1.38620e-05;-0.00017259172807518826
1.38623e-05;-9.530881984402275e-05
1.38625e-05;-1.7996738233695012e-05
1.38628e-05;5.859232725133449e-05
1.38630e-05;0.00013400770598963373
1.38633e-05;0.00020778463514470346
1.38635e-05;0.000279433627678615
1.38638e-05;0.0003484471823979466
1.38640e-05;0.0004143130225280012
1.38643e-05;0.0004765188966592
1.38645e-05;0.0005345526064801759
1.38648e-05;0.0005879637907315607
1.38650e-05;0.0006365758421513625
1.38653e-05;0.0006805772032547467
1.38655e-05;0.0007201860549443083
1.38658e-05;0.0007553691807726852
1.38660e-05;0.0007859638054362823
1.38663e-05;0.0008118056212963833
1.38665e-05;0.0008327303411571835
1.38668e-05;0.0008486124818295639
1.38670e-05;0.0008594980078107183
1.38673e-05;0.0008656615849809389
1.38675e-05;0.0008673964418277118
1.38678e-05;0.0008648383958049812
1.38680e-05;0.0008572284703201878
1.38683e-05;0.0008457983774657238
1.38685e-05;0.0008311684166892241
1.38688e-05;0.0008115726330197226
1.38690e-05;0.0007891030572656964
1.38693e-05;0.0007621736903977071
1.38695e-05;0.0007328516332995694
1.38698e-05;0.000699816399217303
1.38700e-05;0.000664703510854992
1.38703e-05;0.0006263663446667072
1.38705e-05;0.0005862571055351688
1.38708e-05;0.0005433978152743472
1.38710e-05;0.0004992159397025091
1.38713e-05;0.0004529815655354248
1.38715e-05;0.00040586974844472476
1.38718e-05;0.0003573962419773079
1.38720e-05;0.00030892273551021946
1.38723e-05;0.00026021205965121453
1.38725e-05;0.00021113332447753464
1.38728e-05;0.00016224558049055747
1.38730e-05;0.00011396547645392433
1.38733e-05;6.663813499633495e-05
1.38735e-05;2.0651278887268733e-05
1.38738e-05;-2.3646146152925164e-05
1.38740e-05;-6.592518155762022e-05
1.38743e-05;-0.00010585714461769347
1.38745e-05;-0.00014311337111057854
1.38748e-05;-0.00017753455623339268
1.38750e-05;-0.00020965892228800518
1.38753e-05;-0.00024080327344688497
1.38755e-05;-0.0002720239680705005
1.38758e-05;-0.0003033336913092107
1.38760e-05;-0.0003344789614469479
1.38763e-05;-0.00036562423158468507
1.38765e-05;-0.000396263508419985
1.38768e-05;-0.0004261175424936358
1.38770e-05;-0.00045597157656728665
1.38773e-05;-0.0004858256106409375
1.38775e-05;-0.000515679644714386
1.38778e-05;-0.0005462683650230869
1.38780e-05;-0.000577997232930164
1.38783e-05;-0.0006097261008370261
1.38785e-05;-0.0006414549687441031
1.38788e-05;-0.0006731838366511802
1.38790e-05;-0.000705607681589694
1.38793e-05;-0.0007391100500610643
1.38795e-05;-0.0007726124185324345
1.38798e-05;-0.0008061147870035778
1.38800e-05;-0.0008396171554749481
1.38803e-05;-0.0008731195239463184
1.38805e-05;-0.0009066218924174617
1.38808e-05;-0.0009404441120312828
1.38810e-05;-0.0009743051113340782
1.38813e-05;-0.001008166110636644
1.38815e-05;-0.0010420271099394393
1.38818e-05;-0.0010758881092422347
1.38820e-05;-0.0011097491085448005
1.38823e-05;-0.0011424690684963081
1.38825e-05;-0.0011734182680685136
1.38828e-05;-0.0012043674676405095
1.38830e-05;-0.001235316667212715
1.38833e-05;-0.0012662658667849207
1.38835e-05;-0.0012949854015008434
1.38838e-05;-0.0013202447556526287
1.38840e-05;-0.0013455041098044142
1.38843e-05;-0.0013707634639560284
1.38845e-05;-0.0013960228181078137
1.38848e-05;-0.001418429561248472
1.38850e-05;-0.0014364093838355723
1.38853e-05;-0.001450743694301372
1.38855e-05;-0.00145942059389845
1.38858e-05;-0.0014640618673490407
1.38860e-05;-0.0014624403183313187
1.38863e-05;-0.0014569831840955355
1.38865e-05;-0.0014455736676492045
1.38868e-05;-0.0014302872348375426
1.38870e-05;-0.0014089842786810377
1.38873e-05;-0.0013831567479923798
1.38875e-05;-0.0013503076038020527
1.38878e-05;-0.0013130934160091015
1.38880e-05;-0.0012691051881648634
1.38883e-05;-0.0012212811013867443
1.38885e-05;-0.00116750420762201
1.38888e-05;-0.0011102693657671428
1.38890e-05;-0.0010476681906083512
1.38893e-05;-0.0009816072083698184
1.38895e-05;-0.0009101770078917562
1.38898e-05;-0.0008357907978247901
1.38900e-05;-0.0007568172046344777
1.38903e-05;-0.0006756227807788485
1.38905e-05;-0.0005909818859957613
1.38908e-05;-0.0005047605709364038
1.38910e-05;-0.00041608662739911636
1.38913e-05;-0.0003262346948410479
1.38915e-05;-0.00023455466031163013
1.38918e-05;-0.00014241573200646685
1.38920e-05;-4.95646539275483e-05
1.38923e-05;4.309062801197054e-05
1.38925e-05;0.00013502351189655738
1.38928e-05;0.00022569091804576188
1.38930e-05;0.0003146338337631622
1.38933e-05;0.000401465048255173
1.38935e-05;0.0004857470175349448
1.38938e-05;0.0005669266162205754
1.38940e-05;0.0006444017906929243
1.38943e-05;0.000717570096772233
