Time(s);Current(A)
6.75000e-06;-0.0031034104802963474
6.75025e-06;-0.003101696146532071
6.75050e-06;-0.003099096670005881
6.75075e-06;-0.0030964971934797003
6.75100e-06;-0.0030897229833496227
6.75125e-06;-0.003082081636845306
6.75150e-06;-0.003074440290341015
6.75175e-06;-0.0030601102705341337
6.75200e-06;-0.003044390942458438
6.75225e-06;-0.0030286716143827956
6.75250e-06;-0.003012952286307153
6.75275e-06;-0.002997232958231457
6.75300e-06;-0.0029783729161482453
6.75325e-06;-0.002953078618350124
6.75350e-06;-0.002927784320551917
6.75375e-06;-0.002902490022753796
6.75400e-06;-0.002877195724955675
6.75425e-06;-0.002851901427157468
6.75450e-06;-0.0028216621190700762
6.75475e-06;-0.0027903956799848707
6.75500e-06;-0.0027591292408995593
6.75525e-06;-0.0027257753707500922
6.75550e-06;-0.002691987919065503
6.75575e-06;-0.002658200467381028
6.75600e-06;-0.00262327085037867
6.75625e-06;-0.0025881039935457483
6.75650e-06;-0.002552614893598953
6.75675e-06;-0.0025170588603452833
6.75700e-06;-0.002481694264370701
6.75725e-06;-0.002446727629795896
6.75750e-06;-0.002412349944641026
6.75775e-06;-0.002378705500810249
6.75800e-06;-0.0023459237492603
6.75825e-06;-0.002314182911453475
6.75850e-06;-0.0022837026188836933
6.75875e-06;-0.002256222840479975
6.75900e-06;-0.0022293198804874867
6.75925e-06;-0.0022024169204949073
6.75950e-06;-0.002179974147075387
6.75975e-06;-0.0021584578016339727
6.76000e-06;-0.0021369414561926313
6.76025e-06;-0.002118958549819762
6.76050e-06;-0.002101709576155387
6.76075e-06;-0.0020844606024910703
6.76100e-06;-0.0020672116288267535
6.76125e-06;-0.0020517541260715354
6.76150e-06;-0.002039966738425633
6.76175e-06;-0.0020281793507797305
6.76200e-06;-0.002016391963133788
6.76225e-06;-0.0020046045754878858
6.76250e-06;-0.0019974110311001703
6.76275e-06;-0.001991171676599275
6.76300e-06;-0.0019849323220984005
6.76325e-06;-0.0019786929675975258
6.76350e-06;-0.00197245361309663
6.76375e-06;-0.0019662142585957555
6.76400e-06;-0.00195997490409486
6.76425e-06;-0.0019537355495939856
6.76450e-06;-0.0019491492284961394
6.76475e-06;-0.001947949411101626
6.76500e-06;-0.0019467495937071167
6.76525e-06;-0.0019455497763126075
6.76550e-06;-0.0019443499589180942
6.76575e-06;-0.0019431501415235848
6.76600e-06;-0.0019419503241290756
6.76625e-06;-0.0019407505067345623
6.76650e-06;-0.0019395506893400529
6.76675e-06;-0.0019400075870873335
6.76700e-06;-0.00194080860211172
6.76725e-06;-0.0019416096171361041
6.76750e-06;-0.001942410632160488
6.76775e-06;-0.0019432116471848745
6.76800e-06;-0.0019440126622092583
6.76825e-06;-0.0019448964309618478
6.76850e-06;-0.00194579738854002
6.76875e-06;-0.0019466983461181922
6.76900e-06;-0.0019475993036963677
6.76925e-06;-0.00194850026127454
6.76950e-06;-0.0019494012188527121
6.76975e-06;-0.0019493772978871199
6.77000e-06;-0.0019491612698549164
6.77025e-06;-0.001948945241822713
6.77050e-06;-0.0019474163036417465
6.77075e-06;-0.0019456146601211529
6.77100e-06;-0.0019438130166005592
6.77125e-06;-0.0019400421363813328
6.77150e-06;-0.0019358622248485831
6.77175e-06;-0.0019316823133158335
6.77200e-06;-0.0019275024017830695
6.77225e-06;-0.0019233224902503198
6.77250e-06;-0.0019191425787175558
6.77275e-06;-0.0019122569367641493
6.77300e-06;-0.0019048092859528247
6.77325e-06;-0.001897361635141475
6.77350e-06;-0.0018899139843301504
6.77375e-06;-0.001882466333518826
6.77400e-06;-0.001875018682707476
6.77425e-06;-0.0018655555088426077
6.77450e-06;-0.001855673689498231
6.77475e-06;-0.0018457918701538208
6.77500e-06;-0.0018359100508094442
6.77525e-06;-0.0018260282314650675
6.77550e-06;-0.0018157852653488257
6.77575e-06;-0.0018048024322234477
6.77600e-06;-0.0017938195990980699
6.77625e-06;-0.0017828367659726545
6.77650e-06;-0.0017718539328472767
6.77675e-06;-0.0017608710997218616
6.77700e-06;-0.0017498908034953393
6.77725e-06;-0.001738911034209571
6.77750e-06;-0.001728246278533295
6.77775e-06;-0.0017176469545192572
6.77800e-06;-0.0017075067040411389
6.77825e-06;-0.0016974618079972678
6.77850e-06;-0.0016878835523707317
6.77875e-06;-0.00167878991712799
6.77900e-06;-0.001670222243952236
6.77925e-06;-0.0016622497836543363
6.77950e-06;-0.0016550409721305965
6.77975e-06;-0.0016490337556053247
6.78000e-06;-0.0016447458273996403
6.78025e-06;-0.0016424035263840158
6.78050e-06;-0.0016419928468655988
6.78075e-06;-0.0016434600798964935
6.78100e-06;-0.0016467510723301275
6.78125e-06;-0.001652548907714333
6.78150e-06;-0.001658802622387554
6.78175e-06;-0.0016683604616020806
6.78200e-06;-0.0016786046024692245
6.78225e-06;-0.0016933094600735834
6.78250e-06;-0.0017089408557761972
6.78275e-06;-0.001724572251478758
6.78300e-06;-0.0017447681314065166
6.78325e-06;-0.0017659121030385125
6.78350e-06;-0.001787056074670437
6.78375e-06;-0.0018123046376477998
6.78400e-06;-0.0018384057677087399
6.78425e-06;-0.0018645068977695915
6.78450e-06;-0.0018936515046360887
6.78475e-06;-0.0019234282738607438
6.78500e-06;-0.001954963306777116
6.78525e-06;-0.0019868635496795625
6.78550e-06;-0.002020004471948008
6.78575e-06;-0.002053403096457581
6.78600e-06;-0.002087734423441551
6.78625e-06;-0.0021222594826051213
6.78650e-06;-0.002157146402567416
6.78675e-06;-0.002192108484849243
6.78700e-06;-0.0022267356000889773
6.78725e-06;-0.0022612931391273374
6.78750e-06;-0.002294868140307149
6.78775e-06;-0.002328239057970127
6.78800e-06;-0.002360111443939706
6.78825e-06;-0.0023916725690096697
6.78850e-06;-0.00242035127456857
6.78875e-06;-0.002448431271074943
6.78900e-06;-0.0024765112675814113
6.78925e-06;-0.0025007156391826085
6.78950e-06;-0.00252411500245458
6.78975e-06;-0.0025456689142102956
6.79000e-06;-0.002566839506145811
6.79025e-06;-0.0025880075918531704
6.79050e-06;-0.0026091751569903184
6.79075e-06;-0.002629421297680185
6.79100e-06;-0.002649476048756057
6.79125e-06;-0.002669530799831861
6.79150e-06;-0.0026895855509076654
6.79175e-06;-0.002709284080198314
6.79200e-06;-0.0027289086184523067
6.79225e-06;-0.0027485331567062995
6.79250e-06;-0.0027681576949603586
6.79275e-06;-0.0027883876961837255
6.79300e-06;-0.0028087434584766744
6.79325e-06;-0.0028290992207696927
6.79350e-06;-0.0028494549830626417
6.79375e-06;-0.0028700176441398668
6.79400e-06;-0.00289100417051653
6.79425e-06;-0.0029119906968931935
6.79450e-06;-0.002932977223269928
6.79475e-06;-0.0029539637496465913
6.79500e-06;-0.0029750496683222114
6.79525e-06;-0.0029961562318307935
6.79550e-06;-0.003017262795339304
6.79575e-06;-0.0030383693588478147
6.79600e-06;-0.003059475922356397
6.79625e-06;-0.0030805824858649074
6.79650e-06;-0.0031004841640873094
6.79675e-06;-0.0031201355748781572
6.79700e-06;-0.0031397869856689383
6.79725e-06;-0.0031594383964597197
6.79750e-06;-0.003179089807250567
6.79775e-06;-0.0031987412180413486
6.79800e-06;-0.003216277404338989
6.79825e-06;-0.003233374236112707
6.79850e-06;-0.003250471067886425
6.79875e-06;-0.003265399947980806
6.79900e-06;-0.0032798785215564217
6.79925e-06;-0.0032943570951320376
6.79950e-06;-0.0033056158723197234
6.79975e-06;-0.0033162058637054613
6.80000e-06;-0.0033267958550911997
6.80025e-06;-0.0033311516358911536
6.80050e-06;-0.0033342125051428416
6.80075e-06;-0.00333727337439453
6.80100e-06;-0.0033403342436462286
6.80125e-06;-0.003343395112897917
6.80150e-06;-0.0033464559821496055
6.80175e-06;-0.0033408949121990906
6.80200e-06;-0.0033335429741848614
6.80225e-06;-0.0033261910361706074
6.80250e-06;-0.003318839098156378
6.80275e-06;-0.0033114871601421492
6.80300e-06;-0.0033041352221278948
6.80325e-06;-0.003288952912628087
6.80350e-06;-0.0032721441520607297
6.80375e-06;-0.003255335391493315
6.80400e-06;-0.003238526630925957
6.80425e-06;-0.0032217178703585997
6.80450e-06;-0.003204909109791185
6.80475e-06;-0.003186017617128689
6.80500e-06;-0.0031628593141682076
6.80525e-06;-0.0031397010112076476
6.80550e-06;-0.003116542708247166
6.80575e-06;-0.0030933844052866847
6.80600e-06;-0.0030702261023261247
6.80625e-06;-0.003047067799365643
6.80650e-06;-0.0030224383058324784
6.80675e-06;-0.002997503230440153
6.80700e-06;-0.002972568155047827
6.80725e-06;-0.0029481148538355573
6.80750e-06;-0.002923761622221723
6.80775e-06;-0.002899408390607888
6.80800e-06;-0.002876221679709596
6.80825e-06;-0.0028532772675154035
6.80850e-06;-0.0028351109227359624
6.80875e-06;-0.0028179370331497533
6.80900e-06;-0.002800763143563603
6.80925e-06;-0.002783589253977452
6.80950e-06;-0.002766415364391243
6.80975e-06;-0.0027492414748050923
6.81000e-06;-0.0027320675852189414
6.81025e-06;-0.0027148936956327327
6.81050e-06;-0.0027005647689041434
6.81075e-06;-0.0026920642042798314
6.81100e-06;-0.0026835636396555485
6.81125e-06;-0.002675063075031265
6.81150e-06;-0.002666562510406953
6.81175e-06;-0.0026580619457826703
6.81200e-06;-0.002649561381158387
6.81225e-06;-0.002641060816534075
6.81250e-06;-0.0026325602519097916
6.81275e-06;-0.0026298598943133035
6.81300e-06;-0.002628364301130201
6.81325e-06;-0.0026268687079471034
6.81350e-06;-0.002625373114764006
6.81375e-06;-0.002623877521580903
6.81400e-06;-0.0026223819283978053
6.81425e-06;-0.0026208863352147078
6.81450e-06;-0.002619390742031605
6.81475e-06;-0.0026178951488485076
6.81500e-06;-0.002616399555665405
6.81525e-06;-0.0026162302584365744
6.81550e-06;-0.0026187780909085576
6.81575e-06;-0.0026213259233805494
6.81600e-06;-0.002623873755852533
6.81625e-06;-0.002626421588324516
6.81650e-06;-0.0026289694207965084
6.81675e-06;-0.0026315172532684916
6.81700e-06;-0.002634065085740475
6.81725e-06;-0.002636612918212467
6.81750e-06;-0.0026391607506844506
6.81775e-06;-0.0026417085831564337
6.81800e-06;-0.002644590983326404
6.81825e-06;-0.0026475428767496903
6.81850e-06;-0.0026504947701729764
6.81875e-06;-0.0026532151271349406
6.81900e-06;-0.002655461144569707
6.81925e-06;-0.0026577071620044806
6.81950e-06;-0.002659953179439247
6.81975e-06;-0.0026603151742296788
6.82000e-06;-0.0026602858375685784
6.82025e-06;-0.0026564932385671693
6.82050e-06;-0.0026519189701317307
6.82075e-06;-0.002647344701696277
6.82100e-06;-0.002638637405863459
6.82125e-06;-0.0026290716364791543
6.82150e-06;-0.002619505867094817
6.82175e-06;-0.0026052710587835862
6.82200e-06;-0.0025900664416508433
6.82225e-06;-0.0025748618245180484
6.82250e-06;-0.002553554820119356
6.82275e-06;-0.002530980285272688
6.82300e-06;-0.002508405750425943
6.82325e-06;-0.002485831215579275
6.82350e-06;-0.0024608664066221495
6.82375e-06;-0.002431004738290383
6.82400e-06;-0.0024011430699586163
6.82425e-06;-0.002371281401626748
6.82450e-06;-0.0023414197332949816
6.82475e-06;-0.002307936929326195
6.82500e-06;-0.0022737019771445015
6.82525e-06;-0.002238105275494428
6.82550e-06;-0.002202225724061401
6.82575e-06;-0.0021655785920366424
6.82600e-06;-0.0021283068308793796
6.82625e-06;-0.0020906001030846894
6.82650e-06;-0.002052670025612364
6.82675e-06;-0.002014741312645147
6.82700e-06;-0.0019770386857978933
6.82725e-06;-0.001939787212215176
6.82750e-06;-0.0019031908325831159
6.82775e-06;-0.0018673958736099207
6.82800e-06;-0.0018325287417076059
6.82825e-06;-0.0017987740543544887
6.82850e-06;-0.0017663653393930174
6.82875e-06;-0.0017355441749218861
6.82900e-06;-0.0017065523355424873
6.82925e-06;-0.0016796315194847718
6.82950e-06;-0.001654951013518599
6.82975e-06;-0.0016324535808401775
6.83000e-06;-0.0016119374218320644
6.83025e-06;-0.0015933253880077783
6.83050e-06;-0.0015766791993469078
6.83075e-06;-0.0015620851648036685
6.83100e-06;-0.001549629724612745
6.83125e-06;-0.001539399451729665
6.83150e-06;-0.0015323229072484845
6.83175e-06;-0.0015258214025627547
6.83200e-06;-0.001522576548672998
6.83225e-06;-0.0015200081356351912
6.83250e-06;-0.0015223629883893096
6.83275e-06;-0.0015257404555762343
6.83300e-06;-0.0015291179227631476
6.83325e-06;-0.0015324953899500608
6.83350e-06;-0.0015382509118133112
6.83375e-06;-0.001548878259582324
6.83400e-06;-0.0015595056073513366
6.83425e-06;-0.0015701329551203855
6.83450e-06;-0.001580760302889398
6.83475e-06;-0.001595110149303993
6.83500e-06;-0.001610233198101294
6.83525e-06;-0.0016253562468985438
6.83550e-06;-0.0016426650480222895
6.83575e-06;-0.0016604278530471324
6.83600e-06;-0.0016781906580719153
6.83625e-06;-0.0016969663327434917
6.83650e-06;-0.0017159523911649246
6.83675e-06;-0.001735285899572874
6.83700e-06;-0.0017546915770218978
6.83725e-06;-0.0017740761925143977
6.83750e-06;-0.0017934564332155367
6.83775e-06;-0.0018123407781043823
6.83800e-06;-0.0018311221201823826
6.83825e-06;-0.001848126257266222
6.83850e-06;-0.0018647612500557556
6.83875e-06;-0.0018813962428452327
6.83900e-06;-0.0018980312356347098
6.83925e-06;-0.0019121132493999586
6.83950e-06;-0.0019256649823908493
6.83975e-06;-0.0019390880302015468
6.84000e-06;-0.001952484348737844
6.84025e-06;-0.001967771375489011
6.84050e-06;-0.0019834511223552906
6.84075e-06;-0.002000911190935427
6.84100e-06;-0.002018741051185582
6.84125e-06;-0.0020365709114357976
6.84150e-06;-0.002055819553912341
6.84175e-06;-0.0020753628924793594
6.84200e-06;-0.0020986298596369756
6.84225e-06;-0.0021226702638785077
6.84250e-06;-0.00214671066812004
6.84275e-06;-0.0021707510723616534
6.84300e-06;-0.0021986793113393977
6.84325e-06;-0.0022274150947561755
6.84350e-06;-0.0022561508781730505
6.84375e-06;-0.0022848866615898284
6.84400e-06;-0.0023168454705740815
6.84425e-06;-0.0023494737360941287
6.84450e-06;-0.0023821020016140657
6.84475e-06;-0.002416614404532766
6.84500e-06;-0.0024515181627382393
6.84525e-06;-0.0024871151822290914
6.84550e-06;-0.002522856199429265
6.84575e-06;-0.002559089690476233
6.84600e-06;-0.0025954254735554997
6.84625e-06;-0.002632135648574883
6.84650e-06;-0.0026689235887641253
6.84675e-06;-0.00270555826345785
6.84700e-06;-0.0027418067611713454
6.84725e-06;-0.0027774379995370285
6.84750e-06;-0.0028122591972053025
6.84775e-06;-0.0028461802576566207
6.84800e-06;-0.0028791536148772114
6.84825e-06;-0.0029104812421337656
6.84850e-06;-0.002941501152372554
6.84875e-06;-0.002969080814531624
6.84900e-06;-0.002995945900739502
6.84925e-06;-0.0030228109869472894
6.84950e-06;-0.0030457375997560506
6.84975e-06;-0.0030678461499396
6.85000e-06;-0.0030886498227564955
6.85025e-06;-0.0031091824587283993
6.85050e-06;-0.0031284049799594127
6.85075e-06;-0.003147355376487259
6.85100e-06;-0.003166305773015106
6.85125e-06;-0.003182874288791857
6.85150e-06;-0.00319894806271736
6.85175e-06;-0.0032150218366428633
6.85200e-06;-0.003229972659666322
6.85225e-06;-0.0032446902338976484
6.85250e-06;-0.003259407808128975
6.85275e-06;-0.0032741253823603514
6.85300e-06;-0.003287485689415758
6.85325e-06;-0.003300564077708145
6.85350e-06;-0.0033136424660004872
6.85375e-06;-0.0033267208542928296
6.85400e-06;-0.0033383981925153325
6.85425e-06;-0.0033497845178040945
6.85450e-06;-0.0033611708430928565
6.85475e-06;-0.003372557168381657
6.85500e-06;-0.003383943493670419
6.85525e-06;-0.003395329818959181
6.85550e-06;-0.003406716144247982
6.85575e-06;-0.003418102469536744
6.85600e-06;-0.0034294887948255063
6.85625e-06;-0.003439997933545532
6.85650e-06;-0.0034487100150782596
6.85675e-06;-0.0034574220966109874
6.85700e-06;-0.0034661341781437446
6.85725e-06;-0.0034748462596764724
6.85750e-06;-0.0034835583412092296
6.85775e-06;-0.0034922704227419573
6.85800e-06;-0.003500982504274685
6.85825e-06;-0.0035096945858074423
6.85850e-06;-0.00351840666734017
6.85875e-06;-0.0035254192166602727
6.85900e-06;-0.003532078755145405
6.85925e-06;-0.0035377843846092875
6.85950e-06;-0.003543291877069598
6.85975e-06;-0.0035463359399678217
6.86000e-06;-0.003548868322463523
6.86025e-06;-0.0035474378761625536
6.86050e-06;-0.00354518430836262
6.86075e-06;-0.003538230213126202
6.86100e-06;-0.0035302997685727074
6.86125e-06;-0.003522369324019186
6.86150e-06;-0.0035075797183770343
6.86175e-06;-0.0034913653923529238
6.86200e-06;-0.0034751510663288683
6.86225e-06;-0.003458936740304813
6.86250e-06;-0.003434224035340249
6.86275e-06;-0.0034077461270903046
6.86300e-06;-0.00338126821884036
6.86325e-06;-0.003354790310590326
6.86350e-06;-0.0033204528609754222
6.86375e-06;-0.003284482901403465
6.86400e-06;-0.0032485129418313853
6.86425e-06;-0.003212542982259428
6.86450e-06;-0.00317657302268747
6.86475e-06;-0.003134222900077163
6.86500e-06;-0.003090547550051867
6.86525e-06;-0.0030468722000265703
6.86550e-06;-0.0030031968500011264
6.86575e-06;-0.00295952149997583
6.86600e-06;-0.002913466428411034
6.86625e-06;-0.002866917063486603
6.86650e-06;-0.002819941832550051
6.86675e-06;-0.002772878144733629
6.86700e-06;-0.0027260695138363526
6.86725e-06;-0.002679790429898706
6.86750e-06;-0.0026342935707475076
6.86775e-06;-0.002589770694797014
6.86800e-06;-0.0025463922935382013
6.86825e-06;-0.0025043947973059
6.86850e-06;-0.0024658288463639474
6.86875e-06;-0.002427924793679243
6.86900e-06;-0.00239002074099441
6.86925e-06;-0.0023572114004632534
6.86950e-06;-0.002325460285588175
6.86975e-06;-0.0022964568643924323
6.87000e-06;-0.002268024168266031
6.87025e-06;-0.0022405188729776324
6.87050e-06;-0.002213206208662528
6.87075e-06;-0.0021858935443474234
6.87100e-06;-0.002160835007406245
6.87125e-06;-0.002136244676586956
6.87150e-06;-0.0021116543457676672
6.87175e-06;-0.0020883920486056023
6.87200e-06;-0.00206540559809517
6.87225e-06;-0.002043199609844805
6.87250e-06;-0.0020214470457652844
6.87275e-06;-0.0020046933517889097
6.87300e-06;-0.0019817261849609633
6.87325e-06;-0.001960372995129569
6.87350e-06;-0.001936028875168622
6.87375e-06;-0.00191482681807763
6.87400e-06;-0.0018936229068138104
6.87425e-06;-0.0018719548928977506
6.87450e-06;-0.0018506039334012041
6.87475e-06;-0.0018299141638728486
6.87500e-06;-0.0018092243943444932
6.87525e-06;-0.0017895075180934237
6.87550e-06;-0.001769667799498771
6.87575e-06;-0.0017481974679948006
6.87600e-06;-0.001727293625449774
6.87625e-06;-0.0017074474861526081
6.87650e-06;-0.0016878706781805644
6.87675e-06;-0.0016684022304392738
6.87700e-06;-0.0016495918427384777
6.87725e-06;-0.0016308811494127212
6.87750e-06;-0.0016127830820587639
6.87775e-06;-0.0015948320931901247
6.87800e-06;-0.0015776806659013394
6.87825e-06;-0.0015616614803809084
6.87850e-06;-0.001546285002444276
6.87875e-06;-0.0015316136677850094
6.87900e-06;-0.001517787897088923
6.87925e-06;-0.001504896011492012
6.87950e-06;-0.00149296246349787
6.87975e-06;-0.0014820697806275887
6.88000e-06;-0.0014729211995682984
6.88025e-06;-0.0014658260817150682
6.88050e-06;-0.001460421180409973
6.88075e-06;-0.0014566708131013044
6.88100e-06;-0.0014547021615842395
6.88125e-06;-0.0014548441300692074
6.88150e-06;-0.0014554478413559878
6.88175e-06;-0.0014588556670718392
6.88200e-06;-0.0014629398739414792
6.88225e-06;-0.0014711316708924751
6.88250e-06;-0.0014793234678434988
6.88275e-06;-0.0014881907187374044
6.88300e-06;-0.0015011599288604707
6.88325e-06;-0.001514129138983493
6.88350e-06;-0.0015276903266355645
6.88375e-06;-0.0015448465302234724
6.88400e-06;-0.0015620027338113225
6.88425e-06;-0.0015796862186500588
6.88450e-06;-0.0016005718258778126
6.88475e-06;-0.0016214574331054957
6.88500e-06;-0.0016426508963000327
6.88525e-06;-0.0016657139357072448
6.88550e-06;-0.0016889416181445603
6.88575e-06;-0.0017131691600159292
6.88600e-06;-0.0017375300556643032
6.88625e-06;-0.0017627007944731139
6.88650e-06;-0.0017879036866518603
6.88675e-06;-0.001813301842791946
6.88700e-06;-0.0018386457653235808
6.88725e-06;-0.0018636603329782453
6.88750e-06;-0.0018885347902864772
6.88775e-06;-0.0019125583725140053
6.88800e-06;-0.0019363802123022339
6.88825e-06;-0.0019589768919301294
6.88850e-06;-0.001981266406884473
6.88875e-06;-0.002001690543776503
6.88900e-06;-0.002021592589603986
6.88925e-06;-0.0020383240324875966
6.88950e-06;-0.0020550554753712637
6.88975e-06;-0.0020710611151136225
6.89000e-06;-0.0020826590303557385
6.89025e-06;-0.0020942569455978935
6.89050e-06;-0.0021050853635705587
6.89075e-06;-0.002111240707296836
6.89100e-06;-0.002117396051023134
6.89125e-06;-0.0021227412757666006
6.89150e-06;-0.002123166734962772
6.89175e-06;-0.0021235921941589425
6.89200e-06;-0.0021230077813214855
6.89225e-06;-0.0021162905241197912
6.89250e-06;-0.0021095732669181196
6.89275e-06;-0.002102856009716448
6.89300e-06;-0.0020961387525147536
6.89325e-06;-0.002088327085785091
6.89350e-06;-0.0020738691875706317
6.89375e-06;-0.0020594112893561234
6.89400e-06;-0.0020449533911416637
