Time(s);Current(A)
1.17500e-05;0.0024901923885110844
1.17503e-05;0.0024467965534644993
1.17505e-05;0.0024034007184182086
1.17508e-05;0.002360004883371624
1.17510e-05;0.002316609048325039
1.17513e-05;0.0022732132132787485
1.17515e-05;0.0022330764482198086
1.17518e-05;0.0021946225331350246
1.17520e-05;0.0021561686180505014
1.17523e-05;0.0021177147029657175
1.17525e-05;0.0020792607878809335
1.17528e-05;0.0020408068727964103
1.17530e-05;0.0020039004896219887
1.17533e-05;0.0019751505229385017
1.17535e-05;0.0019464005562552095
1.17538e-05;0.001919496750995819
1.17540e-05;0.0019023233179403
1.17543e-05;0.0018851498848848974
1.17545e-05;0.0018701091001284292
1.17548e-05;0.0018663086443371658
1.17550e-05;0.0018625081885459281
1.17553e-05;0.0018604794474447349
1.17555e-05;0.0018677886998409855
1.17558e-05;0.0018766349895333915
1.17560e-05;0.0018935823828390486
1.17563e-05;0.001912390740277758
1.17565e-05;0.001941007489027774
1.17568e-05;0.0019696242377779836
1.17570e-05;0.0020002046475482388
1.17572e-05;0.0020411347224980206
1.17575e-05;0.00208206479744808
1.17578e-05;0.0021247627564540167
1.17580e-05;0.0021767785192298005
1.17583e-05;0.002228794282005937
1.17585e-05;0.0022826922290188874
1.17588e-05;0.002346510409952482
1.17590e-05;0.0024103285908856444
1.17593e-05;0.002474146771819239
1.17595e-05;0.002537964952752834
1.17598e-05;0.002601783133685996
1.17600e-05;0.002666555526195618
1.17603e-05;0.002736357183035366
1.17605e-05;0.002806158839874641
1.17608e-05;0.0028759604967143896
1.17610e-05;0.002945762153554138
1.17613e-05;0.003015563810393413
1.17615e-05;0.003084738561373115
1.17618e-05;0.0031506091444305187
1.17620e-05;0.003216479727487476
1.17623e-05;0.0032811587914952155
1.17625e-05;0.0033395578391977663
1.17628e-05;0.0033979568868999213
1.17630e-05;0.003455220519799788
1.17633e-05;0.0035050692366491573
1.17635e-05;0.00354737782422979
1.17638e-05;0.003589686411810709
1.17640e-05;0.0036297182412766992
1.17643e-05;0.003657750197060075
1.17645e-05;0.003685782152843641
1.17648e-05;0.0037114059331521654
1.17650e-05;0.003724337191880214
1.17653e-05;0.00373726845060835
1.17655e-05;0.0037477307016589995
1.17657e-05;0.0037451798091271333
1.17660e-05;0.0037426289165952502
1.17663e-05;0.0037375561601770972
1.17665e-05;0.003719191676420508
1.17668e-05;0.003700827192663794
1.17670e-05;0.00368246270890708
1.17673e-05;0.0036557911307687325
1.17675e-05;0.0036248301100523434
1.17678e-05;0.003593869089335744
1.17680e-05;0.0035648817754243564
1.17683e-05;0.003535015202132429
1.17685e-05;0.003483308342543513
1.17688e-05;0.003431601482954597
1.17690e-05;0.0033798946233660316
1.17693e-05;0.003322639890828755
1.17695e-05;0.0032647370478384088
1.17698e-05;0.003206834204848455
1.17700e-05;0.003148931361858109
1.17703e-05;0.0030878678352868416
1.17705e-05;0.0030253002908559147
1.17708e-05;0.002962732746424564
1.17710e-05;0.0029001652019932135
1.17713e-05;0.0028392855093419904
1.17715e-05;0.0027803891946294856
1.17718e-05;0.0027214928799169807
1.17720e-05;0.0026625965652048752
1.17723e-05;0.0026037002504923704
1.17725e-05;0.0025490562952939807
1.17728e-05;0.0024975978514688857
1.17730e-05;0.0024461394076434424
1.17733e-05;0.002402686194090057
1.17735e-05;0.002365229828167224
1.17738e-05;0.0023277734622441375
1.17740e-05;0.0022903170963210506
1.17742e-05;0.002252860730398218
1.17745e-05;0.002215404364475131
1.17748e-05;0.002177947998552044
1.17750e-05;0.002141193540295361
1.17753e-05;0.002113524319132565
1.17755e-05;0.002085855097969769
1.17758e-05;0.002058185876806973
1.17760e-05;0.0020305166556443643
1.17763e-05;0.0020028474344815687
1.17765e-05;0.0019751782133187725
1.17768e-05;0.001947508992156164
1.17770e-05;0.0019241125492951239
1.17773e-05;0.0019039169138520362
1.17775e-05;0.0018837212784090854
1.17778e-05;0.0018635256429659977
1.17780e-05;0.00184333000752291
1.17783e-05;0.0018231343720799592
1.17785e-05;0.0018029387366368715
1.17788e-05;0.0017827431011937839
1.17790e-05;0.001762547465750833
1.17793e-05;0.0017423518303077454
1.17795e-05;0.0017221561948646577
1.17798e-05;0.001701960559421707
1.17800e-05;0.0016817649239786194
1.17803e-05;0.0016615692885355317
1.17805e-05;0.0016413736530925807
1.17808e-05;0.001621178017649493
1.17810e-05;0.0016060124429523952
1.17813e-05;0.0015946149682160315
1.17815e-05;0.0015832174934795906
1.17818e-05;0.0015718200187431496
1.17820e-05;0.0015604225440067861
1.17823e-05;0.0015490250692703452
1.17825e-05;0.0015376275945339043
1.17827e-05;0.0015262301197975405
1.17830e-05;0.0015148326450610996
1.17833e-05;0.0015034351703246587
1.17835e-05;0.001492037695588295
1.17838e-05;0.001480640220851854
1.17840e-05;0.001469242746115413
1.17843e-05;0.0014578452713789722
1.17845e-05;0.0014464477966426084
1.17848e-05;0.0014350503219061675
1.17850e-05;0.001428680097727081
1.17853e-05;0.0014260758683513758
1.17855e-05;0.001423471638975653
1.17858e-05;0.00142086740959993
1.17860e-05;0.001418263180224225
1.17863e-05;0.0014156589508485021
1.17865e-05;0.0014130547214727793
1.17868e-05;0.001410450492097074
1.17870e-05;0.001407846262721351
1.17873e-05;0.0014052420333456282
1.17875e-05;0.0014026378039699232
1.17878e-05;0.0014000335745942003
1.17880e-05;0.0013977659479107207
1.17883e-05;0.0013998551838423437
1.17885e-05;0.0014019444197739808
1.17888e-05;0.001404033655705618
1.17890e-05;0.001406122891637241
1.17893e-05;0.001408212127568878
1.17895e-05;0.0014103013635005154
1.17898e-05;0.0014123905994321384
1.17900e-05;0.0014144798353637755
1.17903e-05;0.0014165690712954126
1.17905e-05;0.0014186583072270356
1.17908e-05;0.0014207475431586728
1.17910e-05;0.00142283677909031
1.17912e-05;0.0014253867933952027
1.17915e-05;0.0014282819842413776
1.17918e-05;0.0014311771750875526
1.17920e-05;0.0014340723659337078
1.17923e-05;0.0014369675567798828
1.17925e-05;0.0014398627476260577
1.17928e-05;0.0014428389157349435
1.17930e-05;0.001445875745222654
1.17933e-05;0.001448912574710385
1.17935e-05;0.001451949404198116
1.17938e-05;0.0014549862336858267
1.17940e-05;0.0014580230631735577
1.17943e-05;0.00146784102847551
1.17945e-05;0.001482738852430031
1.17948e-05;0.001497636676384653
1.17950e-05;0.001512534500339275
1.17953e-05;0.001527432324293796
1.17955e-05;0.0015423301482484178
1.17958e-05;0.0015572279722030399
1.17960e-05;0.0015721257961575608
1.17963e-05;0.0015870236201121829
1.17965e-05;0.0016019214440668047
1.17968e-05;0.0016180844625486687
1.17970e-05;0.0016506236980653418
1.17973e-05;0.0016831629335820148
1.17975e-05;0.0017157021690984674
1.17978e-05;0.0017482414046151404
1.17980e-05;0.0017807806401318135
1.17983e-05;0.001813319875648266
1.17985e-05;0.001845859111164939
1.17988e-05;0.0018783983466816121
1.17990e-05;0.0019109375821980646
1.17993e-05;0.0019434768177147377
1.17995e-05;0.001980287190236883
1.17997e-05;0.0020202971406572978
1.18000e-05;0.002060307091077984
1.18003e-05;0.0021003170414986704
1.18005e-05;0.002140326991919085
1.18008e-05;0.0021803369423397715
1.18010e-05;0.0022203468927604574
1.18013e-05;0.00225815834377716
1.18015e-05;0.0022943228632870136
1.18018e-05;0.0023304873827971126
1.18020e-05;0.0023666519023072116
1.18023e-05;0.002402816421817065
1.18025e-05;0.002438980941327164
1.18028e-05;0.002475145460837263
1.18030e-05;0.0025027129623172535
1.18033e-05;0.0025238402983684067
1.18035e-05;0.0025449676344195594
1.18038e-05;0.0025660949704705695
1.18040e-05;0.0025872223065217226
1.18043e-05;0.002608349642572876
1.18045e-05;0.0026294769786238854
1.18048e-05;0.0026506043146750386
1.18050e-05;0.002671731650726192
1.18053e-05;0.002692858986777202
1.18055e-05;0.002713986322828355
1.18058e-05;0.0027341793135950507
1.18060e-05;0.0027422784793805677
1.18063e-05;0.0027503776451661393
1.18065e-05;0.0027584768109517113
1.18068e-05;0.0027665759767372283
1.18070e-05;0.0027746751425228
1.18073e-05;0.002782774308308372
1.18075e-05;0.002790873474093889
1.18078e-05;0.0027989726398794604
1.18080e-05;0.0028070718056650325
1.18082e-05;0.002815170971450549
1.18085e-05;0.002823270137236121
1.18088e-05;0.0028275712272896165
1.18090e-05;0.0028290271173043763
1.18093e-05;0.0028304830073191457
1.18095e-05;0.0028319388973339155
1.18098e-05;0.002833394787348685
1.18100e-05;0.0028348506773634447
1.18103e-05;0.0028363065673782145
1.18105e-05;0.002837762457392984
1.18108e-05;0.0028392183474077438
1.18110e-05;0.0028406742374225136
1.18113e-05;0.0028409337183315357
1.18115e-05;0.0028402969498042096
1.18118e-05;0.0028396601812768797
1.18120e-05;0.0028390234127495494
1.18123e-05;0.0028383866442222233
1.18125e-05;0.002837749875694893
1.18128e-05;0.0028371131071675626
1.18130e-05;0.002836476338640237
1.18133e-05;0.0028358395701129067
1.18135e-05;0.0028352028015855763
1.18138e-05;0.00284186587371869
1.18140e-05;0.0028539973747078954
1.18143e-05;0.0028661288756971007
1.18145e-05;0.0028782603766862236
1.18148e-05;0.002890391877675429
1.18150e-05;0.002902523378664634
1.18153e-05;0.002914654879653757
1.18155e-05;0.0029267863806429623
1.18158e-05;0.0029389178816321675
1.18160e-05;0.002951049382621291
1.18163e-05;0.002963180883610496
1.18165e-05;0.0029753123845997014
1.18167e-05;0.0029890759214277196
1.18170e-05;0.003023963935625088
1.18173e-05;0.0030588519498224564
1.18175e-05;0.0030937399640195884
1.18178e-05;0.003128627978216957
1.18180e-05;0.003163515992414325
1.18183e-05;0.0031984040066116936
1.18185e-05;0.0032332920208088256
1.18188e-05;0.0032681800350061944
1.18190e-05;0.003303068049203563
1.18193e-05;0.003337956063400695
1.18195e-05;0.0033728440775980632
1.18198e-05;0.0034077320917954316
1.18200e-05;0.0034465209918119366
1.18203e-05;0.0034882321085693995
1.18205e-05;0.003529943225326863
1.18208e-05;0.003571654342084043
1.18210e-05;0.003613365458841506
1.18213e-05;0.0036550765755989693
1.18215e-05;0.0036967876923561494
1.18218e-05;0.0037384988091136123
1.18220e-05;0.0037793773112140576
1.18223e-05;0.003809478752499043
1.18225e-05;0.0038395801937842326
1.18228e-05;0.0038696816350694218
1.18230e-05;0.003899783076354407
1.18233e-05;0.003929884517639597
1.18235e-05;0.003959985958924786
1.18238e-05;0.003990087400209771
1.18240e-05;0.0040201888414949614
1.18243e-05;0.004033994457589775
1.18245e-05;0.004035592607127806
1.18248e-05;0.004037190756665848
1.18250e-05;0.00403878890620389
1.18252e-05;0.004040387055741922
1.18255e-05;0.004041985205279964
1.18258e-05;0.004043583354818006
1.18260e-05;0.004045181504356037
1.18263e-05;0.004046779653894079
1.18265e-05;0.004048377803432122
1.18268e-05;0.004049975952970164
1.18270e-05;0.004034710546210049
1.18273e-05;0.004006812376325388
1.18275e-05;0.003978914206440726
1.18278e-05;0.003951016036556253
1.18280e-05;0.003923117866671591
1.18283e-05;0.003895219696786929
1.18285e-05;0.003867321526902456
1.18288e-05;0.003839423357017794
1.18290e-05;0.0038115251871331324
1.18293e-05;0.0037836270172486594
1.18295e-05;0.0037557288473639974
1.18298e-05;0.003721216989638359
1.18300e-05;0.0036817507112439423
1.18303e-05;0.003642284432849258
1.18305e-05;0.003602818154454574
1.18308e-05;0.003563351876060157
1.18310e-05;0.0035238855976654727
1.18313e-05;0.0034844193192707885
1.18315e-05;0.003444953040876372
1.18318e-05;0.003409123401430814
1.18320e-05;0.003376018027116923
1.18323e-05;0.0033429126528032563
1.18325e-05;0.0033098072784893654
1.18328e-05;0.0032767019041754744
1.18330e-05;0.003243596529861808
1.18333e-05;0.003210491155547917
1.18335e-05;0.003177385781234026
1.18337e-05;0.0031534963378826992
1.18340e-05;0.003136510697666367
1.18343e-05;0.003119525057450035
1.18345e-05;0.003102539417233818
1.18348e-05;0.0030855537770174855
1.18350e-05;0.003068568136801153
1.18352e-05;0.003051582496584936
1.18355e-05;0.003034596856368604
1.18358e-05;0.0030176112161522718
1.18360e-05;0.0030006255759359394
1.18363e-05;0.0029836399357197224
1.18365e-05;0.00296665429550339
1.18368e-05;0.002949668655287058
1.18370e-05;0.0029396979225965792
1.18373e-05;0.0029349821707400137
1.18375e-05;0.0029302664188834483
1.18378e-05;0.002925550667026915
1.18380e-05;0.0029208349151703494
1.18383e-05;0.002916119163313784
1.18385e-05;0.00291140341145725
1.18388e-05;0.0029066876596006846
1.18390e-05;0.002901971907744119
1.18393e-05;0.002897256155887586
1.18395e-05;0.0028925404040310203
1.18398e-05;0.002887824652174455
1.18400e-05;0.0028831089003179215
1.18403e-05;0.002880910840266714
1.18405e-05;0.0028805988239211525
1.18408e-05;0.0028802868075755933
1.18410e-05;0.0028799747912300324
1.18413e-05;0.002879662774884471
1.18415e-05;0.002879350758538912
1.18418e-05;0.002879038742193351
1.18420e-05;0.0028787267258477897
1.18422e-05;0.0028784147095022306
1.18425e-05;0.0028781026931566692
1.18428e-05;0.0028795311333195558
1.18430e-05;0.0028822633776397566
1.18433e-05;0.002884995621959976
1.18435e-05;0.0028877278662801952
1.18437e-05;0.002890460110600396
1.18440e-05;0.0028931923549206156
1.18443e-05;0.0028959245992408347
1.18445e-05;0.0028986568435610542
1.18448e-05;0.002901389087881255
1.18450e-05;0.002904121332201474
1.18453e-05;0.0029137373246549978
1.18455e-05;0.0029285100443180202
1.18458e-05;0.0029432827639811424
1.18460e-05;0.002958055483644265
1.18463e-05;0.002972828203307287
1.18465e-05;0.0029876009229704097
1.18468e-05;0.003002373642633532
1.18470e-05;0.0030171463622965544
1.18473e-05;0.003031919081959677
1.18475e-05;0.003046691801622799
1.18478e-05;0.0030614645212858217
1.18480e-05;0.00307699973635942
1.18483e-05;0.0031024044142882097
1.18485e-05;0.0031278090922168275
1.18488e-05;0.003153213770145617
1.18490e-05;0.0031786184480744072
1.18493e-05;0.0032040231260030247
1.18495e-05;0.0032294278039318148
1.18498e-05;0.0032548324818606044
1.18500e-05;0.003280237159789222
1.18503e-05;0.003305641837718012
1.18505e-05;0.0033310465156468016
1.18507e-05;0.0033564511935754195
1.18510e-05;0.0033815541310282474
1.18513e-05;0.003406431029803768
1.18515e-05;0.00343130792857912
1.18518e-05;0.0034561848273546407
1.18520e-05;0.0034810617261301613
1.18522e-05;0.0035059386249055133
1.18525e-05;0.003530815523681034
1.18528e-05;0.00355482528042534
1.18530e-05;0.003567611066567303
1.18533e-05;0.0035803968527091798
1.18535e-05;0.0035931826388511433
1.18538e-05;0.003605968424993107
1.18540e-05;0.0036187542111349837
1.18543e-05;0.003631539997276947
1.18545e-05;0.0036443257834189104
1.18548e-05;0.0036402702129585654
1.18550e-05;0.003623598509516407
1.18553e-05;0.003606926806074248
1.18555e-05;0.0035902551026322023
1.18558e-05;0.0035735833991900434
1.18560e-05;0.0035569116957478845
1.18563e-05;0.0035402399923058388
1.18565e-05;0.00352356828886368
1.18568e-05;0.003506896585421521
1.18570e-05;0.0034879797462765215
1.18573e-05;0.00344000268835366
1.18575e-05;0.003392025630430798
1.18578e-05;0.0033440485725082614
1.18580e-05;0.0032960715145853997
1.18583e-05;0.0032480944566625376
1.18585e-05;0.0032001173987400012
1.18588e-05;0.0031521403408171396
1.18590e-05;0.0031041632828942775
1.18592e-05;0.0030561862249717407
1.18595e-05;0.0030003934972860197
1.18598e-05;0.002938745924803012
1.18600e-05;0.002877098352320422
1.18603e-05;0.0028154507798374144
1.18605e-05;0.0027538032073544066
1.18607e-05;0.0026921556348718165
1.18610e-05;0.0026307454743627347
1.18613e-05;0.0025724082879711977
1.18615e-05;0.002514071101579661
1.18618e-05;0.002455733915188519
1.18620e-05;0.002397396728796982
1.18623e-05;0.0023390595424054453
1.18625e-05;0.0022807223560143033
1.18628e-05;0.002228820218509153
1.18630e-05;0.0021817386803435436
1.18633e-05;0.002134657142178254
1.18635e-05;0.0020942353072056835
1.18638e-05;0.002058802363752292
1.18640e-05;0.0020233694202991407
1.18643e-05;0.001995351398394212
1.18645e-05;0.0019728880143098084
1.18648e-05;0.0019504246302255572
1.18650e-05;0.0019357844483920746
1.18653e-05;0.001927004754065813
1.18655e-05;0.001918225059739611
1.18658e-05;0.0019173495227415053
1.18660e-05;0.001922395118009925
1.18663e-05;0.0019274407132783109
1.18665e-05;0.001939835006224255
1.18668e-05;0.001957734327616474
1.18670e-05;0.001975633649008572
1.18673e-05;0.0020002392632516857
1.18675e-05;0.0020298686700813604
1.18678e-05;0.002059498076910835
1.18680e-05;0.0020948450996783837
1.18683e-05;0.0021344752811449236
1.18685e-05;0.0021741054626111945
1.18688e-05;0.002219970033184233
1.18690e-05;0.002270504885606434
1.18692e-05;0.002321039738028292
1.18695e-05;0.0023715745904504927
1.18698e-05;0.002422109442872694
1.18700e-05;0.0024726442952948944
1.18703e-05;0.002523515743162094
1.18705e-05;0.0025787439598789702
1.18708e-05;0.0026339721765958465
1.18710e-05;0.002689200393312349
1.18713e-05;0.002744428610029225
1.18715e-05;0.0027996568267461015
1.18718e-05;0.002854885043462604
1.18720e-05;0.0029041943067059667
1.18723e-05;0.0029490695860410056
1.18725e-05;0.0029939448653757404
1.18728e-05;0.0030388201447107796
1.18730e-05;0.0030836954240458184
1.18733e-05;0.0031285707033805532
1.18735e-05;0.0031734459827155925
1.18738e-05;0.003211946028337167
1.18740e-05;0.003245670283132422
1.18743e-05;0.003279394537927905
1.18745e-05;0.003313118792723388
1.18748e-05;0.003346843047518643
1.18750e-05;0.003380567302314126
1.18753e-05;0.003414291557109609
1.18755e-05;0.0034470873839066024
1.18758e-05;0.003479187710253733
1.18760e-05;0.003511288036600863
1.18763e-05;0.0035433883629477757
1.18765e-05;0.0035754886892949062
1.18768e-05;0.0036075890156420363
1.18770e-05;0.003639689341988949
1.18773e-05;0.0036717896683360796
1.18775e-05;0.00370388999468321
1.18777e-05;0.003735990321030123
1.18780e-05;0.003768090647377253
1.18783e-05;0.0038001909737243834
1.18785e-05;0.0038322913000715135
1.18788e-05;0.0038643236903507165
1.18790e-05;0.003895476740912462
1.18793e-05;0.003926629791474208
1.18795e-05;0.003957782842035743
1.18798e-05;0.003988935892597489
1.18800e-05;0.004020088943159235
1.18803e-05;0.00405124199372077
1.18805e-05;0.004082395044282516
1.18808e-05;0.004113548094844262
1.18810e-05;0.0041447011454057965
1.18813e-05;0.004175854195967543
1.18815e-05;0.004207007246529289
1.18818e-05;0.004238160297090824
1.18820e-05;0.004269313347652569
1.18823e-05;0.004292210702758516
1.18825e-05;0.004308923582689808
1.18828e-05;0.004325636462621214
1.18830e-05;0.004342349342552619
1.18833e-05;0.004359062222483911
1.18835e-05;0.004375775102415317
1.18838e-05;0.004392487982346722
1.18840e-05;0.004409200862278014
1.18843e-05;0.00442591374220942
1.18845e-05;0.004442626622140825
1.18848e-05;0.004459339502072117
1.18850e-05;0.004458789062249168
1.18853e-05;0.004445306390002132
1.18855e-05;0.0044318237177551865
1.18858e-05;0.00441834104550815
1.18860e-05;0.004404858373261114
1.18862e-05;0.004391375701014169
1.18865e-05;0.004377893028767133
1.18868e-05;0.004364410356520096
1.18870e-05;0.00435092768427306
1.18873e-05;0.004337445012026116
1.18875e-05;0.004323962339779079
1.18878e-05;0.004296754258915131
1.18880e-05;0.004259264252160005
1.18883e-05;0.004221774245404626
1.18885e-05;0.004184284238649245
1.18888e-05;0.004146794231894119
1.18890e-05;0.0041093042251387395
1.18893e-05;0.004071814218383359
1.18895e-05;0.004034324211628233
1.18898e-05;0.003996323562762842
1.18900e-05;0.003951713348397962
1.18903e-05;0.003907103134033385
1.18905e-05;0.003862492919668506
1.18908e-05;0.0038178827053036266
1.18910e-05;0.0037732724909390497
1.18913e-05;0.0037286622765741705
1.18915e-05;0.0036840520622092913
1.18918e-05;0.0036394418478447143
1.18920e-05;0.0036029685980947883
1.18923e-05;0.0035725908803250885
1.18925e-05;0.003542213162555594
1.18928e-05;0.003511835444785894
1.18930e-05;0.003481457727016194
1.18933e-05;0.0034510800092467
1.18935e-05;0.0034207022914769995
1.18938e-05;0.0033903245737072997
1.18940e-05;0.0033599468559378054
1.18943e-05;0.0033295691381681055
1.18945e-05;0.0032991914203984053
1.18947e-05;0.0032710351504912664
1.18950e-05;0.0032716324926921683
1.18953e-05;0.0032722298348930702
1.18955e-05;0.003272827177093972
1.18958e-05;0.00327342451929487
1.18960e-05;0.003274021861495772
1.18963e-05;0.003274619203696674
1.18965e-05;0.0032752165458975716
1.18968e-05;0.0032758138880984735
1.18970e-05;0.0032764112302993754
1.18973e-05;0.0032770085725002734
1.18975e-05;0.0032776059147011753
1.18978e-05;0.003291142682662963
1.18980e-05;0.0033143725840312247
1.18983e-05;0.003337602485399644
1.18985e-05;0.0033608323867680636
1.18988e-05;0.0033840622881363253
