Time(s);Current(A)
8.00000e-06;5.010721575536422e-05
8.00025e-06;2.773615960929929e-05
8.00050e-06;5.014469605179375e-06
8.00075e-06;-1.7919741322043522e-05
8.00100e-06;-4.086491506631074e-05
8.00125e-06;-6.381008881073343e-05
8.00150e-06;-8.669736794926704e-05
8.00175e-06;-0.00010899235727049683
8.00200e-06;-0.00013119235130597026
8.00225e-06;-0.00015242043058259533
8.00250e-06;-0.00017354824897025895
8.00275e-06;-0.00019356570695012906
8.00300e-06;-0.0002126199399744529
8.00325e-06;-0.00023056070470106374
8.00350e-06;-0.0002472369440098908
8.00375e-06;-0.00026248252479743817
8.00400e-06;-0.0002760650810867177
8.00425e-06;-0.00028773556679660873
8.00450e-06;-0.00029736926486055305
8.00475e-06;-0.00030494559941285967
8.00500e-06;-0.0003104591862449996
8.00525e-06;-0.0003139046385568937
8.00550e-06;-0.0003152760118114058
8.00575e-06;-0.0003145580316267814
8.00600e-06;-0.0003116938676550343
8.00625e-06;-0.00030661622480050737
8.00650e-06;-0.0002993357739669759
8.00675e-06;-0.00028992833737542307
8.00700e-06;-0.0002784793295856052
8.00725e-06;-0.0002650741147234252
8.00750e-06;-0.00024979773877929724
8.00775e-06;-0.00023272929479253008
8.00800e-06;-0.00021392197404000157
8.00825e-06;-0.00019342237487954392
8.00850e-06;-0.00017132587908760932
8.00875e-06;-0.00014776873592587365
8.00900e-06;-0.00012289314411828087
8.00925e-06;-9.684127976378099e-05
8.00950e-06;-6.975513976185847e-05
8.00975e-06;-4.1772958617650726e-05
8.01000e-06;-1.3016727229632462e-05
8.01025e-06;1.6395681786091404e-05
8.01050e-06;4.6325884038849884e-05
8.01075e-06;7.667713134747045e-05
8.01100e-06;0.00010702837865588534
8.01125e-06;0.00013735202581792943
8.01150e-06;0.00016739329065367452
8.01175e-06;0.00019734125170056972
8.01200e-06;0.00022633460401688966
8.01225e-06;0.0002551730006785526
8.01250e-06;0.00028242601669295134
8.01275e-06;0.00030945411605512023
8.01300e-06;0.0003341810505532962
8.01325e-06;0.0003586119179760757
8.01350e-06;0.0003800136670849937
8.01375e-06;0.00040115064991474135
8.01400e-06;0.00041938594237443444
8.01425e-06;0.0004354503207178141
8.01450e-06;0.0004492858144181752
8.01475e-06;0.00046085694610110566
8.01500e-06;0.0004700241971364216
8.01525e-06;0.00047599234502522145
8.01550e-06;0.00048153401146980773
8.01575e-06;0.0004827122654939373
8.01600e-06;0.00048346381392294993
8.01625e-06;0.0004798496566010993
8.01650e-06;0.0004758288040117127
8.01675e-06;0.0004676469751226205
8.01700e-06;0.00045908317753242663
8.01725e-06;0.0004466113858264632
8.01750e-06;0.0004337827614174978
8.01775e-06;0.0004173033140498967
8.01800e-06;0.00040100046520883114
8.01825e-06;0.00038732222519903835
8.01850e-06;0.0003695896939201071
8.01875e-06;0.00034207633009382654
8.01900e-06;0.00031413366765247126
8.01925e-06;0.0002877010623683962
8.01950e-06;0.00026171118752777345
8.01975e-06;0.000234264130013079
8.02000e-06;0.00020585124150134586
8.02025e-06;0.0001765087008934339
8.02050e-06;0.00014698478485893892
8.02075e-06;0.00011696305084195669
8.02100e-06;8.633987758334397e-05
8.02125e-06;5.562021128138616e-05
8.02150e-06;2.5729557660125086e-05
8.02175e-06;-4.054730071158481e-06
8.02200e-06;-3.341944347413313e-05
8.02225e-06;-6.208571711712413e-05
8.02250e-06;-8.98828909939982e-05
8.02275e-06;-0.00011659073054333627
8.02300e-06;-0.0001423199878994785
8.02325e-06;-0.0001664336178884295
8.02350e-06;-0.00018459153331443635
8.02375e-06;-0.00020050849791316432
8.02400e-06;-0.00021820930524251586
8.02425e-06;-0.00023716464271355595
8.02450e-06;-0.00025618130035785276
8.02475e-06;-0.0002749435258085186
8.02500e-06;-0.0002936943234164546
8.02525e-06;-0.0003112469174403539
8.02550e-06;-0.0003287457992292782
8.02575e-06;-0.000346244681018084
8.02600e-06;-0.0003627078411498668
8.02625e-06;-0.00037912457267321673
8.02650e-06;-0.00039554130419645536
8.02675e-06;-0.00041195803571980524
8.02700e-06;-0.0004283747672431551
8.02725e-06;-0.00044463047923534716
8.02750e-06;-0.00046087897315635884
8.02775e-06;-0.00047712746707737053
8.02800e-06;-0.0004933759609982721
8.02825e-06;-0.0005096244549192837
8.02850e-06;-0.000525817489219095
8.02875e-06;-0.0005420080374135576
8.02900e-06;-0.0005581985856081299
8.02925e-06;-0.0005743891338027022
8.02950e-06;-0.0005905796819971648
8.02975e-06;-0.0006067702301917372
8.03000e-06;-0.0006229607783863095
8.03025e-06;-0.0006391513265807721
8.03050e-06;-0.0006538168466129988
8.03075e-06;-0.0006684140037458106
8.03100e-06;-0.0006830111608785236
8.03125e-06;-0.0006976083180113354
8.03150e-06;-0.0007122054751441473
8.03175e-06;-0.0007268026322768602
8.03200e-06;-0.0007413997894096721
8.03225e-06;-0.0007559969465424839
8.03250e-06;-0.0007659795165937507
8.03275e-06;-0.0007757552271520034
8.03300e-06;-0.000785530937710256
8.03325e-06;-0.0007953066482684425
8.03350e-06;-0.0008050823588266952
8.03375e-06;-0.0008148580693849479
8.03400e-06;-0.0008246337799432005
8.03425e-06;-0.0008344094905013869
8.03450e-06;-0.0008441852010596396
8.03475e-06;-0.0008539609116178922
8.03500e-06;-0.0008612514039657653
8.03525e-06;-0.0008655901420308009
8.03550e-06;-0.0008699288800958364
8.03575e-06;-0.0008742676181608426
8.03600e-06;-0.0008786063562258782
8.03625e-06;-0.0008829450942909137
8.03650e-06;-0.00088728383235592
8.03675e-06;-0.0008916225704209555
8.03700e-06;-0.0008959613084859911
8.03725e-06;-0.0009003000465509973
8.03750e-06;-0.0009046387846160329
8.03775e-06;-0.0009056589579399276
8.03800e-06;-0.0009065303689566417
8.03825e-06;-0.0009074017799733617
8.03850e-06;-0.0009082731909900816
8.03875e-06;-0.0009091446020067957
8.03900e-06;-0.0009100160130235157
8.03925e-06;-0.0009108874240402356
8.03950e-06;-0.0009117588350569497
8.03975e-06;-0.0009126302460736697
8.04000e-06;-0.0009135016570903897
8.04025e-06;-0.0009143730681071038
8.04050e-06;-0.00091379585892836
8.04075e-06;-0.0009131537120131614
8.04100e-06;-0.0009125115650979672
8.04125e-06;-0.0009118694181827687
8.04150e-06;-0.0009112272712675702
8.04175e-06;-0.0009105851243523759
8.04200e-06;-0.0009099429774371774
8.04225e-06;-0.0009093008305219788
8.04250e-06;-0.0009086586836067846
8.04275e-06;-0.000908016536691586
8.04300e-06;-0.0009073743897763875
8.04325e-06;-0.0009066649076572881
8.04350e-06;-0.0009059524070826048
8.04375e-06;-0.0009052399065079168
8.04400e-06;-0.0009018595688129611
8.04425e-06;-0.0008983596391750262
8.04450e-06;-0.0008948597095370676
8.04475e-06;-0.0008851583301825306
8.04500e-06;-0.000875178956562396
8.04525e-06;-0.0008651995829421938
8.04550e-06;-0.0008506552687557421
8.04575e-06;-0.000835906320595283
8.04600e-06;-0.0008170440568433683
8.04625e-06;-0.0007979974042469244
8.04650e-06;-0.0007737436196830861
8.04675e-06;-0.0007492564134363823
8.04700e-06;-0.0007201404597397099
8.04725e-06;-0.0006908170117785484
8.04750e-06;-0.0006576609446612287
8.04775e-06;-0.000624333071563496
8.04800e-06;-0.0005873327743283775
8.04825e-06;-0.0005501678522232291
8.04850e-06;-0.0005091437092854841
8.04875e-06;-0.0004679465678861562
8.04900e-06;-0.00042375069329237655
8.04925e-06;-0.00037942039357686505
8.04950e-06;-0.00033308819930827
8.04975e-06;-0.000286666265505494
8.05000e-06;-0.00023884082167089846
8.05025e-06;-0.00019095246226705394
8.05050e-06;-0.00014204153998296332
8.05075e-06;-9.308477896272762e-05
8.05100e-06;-4.399741903074306e-05
8.05125e-06;4.805857914325686e-06
8.05150e-06;5.302387697440951e-05
8.05175e-06;0.00010037761668458552
8.05200e-06;0.00014667499790722084
8.05225e-06;0.00019178493468578983
8.05250e-06;0.0002354918082307824
8.05275e-06;0.00027749338669444103
8.05300e-06;0.0003174753044260465
8.05325e-06;0.0003551224977165025
8.05350e-06;0.00039012038988990653
8.05375e-06;0.0004222989114559195
8.05400e-06;0.0004518698041206668
8.05425e-06;0.0004813292397296365
8.05450e-06;0.000509877254542569
8.05475e-06;0.000538384412819194
8.05500e-06;0.0005650767378613229
8.05525e-06;0.0005916877088241155
8.05550e-06;0.0006182986797869082
8.05575e-06;0.0006420344783974884
8.05600e-06;0.0006656413907856442
8.05625e-06;0.0006892483031738
8.05650e-06;0.0007120826752816538
8.05675e-06;0.0007348824164923358
8.05700e-06;0.0007576821577030178
8.05725e-06;0.0007804818989135455
8.05750e-06;0.0008032816401242275
8.05775e-06;0.0008260813813349095
8.05800e-06;0.0008488811225454371
8.05825e-06;0.0008704034420904085
8.05850e-06;0.000891868498267105
8.05875e-06;0.000913333554443656
8.05900e-06;0.0009347986106203526
8.05925e-06;0.0009562636667970491
8.05950e-06;0.0009777287229736
8.05975e-06;0.0009991937791502966
8.06000e-06;0.0010189558505036517
8.06025e-06;0.0010386415816400249
8.06050e-06;0.0010583273127762645
8.06075e-06;0.0010780130439126377
8.06100e-06;0.0010976987750490107
8.06125e-06;0.0011173845061852503
8.06150e-06;0.0011370702373216235
8.06175e-06;0.0011533083434110197
8.06200e-06;0.001169391901767034
8.06225e-06;0.0011854754601231573
8.06250e-06;0.0012015590184792807
8.06275e-06;0.001217642576835295
8.06300e-06;0.0012337261351914183
8.06325e-06;0.0012498096935475416
8.06350e-06;0.0012619608781187345
8.06375e-06;0.001273935784978033
8.06400e-06;0.0012859106918373315
8.06425e-06;0.0012975048001055566
8.06450e-06;0.001309081838199958
8.06475e-06;0.0013206588762943593
8.06500e-06;0.0013327253852392286
8.06525e-06;0.0013448138358424157
8.06550e-06;0.0013569022864456028
8.06575e-06;0.0013690738939827977
8.06600e-06;0.0013812492292211748
8.06625e-06;0.0013934245644595521
8.06650e-06;0.0014073576122148042
8.06675e-06;0.0014213694534821514
8.06700e-06;0.0014353812947494988
8.06725e-06;0.001449393136016751
8.06750e-06;0.0014634049772840984
8.06775e-06;0.001478969331398521
8.06800e-06;0.0014946032804770346
8.06825e-06;0.001510237229555654
8.06850e-06;0.0015258711786342734
8.06875e-06;0.0015415051277128929
8.06900e-06;0.0015583256397041373
8.06925e-06;0.0015751993421110205
8.06950e-06;0.0015920730445179037
8.06975e-06;0.0016090385575280946
8.07000e-06;0.0016260081861601632
8.07025e-06;0.0016431061713640064
8.07050e-06;0.0016602099104467039
8.07075e-06;0.0016773450701486493
8.07100e-06;0.001694367432201117
8.07125e-06;0.001711166624516573
8.07150e-06;0.001727634148015305
8.07175e-06;0.0017436733142045873
8.07200e-06;0.001759250471004844
8.07225e-06;0.0017743807850783505
8.07250e-06;0.0017890249956305727
8.07275e-06;0.001803084373616283
8.07300e-06;0.0018164512867294793
8.07325e-06;0.001829017817966729
8.07350e-06;0.0018406763845865255
8.07375e-06;0.001851295351974458
8.07400e-06;0.0018606246807346756
8.07425e-06;0.0018683549216376443
8.07450e-06;0.001874335646536735
8.07475e-06;0.001878558929237217
8.07500e-06;0.0018810365004113569
8.07525e-06;0.001881780477242083
8.07550e-06;0.0018808031897640887
8.07575e-06;0.001877238704844418
8.07600e-06;0.001873561552281519
8.07625e-06;0.0018662601650065857
8.07650e-06;0.0018587963130629987
8.07675e-06;0.0018458101325561941
8.07700e-06;0.0018325764009519093
8.07725e-06;0.0018193426693476247
8.07750e-06;0.0018061089377434296
8.07775e-06;0.0017897507058395612
8.07800e-06;0.0017696814287186
8.07825e-06;0.001749612151597775
8.07850e-06;0.0017295428744768138
8.07875e-06;0.0017094735973558527
8.07900e-06;0.0016841886752821903
8.07925e-06;0.0016586699499100167
8.07950e-06;0.0016331512245378432
8.07975e-06;0.0016076324991658427
8.08000e-06;0.001582113773793669
8.08025e-06;0.0015554738123526408
8.08050e-06;0.0015275021314840745
8.08075e-06;0.001499530450615319
8.08100e-06;0.0014715587697465631
8.08125e-06;0.001443587088877997
8.08150e-06;0.0014156154080092413
8.08175e-06;0.0013883113494575292
8.08200e-06;0.0013610372186141342
8.08225e-06;0.0013350301632341797
8.08250e-06;0.0013090799074304158
8.08275e-06;0.001285654740342397
8.08300e-06;0.0012623427661720896
8.08325e-06;0.0012390307920017822
8.08350e-06;0.0012184360700027094
8.08375e-06;0.0011994207598407193
8.08400e-06;0.0011801988681088228
8.08425e-06;0.0011609647868443679
8.08450e-06;0.0011378775014626622
8.08475e-06;0.001114617487330997
8.08500e-06;0.0010878579181785475
8.08525e-06;0.001060941473411281
8.08550e-06;0.0010307858450774488
8.08575e-06;0.001000485012879137
8.08600e-06;0.0009701841806810303
8.08625e-06;0.0009344342851776803
8.08650e-06;0.0008984401228603149
8.08675e-06;0.0008571467115672823
8.08700e-06;0.0008156157492323365
8.08725e-06;0.0007700019727063498
8.08750e-06;0.0007242051746301796
8.08775e-06;0.000675220687890773
8.08800e-06;0.0006260933056644847
8.08825e-06;0.0005729307415690963
8.08850e-06;0.0005195872911513542
8.08875e-06;0.0004625064583669238
8.08900e-06;0.0004052580888095287
8.08925e-06;0.0003456333399441059
8.08950e-06;0.000285902064402398
8.08975e-06;0.00022495401285056396
8.09000e-06;0.00016395141651088743
8.09025e-06;0.0001020645094085482
8.09050e-06;3.960888015347831e-05
8.09075e-06;-2.305840512787412e-05
8.09100e-06;-8.55561207321532e-05
8.09125e-06;-0.00014750199927612622
8.09150e-06;-0.0002085138322098225
8.09175e-06;-0.0002682389817304122
8.09200e-06;-0.0003264847288466886
8.09225e-06;-0.0003831774137639322
8.09250e-06;-0.00043809863183631655
8.09275e-06;-0.0004908755211726249
8.09300e-06;-0.0005411130537496527
8.09325e-06;-0.0005884156162049433
8.09350e-06;-0.0006323875723156426
8.09375e-06;-0.0006714683818701282
8.09400e-06;-0.0007103363728221133
8.09425e-06;-0.0007463618562392017
8.09450e-06;-0.0007822599177081557
8.09475e-06;-0.0008160203928611681
8.09500e-06;-0.0008496850457836692
8.09525e-06;-0.0008833496987059422
8.09550e-06;-0.0009126939236481074
8.09575e-06;-0.0009418444754540011
8.09600e-06;-0.0009709950272596971
8.09625e-06;-0.0009967661247386244
8.09650e-06;-0.001022385730392789
8.09675e-06;-0.0010480053360467797
8.09700e-06;-0.001073624941700944
8.09725e-06;-0.0010992445473551084
8.09750e-06;-0.001124864153009099
8.09775e-06;-0.0011504837586632636
8.09800e-06;-0.001176103364317428
8.09825e-06;-0.0012017229699714186
8.09850e-06;-0.0012255767730911234
8.09875e-06;-0.001247333289468516
8.09900e-06;-0.0012690898058457612
8.09925e-06;-0.0012908463222231535
8.09950e-06;-0.0013126028386005462
8.09975e-06;-0.0013343593549777913
8.10000e-06;-0.001356115871355184
8.10025e-06;-0.0013778723877325766
8.10050e-06;-0.0013996289041098217
8.10075e-06;-0.0014213854204872143
8.10100e-06;-0.0014401969276233335
8.10125e-06;-0.001458876417936141
8.10150e-06;-0.0014775559082490749
8.10175e-06;-0.0014962353985620088
8.10200e-06;-0.001514914888874816
8.10225e-06;-0.0015303967406625303
8.10250e-06;-0.0015457352509374175
8.10275e-06;-0.0015610737612123044
8.10300e-06;-0.0015764122714870877
8.10325e-06;-0.0015917507817619747
8.10350e-06;-0.0016040931577304062
8.10375e-06;-0.0016163012250766879
8.10400e-06;-0.0016226657815002514
8.10425e-06;-0.0016287683890857687
8.10450e-06;-0.0016348709966712445
8.10475e-06;-0.0016305108352102464
8.10500e-06;-0.0016256816560251033
8.10525e-06;-0.001620852476839993
8.10550e-06;-0.0016060942334509096
8.10575e-06;-0.0015908908968866723
8.10600e-06;-0.0015756875603225378
8.10625e-06;-0.0015509514827537873
8.10650e-06;-0.0015257880781102517
8.10675e-06;-0.0014927144768922482
8.10700e-06;-0.0014592862828909311
8.10725e-06;-0.001418944884158651
8.10750e-06;-0.0013782935850995353
8.10775e-06;-0.0013315474658746904
8.10800e-06;-0.0012845281322960442
8.10825e-06;-0.0012313241735203446
8.10850e-06;-0.0011778429746730507
8.10875e-06;-0.0011188933624713723
8.10900e-06;-0.0010596986160445355
8.10925e-06;-0.0009963933395439764
8.10950e-06;-0.0009329037990638992
8.10975e-06;-0.0008665492440813899
8.11000e-06;-0.0008000662582235157
8.11025e-06;-0.0007318400408178347
8.11050e-06;-0.0006626455395882832
8.11075e-06;-0.0005929040604959613
8.11100e-06;-0.0005230304912312995
8.11125e-06;-0.00045344023700976516
8.11150e-06;-0.00038454855752813994
8.11175e-06;-0.0003167539931431618
8.11200e-06;-0.00025036678624588857
8.11225e-06;-0.00018563917386151267
8.11250e-06;-0.00012291658155043743
8.11275e-06;-6.263704268463271e-05
8.11300e-06;-5.251561005545859e-06
8.11325e-06;4.8788522866777254e-05
8.11350e-06;9.903191638522844e-05
8.11375e-06;0.00014513149901125653
8.11400e-06;0.00018733335369958414
8.11425e-06;0.0002264020465535964
8.11450e-06;0.0002627062574122317
8.11475e-06;0.00029611768551205043
8.11500e-06;0.0003264338896846481
8.11525e-06;0.0003534500384197597
8.11550e-06;0.0003769614382348128
8.11575e-06;0.0003968286108167401
8.11600e-06;0.0004132837197299001
8.11625e-06;0.0004268836188275369
8.11650e-06;0.00043793719323475725
8.11675e-06;0.00044644195511730984
8.11700e-06;0.0004523489763169317
8.11725e-06;0.0004556079325645826
8.11750e-06;0.00045616850333745447
8.11775e-06;0.000454021231630642
8.11800e-06;0.00044841370100468604
8.11825e-06;0.00044265626484843267
8.11850e-06;0.00043340712882685876
8.11875e-06;0.0004240014693151415
8.11900e-06;0.00041141654732687285
8.11925e-06;0.00039868910757409295
8.11950e-06;0.0003829725585861814
8.11975e-06;0.0003671220158909199
8.12000e-06;0.0003488991607418484
8.12025e-06;0.00033056996122190867
8.12050e-06;0.0003106532451344625
8.12075e-06;0.0002906653649599065
8.12100e-06;0.000270677484785215
8.12125e-06;0.0002497091587312713
8.12150e-06;0.00022869688193230612
8.12175e-06;0.0002076846051331985
8.12200e-06;0.00018681811062890466
8.12225e-06;0.00016595815115195295
8.12250e-06;0.00014589623501052405
8.12275e-06;0.00012662198730139067
8.12300e-06;0.00010827172371678959
8.12325e-06;9.09899833396465e-05
8.12350e-06;7.492134485083576e-05
8.12375e-06;6.0105583769246384e-05
8.12400e-06;4.601111302719542e-05
8.12425e-06;3.167146223755693e-05
8.12450e-06;1.6618666247657957e-05
8.12475e-06;9.273288749400168e-07
8.12500e-06;-1.5249714803170013e-05
8.12525e-06;-3.175718823546803e-05
8.12550e-06;-4.843981983671891e-05
8.12575e-06;-6.520798147393285e-05
8.12600e-06;-8.232995264027254e-05
8.12625e-06;-0.00010034635259247883
8.12650e-06;-0.00011948553503546402
8.12675e-06;-0.00013963595032592916
8.12700e-06;-0.0001606370891969919
8.12725e-06;-0.0001823268667015906
8.12750e-06;-0.00020473498606388173
8.12775e-06;-0.00022717399569027773
8.12800e-06;-0.00025067694703434496
8.12825e-06;-0.00027422759201695113
8.12850e-06;-0.0002996219421047227
8.12875e-06;-0.00032509894052142963
8.12900e-06;-0.00035057593893813655
8.12925e-06;-0.00037728849625315596
8.12950e-06;-0.0004040564403423964
8.12975e-06;-0.0004308243844316369
8.13000e-06;-0.00045759232852069604
8.13025e-06;-0.0004845028272116905
8.13050e-06;-0.0005115826414805875
8.13075e-06;-0.000538662455749301
8.13100e-06;-0.000565742270018198
8.13125e-06;-0.0005928220842870949
8.13150e-06;-0.000617715236515012
8.13175e-06;-0.0006425103665795536
8.13200e-06;-0.0006673054966440953
8.13225e-06;-0.0006921006267084689
8.13250e-06;-0.0007168957567730105
8.13275e-06;-0.0007390070662933823
8.13300e-06;-0.0007579307366853989
8.13325e-06;-0.0007768544070775437
8.13350e-06;-0.0007957780774696885
8.13375e-06;-0.000814701747861705
8.13400e-06;-0.0008336254182538499
8.13425e-06;-0.000845276932211216
8.13450e-06;-0.0008566024550027336
8.13475e-06;-0.0008679279777943278
8.13500e-06;-0.000873240518878345
8.13525e-06;-0.0008782835142045432
8.13550e-06;-0.0008833265095307756
8.13575e-06;-0.0008821553531926139
8.13600e-06;-0.0008807056331899063
8.13625e-06;-0.000879255913187189
8.13650e-06;-0.0008716233135783095
8.13675e-06;-0.0008637135521469751
8.13700e-06;-0.0008558037907156942
8.13725e-06;-0.0008422677143209805
8.13750e-06;-0.0008284794253961374
8.13775e-06;-0.0008146911364713878
8.13800e-06;-0.0007958943414350677
8.13825e-06;-0.0007768730285736748
8.13850e-06;-0.0007578517157124108
8.13875e-06;-0.0007347095106594997
8.13900e-06;-0.0007113825771203376
8.13925e-06;-0.0006880556435813335
8.13950e-06;-0.0006617241597644825
8.13975e-06;-0.0006352579900594889
8.14000e-06;-0.0006087918203546747
8.14025e-06;-0.0005804721683837642
8.14050e-06;-0.0005520694298001797
8.14075e-06;-0.0005236666912167875
8.14100e-06;-0.0004947792078748819
8.14125e-06;-0.0004658699947324123
8.14150e-06;-0.0004369607815901387
8.14175e-06;-0.00040900511552842346
8.14200e-06;-0.0003810921944114257
8.14225e-06;-0.000353179273294617
8.14250e-06;-0.00032715763853650103
8.14275e-06;-0.0003012207850466625
8.14300e-06;-0.0002769556728393409
8.14325e-06;-0.0002541229378844164
8.14350e-06;-0.00023289063567863517
8.14375e-06;-0.0002134024605612507
8.14400e-06;-0.00019553725950621328
