Time(s);Current(A)
6.30000e-06;0.0003406839766454771
6.30025e-06;0.0003791936561723152
6.30050e-06;0.0004151367476572777
6.30075e-06;0.0004482415871992888
6.30100e-06;0.00047848094748889023
6.30125e-06;0.0005061617597643389
6.30150e-06;0.0005315732792721389
6.30175e-06;0.0005544318263010424
6.30200e-06;0.000574517311021809
6.30225e-06;0.0005933905728622864
6.30250e-06;0.0006082391143306683
6.30275e-06;0.0006218433117744907
6.30300e-06;0.0006313161429268702
6.30325e-06;0.000639746289939608
6.30350e-06;0.0006447146048368938
6.30375e-06;0.0006487044509357079
6.30400e-06;0.00064944566728978
6.30425e-06;0.0006491996098253526
6.30450e-06;0.0006456756889298208
6.30475e-06;0.0006412096645748686
6.30500e-06;0.0006336157476129196
6.30525e-06;0.000625271342482148
6.30550e-06;0.0006144352297035142
6.30575e-06;0.0006028052908111699
6.30600e-06;0.0005885397572744974
6.30625e-06;0.0005742742237378248
6.30650e-06;0.0005591981298335835
6.30675e-06;0.0005414308816240176
6.30700e-06;0.0005236636334143915
6.30725e-06;0.0005054241971985928
6.30750e-06;0.00048561704210976086
6.30775e-06;0.0004658098870208618
6.30800e-06;0.00044581687437450225
6.30825e-06;0.0004252067931097531
6.30850e-06;0.0004045967118449341
6.30875e-06;0.0003840751254104532
6.30900e-06;0.00036384735206258366
6.30925e-06;0.0003436195787146456
6.30950e-06;0.0003237466470004513
6.30975e-06;0.00030505183061039885
6.31000e-06;0.0002868014184697549
6.31025e-06;0.00027002647991152657
6.31050e-06;0.00025380517635627275
6.31075e-06;0.00023942200513684528
6.31100e-06;0.0002254167845182305
6.31125e-06;0.00021266640367104987
6.31150e-06;0.0002000959968944632
6.31175e-06;0.00018812312487797743
6.31200e-06;0.00017639626626646517
6.31225e-06;0.00016548620065464078
6.31250e-06;0.00015489462312688767
6.31275e-06;0.0001453604629277459
6.31300e-06;0.00013603879709985094
6.31325e-06;0.00012742263719696539
6.31350e-06;0.00011889903442507835
6.31375e-06;0.00011068273204883786
6.31400e-06;0.00010260444347744483
6.31425e-06;9.498437672383039e-05
6.31450e-06;8.750368124374999e-05
6.31475e-06;8.061339827247949e-05
6.31500e-06;7.414704009998314e-05
6.31525e-06;6.774041307480036e-05
6.31550e-06;6.155542323809641e-05
6.31575e-06;5.55028808503995e-05
6.31600e-06;4.9632987493241795e-05
6.31625e-06;4.383812459513983e-05
6.31650e-06;3.8355733803460644e-05
6.31675e-06;3.3147178187625224e-05
6.31700e-06;2.8192951339099054e-05
6.31725e-06;2.3406484475307974e-05
6.31750e-06;1.8717063943554828e-05
6.31775e-06;1.4125090116427962e-05
6.31800e-06;9.66208998787086e-06
6.31825e-06;5.359576526178962e-06
6.31850e-06;1.2490510530481325e-06
6.31875e-06;-2.6441950933611693e-06
6.31900e-06;-6.32796172669359e-06
6.31925e-06;-9.852054179834637e-06
6.31950e-06;-1.3256344492858903e-05
6.31975e-06;-1.653615100974019e-05
6.32000e-06;-1.966730216550786e-05
6.32025e-06;-2.262563479120239e-05
6.32050e-06;-2.5386996497013145e-05
6.32075e-06;-2.7977229605304807e-05
6.32100e-06;-3.0683968862799976e-05
6.32125e-06;-3.410513273750972e-05
6.32150e-06;-3.870877258107677e-05
6.32175e-06;-4.456953950182017e-05
6.32200e-06;-5.159705603436414e-05
6.32225e-06;-5.9700948351235135e-05
6.32250e-06;-6.879085047352201e-05
6.32275e-06;-7.880772339746832e-05
6.32300e-06;-8.985651170291995e-05
6.32325e-06;-0.00010223649000982331
6.32350e-06;-0.00011616556238923762
6.32375e-06;-0.00013161520111756219
6.32400e-06;-0.00014845350649020963
6.32425e-06;-0.0001665485609488284
6.32450e-06;-0.0001857684973278028
6.32475e-06;-0.00020612744741774973
6.32500e-06;-0.0002276562929542723
6.32525e-06;-0.00024971739083625333
6.32550e-06;-0.00027354562815383655
6.32575e-06;-0.00029790011194430135
6.32600e-06;-0.0003240017949779316
6.32625e-06;-0.0003501034780116503
6.32650e-06;-0.00037665342616482014
6.32675e-06;-0.00040469166643550925
6.32700e-06;-0.0004327299067062934
6.32725e-06;-0.0004607681469769825
6.32750e-06;-0.0004888063872476717
6.32775e-06;-0.0005168785123614414
6.32800e-06;-0.0005450631390785619
6.32825e-06;-0.0005732477657957777
6.32850e-06;-0.0006014323925128981
6.32875e-06;-0.0006296170192300185
6.32900e-06;-0.0006572647413803543
6.32925e-06;-0.000683129878181309
6.32950e-06;-0.0007089950149822637
6.32975e-06;-0.0007341046851061868
6.33000e-06;-0.0007567061183597234
6.33025e-06;-0.0007793075516132601
6.33050e-06;-0.0008009815115282241
6.33075e-06;-0.0008195761525338444
6.33100e-06;-0.0008370182521216822
6.33125e-06;-0.0008506337807089803
6.33150e-06;-0.000862831660649265
6.33175e-06;-0.0008703227828820151
6.33200e-06;-0.0008764026699177459
6.33225e-06;-0.000877797092642589
6.33250e-06;-0.0008777941512769193
6.33275e-06;-0.0008731517992807657
6.33300e-06;-0.0008670053315892586
6.33325e-06;-0.0008558650255746532
6.33350e-06;-0.0008431851816800427
6.33375e-06;-0.0008253938937065196
6.33400e-06;-0.0008061977503016875
6.33425e-06;-0.0007823373241476998
6.33450e-06;-0.0007572113599414915
6.33475e-06;-0.0007278836628207852
6.33500e-06;-0.0006973541983592493
6.33525e-06;-0.0006628347271311266
6.33550e-06;-0.000627221924371075
6.33575e-06;-0.000587979134290468
6.33600e-06;-0.0005478579878822851
6.33625e-06;-0.0005048205967308377
6.33650e-06;-0.00046112271455075175
6.33675e-06;-0.0004152319256536556
6.33700e-06;-0.00036885114446521953
6.33725e-06;-0.00032084353211575404
6.33750e-06;-0.00027254439579260247
6.33775e-06;-0.00022327736611182513
6.33800e-06;-0.0001739568949446568
6.33825e-06;-0.0001245131642837106
6.33850e-06;-7.537080602400656e-05
6.33875e-06;-2.6815862914788324e-05
6.33900e-06;2.0890166971118174e-05
6.33925e-06;6.751020910567072e-05
6.33950e-06;0.00011278426662972662
6.33975e-06;0.00015640692435883263
6.34000e-06;0.00019805510350006343
6.34025e-06;0.0002374057638640691
6.34050e-06;0.0002741358955103616
6.34075e-06;0.00030798316458663513
6.34100e-06;0.00033901243799989387
6.34125e-06;0.0003677208459798046
6.34150e-06;0.00039454628195879487
6.34175e-06;0.0004195171026423399
6.34200e-06;0.0004422124473294811
6.34225e-06;0.0004623914135536747
6.34250e-06;0.0004814583737887724
6.34275e-06;0.0004968333453424557
6.34300e-06;0.0005112469057179679
6.34325e-06;0.0005224684696272088
6.34350e-06;0.000532931771079957
6.34375e-06;0.0005408775533521021
6.34400e-06;0.0005480346294910216
6.34425e-06;0.0005525731099162751
6.34450e-06;0.0005562870241304849
6.34475e-06;0.0005572632830193289
6.34500e-06;0.0005575520564528722
6.34525e-06;0.0005555582985474268
6.34550e-06;0.0005529230407006784
6.34575e-06;0.0005481579287476583
6.34600e-06;0.000543392816794622
6.34625e-06;0.0005379014984068007
6.34650e-06;0.0005299990905433128
6.34675e-06;0.0005220966826797982
6.34700e-06;0.0005135896836506475
6.34725e-06;0.0005030753719253738
6.34750e-06;0.0004925610602000645
6.34775e-06;0.00048204674847479074
6.34800e-06;0.000471532436749517
6.34825e-06;0.00046077305578393627
6.34850e-06;0.0004492000165558397
6.34875e-06;0.0004376269773277431
6.34900e-06;0.00042605393809960724
6.34925e-06;0.00041448089887151065
6.34950e-06;0.0004031551003843878
6.34975e-06;0.000392650169793798
6.35000e-06;0.00038214523920320815
6.35025e-06;0.00037207438644450656
6.35050e-06;0.0003634447223642891
6.35075e-06;0.0003548150582840716
6.35100e-06;0.000346634295279135
6.35125e-06;0.0003399439358375715
6.35150e-06;0.000333253576396008
6.35175e-06;0.00032696773363261576
6.35200e-06;0.00032202493309338047
6.35225e-06;0.0003170821325541452
6.35250e-06;0.00031259491825845503
6.35275e-06;0.00030962030305896365
6.35300e-06;0.00030664568785947226
6.35325e-06;0.00030405845985771805
6.35350e-06;0.0003027574022209802
6.35375e-06;0.00030145634458423796
6.35400e-06;0.0003005133375520814
6.35425e-06;0.0003007590999977349
6.35450e-06;0.0003010048624433892
6.35475e-06;0.0003015881955694307
6.35500e-06;0.00030329230245288704
6.35525e-06;0.00030499640933634914
6.35550e-06;0.0003070898862874236
6.35575e-06;0.00031047611696106455
6.35600e-06;0.00031386234763471695
6.35625e-06;0.0003172485783083579
6.35650e-06;0.0003206348089819989
6.35675e-06;0.00032402103965565134
6.35700e-06;0.0003274072703292923
6.35725e-06;0.00033107325214796525
6.35750e-06;0.00033566804016978797
6.35775e-06;0.0003402628281915951
6.35800e-06;0.00034485761621341787
6.35825e-06;0.000349452404235225
6.35850e-06;0.00035404719225703215
6.35875e-06;0.00035864198027885487
6.35900e-06;0.00036317913001775024
6.35925e-06;0.00036752491398154804
6.35950e-06;0.00037187069794536063
6.35975e-06;0.0003762164819091585
6.36000e-06;0.00038056226587295633
6.36025e-06;0.00038427632326071395
6.36050e-06;0.0003877584736920238
6.36075e-06;0.0003912406241233336
6.36100e-06;0.00039472277455465513
6.36125e-06;0.0003984279196226214
6.36150e-06;0.00040287343271211927
6.36175e-06;0.0004073189458016322
6.36200e-06;0.0004120878800099016
6.36225e-06;0.0004179306097919861
6.36250e-06;0.0004237733395740509
6.36275e-06;0.0004299310514885815
6.36300e-06;0.00043713454056495206
6.36325e-06;0.0004443380296412982
6.36350e-06;0.0004520190153363545
6.36375e-06;0.0004612853451103981
6.36400e-06;0.0004705516748844102
6.36425e-06;0.0004803891122883042
6.36450e-06;0.0004921226931705066
6.36475e-06;0.0005038562740526692
6.36500e-06;0.0005155898549348318
6.36525e-06;0.0005273234358170343
6.36550e-06;0.0005390570166991968
6.36575e-06;0.0005507905975813595
6.36600e-06;0.0005643012439375294
6.36625e-06;0.0005784642513957677
6.36650e-06;0.0005926272588540542
6.36675e-06;0.0006067902663122925
6.36700e-06;0.0006209532737705309
6.36725e-06;0.0006351162812288173
6.36750e-06;0.0006494216068863834
6.36775e-06;0.000664199445449309
6.36800e-06;0.0006789772840122848
6.36825e-06;0.0006936435743564694
6.36850e-06;0.0007079395116946924
6.36875e-06;0.0007222354490329639
6.36900e-06;0.0007362839520588629
6.36925e-06;0.0007495109445095174
6.36950e-06;0.0007627379369602166
6.36975e-06;0.0007757344359481268
6.37000e-06;0.0007878146305025243
6.37025e-06;0.0007992203955750388
6.37050e-06;0.0008098570138276535
6.37075e-06;0.0008195915523823699
6.37100e-06;0.0008280948229105647
6.37125e-06;0.0008345585577938045
6.37150e-06;0.0008384906599115053
6.37175e-06;0.0008413925073157547
6.37200e-06;0.0008408737897455243
6.37225e-06;0.0008393721705497482
6.37250e-06;0.0008346072041158804
6.37275e-06;0.0008288370978229804
6.37300e-06;0.0008197298107811066
6.37325e-06;0.0008094628615047169
6.37350e-06;0.0007953456992957127
6.37375e-06;0.0007801240022270254
6.37400e-06;0.0007612351214954875
6.37425e-06;0.0007413737138368236
6.37450e-06;0.0007182834041404733
6.37475e-06;0.0006943089882424608
6.37500e-06;0.0006673992373561081
6.37525e-06;0.0006396109314054442
6.37550e-06;0.0006089057208854896
6.37575e-06;0.0005774588204787127
6.37600e-06;0.0005435494237446241
6.37625e-06;0.0005089796033493813
6.37650e-06;0.0004722170999078336
6.37675e-06;0.00043545459646641044
6.37700e-06;0.0003981721320018934
6.37725e-06;0.0003591633367180264
6.37750e-06;0.0003201545414342916
6.37775e-06;0.0002809911586524773
6.37800e-06;0.00024131452747239425
6.37825e-06;0.0002016378962924456
6.37850e-06;0.00016211053052501138
6.37875e-06;0.00012323836367699785
6.37900e-06;8.509370988740494e-05
6.37925e-06;4.784280117859578e-05
6.37950e-06;1.167297343086056e-05
6.37975e-06;-2.317816304384679e-05
6.38000e-06;-5.6452689291416155e-05
6.38025e-06;-8.789271936878567e-05
6.38050e-06;-0.0001172404094729487
6.38075e-06;-0.0001442792219906687
6.38100e-06;-0.0001694966215156592
6.38125e-06;-0.00019477121493425436
6.38150e-06;-0.00022050443034103419
6.38175e-06;-0.0002471298659075638
6.38200e-06;-0.0002739182549763141
6.38225e-06;-0.000301247668545939
6.38250e-06;-0.00032859185034152054
6.38275e-06;-0.00035598506435805243
6.38300e-06;-0.0003833782783746771
6.38325e-06;-0.00041135458637371944
6.38350e-06;-0.00044126683392915116
6.38375e-06;-0.00047182588330141497
6.38400e-06;-0.0005045323896188964
6.38425e-06;-0.0005372388959364886
6.38450e-06;-0.0005706358984546725
6.38475e-06;-0.0006063254283328555
6.38500e-06;-0.0006420149582111595
6.38525e-06;-0.0006777044880893425
6.38550e-06;-0.0007133940179675255
6.38575e-06;-0.0007490835478458295
6.38600e-06;-0.0007872032832947992
6.38625e-06;-0.0008262151477097337
6.38650e-06;-0.0008652270121248005
6.38675e-06;-0.0009042388765397351
6.38700e-06;-0.0009432507409546697
6.38725e-06;-0.0009822655822263467
6.38750e-06;-0.0010212903070066183
6.38775e-06;-0.0010603150317870218
6.38800e-06;-0.0010993397565672934
6.38825e-06;-0.0011383644813475647
6.38850e-06;-0.0011773892061279685
6.38875e-06;-0.0012152099898196322
6.38900e-06;-0.0012490335496564272
6.38925e-06;-0.0012828571094933366
6.38950e-06;-0.0013166806693301317
6.38975e-06;-0.0013505042291669265
6.39000e-06;-0.001384327789003836
6.39025e-06;-0.001416356710148407
6.39050e-06;-0.001442427222979618
6.39075e-06;-0.0014684977358109174
6.39100e-06;-0.001492832880467389
6.39125e-06;-0.0015114064017933747
6.39150e-06;-0.0015299799231194232
6.39175e-06;-0.0015466855675680096
6.39200e-06;-0.0015571896444462748
6.39225e-06;-0.0015676937213245047
6.39250e-06;-0.0015762365490392515
6.39275e-06;-0.0015782678023796022
6.39300e-06;-0.0015802990557199457
6.39325e-06;-0.0015804069926686893
6.39350e-06;-0.0015741292964391506
6.39375e-06;-0.0015678516002096332
6.39400e-06;-0.0015603700886453054
6.39425e-06;-0.0015477683930060287
6.39450e-06;-0.0015314369531682153
6.39475e-06;-0.001515105513330402
6.39500e-06;-0.0014972578944012856
6.39525e-06;-0.0014743763852859868
6.39550e-06;-0.0014514948761706883
6.39575e-06;-0.0014274001830533625
6.39600e-06;-0.0013992775785392007
6.39625e-06;-0.0013711549740249437
6.39650e-06;-0.0013421375046116096
6.39675e-06;-0.001310148980090219
6.39700e-06;-0.00127816045556872
6.39725e-06;-0.0012456959973698688
6.39750e-06;-0.0012116513842394781
6.39775e-06;-0.001177440681618301
6.39800e-06;-0.00114267854265183
6.39825e-06;-0.0011079347008808107
6.39850e-06;-0.0010732516079177427
6.39875e-06;-0.001038774648086764
6.39900e-06;-0.0010049820741281287
6.39925e-06;-0.0009716004527539789
6.39950e-06;-0.0009395832415570348
6.39975e-06;-0.0009083899678024726
6.40000e-06;-0.0008799322617843357
6.40025e-06;-0.000851474555766295
6.40050e-06;-0.0008243131885302532
6.40075e-06;-0.0008014558161916801
6.40100e-06;-0.0007785984438531069
6.40125e-06;-0.000756537219586019
6.40150e-06;-0.0007371192991257154
6.40175e-06;-0.0007177013786654118
6.40200e-06;-0.0006990421405906888
6.40225e-06;-0.000682901815906208
6.40250e-06;-0.0006667614912217271
6.40275e-06;-0.0006514437229321125
6.40300e-06;-0.0006388569371412916
6.40325e-06;-0.0006262701513504707
6.40350e-06;-0.0006141529756114066
6.40375e-06;-0.0006035949596340638
6.40400e-06;-0.0005930369436567208
6.40425e-06;-0.0005830381733293004
6.40450e-06;-0.0005748961633309391
6.40475e-06;-0.0005667541533325503
6.40500e-06;-0.0005590630519815173
6.40525e-06;-0.0005528690195632862
6.40550e-06;-0.000546674987145034
6.40575e-06;-0.0005410372361772192
6.40600e-06;-0.0005372464040525688
6.40625e-06;-0.0005334555719279055
6.40650e-06;-0.000529664739803255
6.40675e-06;-0.0005258739076786045
6.40700e-06;-0.0005220830755539412
6.40725e-06;-0.0005182922434292907
6.40750e-06;-0.0005145014113046402
6.40775e-06;-0.0005112437140493972
6.40800e-06;-0.0005097560863075165
6.40825e-06;-0.0005082684585656357
6.40850e-06;-0.0005067808308237499
6.40875e-06;-0.0005052932030818692
6.40900e-06;-0.0005038055753399835
6.40925e-06;-0.0005023179475981028
6.40950e-06;-0.0005008303198562221
6.40975e-06;-0.0004994871852405134
6.41000e-06;-0.0004986237845386658
6.41025e-06;-0.0004977603838368181
6.41050e-06;-0.0004968969831349676
6.41075e-06;-0.0004960335824331199
6.41100e-06;-0.0004940627182173261
6.41125e-06;-0.0004916853039175229
6.41150e-06;-0.0004893078896177278
6.41175e-06;-0.00048693047531793264
6.41200e-06;-0.0004838968748144875
6.41225e-06;-0.0004786846601167142
6.41250e-06;-0.00047347244541894094
6.41275e-06;-0.0004677359536434622
6.41300e-06;-0.0004602588012493314
6.41325e-06;-0.0004527816488551752
6.41350e-06;-0.00044462713194977913
6.41375e-06;-0.00043422368641599194
6.41400e-06;-0.00042382024088216945
6.41425e-06;-0.0004128690247435707
6.41450e-06;-0.0004000991467553465
6.41475e-06;-0.000387329268767079
6.41500e-06;-0.00037405227911131586
6.41525e-06;-0.0003590916199867378
6.41550e-06;-0.00034413096086210906
6.41575e-06;-0.00032872871010826226
6.41600e-06;-0.0003118603240010758
6.41625e-06;-0.0002949919378938322
6.41650e-06;-0.000277841198024333
6.41675e-06;-0.0002597530109623843
6.41700e-06;-0.00024166482390037433
6.41725e-06;-0.00022357663683842562
6.41750e-06;-0.00020537142536729557
6.41775e-06;-0.00018677767930446175
6.41800e-06;-0.00016818393324162794
6.41825e-06;-0.00014959018717873113
6.41850e-06;-0.0001311343151320873
6.41875e-06;-0.00011313620078742337
6.41900e-06;-9.52798981285319e-05
6.41925e-06;-7.800645490802255e-05
6.41950e-06;-6.123999784341682e-05
6.41975e-06;-4.508456906325318e-05
6.42000e-06;-2.9659578064114756e-05
6.42025e-06;-1.508440868273935e-05
6.42050e-06;-1.4784273073007824e-06
6.42075e-06;1.1126123554941204e-05
6.42100e-06;2.3155676834437066e-05
6.42125e-06;3.5592006469704066e-05
6.42150e-06;4.921647208613067e-05
6.42175e-06;6.414278889952058e-05
6.42200e-06;8.020120939116295e-05
6.42225e-06;9.722200844290528e-05
6.42250e-06;0.00011503549563219121
6.42275e-06;0.00013352655428040835
6.42300e-06;0.0001528673787325478
6.42325e-06;0.00017357799743635493
6.42350e-06;0.0001960528385526641
6.42375e-06;0.00022026811221211498
6.42400e-06;0.00024602245130199603
6.42425e-06;0.00027311454462686035
6.42450e-06;0.000301450519751915
6.42475e-06;0.0003308976880966466
6.42500e-06;0.00036088125866721836
6.42525e-06;0.00039264574675239143
6.42550e-06;0.0004251067846816329
6.42575e-06;0.0004598804487649647
6.42600e-06;0.0004946541128484144
6.42625e-06;0.0005298425156078304
6.42650e-06;0.0005664078988055701
6.42675e-06;0.0006031299534237861
6.42700e-06;0.0006403721753026276
6.42725e-06;0.0006777441684908194
6.42750e-06;0.0007156038088247104
6.42775e-06;0.0007536547651754344
6.42800e-06;0.0007916636248228562
6.42825e-06;0.0008293969615732053
6.42850e-06;0.0008666213314455708
6.42875e-06;0.0009031167996673029
6.42900e-06;0.0009387340849859462
6.42925e-06;0.0009734093433310252
6.42950e-06;0.0010070478111958501
6.42975e-06;0.0010394521779005068
6.43000e-06;0.0010703811683771673
6.43025e-06;0.0010995937403890704
6.43050e-06;0.0011268489767406239
6.43075e-06;0.0011518711540601132
6.43100e-06;0.001174211484216185
6.43125e-06;0.001193254775119938
6.43150e-06;0.0012085623305039257
6.43175e-06;0.001220027953770154
6.43200e-06;0.0012276733790102185
6.43225e-06;0.001231520581772717
6.43250e-06;0.0012315915020326817
6.43275e-06;0.0012278864853081351
6.43300e-06;0.001219809152659888
6.43325e-06;0.0012069909526117855
6.43350e-06;0.001192270464022551
6.43375e-06;0.0011712341571607629
6.43400e-06;0.001148456369583825
6.43425e-06;0.0011198966643413105
6.43450e-06;0.0010897615544007584
6.43475e-06;0.0010543959184059367
6.43500e-06;0.0010175398020305668
6.43525e-06;0.0009757351181700338
6.43550e-06;0.0009325807331977205
6.43575e-06;0.0008849451842168139
6.43600e-06;0.000836220770211453
6.43625e-06;0.000783881198217655
6.43650e-06;0.0007305558232744185
6.43675e-06;0.0006739574683671413
6.43700e-06;0.0006173591134600557
6.43725e-06;0.0005600254080102866
6.43750e-06;0.0005002502535933243
6.43775e-06;0.0004404750991765645
6.43800e-06;0.00038058173495151334
6.43825e-06;0.00032029590047216337
6.43850e-06;0.00026029558409462907
6.43875e-06;0.00020124322088174297
6.43900e-06;0.00014258973114078608
6.43925e-06;8.562083250469132e-05
6.43950e-06;3.029381945788591e-05
6.43975e-06;-2.3016381633078388e-05
6.44000e-06;-7.391515644470014e-05
6.44025e-06;-0.0001220079399009428
6.44050e-06;-0.00016690021563365198
6.44075e-06;-0.00020828406380707926
6.44100e-06;-0.00024631638272506887
6.44125e-06;-0.00028175827649656957
6.44150e-06;-0.00031526412657624416
6.44175e-06;-0.0003468885371403535
6.44200e-06;-0.000376419077173621
6.44225e-06;-0.00040364341860277736
6.44250e-06;-0.00042834927808854786
6.44275e-06;-0.0004501289001724508
6.44300e-06;-0.00046903549058488573
6.44325e-06;-0.00048714552983877824
6.44350e-06;-0.0005026109269936906
6.44375e-06;-0.000517338501193958
6.44400e-06;-0.0005296164177334184
