Time(s);Current(A)
8.00000e-06;0.00661860829477731
8.00025e-06;0.0067034666863640515
8.00050e-06;0.006788641224363533
8.00075e-06;0.006873650304632132
8.00100e-06;0.006958012188480862
8.00125e-06;0.0070412594235534235
8.00150e-06;0.007122992760655204
8.00175e-06;0.007202886526965429
8.00200e-06;0.007280568416089675
8.00225e-06;0.007355557217970623
8.00250e-06;0.00742732766667572
8.00275e-06;0.007495354606645818
8.00300e-06;0.007559113127237659
8.00325e-06;0.007618125091350105
8.00350e-06;0.007672169144537269
8.00375e-06;0.007720846785866523
8.00400e-06;0.007764232215174047
8.00425e-06;0.0078047484699279215
8.00450e-06;0.007836028801241532
8.00475e-06;0.00786730913255493
8.00500e-06;0.007894902451410111
8.00525e-06;0.007910627212200812
8.00550e-06;0.007926351972991408
8.00575e-06;0.00793865505554026
8.00600e-06;0.007939943695542672
8.00625e-06;0.007941232335545076
8.00650e-06;0.007939364557940913
8.00675e-06;0.007927336216448842
8.00700e-06;0.007915307874956852
8.00725e-06;0.007900386904867161
8.00750e-06;0.007876154512357382
8.00775e-06;0.007851922119847768
8.00800e-06;0.007825727166543478
8.00825e-06;0.007793214695463651
8.00850e-06;0.007759386204195986
8.00875e-06;0.007721321420757203
8.00900e-06;0.007682145412321242
8.00925e-06;0.007639392351041587
8.00950e-06;0.0075958231994138915
8.00975e-06;0.0075496270385758835
8.01000e-06;0.007502956830125476
8.01025e-06;0.0074547606540588075
8.01050e-06;0.0074063786667798335
8.01075e-06;0.007357398549935656
8.01100e-06;0.007308519754560532
8.01125e-06;0.007259967114778104
8.01150e-06;0.007211859715523803
8.01175e-06;0.00716518555337469
8.01200e-06;0.007119329744198912
8.01225e-06;0.007076108227664226
8.01250e-06;0.007035304424189503
8.01275e-06;0.0070022832816525596
8.01300e-06;0.006969262139115616
8.01325e-06;0.006936240996578896
8.01350e-06;0.006903219854041953
8.01375e-06;0.0068701987115050095
8.01400e-06;0.006848803151911939
8.01425e-06;0.00683155573515557
8.01450e-06;0.0068143083183992
8.01475e-06;0.006797060901642947
8.01500e-06;0.006779813484886577
8.01525e-06;0.006766273241867597
8.01550e-06;0.006764666456429326
8.01575e-06;0.006763059670991045
8.01600e-06;0.006761452885552763
8.01625e-06;0.006759846100114492
8.01650e-06;0.006758239314676211
8.01675e-06;0.006766401011637323
8.01700e-06;0.006778048216421182
8.01725e-06;0.006789695421204962
8.01750e-06;0.00680134262598882
8.01775e-06;0.006812989830772678
8.01800e-06;0.006826360142688658
8.01825e-06;0.006845277166824247
8.01850e-06;0.006864918231084801
8.01875e-06;0.00688688999326498
8.01900e-06;0.006909504341056196
8.01925e-06;0.00693418718325123
8.01950e-06;0.006959339713365548
8.01975e-06;0.00698600417716872
8.02000e-06;0.0070128883363787
8.02025e-06;0.007040580799698829
8.02050e-06;0.007068668573490735
8.02075e-06;0.007097019654865984
8.02100e-06;0.007125501551101438
8.02125e-06;0.00715397464364329
8.02150e-06;0.007182257863716012
8.02175e-06;0.007210114934971279
8.02200e-06;0.00723731257065438
8.02225e-06;0.007263664609310394
8.02250e-06;0.007289005986099509
8.02275e-06;0.0073131712567196935
8.02300e-06;0.007335995821992414
8.02325e-06;0.0073572640425421075
8.02350e-06;0.007376510190232796
8.02375e-06;0.007392607819844734
8.02400e-06;0.007404940626208352
8.02425e-06;0.0074153065488763315
8.02450e-06;0.007419341038269584
8.02475e-06;0.0074233755276628096
8.02500e-06;0.007425098349720549
8.02525e-06;0.007419379873891969
8.02550e-06;0.007413661398063387
8.02575e-06;0.007404559660798342
8.02600e-06;0.007384567145353559
8.02625e-06;0.007364574629908777
8.02650e-06;0.00734458211446413
8.02675e-06;0.0073245895990193466
8.02700e-06;0.007300962093106463
8.02725e-06;0.007265633488825754
8.02750e-06;0.007230304884544805
8.02775e-06;0.007194976280263857
8.02800e-06;0.007159647675983148
8.02825e-06;0.007121979362528254
8.02850e-06;0.0070767794840144406
8.02875e-06;0.007031579605500934
8.02900e-06;0.006985277515701674
8.02925e-06;0.006935427388352377
8.02950e-06;0.006885577261003418
8.02975e-06;0.006835131161805513
8.03000e-06;0.006782766618725183
8.03025e-06;0.006730234641366367
8.03050e-06;0.006677163690113191
8.03075e-06;0.006624246487014548
8.03100e-06;0.006571824201934947
8.03125e-06;0.0065198544419329246
8.03150e-06;0.00646934136813093
8.03175e-06;0.006419539972793287
8.03200e-06;0.006372029482971853
8.03225e-06;0.006325559469713728
8.03250e-06;0.006282438768848036
8.03275e-06;0.006240319362495902
8.03300e-06;0.006202208327024529
8.03325e-06;0.006167561215550482
8.03350e-06;0.0061378215890475355
8.03375e-06;0.006114176240200623
8.03400e-06;0.006093414027959747
8.03425e-06;0.006081932683259925
8.03450e-06;0.0060740341966666125
8.03475e-06;0.006077668993454924
8.03500e-06;0.006081303790243211
8.03525e-06;0.00608897068848952
8.03550e-06;0.006109616992381655
8.03575e-06;0.006130263296273651
8.03600e-06;0.006163045930997611
8.03625e-06;0.006200158949331624
8.03650e-06;0.006239838822353547
8.03675e-06;0.006289135158064331
8.03700e-06;0.006344069983963601
8.03725e-06;0.006404360466178685
8.03750e-06;0.006469843924183442
8.03775e-06;0.006540472565023937
8.03800e-06;0.006616079979003798
8.03825e-06;0.006696278520262799
8.03850e-06;0.006780597184495029
8.03875e-06;0.006868564367187801
8.03900e-06;0.006959708819119567
8.03925e-06;0.007053574632770839
8.03950e-06;0.007149781002506195
8.03975e-06;0.007248018867906049
8.04000e-06;0.007347905671659396
8.04025e-06;0.0074489200811345725
8.04050e-06;0.00755048780142033
8.04075e-06;0.007652035382727366
8.04100e-06;0.007752988664687753
8.04125e-06;0.007852783420412927
8.04150e-06;0.007950902961498607
8.04175e-06;0.008046874514503942
8.04200e-06;0.008140180686466932
8.04225e-06;0.008230215228371099
8.04250e-06;0.008316341605409535
8.04275e-06;0.008397921861619789
8.04300e-06;0.008474318041037654
8.04325e-06;0.008545089532782227
8.04350e-06;0.008610821700045658
8.04375e-06;0.008673365576985833
8.04400e-06;0.008734231785136997
8.04425e-06;0.008793572238114666
8.04450e-06;0.008850957596212744
8.04475e-06;0.008905958961211808
8.04500e-06;0.00895814819381795
8.04525e-06;0.009007219081096885
8.04550e-06;0.009053509118847702
8.04575e-06;0.00909814771127223
8.04600e-06;0.009142051963506382
8.04625e-06;0.009185287447842777
8.04650e-06;0.00922755520973468
8.04675e-06;0.00926834438045347
8.04700e-06;0.009307310916975382
8.04725e-06;0.009345647008803394
8.04750e-06;0.009381695638385937
8.04775e-06;0.00941681868165067
8.04800e-06;0.009451560681674838
8.04825e-06;0.009485843665860694
8.04850e-06;0.009519431348852914
8.04875e-06;0.009552418571536537
8.04900e-06;0.009583472901905372
8.04925e-06;0.00961452723227421
8.04950e-06;0.009644959046335779
8.04975e-06;0.009673386969433985
8.05000e-06;0.009701814892532192
8.05025e-06;0.009730242815630206
8.05050e-06;0.00975811477671938
8.05075e-06;0.009784197086303202
8.05100e-06;0.00981027939588685
8.05125e-06;0.009835684463061779
8.05150e-06;0.009858909474986683
8.05175e-06;0.009882134486911585
8.05200e-06;0.009904940048559083
8.05225e-06;0.009926395392371787
8.05250e-06;0.009947537610905161
8.05275e-06;0.009967421108529452
8.05300e-06;0.00998621505732565
8.05325e-06;0.010003760671868379
8.05350e-06;0.010019774136030231
8.05375e-06;0.010033579201640741
8.05400e-06;0.01004482725003566
8.05425e-06;0.010054732181925801
8.05450e-06;0.010060313598115484
8.05475e-06;0.010065895014305168
8.05500e-06;0.010069578639654136
8.05525e-06;0.01006715324283919
8.05550e-06;0.010064727846024244
8.05575e-06;0.010062302449209314
8.05600e-06;0.010057618897071161
8.05625e-06;0.010045666303148505
8.05650e-06;0.010033713709225931
8.05675e-06;0.010021761115303274
8.05700e-06;0.010008083407487201
8.05725e-06;0.009988852527644096
8.05750e-06;0.009969621647800861
8.05775e-06;0.009949080652671995
8.05800e-06;0.009924322373348586
8.05825e-06;0.009899564094025008
8.05850e-06;0.009873807757766086
8.05875e-06;0.00984483865864201
8.05900e-06;0.009815869559517737
8.05925e-06;0.009786250148745403
8.05950e-06;0.009754537373316528
8.05975e-06;0.009722824597887439
8.06000e-06;0.0096908035167551
8.06025e-06;0.00965778999413013
8.06050e-06;0.009624758370502284
8.06075e-06;0.009591668479426196
8.06100e-06;0.009558763902887962
8.06125e-06;0.009526455857113482
8.06150e-06;0.009494512921815974
8.06175e-06;0.00946374528357969
8.06200e-06;0.00943372254577
8.06225e-06;0.009406097655561756
8.06250e-06;0.009378472765353512
8.06275e-06;0.00935192300850643
8.06300e-06;0.00932883412489785
8.06325e-06;0.009306472261456476
8.06350e-06;0.009286719996354621
8.06375e-06;0.009267911345705803
8.06400e-06;0.009249349621132429
8.06425e-06;0.009230999332463269
8.06450e-06;0.009213329659695948
8.06475e-06;0.009195659986928626
8.06500e-06;0.009178430072881017
8.06525e-06;0.009162615749902759
8.06550e-06;0.009146922946463597
8.06575e-06;0.009131621316562767
8.06600e-06;0.009116319686661834
8.06625e-06;0.009100721255140519
8.06650e-06;0.00908501692135843
8.06675e-06;0.009069437616943971
8.06700e-06;0.009054260784268037
8.06725e-06;0.009039083951592208
8.06750e-06;0.009023907118916274
8.06775e-06;0.009008716754251567
8.06800e-06;0.00899352156121641
8.06825e-06;0.008978326368181147
8.06850e-06;0.00896317592309605
8.06875e-06;0.00894816952245127
8.06900e-06;0.008933163121806592
8.06925e-06;0.008918156721161813
8.06950e-06;0.008903150320517033
8.06975e-06;0.008888359277660407
8.07000e-06;0.008874261475319422
8.07025e-06;0.008860163672978438
8.07050e-06;0.008846065870637548
8.07075e-06;0.008831968068296565
8.07100e-06;0.008818284375280396
8.07125e-06;0.008805933707480259
8.07150e-06;0.008793583039680036
8.07175e-06;0.008781232371879813
8.07200e-06;0.008770328646299203
8.07225e-06;0.00875994120648627
8.07250e-06;0.008749553766673336
8.07275e-06;0.008739567954692181
8.07300e-06;0.00873110147306333
8.07325e-06;0.008723666243567501
8.07350e-06;0.008717669786679942
8.07375e-06;0.008713783939028193
8.07400e-06;0.008712822573927404
8.07425e-06;0.008714948317703957
8.07450e-06;0.0087185946561124
8.07475e-06;0.008727135815444218
8.07500e-06;0.008735676974775978
8.07525e-06;0.008745738287251783
8.07550e-06;0.00876069299949367
8.07575e-06;0.008777414362279258
8.07600e-06;0.008799822604306222
8.07625e-06;0.008822230846333188
8.07650e-06;0.008845964729301969
8.07675e-06;0.008874560116517266
8.07700e-06;0.008905621124242678
8.07725e-06;0.008938992089300912
8.07750e-06;0.008974615639952558
8.07775e-06;0.009012541129928007
8.07800e-06;0.009052747203668662
8.07825e-06;0.009095053268555269
8.07850e-06;0.00913921860187628
8.07875e-06;0.009185001059762015
8.07900e-06;0.009232158056854862
8.07925e-06;0.009280458831277328
8.07950e-06;0.009329736447287277
8.07975e-06;0.00937988710758083
8.08000e-06;0.009430764182273732
8.08025e-06;0.009482123189639976
8.08050e-06;0.00953367914497138
8.08075e-06;0.009585147505048694
8.08100e-06;0.009636244485577063
8.08125e-06;0.00968669233805153
8.08150e-06;0.009736253070757976
8.08175e-06;0.009784729167606743
8.08200e-06;0.009831896436214686
8.08225e-06;0.009877467484681395
8.08250e-06;0.009921132182589203
8.08275e-06;0.009962579958032614
8.08300e-06;0.010001499259437567
8.08325e-06;0.010037505786422554
8.08350e-06;0.010069850439395159
8.08375e-06;0.01009742076119979
8.08400e-06;0.010119412906051303
8.08425e-06;0.010135654098390793
8.08450e-06;0.010146218181792595
8.08475e-06;0.010150528432770718
8.08500e-06;0.010148516310348268
8.08525e-06;0.010143811442972458
8.08550e-06;0.01013043858212351
8.08575e-06;0.010113367598045916
8.08600e-06;0.01008439229010461
8.08625e-06;0.010055416982163107
8.08650e-06;0.010023027979559812
8.08675e-06;0.009979650233663527
8.08700e-06;0.00993387421522971
8.08725e-06;0.009880378115221222
8.08750e-06;0.00982458914790732
8.08775e-06;0.009761419400316301
8.08800e-06;0.009696148722275418
8.08825e-06;0.009624115112080986
8.08850e-06;0.009550406165752754
8.08875e-06;0.009471304282877789
8.08900e-06;0.009390958397529018
8.08925e-06;0.009306608046284807
8.08950e-06;0.009221333550535437
8.08975e-06;0.009133084217333196
8.09000e-06;0.009044285010975626
8.09025e-06;0.00895371575323942
8.09050e-06;0.008863117026187828
8.09075e-06;0.008772423436887911
8.09100e-06;0.008682224314013751
8.09125e-06;0.008593616887281573
8.09150e-06;0.008505957886887282
8.09175e-06;0.008421351887596339
8.09200e-06;0.008337751818440814
8.09225e-06;0.00825825141972044
8.09250e-06;0.00818253254698499
8.09275e-06;0.008111213377680523
8.09300e-06;0.008044911157929121
8.09325e-06;0.007985032355465141
8.09350e-06;0.007932353491016236
8.09375e-06;0.0078829609519744
8.09400e-06;0.007844147152354725
8.09425e-06;0.007809628551529788
8.09450e-06;0.0077889362713466454
8.09475e-06;0.0077682439911633625
8.09500e-06;0.007752884222339771
8.09525e-06;0.007754689901591518
8.09550e-06;0.007756495580843277
8.09575e-06;0.007761903617243395
8.09600e-06;0.0077806526856567075
8.09625e-06;0.007806708893781535
8.09650e-06;0.007839840783784299
8.09675e-06;0.007879817877501012
8.09700e-06;0.007926408496355099
8.09725e-06;0.007979381893091738
8.09750e-06;0.008038500967228485
8.09775e-06;0.008103485350581424
8.09800e-06;0.008173972256100842
8.09825e-06;0.008249540795319425
8.09850e-06;0.00832975341902527
8.09875e-06;0.008414175468666286
8.09900e-06;0.008502370374698299
8.09925e-06;0.008593902940389423
8.09950e-06;0.008688334802887306
8.09975e-06;0.008785198183791655
8.10000e-06;0.008883974916591505
8.10025e-06;0.008984110298816118
8.10050e-06;0.00908504114939792
8.10075e-06;0.00918620259702337
8.10100e-06;0.009287031191534144
8.10125e-06;0.009386963703515869
8.10150e-06;0.009485434523719671
8.10175e-06;0.009581860368755859
8.10200e-06;0.009675626462664387
8.10225e-06;0.009766094504688658
8.10250e-06;0.009852619971259583
8.10275e-06;0.009934560739635374
8.10300e-06;0.010011273045172539
8.10325e-06;0.010082115503065626
8.10350e-06;0.0101464836073692
8.10375e-06;0.0102039129627649
8.10400e-06;0.010254147335971207
8.10425e-06;0.010297054975383373
8.10450e-06;0.010332529710227686
8.10475e-06;0.010360464928243251
8.10500e-06;0.010378896286638477
8.10525e-06;0.010385454349768031
8.10550e-06;0.01039201241289763
8.10575e-06;0.010393983932023444
8.10600e-06;0.010381191285138569
8.10625e-06;0.010364937594018513
8.10650e-06;0.010337542740486106
8.10675e-06;0.010306904937731533
8.10700e-06;0.010265828024255543
8.10725e-06;0.010221733651491876
8.10750e-06;0.010167926024082546
8.10775e-06;0.010111409647785325
8.10800e-06;0.010046173761062522
8.10825e-06;0.009978633528350751
8.10850e-06;0.009903675565271537
8.10875e-06;0.009826831124481288
8.10900e-06;0.009743914078679972
8.10925e-06;0.009659532948696243
8.10950e-06;0.009570438905918228
8.10975e-06;0.009480355157685992
8.11000e-06;0.009387085530144688
8.11025e-06;0.009293406532966722
8.11050e-06;0.009198317717488476
8.11075e-06;0.009102976298019044
8.11100e-06;0.009007954817198521
8.11125e-06;0.008913825548575598
8.11150e-06;0.008821166822479597
8.11175e-06;0.008730579175939314
8.11200e-06;0.008642692996654629
8.11225e-06;0.008558159941337571
8.11250e-06;0.008477633798434386
8.11275e-06;0.00840245818120536
8.11300e-06;0.008333439727846222
8.11325e-06;0.00826731544828315
8.11350e-06;0.008210507565199329
8.11375e-06;0.008157217678286586
8.11400e-06;0.008115252283074413
8.11425e-06;0.00807328688786224
8.11450e-06;0.008034988490980395
8.11475e-06;0.008008494226377734
8.11500e-06;0.007985132318282606
8.11525e-06;0.007971853521013783
8.11550e-06;0.007960887678747416
8.11575e-06;0.00795879416824307
8.11600e-06;0.00796267172170635
8.11625e-06;0.007972341178518293
8.11650e-06;0.007987711096669362
8.11675e-06;0.008008687364232657
8.11700e-06;0.00803517849085202
8.11725e-06;0.008067070421942477
8.11750e-06;0.008104129529735373
8.11775e-06;0.008145948054607588
8.11800e-06;0.008192094495868893
8.11825e-06;0.008242240771615002
8.11850e-06;0.008296114714910882
8.11875e-06;0.00835344344824184
8.11900e-06;0.008413954314837024
8.11925e-06;0.008477361461637266
8.11950e-06;0.008543303585720525
8.11975e-06;0.008611310901001583
8.12000e-06;0.008680898911730314
8.12025e-06;0.008751647011264737
8.12050e-06;0.008823169362967736
8.12075e-06;0.008895081820450202
8.12100e-06;0.008966998816167223
8.12125e-06;0.009038526394302701
8.12150e-06;0.00910922417158573
8.12175e-06;0.009178583052996656
8.12200e-06;0.009246084863765672
8.12225e-06;0.00931125286979432
8.12250e-06;0.009373631212856613
8.12275e-06;0.009432763275799784
8.12300e-06;0.00948819435246313
8.12325e-06;0.009539481167025098
8.12350e-06;0.009586257493445577
8.12375e-06;0.009628315085728024
8.12400e-06;0.009665565226494326
8.12425e-06;0.009697929436547303
8.12450e-06;0.009725316004786605
8.12475e-06;0.009747631798955122
8.12500e-06;0.009764156774005982
8.12525e-06;0.009774669543228205
8.12550e-06;0.00978330996235253
8.12575e-06;0.009784710044803361
8.12600e-06;0.00978102667667057
8.12625e-06;0.009772404406340383
8.12650e-06;0.009758977075172875
8.12675e-06;0.009740355506431021
8.12700e-06;0.009716560214649596
8.12725e-06;0.009690745667678163
8.12750e-06;0.009658431102645661
8.12775e-06;0.009624325862772726
8.12800e-06;0.009584456409014725
8.12825e-06;0.00954306205612011
8.12850e-06;0.009496759026016979
8.12875e-06;0.00944919433392525
8.12900e-06;0.00939756832964659
8.12925e-06;0.009344954496237423
8.12950e-06;0.00928916082343736
8.12975e-06;0.009232827210960406
8.13000e-06;0.009174512484065452
8.13025e-06;0.009115259123383812
8.13050e-06;0.009055433580175588
8.13075e-06;0.008995403285370273
8.13100e-06;0.00893553446948282
8.13125e-06;0.008876195839559554
8.13150e-06;0.008817767747362232
8.13175e-06;0.00876065524887307
8.13200e-06;0.008705281606029226
8.13225e-06;0.008652071060437186
8.13250e-06;0.008601446211801174
8.13275e-06;0.008553829169991796
8.13300e-06;0.008509642313970325
8.13325e-06;0.008469307043027782
8.13350e-06;0.008433229842561797
8.13375e-06;0.008402302457760281
8.13400e-06;0.008376831251005835
8.13425e-06;0.008353682049754325
8.13450e-06;0.008338007425162313
8.13475e-06;0.008324718932187667
8.13500e-06;0.008319111438965889
8.13525e-06;0.008315948684877644
8.13550e-06;0.008320655589169767
8.13575e-06;0.008327193122954851
8.13600e-06;0.008340805789899854
8.13625e-06;0.008359370197804606
8.13650e-06;0.008382732457700087
8.13675e-06;0.00841073774929506
8.13700e-06;0.008443230983207201
8.13725e-06;0.008480057828980337
8.13750e-06;0.008521056305823222
8.13775e-06;0.008566032540866483
8.13800e-06;0.00861473702998784
8.13825e-06;0.008666884492031724
8.13850e-06;0.008722180139229475
8.13875e-06;0.008779684818574947
8.13900e-06;0.008837118084767621
8.13925e-06;0.00888390518457082
8.13950e-06;0.00894891741986482
8.13975e-06;0.00901563624516793
8.14000e-06;0.009085149581095523
8.14025e-06;0.009160830050839893
8.14050e-06;0.009231514887622536
8.14075e-06;0.009302379171177825
8.14100e-06;0.009369302018752095
8.14125e-06;0.009445452973522969
8.14150e-06;0.009513179751939688
8.14175e-06;0.009579769645588503
8.14200e-06;0.009645124001473727
8.14225e-06;0.009708936110182172
8.14250e-06;0.009768399694381064
8.14275e-06;0.009824110756315552
8.14300e-06;0.009875187168021684
8.14325e-06;0.009926015028853898
8.14350e-06;0.009971841473039578
8.14375e-06;0.010015218259387485
8.14400e-06;0.010057510470419816
8.14425e-06;0.010097493210952132
8.14450e-06;0.01013734962619382
8.14475e-06;0.010173673476742175
8.14500e-06;0.010207024491318035
8.14525e-06;0.010240220087506342
8.14550e-06;0.010270286160335254
8.14575e-06;0.010298821434229721
8.14600e-06;0.010326679314213038
8.14625e-06;0.01035309242181739
8.14650e-06;0.010379426498937217
8.14675e-06;0.010403548699324696
8.14700e-06;0.010425157581085863
8.14725e-06;0.010446632637893064
8.14750e-06;0.010468107694700263
8.14775e-06;0.010487426730248038
8.14800e-06;0.010506066753046953
8.14825e-06;0.010524675509410344
8.14850e-06;0.010542055739342951
8.14875e-06;0.010558504637265728
8.14900e-06;0.010573403009556162
8.14925e-06;0.01058821724730961
8.14950e-06;0.01060303148506316
8.14975e-06;0.010616490492655117
8.15000e-06;0.010629260069777364
8.15025e-06;0.010641995285103515
8.15050e-06;0.010654730500429664
8.15075e-06;0.01066640357983951
8.15100e-06;0.010677067041350992
8.15125e-06;0.01068767728900273
8.15150e-06;0.010698287536654394
