Time(s);Current(A)
1.25500e-05;-8.844182446139182e-05
1.25503e-05;-0.000115318464085001
1.25505e-05;-0.0001410399232842922
1.25508e-05;-0.00016540924084627683
1.25510e-05;-0.00018822951272041597
1.25513e-05;-0.0002093009321228731
1.25515e-05;-0.00022822598223087612
1.25518e-05;-0.0002443024925655782
1.25520e-05;-0.00025695135050461215
1.25522e-05;-0.000265999743859072
1.25525e-05;-0.0002714702488336245
1.25528e-05;-0.000273407361046204
1.25530e-05;-0.0002718556758646927
1.25533e-05;-0.0002668579886225808
1.25535e-05;-0.0002583332482580994
1.25538e-05;-0.00024600955915054845
1.25540e-05;-0.0002296921992038201
1.25543e-05;-0.00020944094068093384
1.25545e-05;-0.00018543788204295828
1.25548e-05;-0.0001578789357248031
1.25550e-05;-0.00012696003910382507
1.25553e-05;-9.287594892647798e-05
1.25555e-05;-5.574388230788278e-05
1.25558e-05;-1.5561507758881547e-05
1.25560e-05;2.7625174709716902e-05
1.25563e-05;7.36107467573177e-05
1.25565e-05;0.00012211316177882805
1.25568e-05;0.00017284176488125444
1.25570e-05;0.00022550589766978015
1.25573e-05;0.00028040311836984293
1.25575e-05;0.0003356276803172408
1.25578e-05;0.00039325986901343914
1.25580e-05;0.00045129368304631164
1.25583e-05;0.0005093274970791842
1.25585e-05;0.000568046416198053
1.25588e-05;0.0006268796202914422
1.25590e-05;0.0006857128243848314
1.25593e-05;0.000744546028477822
1.25595e-05;0.0008000115665733491
1.25598e-05;0.0008549153315495376
1.25600e-05;0.0009098190965253542
1.25603e-05;0.0009647228615015427
1.25605e-05;0.0010142777009729017
1.25607e-05;0.0010629402659226358
1.25610e-05;0.0011062966826043295
1.25613e-05;0.001148767960597502
1.25615e-05;0.0011851872698289462
1.25618e-05;0.0012205970272305003
1.25620e-05;0.0012505673659417068
1.25623e-05;0.0012796303346204792
1.25625e-05;0.0013031223851388963
1.25628e-05;0.0013256851297004791
1.25630e-05;0.0013422124177631164
1.25633e-05;0.0013577329084689782
1.25635e-05;0.0013657481517529951
1.25638e-05;0.001372511416289868
1.25640e-05;0.001379274680826695
1.25643e-05;0.001378184460474128
1.25645e-05;0.001375784170563582
1.25648e-05;0.0013733838806530524
1.25650e-05;0.0013634621470023883
1.25653e-05;0.0013522857328354756
1.25655e-05;0.0013411093186686384
1.25658e-05;0.0013234596319259854
1.25660e-05;0.0013047301140687519
1.25663e-05;0.001286000596211645
1.25665e-05;0.0012622253432682446
1.25668e-05;0.0012376083921453646
1.25670e-05;0.0012129914410226516
1.25673e-05;0.001183542433137432
1.25675e-05;0.001153287371563152
1.25678e-05;0.0011230323099890767
1.25680e-05;0.0010927772484147964
1.25683e-05;0.0010625221868405161
1.25685e-05;0.0010301607392251679
1.25688e-05;0.0009974479173764773
1.25690e-05;0.0009647350955277867
1.25692e-05;0.0009320222736793179
1.25695e-05;0.0008993094518306274
1.25698e-05;0.0008680633446022396
1.25700e-05;0.0008370619055946196
1.25703e-05;0.0008060604665872097
1.25705e-05;0.0007784433263976804
1.25708e-05;0.0007513907339115373
1.25710e-05;0.0007243381414255776
1.25713e-05;0.0007012849586427051
1.25715e-05;0.0006788989325396556
1.25718e-05;0.0006595070884987659
1.25720e-05;0.0006406147153075731
1.25723e-05;0.0006243050645329767
1.25725e-05;0.000608426247466534
1.25728e-05;0.0005954068953460097
1.25730e-05;0.0005828645414030194
1.25733e-05;0.0005734503632911776
1.25735e-05;0.0005645580080372577
1.25738e-05;0.0005584443024255636
1.25740e-05;0.000552794113884562
1.25743e-05;0.0005495125370910302
1.25745e-05;0.0005466260773939825
1.25748e-05;0.0005461292563892578
1.25750e-05;0.0005460310600652965
1.25753e-05;0.0005488718802127161
1.25755e-05;0.0005522029688289109
1.25758e-05;0.0005555340574451282
1.25760e-05;0.0005615944750881471
1.25763e-05;0.0005681101824430956
1.25765e-05;0.0005746258897980882
1.25768e-05;0.0005833708357589265
1.25770e-05;0.0005924876494545438
1.25773e-05;0.0006016044631502229
1.25775e-05;0.000612898035390265
1.25777e-05;0.0006245547209672706
1.25780e-05;0.0006362114065443553
1.25783e-05;0.0006478680921214399
1.25785e-05;0.0006595247776985245
1.25788e-05;0.0006711814632755302
1.25790e-05;0.0006832943645453585
1.25793e-05;0.0006954833688827736
1.25795e-05;0.0007076723732201061
1.25798e-05;0.0007198613775575212
1.25800e-05;0.0007320503818949363
1.25803e-05;0.0007442393862322689
1.25805e-05;0.0007548732031462603
1.25808e-05;0.000765247593355975
1.25810e-05;0.0007756219835656192
1.25813e-05;0.0007837110965741789
1.25815e-05;0.0007914189938374475
1.25818e-05;0.0007991268911006639
1.25820e-05;0.0008030233158139181
1.25823e-05;0.0008062839343553189
1.25825e-05;0.0008060719891339454
1.25828e-05;0.000805280772399146
1.25830e-05;0.0008011778991622601
1.25833e-05;0.000796522595961569
1.25835e-05;0.0007884418463156066
1.25838e-05;0.0007797896849744167
1.25840e-05;0.0007672008206197342
1.25843e-05;0.0007539552599252483
1.25845e-05;0.0007370015488802964
1.25848e-05;0.0007194292672310792
1.25850e-05;0.000698596113017497
1.25853e-05;0.0006772190003010606
1.25855e-05;0.0006528561861412947
1.25858e-05;0.0006279953158153568
1.25860e-05;0.0006001750339626657
1.25862e-05;0.0005718610814647196
1.25865e-05;0.0005405904944266274
1.25868e-05;0.0005088266999827469
1.25870e-05;0.0004770629055388664
1.25873e-05;0.00044293213727119104
1.25875e-05;0.00040840652513484196
1.25878e-05;0.0003738809129984929
1.25880e-05;0.00033801686182974994
1.25883e-05;0.00030192954057641175
1.25885e-05;0.00026584221932307356
1.25888e-05;0.00022975489806997988
1.25890e-05;0.00019366757681664167
1.25893e-05;0.00015758025556330348
1.25895e-05;0.0001224352037533825
1.25898e-05;8.813112897830708e-05
1.25900e-05;5.4766945536554744e-05
1.25903e-05;2.2552679791898395e-05
1.25905e-05;-8.278409808964325e-06
1.25908e-05;-3.7490466078334654e-05
1.25910e-05;-6.484765054130614e-05
1.25913e-05;-9.011714334878781e-05
1.25915e-05;-0.00011328443813776566
1.25918e-05;-0.00013473305491554108
1.25920e-05;-0.0001548637661366515
1.25923e-05;-0.0001737551024824062
1.25925e-05;-0.0001913079125870034
1.25928e-05;-0.0002074021971968798
1.25930e-05;-0.00022191799863342793
1.25933e-05;-0.00023473727359845184
1.25935e-05;-0.000245878722809032
1.25938e-05;-0.0002556103618950468
1.25940e-05;-0.00026421098609138955
1.25943e-05;-0.00027175752300046685
1.25945e-05;-0.0002777259507889732
1.25947e-05;-0.0002834561166560693
1.25950e-05;-0.00028714705549638203
1.25953e-05;-0.00029049782315262285
1.25955e-05;-0.0002918929727012059
1.25958e-05;-0.0002929618981862244
1.25960e-05;-0.000292660380697541
1.25963e-05;-0.00029213025442576977
1.25965e-05;-0.00029007706730829405
1.25968e-05;-0.0002877698126424472
1.25970e-05;-0.0002854625579766003
1.25973e-05;-0.000281417616307517
1.25975e-05;-0.00027708280448779973
1.25978e-05;-0.00027274799266808244
1.25980e-05;-0.0002674320065688397
1.25983e-05;-0.00026195234707172274
1.25985e-05;-0.00025647268757460575
1.25988e-05;-0.0002503511034728229
1.25990e-05;-0.00024412243749634825
1.25993e-05;-0.00023789377151987358
1.25995e-05;-0.0002316651055434411
1.25998e-05;-0.00022554495476746812
1.26000e-05;-0.00021962022332621206
1.26003e-05;-0.00021369549188499613
1.26005e-05;-0.00020777076044374007
1.26008e-05;-0.00020184602900248397
1.26010e-05;-0.00019693024725143328
1.26013e-05;-0.00019218277221966996
1.26015e-05;-0.00018743529718790665
1.26018e-05;-0.00018248493999210798
1.26020e-05;-0.00017750073925404798
1.26023e-05;-0.00017251653851598801
1.26025e-05;-0.00016663658702053842
1.26028e-05;-0.00016060721194843542
1.26030e-05;-0.00015408883569534296
1.26032e-05;-0.00014748888730313804
1.26035e-05;-0.00014035737874470495
1.26038e-05;-0.00013313719862159185
1.26040e-05;-0.00012516526157259854
1.26043e-05;-0.00011628939722592484
1.26045e-05;-0.00010728366436248187
1.26048e-05;-9.762411012505392e-05
1.26050e-05;-8.750273939699161e-05
1.26053e-05;-7.703129691972262e-05
1.26055e-05;-6.622528342294575e-05
1.26058e-05;-5.500318596974291e-05
1.26060e-05;-4.329379577783264e-05
1.26063e-05;-3.112143368628162e-05
1.26065e-05;-1.8560013895611284e-05
1.26068e-05;-5.689177738812577e-06
1.26070e-05;7.411445987726271e-06
1.26073e-05;2.0662737352639544e-05
1.26075e-05;3.407564188672134e-05
1.26078e-05;4.751218191666434e-05
1.26080e-05;6.116142541484694e-05
1.26083e-05;7.484615078432892e-05
1.26085e-05;8.853087615381091e-05
1.26088e-05;0.00010198148449367542
1.26090e-05;0.0001153930388851713
1.26093e-05;0.00012880459327666718
1.26095e-05;0.00014160417128608705
1.26098e-05;0.00015430166319732697
1.26100e-05;0.00016635898690649863
1.26103e-05;0.0001783095217330279
1.26105e-05;0.0001893678768077344
1.26108e-05;0.00020027740399869534
1.26110e-05;0.00021000055504757746
1.26113e-05;0.00021952580219860955
1.26115e-05;0.000228601732473717
1.26117e-05;0.00023760271049879812
1.26120e-05;0.0002480428681558631
1.26123e-05;0.0002600068668844873
1.26125e-05;0.0002738477155387836
1.26128e-05;0.0002879659254856842
1.26130e-05;0.00030348398619715314
1.26133e-05;0.0003204280734356991
1.26135e-05;0.00033757108813759753
1.26138e-05;0.00035646379158033384
1.26140e-05;0.00037731603093102515
1.26143e-05;0.0004008243002352788
1.26145e-05;0.0004247292261460348
1.26148e-05;0.000451246731237506
1.26150e-05;0.0004782000505577785
1.26153e-05;0.0005071725552082407
1.26155e-05;0.0005364818878118294
1.26158e-05;0.0005680632029993791
1.26160e-05;0.0006000235162077803
1.26163e-05;0.0006347432729513245
1.26165e-05;0.0006699233429229158
1.26168e-05;0.0007051034128947454
1.26170e-05;0.0007426452987809255
1.26173e-05;0.0007805811681256018
1.26175e-05;0.0008185170374705353
1.26178e-05;0.0008564529068154688
1.26180e-05;0.0008943887761601451
1.26183e-05;0.0009323704985061093
1.26185e-05;0.00097043479511744
1.26188e-05;0.0010084990917285127
1.26190e-05;0.0010465633883398435
1.26193e-05;0.0010846276849511742
1.26195e-05;0.0011226919815622472
1.26198e-05;0.0011554632546326028
1.26200e-05;0.0011873515783969912
1.26202e-05;0.0012192399021611635
1.26205e-05;0.0012511282259255517
1.26208e-05;0.0012830165496899402
1.26210e-05;0.0013149048734541124
1.26213e-05;0.0013418130372477367
1.26215e-05;0.0013597526920714157
1.26218e-05;0.001377692346895095
1.26220e-05;0.0013956320017186525
1.26223e-05;0.0014135716565423318
1.26225e-05;0.001431511311366011
1.26228e-05;0.0014494509661895686
1.26230e-05;0.0014565206172951195
1.26233e-05;0.001461777001906273
1.26235e-05;0.001467033386517391
1.26238e-05;0.0014652977840322126
1.26240e-05;0.0014623958216948114
1.26243e-05;0.00145949385935743
1.26245e-05;0.0014501327588111984
1.26248e-05;0.0014396941849540263
1.26250e-05;0.001429255611096925
1.26253e-05;0.001412893674563192
1.26255e-05;0.0013955436394645002
1.26258e-05;0.0013781936043659258
1.26260e-05;0.0013538753611595337
1.26263e-05;0.0013283947247640197
1.26265e-05;0.0013029140883686783
1.26268e-05;0.0012774334519731643
1.26270e-05;0.0012519528155776503
1.26273e-05;0.001226472179182309
1.26275e-05;0.0011956453277569203
1.26278e-05;0.0011639266539515247
1.26280e-05;0.0011322079801463437
1.26283e-05;0.0011004893063409481
1.26285e-05;0.0010687706325355523
1.26288e-05;0.0010370519587303713
1.26290e-05;0.001005255845239888
1.26293e-05;0.0009734468137422011
1.26295e-05;0.0009416377822447295
1.26298e-05;0.0009098287507470424
1.26300e-05;0.0008780197192493553
1.26303e-05;0.0008508247826441753
1.26305e-05;0.0008243995406860044
1.26308e-05;0.0007979742987276545
1.26310e-05;0.0007715490567693045
1.26313e-05;0.0007451238148111336
1.26315e-05;0.0007247417882827422
1.26318e-05;0.0007053678534115356
1.26320e-05;0.0006859939185404602
1.26323e-05;0.0006698487878549189
1.26325e-05;0.0006542422662261219
1.26328e-05;0.0006414394619482722
1.26330e-05;0.0006291043563819643
1.26333e-05;0.0006198368899963923
1.26335e-05;0.0006110811481226955
1.26338e-05;0.0006050491563578504
1.26340e-05;0.0005994715236661392
1.26343e-05;0.0005967983697106447
1.26345e-05;0.0005946097228551812
1.26348e-05;0.0005924210759997176
1.26350e-05;0.0005937603330970422
1.26353e-05;0.000595688093216286
1.26355e-05;0.0005976158533355299
1.26358e-05;0.0006025308031623342
1.26360e-05;0.0006079440574196379
1.26363e-05;0.0006133573116769417
1.26365e-05;0.0006210560925642911
1.26368e-05;0.0006291361308063332
1.26370e-05;0.0006372161690483753
1.26373e-05;0.0006478541843359188
1.26375e-05;0.0006589189054640341
1.26378e-05;0.0006699836265921494
1.26380e-05;0.0006810483477201897
1.26383e-05;0.000692113068848305
1.26385e-05;0.0007031777899764204
1.26388e-05;0.0007145511741320015
1.26390e-05;0.0007264804133499722
1.26393e-05;0.0007384096525680239
1.26395e-05;0.0007503388917860755
1.26398e-05;0.0007622681310040462
1.26400e-05;0.0007741973702220979
1.26403e-05;0.0007861266094401496
1.26405e-05;0.0007947841207761058
1.26408e-05;0.0008028958627908067
1.26410e-05;0.0008110076048055076
1.26413e-05;0.0008191193468201535
1.26415e-05;0.0008272310888348545
1.26418e-05;0.0008353428308495554
1.26420e-05;0.0008434545728642014
1.26423e-05;0.0008483606612336586
1.26425e-05;0.0008474938560303981
1.26428e-05;0.0008466270508271434
1.26430e-05;0.0008457602456238828
1.26433e-05;0.0008448934404206223
1.26435e-05;0.0008440266352173675
1.26438e-05;0.000843159830014107
1.26440e-05;0.0008422930248108464
1.26443e-05;0.0008351657739719205
1.26445e-05;0.0008269941944818153
1.26448e-05;0.0008188226149917099
1.26450e-05;0.0008074778209377018
1.26453e-05;0.0007956036909419981
1.26455e-05;0.0007837295609462945
1.26458e-05;0.0007690108985459114
1.26460e-05;0.0007538177289198145
1.26463e-05;0.0007386245592937177
1.26465e-05;0.0007204380639836047
1.26468e-05;0.0007017522406771634
1.26470e-05;0.000683066417370722
1.26473e-05;0.0006643805940642807
1.26475e-05;0.0006456947707579661
1.26478e-05;0.0006262560135913792
1.26480e-05;0.000605461337313254
1.26483e-05;0.0005846666610352697
1.26485e-05;0.0005638719847571446
1.26488e-05;0.0005430773084790194
1.26490e-05;0.0005222826322010352
1.26493e-05;0.0005025445910761874
1.26495e-05;0.0004829828112638704
1.26498e-05;0.000463421031451686
1.26500e-05;0.00044385925163936896
1.26503e-05;0.00042429747182705195
1.26505e-05;0.0004063377357906332
1.26508e-05;0.00039126303639318034
1.26510e-05;0.0003761883369957275
1.26513e-05;0.0003611136375983768
1.26515e-05;0.00034603893820092397
1.26518e-05;0.0003309642388034711
1.26520e-05;0.00031683274364423426
1.26523e-05;0.00030285858795681765
1.26525e-05;0.0002888844322694011
1.26528e-05;0.0002745149633690129
1.26530e-05;0.00026007955077396433
1.26533e-05;0.0002456441381789158
1.26535e-05;0.00023111817004070007
1.26538e-05;0.00021657709598917835
1.26540e-05;0.0002009259526534393
1.26543e-05;0.0001850896344554208
1.26545e-05;0.00016822568980723443
1.26548e-05;0.00015119032289812165
1.26550e-05;0.00013357508747765057
1.26553e-05;0.00011586312199403725
1.26555e-05;9.769403871298016e-05
1.26558e-05;7.944870188050152e-05
1.26560e-05;6.051022416073949e-05
1.26563e-05;4.0989119524499005e-05
1.26565e-05;2.103411526890687e-05
1.26568e-05;7.747231809570161e-07
1.26570e-05;-1.9659570773955507e-05
1.26573e-05;-4.0133346409729586e-05
1.26575e-05;-6.0609977516748856e-05
1.26578e-05;-8.122723463135456e-05
1.26580e-05;-0.00010186795010297864
1.26583e-05;-0.00012250866557446285
1.26585e-05;-0.00014292893277790533
1.26588e-05;-0.0001633124261706336
1.26590e-05;-0.00018369591956322374
1.26593e-05;-0.00020319668036375516
1.26595e-05;-0.00022255018919661962
1.26598e-05;-0.00024098139961138289
1.26600e-05;-0.0002592587579333215
1.26603e-05;-0.00027642149487453003
1.26605e-05;-0.0002933982976006912
1.26608e-05;-0.00030883506993119016
1.26610e-05;-0.0003240149439574067
1.26613e-05;-0.0003372497133493565
1.26615e-05;-0.00035016001246889605
1.26618e-05;-0.00036114559785266397
1.26620e-05;-0.00037181011444685264
1.26623e-05;-0.0003806727366126145
1.26625e-05;-0.0003892347779427658
1.26628e-05;-0.0003958596215681329
1.26630e-05;-0.0004021613139058619
1.26633e-05;-0.0004063947705147641
1.26635e-05;-0.0004102832168867401
1.26638e-05;-0.0004122389054071419
1.26640e-05;-0.00041387218326854885
1.26643e-05;-0.00041377228465262105
1.26645e-05;-0.0004133832683028224
1.26648e-05;-0.00041088103568991303
1.26650e-05;-0.0004080262894667832
1.26653e-05;-0.0004051715432436727
1.26655e-05;-0.00039998184168927616
1.26658e-05;-0.0003944026373907203
1.26660e-05;-0.0003888234330922023
1.26663e-05;-0.0003814268406081164
1.26665e-05;-0.00037372708271609886
1.26668e-05;-0.00036602732482413346
1.26670e-05;-0.00035685824992714066
1.26673e-05;-0.0003474440726944083
1.26675e-05;-0.0003380298954617397
1.26678e-05;-0.0003274862960908287
1.26680e-05;-0.00031675429353450474
1.26683e-05;-0.00030602229097825346
1.26685e-05;-0.00029529028842192943
1.26688e-05;-0.00028455828586560546
1.26690e-05;-0.00027372559093294315
1.26693e-05;-0.0002628760991234483
1.26695e-05;-0.00025202660731395355
1.26698e-05;-0.0002411771155045323
1.26700e-05;-0.0002303276236950375
1.26703e-05;-0.00022053290130260388
1.26705e-05;-0.00021091412899246426
1.26708e-05;-0.00020129535668225946
1.26710e-05;-0.00019289102761858154
1.26713e-05;-0.0001846892844335826
1.26715e-05;-0.00017714416351262326
1.26718e-05;-0.00016970857623902307
1.26720e-05;-0.00016227298896547324
1.26723e-05;-0.0001540707537983728
1.26725e-05;-0.00014574063119185442
1.26728e-05;-0.00013741050858533606
1.26730e-05;-0.00012870152578893577
1.26733e-05;-0.00011992934388895047
1.26735e-05;-0.00011085484041839334
1.26738e-05;-0.00010172990554141903
1.26740e-05;-9.192745344555617e-05
1.26743e-05;-8.15050157629353e-05
1.26745e-05;-7.056482410548588e-05
1.26748e-05;-5.919293954268317e-05
1.26750e-05;-4.747541534540576e-05
1.26753e-05;-3.549728160164414e-05
1.26755e-05;-2.32716258957945e-05
1.26758e-05;-1.0686998650004248e-05
1.26760e-05;2.357272712837738e-06
1.26763e-05;1.584207444406204e-05
1.26765e-05;2.9685671577740892e-05
1.26768e-05;4.379909785940316e-05
1.26770e-05;5.812765559483386e-05
1.26773e-05;7.248596850502372e-05
1.26775e-05;8.702583746682146e-05
1.26778e-05;0.00010159599248150457
1.26780e-05;0.00011616614749618765
1.26783e-05;0.00013072485450977474
1.26785e-05;0.00014526294541867464
1.26788e-05;0.00015980103632757454
1.26790e-05;0.00017433912723637592
1.26793e-05;0.00018812430968489363
1.26795e-05;0.0002017838966208186
1.26798e-05;0.00021544348355665105
1.26800e-05;0.00022825787502938868
1.26803e-05;0.00024093127624496804
1.26805e-05;0.0002526576917133865
1.26808e-05;0.0002642261369018455
1.26810e-05;0.00027453357027229123
1.26813e-05;0.0002846306494841372
1.26815e-05;0.00029335469165174826
1.26818e-05;0.00030184969230844243
1.26820e-05;0.0003103446929651366
1.26823e-05;0.0003173621903260809
1.26825e-05;0.00032413321976490435
1.26828e-05;0.00033090424920372783
1.26830e-05;0.0003376752786425054
1.26833e-05;0.0003444463080813289
1.26835e-05;0.0003512173375201523
1.26838e-05;0.0003579883669589299
1.26840e-05;0.0003640575108271589
1.26843e-05;0.0003688626657703767
1.26845e-05;0.00037366782071356194
1.26848e-05;0.0003784729756567798
1.26850e-05;0.00038327813059999764
1.26853e-05;0.0003880832855431829
1.26855e-05;0.00039288844048640076
1.26858e-05;0.00039769359542961855
1.26860e-05;0.0004013657612353892
1.26863e-05;0.00040484892883087324
1.26865e-05;0.0004083320964263573
1.26868e-05;0.00041181526402181775
1.26870e-05;0.0004152984316173018
1.26873e-05;0.0004187815992127858
1.26875e-05;0.00042226476680824623
1.26878e-05;0.0004257479344037303
1.26880e-05;0.00042923110199921433
1.26883e-05;0.00043271426959467477
1.26885e-05;0.0004361974371901588
1.26888e-05;0.0004386150831239141
1.26890e-05;0.0004408549853525239
1.26893e-05;0.0004430948875811489
1.26895e-05;0.00044533478980977387
1.26898e-05;0.00044757469203839887
1.26900e-05;0.00044981459426700864
1.26903e-05;0.00045205449649563363
1.26905e-05;0.00045429439872425863
1.26908e-05;0.0004565343009528684
1.26910e-05;0.0004587742031814934
1.26913e-05;0.0004610141054101184
1.26915e-05;0.0004619981996476639
1.26918e-05;0.00046277280779655016
1.26920e-05;0.00046354741594543643
1.26923e-05;0.0004624267389359546
1.26925e-05;0.00046098990222885605
1.26928e-05;0.0004595530655217575
1.26930e-05;0.000456315078519319
1.26933e-05;0.00045277663481238127
1.26935e-05;0.0004492381911054436
1.26938e-05;0.0004436240661862351
1.26940e-05;0.0004376636890201874
1.26943e-05;0.0004317033118541397
1.26945e-05;0.0004236040479265972
