Time(s);Current(A)
1.37500e-05;-0.00840927520118107
1.37503e-05;-0.00841766274550649
1.37505e-05;-0.00842605028983191
1.37508e-05;-0.008434437834157272
1.37510e-05;-0.008442825378482692
1.37513e-05;-0.008451212922808113
1.37515e-05;-0.008459600467133475
1.37518e-05;-0.008467891549977133
1.37520e-05;-0.008471889158996413
1.37523e-05;-0.008475886768015665
1.37525e-05;-0.008479884377034945
1.37528e-05;-0.008483881986054225
1.37530e-05;-0.008487879595073477
1.37533e-05;-0.008491877204092757
1.37535e-05;-0.008495874813112037
1.37538e-05;-0.008499872422131289
1.37540e-05;-0.008503870031150568
1.37543e-05;-0.008507867640169848
1.37545e-05;-0.0085118652491891
1.37548e-05;-0.00851586285820838
1.37550e-05;-0.008519860467227658
1.37553e-05;-0.008523858076246912
1.37555e-05;-0.00852785568526619
1.37558e-05;-0.00853185329428547
1.37560e-05;-0.008535850903304722
1.37563e-05;-0.008538792671315819
1.37565e-05;-0.008540767493049469
1.37568e-05;-0.008542742314783107
1.37570e-05;-0.008544717136516758
1.37573e-05;-0.008546691958250408
1.37575e-05;-0.00854866677998406
1.37578e-05;-0.008550641601717696
1.37580e-05;-0.008552616423451348
1.37583e-05;-0.008554591245184998
1.37585e-05;-0.008556566066918635
1.37588e-05;-0.008558540888652287
1.37590e-05;-0.008560515710385937
1.37593e-05;-0.008562490532119575
1.37595e-05;-0.008565122490086044
1.37598e-05;-0.008570394180584386
1.37600e-05;-0.008575665871082692
1.37603e-05;-0.008580937561581034
1.37605e-05;-0.008586209252079376
1.37608e-05;-0.008591480942577681
1.37610e-05;-0.008596752633076023
1.37613e-05;-0.008602024323574365
1.37615e-05;-0.00860729601407267
1.37618e-05;-0.008612567704571012
1.37620e-05;-0.008617839395069353
1.37623e-05;-0.008623111085567658
1.37625e-05;-0.008628382776066
1.37628e-05;-0.008633654466564342
1.37630e-05;-0.008642387230075042
1.37633e-05;-0.008651606900686113
1.37635e-05;-0.008660826571297185
1.37638e-05;-0.008670046241908194
1.37640e-05;-0.008679265912519265
1.37643e-05;-0.008688485583130337
1.37645e-05;-0.008697705253741344
1.37648e-05;-0.008706924924352415
1.37650e-05;-0.008716144594963487
1.37653e-05;-0.008725354931426779
1.37655e-05;-0.008734516796957803
1.37658e-05;-0.008743678662488829
1.37660e-05;-0.008752840528019855
1.37663e-05;-0.008762002393550818
1.37665e-05;-0.008771164259081842
1.37668e-05;-0.008780326124612868
1.37670e-05;-0.008789487990143832
1.37673e-05;-0.008798649855674858
1.37675e-05;-0.008807811721205884
1.37678e-05;-0.0088158295642777
1.37680e-05;-0.008822427984718873
1.37683e-05;-0.00882800893407765
1.37685e-05;-0.008832327476856128
1.37688e-05;-0.008832964198554208
1.37690e-05;-0.008829032775525889
1.37693e-05;-0.008825101352497597
1.37695e-05;-0.008816387233494967
1.37698e-05;-0.008801739081600523
1.37700e-05;-0.00878709092970618
1.37703e-05;-0.00876779142205887
1.37705e-05;-0.008742720839231936
1.37708e-05;-0.008717650256405174
1.37710e-05;-0.008685697889318462
1.37713e-05;-0.008645207088182763
1.37715e-05;-0.008604716287047339
1.37718e-05;-0.008564225485911639
1.37720e-05;-0.00852373468477594
1.37723e-05;-0.008468823157280352
1.37725e-05;-0.008413093021375934
1.37728e-05;-0.008357362885471516
1.37730e-05;-0.008301632749567476
1.37733e-05;-0.00824108172557825
1.37735e-05;-0.008174549282611153
1.37738e-05;-0.008108016839644506
1.37740e-05;-0.008039461369342991
1.37743e-05;-0.007968395868964383
1.37745e-05;-0.007896494529391928
1.37748e-05;-0.007823049689759979
1.37750e-05;-0.007748590151684247
1.37753e-05;-0.007673464245592391
1.37755e-05;-0.007598118748476251
1.37758e-05;-0.0075230033967890984
1.37760e-05;-0.007448566083543845
1.37763e-05;-0.0073752293443119996
1.37765e-05;-0.007303345907668049
1.37768e-05;-0.007233186064851925
1.37770e-05;-0.0071650467310210245
1.37773e-05;-0.007099346120286126
1.37775e-05;-0.007036563913801301
1.37778e-05;-0.006977181147382832
1.37780e-05;-0.00692167806019405
1.37783e-05;-0.006870442078139309
1.37785e-05;-0.006823478860936209
1.37788e-05;-0.006780314345446306
1.37790e-05;-0.0067405053039686115
1.37793e-05;-0.006704034784951553
1.37795e-05;-0.006671097292435811
1.37798e-05;-0.0066418924450308715
1.37800e-05;-0.0066175365297182435
1.37803e-05;-0.00659655592758795
1.37805e-05;-0.006578924085469591
1.37808e-05;-0.0065654471493230655
1.37810e-05;-0.006555460461797073
1.37813e-05;-0.006549804229360549
1.37815e-05;-0.006544147996924064
1.37818e-05;-0.006543931881999477
1.37820e-05;-0.006550465482389443
1.37823e-05;-0.006556999082779365
1.37825e-05;-0.006563532683169331
1.37828e-05;-0.006570066283559298
1.37830e-05;-0.006581795013155822
1.37833e-05;-0.0065999694938025716
1.37835e-05;-0.0066181439744494456
1.37838e-05;-0.006636318455096319
1.37840e-05;-0.006654492935743069
1.37843e-05;-0.00667562137988823
1.37845e-05;-0.006700414894249214
1.37848e-05;-0.00672520840861003
1.37850e-05;-0.006751080700010944
1.37853e-05;-0.006778291462114343
1.37855e-05;-0.0068055022242175574
1.37858e-05;-0.006833082830963356
1.37860e-05;-0.006861122314937733
1.37863e-05;-0.0068891617989119205
1.37865e-05;-0.006916894268191581
1.37868e-05;-0.006944245815224175
1.37870e-05;-0.006970636458909061
1.37873e-05;-0.006995834881281401
1.37875e-05;-0.007021033303653743
1.37878e-05;-0.007042832395340425
1.37880e-05;-0.00706443852027796
1.37883e-05;-0.0070847477020927075
1.37885e-05;-0.007103447728068285
1.37888e-05;-0.007123256248887092
1.37890e-05;-0.007144440112169296
1.37893e-05;-0.007167551961232681
1.37895e-05;-0.007193055919497668
1.37898e-05;-0.007218559877762655
1.37900e-05;-0.007245665133789773
1.37903e-05;-0.007274757167493895
1.37905e-05;-0.007303849201198017
1.37908e-05;-0.007337363230171675
1.37910e-05;-0.00737636375996756
1.37913e-05;-0.007415364289763445
1.37915e-05;-0.00745436481955933
1.37918e-05;-0.0074933653493549504
1.37920e-05;-0.0075323658791508355
1.37923e-05;-0.007576343205816053
1.37925e-05;-0.007626495392120044
1.37928e-05;-0.007676647578424375
1.37930e-05;-0.007726799764728706
1.37933e-05;-0.007776951951032697
1.37935e-05;-0.007827104137337027
1.37938e-05;-0.007880290369078865
1.37940e-05;-0.007937241031077008
1.37943e-05;-0.007994191693075536
1.37945e-05;-0.008051142355074065
1.37948e-05;-0.008108093017072208
1.37950e-05;-0.008165043679070736
1.37953e-05;-0.008221994341069265
1.37955e-05;-0.00827744978458302
1.37958e-05;-0.008332820350373417
1.37960e-05;-0.008388190916163813
1.37963e-05;-0.008443561481953835
1.37965e-05;-0.008498932047744231
1.37968e-05;-0.008554302613534627
1.37970e-05;-0.008604061614015036
1.37973e-05;-0.008646858178804954
1.37975e-05;-0.008689654743594873
1.37978e-05;-0.008732451308384502
1.37980e-05;-0.008775247873174422
1.37983e-05;-0.008818044437964339
1.37985e-05;-0.008860841002753968
1.37988e-05;-0.008890060338326998
1.37990e-05;-0.008918508947532391
1.37993e-05;-0.008946957556737592
1.37995e-05;-0.008975406165942985
1.37998e-05;-0.009003854775148376
1.38000e-05;-0.00903230338435377
1.38003e-05;-0.00905457091428599
1.38005e-05;-0.009069169395643088
1.38008e-05;-0.009083767877000186
1.38010e-05;-0.009098366358357184
1.38013e-05;-0.009112964839714282
1.38015e-05;-0.00912756332107138
1.38018e-05;-0.009142161802428378
1.38020e-05;-0.009156760283785476
1.38023e-05;-0.009171358765142574
1.38025e-05;-0.009185957246499572
1.38028e-05;-0.00920055572785667
1.38030e-05;-0.009215154209213768
1.38033e-05;-0.009229752690570766
1.38035e-05;-0.009244351171927864
1.38038e-05;-0.009254578701782253
1.38040e-05;-0.009259383062329457
1.38043e-05;-0.009264187422876692
1.38045e-05;-0.009268991783423929
1.38048e-05;-0.009273796143971133
1.38050e-05;-0.009278600504518368
1.38053e-05;-0.009283404865065605
1.38055e-05;-0.009288209225612807
1.38058e-05;-0.009293013586160043
1.38060e-05;-0.00929781794670728
1.38063e-05;-0.009302622307254482
1.38065e-05;-0.009307426667801719
1.38068e-05;-0.009312231028348956
1.38070e-05;-0.009317035388896158
1.38073e-05;-0.009320693580382596
1.38075e-05;-0.009322784006303311
1.38078e-05;-0.009324693683242555
1.38080e-05;-0.009326285400468773
1.38083e-05;-0.009327482615638446
1.38085e-05;-0.00932594087457854
1.38088e-05;-0.00932100082920191
1.38090e-05;-0.00931606078382528
1.38093e-05;-0.009305930582993342
1.38095e-05;-0.009289360802186716
1.38098e-05;-0.009272791021379978
1.38100e-05;-0.00925151765353286
1.38103e-05;-0.00922440840559028
1.38105e-05;-0.009197299157647514
1.38108e-05;-0.009162362503564777
1.38110e-05;-0.009117714154279954
1.38113e-05;-0.009073065804994828
1.38115e-05;-0.009028417455709703
1.38118e-05;-0.00898376910642488
1.38120e-05;-0.008930691956872657
1.38123e-05;-0.008867156944567873
1.38125e-05;-0.008803621932263521
1.38128e-05;-0.008740086919958739
1.38130e-05;-0.008676551907653955
1.38133e-05;-0.008607391516085347
1.38135e-05;-0.008531251549438516
1.38138e-05;-0.008455111582791686
1.38140e-05;-0.008376815793873341
1.38143e-05;-0.00829584521225241
1.38145e-05;-0.008213710856518498
1.38148e-05;-0.008130132571689208
1.38150e-05;-0.008045874518087298
1.38153e-05;-0.007960590592031093
1.38155e-05;-0.007875122673149177
1.38158e-05;-0.0077899741913196475
1.38160e-05;-0.007705648892000598
1.38163e-05;-0.007622626614011321
1.38165e-05;-0.007541289130003357
1.38168e-05;-0.0074619174722507405
1.38170e-05;-0.007384845620324327
1.38173e-05;-0.007310549995995655
1.38175e-05;-0.007239568903713384
1.38178e-05;-0.007172441479192862
1.38180e-05;-0.00710970768171097
1.38183e-05;-0.007051884560667006
1.38185e-05;-0.006999371283552946
1.38188e-05;-0.006952360864581164
1.38190e-05;-0.00691092375327623
1.38193e-05;-0.006875147486378385
1.38195e-05;-0.006845148271392833
1.38198e-05;-0.006821042265796514
1.38200e-05;-0.006804320696990677
1.38203e-05;-0.006792668221767771
1.38205e-05;-0.006786447246582957
1.38208e-05;-0.006786965294765089
1.38210e-05;-0.006793865708780645
1.38213e-05;-0.006808684913587993
1.38215e-05;-0.006823504118395342
1.38218e-05;-0.006847589043309108
1.38220e-05;-0.006883170222272293
1.38223e-05;-0.006918751401235477
1.38225e-05;-0.00695433258019842
1.38228e-05;-0.006989913759161605
1.38230e-05;-0.007034611570454667
1.38233e-05;-0.00709062065816586
1.38235e-05;-0.0071466297458774326
1.38238e-05;-0.007202638833589005
1.38240e-05;-0.0072586479213001985
1.38243e-05;-0.007319473385158863
1.38245e-05;-0.007386274669909165
1.38248e-05;-0.007453075954659016
1.38250e-05;-0.007521586463365232
1.38253e-05;-0.007592217656983212
1.38255e-05;-0.007662848850600713
1.38258e-05;-0.007733502349889188
1.38260e-05;-0.007804183524485338
1.38263e-05;-0.00787486469908149
1.38265e-05;-0.007944273272830394
1.38268e-05;-0.008012102892923501
1.38270e-05;-0.008077231240901879
1.38273e-05;-0.008139008040361712
1.38275e-05;-0.008200784839821965
1.38278e-05;-0.008254299951437977
1.38280e-05;-0.008297564541641446
1.38283e-05;-0.008340829131845208
1.38285e-05;-0.00838409372204897
1.38288e-05;-0.008427358312252439
1.38290e-05;-0.0084706229024562
1.38293e-05;-0.008513887492659963
1.38295e-05;-0.008557152082863432
1.38298e-05;-0.008591688367221953
1.38300e-05;-0.00861539518335879
1.38303e-05;-0.008639101999495465
1.38305e-05;-0.008662808815632302
1.38308e-05;-0.00868651563176914
1.38310e-05;-0.008710222447905815
1.38313e-05;-0.008733929264042652
1.38315e-05;-0.008757636080179489
1.38318e-05;-0.00877425973757854
1.38320e-05;-0.008782095109619213
1.38323e-05;-0.008789930481659887
1.38325e-05;-0.008797765853700507
1.38328e-05;-0.00880560122574118
1.38330e-05;-0.008813436597781854
1.38333e-05;-0.008821271969822474
1.38335e-05;-0.008829107341863148
1.38338e-05;-0.008836942713903822
1.38340e-05;-0.008844778085944444
1.38343e-05;-0.008852613457985116
1.38345e-05;-0.00886044883002579
1.38348e-05;-0.00886424694497973
1.38350e-05;-0.00886303591519188
1.38353e-05;-0.00886182488540402
1.38355e-05;-0.008860613855616161
1.38358e-05;-0.008859402825828309
1.38360e-05;-0.00885819179604045
1.38363e-05;-0.00885698076625259
1.38365e-05;-0.008855769736464738
1.38368e-05;-0.008854558706676879
1.38370e-05;-0.008853347676889018
1.38373e-05;-0.008852136647101168
1.38375e-05;-0.008850925617313307
1.38378e-05;-0.00884926043853247
1.38380e-05;-0.008847031783611431
1.38383e-05;-0.008844305199623646
1.38385e-05;-0.008840960820258202
1.38388e-05;-0.008834141743899624
1.38390e-05;-0.008823011507810395
1.38393e-05;-0.008811881271721165
1.38395e-05;-0.008796247368361088
1.38398e-05;-0.008775025631294184
1.38400e-05;-0.008753803894227278
1.38403e-05;-0.008728206505042038
1.38405e-05;-0.00869718011435044
1.38408e-05;-0.008666153723658842
1.38410e-05;-0.008628300735622934
1.38413e-05;-0.00858197778556442
1.38415e-05;-0.008535654835505908
1.38418e-05;-0.008489331885447707
1.38420e-05;-0.008443008935389195
1.38423e-05;-0.008382527101484892
1.38425e-05;-0.008321241522943022
1.38428e-05;-0.008259955944400736
1.38430e-05;-0.008198670365858451
1.38433e-05;-0.008132584034376254
1.38435e-05;-0.008060541266176504
1.38438e-05;-0.007988498497976265
1.38440e-05;-0.007914520158683016
1.38443e-05;-0.007838140298863525
1.38445e-05;-0.007760723537091035
1.38448e-05;-0.007682020260278004
1.38450e-05;-0.007602700806636354
1.38453e-05;-0.007522459734601282
1.38455e-05;-0.0074420788035917135
1.38458e-05;-0.0073620328303321105
1.38460e-05;-0.0072827958580118654
1.38463e-05;-0.007204818654339754
1.38465e-05;-0.007128453905446263
1.38468e-05;-0.007053950563002687
1.38470e-05;-0.006981609802472937
1.38473e-05;-0.006911874360228217
1.38475e-05;-0.006845249536498092
1.38478e-05;-0.006782241812974501
1.38480e-05;-0.0067233571056326494
1.38483e-05;-0.006669848066257379
1.38485e-05;-0.006619983658628604
1.38488e-05;-0.006572848924743952
1.38490e-05;-0.006529100978123964
1.38493e-05;-0.0064878616920748255
1.38495e-05;-0.006449734975684831
1.38498e-05;-0.0064153868883654284
1.38500e-05;-0.006385727058331649
1.38503e-05;-0.006356067228298071
1.38505e-05;-0.0063305001424369955
1.38508e-05;-0.006310011045795455
1.38510e-05;-0.006289521949154053
1.38513e-05;-0.006273571722689805
1.38515e-05;-0.0062632530072258075
1.38518e-05;-0.006252934291761809
1.38520e-05;-0.006242615576297882
1.38523e-05;-0.006232296860833883
1.38525e-05;-0.006221978145369886
1.38528e-05;-0.006222146358495643
1.38530e-05;-0.006222909873675453
1.38533e-05;-0.006223673388855262
1.38535e-05;-0.006224436904035066
1.38538e-05;-0.006225200419214876
1.38540e-05;-0.006229444749630017
1.38543e-05;-0.00623800783086236
1.38545e-05;-0.006246570912094761
1.38548e-05;-0.006255133993327162
1.38550e-05;-0.006263697074559505
1.38553e-05;-0.006272260155791906
1.38555e-05;-0.006280823237024307
1.38558e-05;-0.00629220375025624
1.38560e-05;-0.0063037441981195
1.38563e-05;-0.00631528464598276
1.38565e-05;-0.0063268250938459435
1.38568e-05;-0.006338365541709204
1.38570e-05;-0.006349905989572464
1.38573e-05;-0.006360956109668388
1.38575e-05;-0.006371397865544333
1.38578e-05;-0.006381390633211461
1.38580e-05;-0.006390472623672737
1.38583e-05;-0.00639887677349985
1.38585e-05;-0.006407813383411279
1.38588e-05;-0.006417778534959597
1.38590e-05;-0.00643005440157102
1.38593e-05;-0.00644519724097298
1.38595e-05;-0.006462420638325485
1.38598e-05;-0.006482225445705327
1.38600e-05;-0.00650426812835776
1.38603e-05;-0.006529087409309975
1.38605e-05;-0.006553906690262022
1.38608e-05;-0.0065842666128568105
1.38610e-05;-0.006621500974055626
1.38613e-05;-0.006658735335254189
1.38615e-05;-0.006695969696453004
1.38618e-05;-0.0067332040576518195
1.38620e-05;-0.0067704384188503825
1.38623e-05;-0.006820619322582928
1.38625e-05;-0.0068715351510656
1.38628e-05;-0.006922450979547926
1.38630e-05;-0.006973366808030597
1.38633e-05;-0.007024282636513268
1.38635e-05;-0.007079567243414061
1.38638e-05;-0.007140272323421574
1.38640e-05;-0.007200977403429087
1.38643e-05;-0.007261682483436189
1.38645e-05;-0.007322387563443703
1.38648e-05;-0.007383092643451216
1.38650e-05;-0.007444611534069502
1.38653e-05;-0.007507140143678113
1.38655e-05;-0.007569668753286723
1.38658e-05;-0.00763219736289491
1.38660e-05;-0.00769472597250352
1.38663e-05;-0.007757254582112131
1.38665e-05;-0.007817445841470367
1.38668e-05;-0.007874737080970412
1.38670e-05;-0.007932028320470458
1.38673e-05;-0.007982182348493001
1.38675e-05;-0.008023481026309112
1.38678e-05;-0.008064779704125223
1.38680e-05;-0.008106078381941053
1.38683e-05;-0.008147377059757164
1.38685e-05;-0.008188675737573274
1.38688e-05;-0.008229974415389384
1.38690e-05;-0.008271273093205215
1.38693e-05;-0.008312571771021326
1.38695e-05;-0.0083309076363202
1.38698e-05;-0.008347939992266738
1.38700e-05;-0.00836497234821339
1.38703e-05;-0.008382004704160045
1.38705e-05;-0.008399037060106581
1.38708e-05;-0.008416069416053235
1.38710e-05;-0.008433101771999888
1.38713e-05;-0.008450134127946426
1.38715e-05;-0.008458470958778172
1.38718e-05;-0.008456018993399778
1.38720e-05;-0.0084535670280214
1.38723e-05;-0.008451115062643006
1.38725e-05;-0.008448663097264612
1.38728e-05;-0.008446211131886235
1.38730e-05;-0.00844375916650784
1.38733e-05;-0.008441307201129447
1.38735e-05;-0.00843885523575107
1.38738e-05;-0.008431182219491108
1.38740e-05;-0.008417031290371236
1.38743e-05;-0.008402880361251459
1.38745e-05;-0.008388729432131585
1.38748e-05;-0.008374578503011713
1.38750e-05;-0.008360427573891934
1.38753e-05;-0.008346276644772062
1.38755e-05;-0.008332125715652188
1.38758e-05;-0.008317974786532411
1.38760e-05;-0.008302749296746318
1.38763e-05;-0.008286190567634171
1.38765e-05;-0.008269631838522135
1.38768e-05;-0.008253073109409986
1.38770e-05;-0.008236514380297839
1.38773e-05;-0.0082211668075292
1.38775e-05;-0.008207321952399576
1.38778e-05;-0.008193477097269856
1.38780e-05;-0.008179632242140139
1.38783e-05;-0.008165787387010513
1.38785e-05;-0.008152626706368437
1.38788e-05;-0.008140314901328794
1.38790e-05;-0.008128003096289232
1.38793e-05;-0.008115691291249588
1.38795e-05;-0.008103379486209945
1.38798e-05;-0.008091067681170383
1.38800e-05;-0.008078755876130739
1.38803e-05;-0.008066444071091094
1.38805e-05;-0.008054132266051534
1.38808e-05;-0.00804182046101189
1.38810e-05;-0.008028501700422073
1.38813e-05;-0.008013933580181007
1.38815e-05;-0.007999365459939843
1.38818e-05;-0.007984797339698677
1.38820e-05;-0.00797022921945761
1.38823e-05;-0.007955661099216445
1.38825e-05;-0.00794109297897528
1.38828e-05;-0.007926524858734213
1.38830e-05;-0.00791195673849305
1.38833e-05;-0.007897388618251884
1.38835e-05;-0.007882028393254005
1.38838e-05;-0.00786568538036361
1.38840e-05;-0.007849342367473214
1.38843e-05;-0.007832999354582931
1.38845e-05;-0.007816656341692535
1.38848e-05;-0.007800313328802141
1.38850e-05;-0.007783970315911856
1.38853e-05;-0.007767627303021461
1.38855e-05;-0.0077512842901310665
1.38858e-05;-0.007736424963122904
1.38860e-05;-0.007721649859178815
1.38863e-05;-0.0077068747552346255
1.38865e-05;-0.007692099651290436
1.38868e-05;-0.007677324547346346
1.38870e-05;-0.007662549443402157
1.38873e-05;-0.007647774339457968
1.38875e-05;-0.007632999235513879
1.38878e-05;-0.007619712923015595
1.38880e-05;-0.007608273798272451
1.38883e-05;-0.007596834673529385
1.38885e-05;-0.007587526848672548
1.38888e-05;-0.007580863390871589
1.38890e-05;-0.007574199933070674
1.38893e-05;-0.00757063426184677
1.38895e-05;-0.007570912106414864
1.38898e-05;-0.007571189950982956
1.38900e-05;-0.007576718593922587
1.38903e-05;-0.00758876205831928
1.38905e-05;-0.007600805522715891
1.38908e-05;-0.007612848987112584
1.38910e-05;-0.0076248924515092764
1.38913e-05;-0.007636935915905888
1.38915e-05;-0.00764897938030258
1.38918e-05;-0.007668083361294357
1.38920e-05;-0.007695947534881074
1.38923e-05;-0.007723811708467981
1.38925e-05;-0.007751675882054888
1.38928e-05;-0.007779540055641605
1.38930e-05;-0.007807404229228512
1.38933e-05;-0.007835268402815418
1.38935e-05;-0.007867825192687963
1.38938e-05;-0.007906204250929806
1.38940e-05;-0.00794458330917165
1.38943e-05;-0.007982962367413495
1.38945e-05;-0.008021341425655078
1.38948e-05;-0.008059720483896924
1.38950e-05;-0.008098099542138767
1.38953e-05;-0.008136478600380352
1.38955e-05;-0.008175531907972575
1.38958e-05;-0.008214623490072171
1.38960e-05;-0.008253715072171503
1.38963e-05;-0.0082928066542711
1.38965e-05;-0.008331898236370696
1.38968e-05;-0.008370989818470028
1.38970e-05;-0.008410081400569626
