Time(s);Current(A)
3.55000e-06;0.0025180807353958694
3.55025e-06;0.002523522905556018
3.55050e-06;0.0025289650757161753
3.55075e-06;0.002534407245876333
3.55100e-06;0.0025398494160364907
3.55125e-06;0.002545291586196639
3.55150e-06;0.0025507337563567965
3.55175e-06;0.0025561759265169542
3.55200e-06;0.002561618096677103
3.55225e-06;0.00256706026683726
3.55250e-06;0.002572502436997418
3.55275e-06;0.0025779446071575755
3.55300e-06;0.0025819835578105984
3.55325e-06;0.0025823372716073495
3.55350e-06;0.0025826909854041002
3.55375e-06;0.002583044699200851
3.55400e-06;0.0025833984129976016
3.55425e-06;0.0025837521267943527
3.55450e-06;0.002584105840591103
3.55475e-06;0.002584459554387854
3.55500e-06;0.002584813268184605
3.55525e-06;0.002585166981981356
3.55550e-06;0.002585520695778106
3.55575e-06;0.0025858744095748573
3.55600e-06;0.0025862281233716084
3.55625e-06;0.0025865818371683586
3.55650e-06;0.0025869355509651097
3.55675e-06;0.0025872892647618604
3.55700e-06;0.0025876429785586116
3.55725e-06;0.002587996692355362
3.55750e-06;0.002588350406152113
3.55775e-06;0.0025865385997490007
3.55800e-06;0.002584100850324508
3.55825e-06;0.0025816631009000115
3.55850e-06;0.002579225351475515
3.55875e-06;0.002576787602051023
3.55900e-06;0.0025743498526265263
3.55925e-06;0.00257191210320203
3.55950e-06;0.0025694743537775333
3.55975e-06;0.0025670366043530407
3.56000e-06;0.002564598854928544
3.56025e-06;0.0025621611055040476
3.56050e-06;0.002559723356079555
3.56075e-06;0.0025572856066550585
3.56100e-06;0.002554847857230562
3.56125e-06;0.0025524101078060655
3.56150e-06;0.0025499723583815733
3.56175e-06;0.0025475346089570763
3.56200e-06;0.00254509685953258
3.56225e-06;0.0025431095803514713
3.56250e-06;0.002542305358799802
3.56275e-06;0.0025415011372481324
3.56300e-06;0.0025406969156964642
3.56325e-06;0.002539892694144795
3.56350e-06;0.0025390884725931253
3.56375e-06;0.002538284251041456
3.56400e-06;0.002537480029489788
3.56425e-06;0.0025366758079381187
3.56450e-06;0.0025358715863864493
3.56475e-06;0.002535067364834781
3.56500e-06;0.0025342631432831116
3.56525e-06;0.002533458921731442
3.56550e-06;0.0025326547001797727
3.56575e-06;0.0025318504786281046
3.56600e-06;0.002531046257076435
3.56625e-06;0.0025302420355247657
3.56650e-06;0.0025294378139730975
3.56675e-06;0.002528633592421428
3.56700e-06;0.0025278293708697586
3.56725e-06;0.002527025149318091
3.56750e-06;0.0025262209277664214
3.56775e-06;0.002525416706214752
3.56800e-06;0.0025246124846630825
3.56825e-06;0.0025238082631114144
3.56850e-06;0.002523004041559745
3.56875e-06;0.0025221998200080755
3.56900e-06;0.0025213955984564073
3.56925e-06;0.002520591376904738
3.56950e-06;0.0025207040239349377
3.56975e-06;0.002521081691577937
3.57000e-06;0.0025214593592209353
3.57025e-06;0.0025218370268639346
3.57050e-06;0.002522214694506934
3.57075e-06;0.002522592362149932
3.57100e-06;0.0025229700297929314
3.57125e-06;0.0025233476974359306
3.57150e-06;0.0025237253650789294
3.57175e-06;0.0025241030327219287
3.57200e-06;0.002524480700364928
3.57225e-06;0.002524858368007927
3.57250e-06;0.0025252360356509255
3.57275e-06;0.0025256137032939247
3.57300e-06;0.002525991370936924
3.57325e-06;0.0025263690385799223
3.57350e-06;0.0025267467062229216
3.57375e-06;0.002527124373865921
3.57400e-06;0.00252750204150892
3.57425e-06;0.002527879709151919
3.57450e-06;0.002528257376794918
3.57475e-06;0.0025286350444379173
3.57500e-06;0.0025290127120809157
3.57525e-06;0.002529390379723915
3.57550e-06;0.002529768047366914
3.57575e-06;0.002530145715009913
3.57600e-06;0.002530523382652912
3.57625e-06;0.002530901050295911
3.57650e-06;0.0025314951538941434
3.57675e-06;0.0025327198132386033
3.57700e-06;0.002534107658497763
3.57725e-06;0.002535495503756923
3.57750e-06;0.00253688334901608
3.57775e-06;0.00253827119427524
3.57800e-06;0.0025396590395343997
3.57825e-06;0.0025410468847935595
3.57850e-06;0.002542434730052717
3.57875e-06;0.002543822575311877
3.57900e-06;0.0025452104205710368
3.57925e-06;0.0025465982658301944
3.57950e-06;0.002547986111089354
3.57975e-06;0.002549373956348514
3.58000e-06;0.002550761801607671
3.58025e-06;0.002552149646866831
3.58050e-06;0.002553537492125991
3.58075e-06;0.00255515840334354
3.58100e-06;0.0025573914092872447
3.58125e-06;0.002559624415230953
3.58150e-06;0.002561857421174661
3.58175e-06;0.002564090427118365
3.58200e-06;0.0025663234330620733
3.58225e-06;0.0025685564390057814
3.58250e-06;0.0025707894449494896
3.58275e-06;0.0025730224508931938
3.58300e-06;0.002575255456836902
3.58325e-06;0.00257748846278061
3.58350e-06;0.0025797214687243147
3.58375e-06;0.002581954474668023
3.58400e-06;0.002584187480611731
3.58425e-06;0.002586420486555435
3.58450e-06;0.0025886534924991433
3.58475e-06;0.0025925554358174462
3.58500e-06;0.002600840463531176
3.58525e-06;0.002609125491244892
3.58550e-06;0.0026174105189586214
3.58575e-06;0.0026256955466723514
3.58600e-06;0.002633980574386067
3.58625e-06;0.002642265602099797
3.58650e-06;0.0026505506298135266
3.58675e-06;0.0026588356575272566
3.58700e-06;0.0026671206852409723
3.58725e-06;0.0026754057129547023
3.58750e-06;0.002683690740668432
3.58775e-06;0.0026919757683821475
3.58800e-06;0.0027010528882703954
3.58825e-06;0.0027122102580846353
3.58850e-06;0.0027233676278988566
3.58875e-06;0.0027345249977130965
3.58900e-06;0.0027456823675273364
3.58925e-06;0.0027568397373415763
3.58950e-06;0.0027679971071557976
3.58975e-06;0.0027791544769700375
3.59000e-06;0.002790311846784278
3.59025e-06;0.0028014692165984987
3.59050e-06;0.0028126265864127386
3.59075e-06;0.002823783956226979
3.59100e-06;0.002834941326041219
3.59125e-06;0.002844575189463334
3.59150e-06;0.002850207909885334
3.59175e-06;0.002855840630307334
3.59200e-06;0.002861473350729324
3.59225e-06;0.0028671060711513235
3.59250e-06;0.002872738791573323
3.59275e-06;0.0028783715119953136
3.59300e-06;0.002884004232417313
3.59325e-06;0.0028896369528393128
3.59350e-06;0.0028952696732613124
3.59375e-06;0.0029009023936833024
3.59400e-06;0.0029065351141053025
3.59425e-06;0.002912167834527302
3.59450e-06;0.002917800554949292
3.59475e-06;0.0029234332753712918
3.59500e-06;0.0029290659957932914
3.59525e-06;0.0029346987162152914
3.59550e-06;0.0029403314366372815
3.59575e-06;0.002945964157059281
3.59600e-06;0.0029515968774812807
3.59625e-06;0.0029560367323068983
3.59650e-06;0.0029573437969742425
3.59675e-06;0.002958650861641587
3.59700e-06;0.0029599579263089285
3.59725e-06;0.0029612649909762727
3.59750e-06;0.0029625720556436166
3.59775e-06;0.002963879120310961
3.59800e-06;0.0029651861849783025
3.59825e-06;0.0029664932496456468
3.59850e-06;0.002967800314312991
3.59875e-06;0.0029691073789803327
3.59900e-06;0.002970414443647677
3.59925e-06;0.002971721508315021
3.59950e-06;0.002973028572982365
3.59975e-06;0.0029743356376497067
3.60000e-06;0.002975642702317051
3.60025e-06;0.0029769497669843953
3.60050e-06;0.002978256831651737
3.60075e-06;0.002979563896319081
3.60100e-06;0.002980870960986425
3.60125e-06;0.0029809982733389976
3.60150e-06;0.0029780272345845
3.60175e-06;0.002975056195830002
3.60200e-06;0.0029720851570755047
3.60225e-06;0.002969114118321012
3.60250e-06;0.0029661430795665145
3.60275e-06;0.0029631720408120166
3.60300e-06;0.002960201002057524
3.60325e-06;0.0029572299633030263
3.60350e-06;0.0029542589245485284
3.60375e-06;0.002951287885794036
3.60400e-06;0.002948316847039538
3.60425e-06;0.0029453458082850407
3.60450e-06;0.002942374769530543
3.60475e-06;0.00293940373077605
3.60500e-06;0.0029364326920215526
3.60525e-06;0.0029334616532670547
3.60550e-06;0.0029304906145125624
3.60575e-06;0.0029199577201534255
3.60600e-06;0.0029072390734993627
3.60625e-06;0.0028945204268453002
3.60650e-06;0.002881801780191259
3.60675e-06;0.002869083133537196
3.60700e-06;0.0028563644868831333
3.60725e-06;0.002843645840229092
3.60750e-06;0.0028309271935750293
3.60775e-06;0.002818208546920967
3.60800e-06;0.0028054899002669257
3.60825e-06;0.002792771253612863
3.60850e-06;0.0027800526069588
3.60875e-06;0.002767333960304737
3.60900e-06;0.002754615313650696
3.60925e-06;0.002741896666996633
3.60950e-06;0.0027291780203425706
3.60975e-06;0.0027164593736885294
3.61000e-06;0.002703872934087682
3.61025e-06;0.002691633706240176
3.61050e-06;0.002679394478392669
3.61075e-06;0.002667155250545183
3.61100e-06;0.002654916022697677
3.61125e-06;0.00264267679485017
3.61150e-06;0.002630437567002684
3.61175e-06;0.0026181983391551774
3.61200e-06;0.002605959111307671
3.61225e-06;0.002593719883460185
3.61250e-06;0.0025814806556126784
3.61275e-06;0.002569241427765172
3.61300e-06;0.0025576515641047874
3.61325e-06;0.0025477671077769985
3.61350e-06;0.0025378826514491923
3.61375e-06;0.0025279981951213865
3.61400e-06;0.0025181137387935973
3.61425e-06;0.0025082292824657915
3.61450e-06;0.0024983448261379857
3.61475e-06;0.0024884603698101795
3.61500e-06;0.0024785759134823906
3.61525e-06;0.0024686914571545844
3.61550e-06;0.0024588070008267787
3.61575e-06;0.0024489225444989894
3.61600e-06;0.002438514855799042
3.61625e-06;0.0024267330162884727
3.61650e-06;0.0024149511767779237
3.61675e-06;0.0024031693372673544
3.61700e-06;0.002391387497756785
3.61725e-06;0.002379605658246216
3.61750e-06;0.0023678238187356667
3.61775e-06;0.0023560419792250974
3.61800e-06;0.0023442601397145285
3.61825e-06;0.002332478300203979
3.61850e-06;0.0023206964606934098
3.61875e-06;0.002308914621182841
3.61900e-06;0.0022971327816722715
3.61925e-06;0.0022857380092023267
3.61950e-06;0.002275359780272
3.61975e-06;0.002264981551341674
3.62000e-06;0.0022546033224113645
3.62025e-06;0.002244225093481038
3.62050e-06;0.0022338468645507112
3.62075e-06;0.0022234686356204024
3.62100e-06;0.0022130904066900757
3.62125e-06;0.002202712177759749
3.62150e-06;0.0021923339488294225
3.62175e-06;0.0021819557198991136
3.62200e-06;0.002171577490968787
3.62225e-06;0.0021611992620384603
3.62250e-06;0.0021517428909875853
3.62275e-06;0.00214470756997074
3.62300e-06;0.002137672248953895
3.62325e-06;0.00213063692793705
3.62350e-06;0.0021236016069202173
3.62375e-06;0.0021165662859033724
3.62400e-06;0.002109530964886527
3.62425e-06;0.0021024956438696943
3.62450e-06;0.0020954603228528494
3.62475e-06;0.0020884250018360045
3.62500e-06;0.0020813896808191713
3.62525e-06;0.0020743543598023264
3.62550e-06;0.0020673190387854815
3.62575e-06;0.0020602837177686366
3.62600e-06;0.0020532483967518034
3.62625e-06;0.0020462130757349585
3.62650e-06;0.0020391777547181136
3.62675e-06;0.0020321424337012804
3.62700e-06;0.0020251071126844355
3.62725e-06;0.0020181926065302317
3.62750e-06;0.0020115953931321546
3.62775e-06;0.0020049981797340887
3.62800e-06;0.0019984009663360116
3.62825e-06;0.001991803752937935
3.62850e-06;0.001985206539539869
3.62875e-06;0.001978609326141792
3.62900e-06;0.001972012112743715
3.62925e-06;0.001965414899345649
3.62950e-06;0.0019588176859475725
3.62975e-06;0.0019522204725494954
3.63000e-06;0.0019456232591514183
3.63025e-06;0.0019390260457533524
3.63050e-06;0.0019324288323552756
3.63075e-06;0.0019258316189571985
3.63100e-06;0.0019192344055591326
3.63125e-06;0.0019126371921610557
3.63150e-06;0.0019060399787629786
3.63175e-06;0.0018994427653649018
3.63200e-06;0.0018955780768803872
3.63225e-06;0.001898889743540399
3.63250e-06;0.0019022014102004106
3.63275e-06;0.0019055130768604166
3.63300e-06;0.0019088247435204283
3.63325e-06;0.00191213641018044
3.63350e-06;0.001915448076840446
3.63375e-06;0.0019187597435004577
3.63400e-06;0.0019220714101604694
3.63425e-06;0.001925383076820481
3.63450e-06;0.0019286947434804871
3.63475e-06;0.0019320064101404988
3.63500e-06;0.0019353180768005105
3.63525e-06;0.001944137442718981
3.63550e-06;0.001967421527957196
3.63575e-06;0.0019907056131954113
3.63600e-06;0.0020139896984336264
3.63625e-06;0.0020372737836718024
3.63650e-06;0.0020605578689100175
3.63675e-06;0.0020838419541482326
3.63700e-06;0.0021071260393864086
3.63725e-06;0.0021304101246246237
3.63750e-06;0.0021536942098628387
3.63775e-06;0.002176978295101015
3.63800e-06;0.00220026238033923
3.63825e-06;0.002223546465577445
3.63850e-06;0.002249052211045804
3.63875e-06;0.002280392641769254
3.63900e-06;0.0023117330724927573
3.63925e-06;0.0023430735032162605
3.63950e-06;0.002374413933939711
3.63975e-06;0.002405754364663214
3.64000e-06;0.0024370947953867173
3.64025e-06;0.0024684352261102206
3.64050e-06;0.0024982848838328974
3.64075e-06;0.0025242193653605537
3.64100e-06;0.00255015384688821
3.64125e-06;0.002576088328415822
3.64150e-06;0.0026020228099434784
3.64175e-06;0.0026279572914711348
3.64200e-06;0.0026538917729987473
3.64225e-06;0.0026798262545264036
3.64250e-06;0.002701782415823376
3.64275e-06;0.0027132904239436147
3.64300e-06;0.0027247984320638336
3.64325e-06;0.0027363064401840723
3.64350e-06;0.002747814448304311
3.64375e-06;0.0027593224564245304
3.64400e-06;0.002770830464544769
3.64425e-06;0.002782338472665008
3.64450e-06;0.0027938464807852467
3.64475e-06;0.002805354488905466
3.64500e-06;0.0028168624970257047
3.64525e-06;0.0028283705051459435
3.64550e-06;0.0028398785132661628
3.64575e-06;0.0028513865213864015
3.64600e-06;0.0028534535552566308
3.64625e-06;0.002852791678100224
3.64650e-06;0.0028521298009438157
3.64675e-06;0.002851467923787408
3.64700e-06;0.0028508060466310003
3.64725e-06;0.0028501441694745934
3.64750e-06;0.0028494822923181857
3.64775e-06;0.0028488204151617775
3.64800e-06;0.002848158538005371
3.64825e-06;0.002847496660848963
3.64850e-06;0.002846834783692555
3.64875e-06;0.0028461729065361475
3.64900e-06;0.0028455110293797406
3.64925e-06;0.0028438115729140607
3.64950e-06;0.002839387150400367
3.64975e-06;0.0028349627278866814
3.65000e-06;0.002830538305372988
3.65025e-06;0.0028261138828592942
3.65050e-06;0.002821689460345608
3.65075e-06;0.0028172650378319145
3.65100e-06;0.002812840615318221
3.65125e-06;0.002808169390645977
3.65150e-06;0.0028028499962419176
3.65175e-06;0.002797530601837849
3.65200e-06;0.0027922112074337804
3.65225e-06;0.0027868918130297205
3.65250e-06;0.002781572418625652
3.65275e-06;0.0027762530242215833
3.65300e-06;0.0027709336298175147
3.65325e-06;0.0027609041497272157
3.65350e-06;0.0027385047009375594
3.65375e-06;0.002716105252147903
3.65400e-06;0.002693705803358285
3.65425e-06;0.002671306354568629
3.65450e-06;0.002648906905778973
3.65475e-06;0.0026265074569893545
3.65500e-06;0.0026041080081996982
3.65525e-06;0.0025817085594100424
3.65550e-06;0.002559309110620386
3.65575e-06;0.002530422117448426
3.65600e-06;0.0024844970646118883
3.65625e-06;0.002438572011775351
3.65650e-06;0.0023926469589388914
3.65675e-06;0.002346721906102354
3.65700e-06;0.002300796853265817
3.65725e-06;0.0022548718004292796
3.65750e-06;0.00220894674759282
3.65775e-06;0.0021630216947562827
3.65800e-06;0.0021170966419197454
3.65825e-06;0.002068307231904908
3.65850e-06;0.002011995239286963
3.65875e-06;0.0019556832466690183
3.65900e-06;0.0018993712540511687
3.65925e-06;0.001843059261433224
3.65950e-06;0.001786747268815279
3.65975e-06;0.0017310752341168328
3.66000e-06;0.0016770839033293848
3.66025e-06;0.0016230925725418453
3.66050e-06;0.0015691012417543059
3.66075e-06;0.0015151099109668579
3.66100e-06;0.0014611185801793184
3.66125e-06;0.0014093340945651803
3.66150e-06;0.001363345385830668
3.66175e-06;0.0013173566770962335
3.66200e-06;0.0012734326440630196
3.66225e-06;0.0012349310121288239
3.66250e-06;0.0011984521450354598
3.66275e-06;0.0011672856096989355
3.66300e-06;0.0011382462070373784
3.66325e-06;0.001114793234509825
3.66350e-06;0.0010935456946103122
3.66375e-06;0.0010780902218615856
3.66400e-06;0.001064920488150428
3.66425e-06;0.0010577537281081244
3.66450e-06;0.0010528942002639465
3.66475e-06;0.0010540940929860175
3.66500e-06;0.001057497219259995
3.66525e-06;0.0010666866373113947
3.66550e-06;0.001077958981791164
3.66575e-06;0.001094701658753345
3.66600e-06;0.0011134081749457788
3.66625e-06;0.001137272268182404
3.66650e-06;0.0011629443551706524
3.66675e-06;0.0011933647265018753
3.66700e-06;0.0012257009479777596
3.66725e-06;0.0012630687140799146
3.66750e-06;0.0013004364801820064
3.66775e-06;0.0013401393256645409
3.66800e-06;0.0013859747260034252
3.66825e-06;0.0014318101263423096
3.66850e-06;0.0014776455266811163
3.66875e-06;0.001523480927020001
3.66900e-06;0.001569316327358885
3.66925e-06;0.0016183779636898214
3.66950e-06;0.0016683721426527921
3.66975e-06;0.001718366321615763
3.67000e-06;0.0017683605005787337
3.67025e-06;0.0018183546795416197
3.67050e-06;0.0018664411193773623
3.67075e-06;0.001909517316328888
3.67100e-06;0.0019525935132803404
3.67125e-06;0.001995669710231866
3.67150e-06;0.0020387459071833916
3.67175e-06;0.002081822104134844
3.67200e-06;0.00212489830108637
3.67225e-06;0.002164511441492273
3.67250e-06;0.002195029651586163
3.67275e-06;0.0022255478616800013
3.67300e-06;0.002256066071773891
3.67325e-06;0.0022865842818677808
3.67350e-06;0.002317102491961619
3.67375e-06;0.002347620702055509
3.67400e-06;0.0023761775590345306
3.67425e-06;0.0023995833681856363
3.67450e-06;0.002422989177336702
3.67475e-06;0.0024463949864878074
3.67500e-06;0.002469800795638913
3.67525e-06;0.002493206604789979
3.67550e-06;0.002516612413941084
3.67575e-06;0.00254001822309219
3.67600e-06;0.0025634240322432557
3.67625e-06;0.002586829841394361
3.67650e-06;0.0026102356505454667
3.67675e-06;0.0026336414596965724
3.67700e-06;0.002657047268847638
3.67725e-06;0.0026804530779987435
3.67750e-06;0.002703858887149849
3.67775e-06;0.002727264696300915
3.67800e-06;0.0027499077256614105
3.67825e-06;0.0027679161360294933
3.67850e-06;0.0027859245463975756
3.67875e-06;0.002803932956765628
3.67900e-06;0.0028219413671337103
3.67925e-06;0.002839949777501793
3.67950e-06;0.002857958187869845
3.67975e-06;0.0028759665982379277
3.68000e-06;0.0028939750086060105
3.68025e-06;0.0029119834189740624
3.68050e-06;0.002929991829342145
3.68075e-06;0.002948000239710228
3.68100e-06;0.0029660086500783106
3.68125e-06;0.0029840170604463626
3.68150e-06;0.0030020254708144453
3.68175e-06;0.0030200338811825276
3.68200e-06;0.0030379496169327374
3.68225e-06;0.0030424916450145665
3.68250e-06;0.003047033673096396
3.68275e-06;0.003051575701178218
3.68300e-06;0.0030561177292600474
3.68325e-06;0.003060659757341877
3.68350e-06;0.0030652017854237066
3.68375e-06;0.0030697438135055283
3.68400e-06;0.0030742858415873575
3.68425e-06;0.003078827869669187
3.68450e-06;0.003083369897751009
3.68475e-06;0.0030879119258328384
3.68500e-06;0.003092453953914668
3.68525e-06;0.0030969959819964975
3.68550e-06;0.0031015380100783193
3.68575e-06;0.003100376481432253
3.68600e-06;0.003093666270167575
3.68625e-06;0.0030869560589029087
3.68650e-06;0.0030802458476382306
3.68675e-06;0.0030735356363735524
3.68700e-06;0.0030668254251088856
3.68725e-06;0.003060115213844208
3.68750e-06;0.00305340500257953
3.68775e-06;0.0030466947913148517
3.68800e-06;0.003039984580050185
3.68825e-06;0.003033274368785507
3.68850e-06;0.003026564157520829
3.68875e-06;0.0030198539462561623
3.68900e-06;0.003013143734991484
3.68925e-06;0.0030064116447645604
3.68950e-06;0.0029965222407855765
3.68975e-06;0.002986632836806609
3.69000e-06;0.002976743432827625
3.69025e-06;0.002966854028848641
3.69050e-06;0.0029569646248696737
3.69075e-06;0.0029470752208906894
3.69100e-06;0.0029371858169117055
3.69125e-06;0.002927296412932738
3.69150e-06;0.0029174070089537543
3.69175e-06;0.00290751760497477
3.69200e-06;0.002897628200995786
3.69225e-06;0.002887738797016819
3.69250e-06;0.0028778493930378345
3.69275e-06;0.0028679599890588507
3.69300e-06;0.0028580705850798833
3.69325e-06;0.002848181181100899
3.69350e-06;0.002837034224016664
3.69375e-06;0.002824663861364594
3.69400e-06;0.002812293498712545
3.69425e-06;0.002799923136060475
3.69450e-06;0.0027875527734084055
3.69475e-06;0.002775182410756356
3.69500e-06;0.0027628120481042865
3.69525e-06;0.0027504416854522164
3.69550e-06;0.0027380713228001676
3.69575e-06;0.0027257009601480975
3.69600e-06;0.0027133305974960274
3.69625e-06;0.0027009602348439577
3.69650e-06;0.0026885898721919084
3.69675e-06;0.002676219509539839
3.69700e-06;0.0026638491468877687
3.69725e-06;0.0026514787842357194
3.69750e-06;0.002639088472998218
3.69775e-06;0.0026238194172130513
3.69800e-06;0.002608550361427885
3.69825e-06;0.002593281305642744
3.69850e-06;0.0025780122498575775
