Time(s);Current(A)
5.00000e-06;0.0017929938627202614
5.00025e-06;0.0017848381851546414
5.00050e-06;0.0017766825075889938
5.00075e-06;0.0017685268300233737
5.00100e-06;0.0017473076208311933
5.00125e-06;0.0017214249900750834
5.00150e-06;0.0016955423593190612
5.00175e-06;0.0016696597285630389
5.00200e-06;0.0016437770978069291
5.00225e-06;0.001617894467050907
5.00250e-06;0.0015920118362948846
5.00275e-06;0.0015661292055387747
5.00300e-06;0.0015402465747827525
5.00325e-06;0.0015122708200790381
5.00350e-06;0.0014775538502573185
5.00375e-06;0.0014428368804357164
5.00400e-06;0.0014081199106139965
5.00425e-06;0.0013734029407923944
5.00450e-06;0.0013386859709707923
5.00475e-06;0.0013039277425732404
5.00500e-06;0.0012690366348327388
5.00525e-06;0.0012341455270922371
5.00550e-06;0.0011992544193516175
5.00575e-06;0.0011643633116111159
5.00600e-06;0.0011294722038706143
5.00625e-06;0.0010955418256281878
5.00650e-06;0.0010647056187673475
5.00675e-06;0.0010338694119065071
5.00700e-06;0.001004270102671149
5.00725e-06;0.0009786544050997621
5.00750e-06;0.0009530387075283752
5.00775e-06;0.0009287469298488622
5.00800e-06;0.0009087190319072928
5.00825e-06;0.0008886911339656555
5.00850e-06;0.000869770960978689
5.00875e-06;0.0008544183799719038
5.00900e-06;0.0008390657989650665
5.00925e-06;0.0008249871586595849
5.00950e-06;0.0008150114327194667
5.00975e-06;0.0008050357067793147
5.01000e-06;0.0007961476258540815
5.01025e-06;0.0007907624664944575
5.01050e-06;0.0007853773071348153
5.01075e-06;0.000780964015939679
5.01100e-06;0.0007796807698471807
5.01125e-06;0.0007783975237546781
5.01150e-06;0.0007780645120820696
5.01175e-06;0.0007807918708392774
5.01200e-06;0.0007835192295964945
5.01225e-06;0.000787332418845036
5.01250e-06;0.0007946426857176626
5.01275e-06;0.0008019529525902645
5.01300e-06;0.0008092632194628663
5.01325e-06;0.0008165734863354929
5.01350e-06;0.0008238837532080947
5.01375e-06;0.0008311940200806966
5.01400e-06;0.0008393360953052587
5.01425e-06;0.0008501571322997159
5.01450e-06;0.0008609781692941732
5.01475e-06;0.0008717992062886671
5.01500e-06;0.0008826202432831243
5.01525e-06;0.0008934412802775816
5.01550e-06;0.0009042623172720756
5.01575e-06;0.0009147596265321093
5.01600e-06;0.0009242143227643554
5.01625e-06;0.0009336690189966334
5.01650e-06;0.0009431237152288794
5.01675e-06;0.0009525784114611575
5.01700e-06;0.0009620331076934035
5.01725e-06;0.0009714878039256496
5.01750e-06;0.0009809425001579277
5.01775e-06;0.0009903971963901737
5.01800e-06;0.000999236490891316
5.01825e-06;0.0010060937931381615
5.01850e-06;0.0010129510953849838
5.01875e-06;0.001019808397631806
5.01900e-06;0.0010266656998786515
5.01925e-06;0.0010335230021254738
5.01950e-06;0.001040380304372296
5.01975e-06;0.0010472376066191415
5.02000e-06;0.0010540949088659636
5.02025e-06;0.00106101472902859
5.02050e-06;0.0010681358973815528
5.02075e-06;0.0010752570657344912
5.02100e-06;0.001082378234087454
5.02125e-06;0.0010894994024403925
5.02150e-06;0.001096620570793331
5.02175e-06;0.0011037417391462937
5.02200e-06;0.0011108629074992322
5.02225e-06;0.001117984075852171
5.02250e-06;0.0011251052442051335
5.02275e-06;0.0011322264125580722
5.02300e-06;0.0011393475809110107
5.02325e-06;0.0011464687492639734
5.02350e-06;0.001153589917616912
5.02375e-06;0.001160339920319386
5.02400e-06;0.0011669574242499823
5.02425e-06;0.0011735749281805562
5.02450e-06;0.0011801924321111301
5.02475e-06;0.0011868099360417266
5.02500e-06;0.0011934274399723005
5.02525e-06;0.001200044943902897
5.02550e-06;0.0012066624478334709
5.02575e-06;0.0012132799517640448
5.02600e-06;0.001219897455694641
5.02625e-06;0.001226514959625215
5.02650e-06;0.001233132463555789
5.02675e-06;0.0012397499674863853
5.02700e-06;0.0012453916173493767
5.02725e-06;0.0012478903849209005
5.02750e-06;0.0012503891524924327
5.02775e-06;0.0012528879200639565
5.02800e-06;0.0012553866876354803
5.02825e-06;0.0012578854552070125
5.02850e-06;0.0012603842227785363
5.02875e-06;0.00126288299035006
5.02900e-06;0.0012653817579215923
5.02925e-06;0.0012678805254931161
5.02950e-06;0.0012703792930646484
5.02975e-06;0.0012728780606361722
5.03000e-06;0.001275376828207696
5.03025e-06;0.0012778755957792282
5.03050e-06;0.001280374363350752
5.03075e-06;0.0012828731309222758
5.03100e-06;0.001284417594529886
5.03125e-06;0.0012828885811410958
5.03150e-06;0.0012813595677523056
5.03175e-06;0.0012798305543635102
5.03200e-06;0.00127830154097472
5.03225e-06;0.0012767725275859298
5.03250e-06;0.0012752435141971344
5.03275e-06;0.0012737145008083442
5.03300e-06;0.001272185487419554
5.03325e-06;0.0012706564740307587
5.03350e-06;0.0012691274606419685
5.03375e-06;0.001267598447253173
5.03400e-06;0.0012660694338643829
5.03425e-06;0.0012645404204755927
5.03450e-06;0.0012630114070867975
5.03475e-06;0.0012614823936980073
5.03500e-06;0.0012599368550428591
5.03525e-06;0.001258338094324374
5.03550e-06;0.0012567393336058942
5.03575e-06;0.0012551405728874144
5.03600e-06;0.0012535418121689293
5.03625e-06;0.0012519430514504495
5.03650e-06;0.0012503442907319698
5.03675e-06;0.0012487455300134846
5.03700e-06;0.0012471467692950048
5.03725e-06;0.001245548008576525
5.03750e-06;0.00124394924785804
5.03775e-06;0.0012423504871395602
5.03800e-06;0.001240751726421075
5.03825e-06;0.0012391529657025952
5.03850e-06;0.0012375542049841155
5.03875e-06;0.0012359554442656303
5.03900e-06;0.0012343566835471506
5.03925e-06;0.0012327579228286708
5.03950e-06;0.0012311591621101856
5.03975e-06;0.0012295604013917059
5.04000e-06;0.0012279616406732261
5.04025e-06;0.001226362879954741
5.04050e-06;0.0012247641192362612
5.04075e-06;0.0012231653585177815
5.04100e-06;0.001221988993675011
5.04125e-06;0.001222173017194989
5.04150e-06;0.0012223570407149669
5.04175e-06;0.0012225410642349454
5.04200e-06;0.0012227250877549234
5.04225e-06;0.001222909111274902
5.04250e-06;0.0012230931347948799
5.04275e-06;0.0012232771583148578
5.04300e-06;0.0012234611818348362
5.04325e-06;0.001223645205354814
5.04350e-06;0.001223829228874792
5.04375e-06;0.0012240132523947706
5.04400e-06;0.0012241972759147485
5.04425e-06;0.0012243812994347264
5.04450e-06;0.001224565322954705
5.04475e-06;0.001224749346474683
5.04500e-06;0.0012249333699946609
5.04525e-06;0.0012251173935146395
5.04550e-06;0.0012253014170346174
5.04575e-06;0.0012254854405545953
5.04600e-06;0.0012256694640745739
5.04625e-06;0.0012258534875945518
5.04650e-06;0.0012260375111145304
5.04675e-06;0.0012262215346345083
5.04700e-06;0.0012265588908547875
5.04725e-06;0.0012273900777042953
5.04750e-06;0.0012282212645538001
5.04775e-06;0.0012290524514033052
5.04800e-06;0.001229883638252813
5.04825e-06;0.0012307148251023178
5.04850e-06;0.0012315460119518228
5.04875e-06;0.0012323771988013306
5.04900e-06;0.0012332083856508354
5.04925e-06;0.0012340395725003405
5.04950e-06;0.0012348707593498483
5.04975e-06;0.0012357019461993533
5.05000e-06;0.0012365331330488581
5.05025e-06;0.001237364319898366
5.05050e-06;0.001238195506747871
5.05075e-06;0.0012390266935973786
5.05100e-06;0.0012398578804468836
5.05125e-06;0.0012406890672963886
5.05150e-06;0.0012415202541458962
5.05175e-06;0.0012423514409954013
5.05200e-06;0.0012431826278449063
5.05225e-06;0.0012442122612365595
5.05250e-06;0.0012459321621910266
5.05275e-06;0.0012476520631454937
5.05300e-06;0.0012493719640999665
5.05325e-06;0.0012510918650544336
5.05350e-06;0.0012528117660089008
5.05375e-06;0.0012545316669633736
5.05400e-06;0.0012562515679178407
5.05425e-06;0.0012579714688723078
5.05450e-06;0.0012596913698267806
5.05475e-06;0.0012614112707812477
5.05500e-06;0.0012631311717357207
5.05525e-06;0.0012648510726901876
5.05550e-06;0.0012665709736446548
5.05575e-06;0.0012682908745991278
5.05600e-06;0.0012700107755535947
5.05625e-06;0.0012717306765080618
5.05650e-06;0.0012734505774625346
5.05675e-06;0.0012751704784170017
5.05700e-06;0.0012768903793714688
5.05725e-06;0.0012786102803259416
5.05750e-06;0.0012808140259987523
5.05775e-06;0.0012848416628764609
5.05800e-06;0.001288869299754183
5.05825e-06;0.0012928969366318916
5.05850e-06;0.0012969245735096001
5.05875e-06;0.0013009522103873221
5.05900e-06;0.0013049798472650307
5.05925e-06;0.0013090074841427529
5.05950e-06;0.0013130351210204614
5.05975e-06;0.00131706275789817
5.06000e-06;0.0013210903947758921
5.06025e-06;0.0013251180316536007
5.06050e-06;0.0013291456685313092
5.06075e-06;0.0013331733054090314
5.06100e-06;0.0013389979764431956
5.06125e-06;0.001349487328603378
5.06150e-06;0.0013599766807635958
5.06175e-06;0.0013704660329237782
5.06200e-06;0.0013809553850839603
5.06225e-06;0.0013914447372441782
5.06250e-06;0.0014019340894043605
5.06275e-06;0.0014124234415645426
5.06300e-06;0.0014229127937247605
5.06325e-06;0.0014334021458849429
5.06350e-06;0.0014438914980451605
5.06375e-06;0.0014543808502053429
5.06400e-06;0.0014648702023655252
5.06425e-06;0.001475359554525743
5.06450e-06;0.0014856465879564888
5.06475e-06;0.001495552127804626
5.06500e-06;0.0015054576676527967
5.06525e-06;0.001515363207500934
5.06550e-06;0.001525268747349071
5.06575e-06;0.001535174287197242
5.06600e-06;0.0015450798270453792
5.06625e-06;0.0015549853668935163
5.06650e-06;0.0015648909067416871
5.06675e-06;0.0015747964465898242
5.06700e-06;0.0015847019864379615
5.06725e-06;0.0015946075262861321
5.06750e-06;0.0016045130661342694
5.06775e-06;0.00161441860598244
5.06800e-06;0.0016243241458305773
5.06825e-06;0.0016342296856787146
5.06850e-06;0.0016441352255268853
5.06875e-06;0.00164900700184247
5.06900e-06;0.0016529663151597
5.06925e-06;0.0016569256284769433
5.06950e-06;0.001660884941794173
5.06975e-06;0.0016648442551114029
5.07000e-06;0.0016688035684286461
5.07025e-06;0.0016727628817458761
5.07050e-06;0.001676722195063106
5.07075e-06;0.0016806815083803492
5.07100e-06;0.001684640821697579
5.07125e-06;0.0016886001350148087
5.07150e-06;0.0016925594483320522
5.07175e-06;0.001696518761649282
5.07200e-06;0.0017004780749665252
5.07225e-06;0.001704437388283755
5.07250e-06;0.0017083967016009848
5.07275e-06;0.0017115178071287762
5.07300e-06;0.0017130583823052536
5.07325e-06;0.0017145989574817307
5.07350e-06;0.0017161395326582133
5.07375e-06;0.0017176801078346905
5.07400e-06;0.0017192206830111676
5.07425e-06;0.0017207612581876502
5.07450e-06;0.0017223018333641274
5.07475e-06;0.0017238424085406045
5.07500e-06;0.001725382983717087
5.07525e-06;0.0017269235588935642
5.07550e-06;0.0017284641340700414
5.07575e-06;0.001730004709246524
5.07600e-06;0.0017301049324132322
5.07625e-06;0.0017299440650649183
5.07650e-06;0.001729783197716605
5.07675e-06;0.0017296223303682916
5.07700e-06;0.0017294614630199777
5.07725e-06;0.0017293005956716644
5.07750e-06;0.001729139728323351
5.07775e-06;0.001728978860975037
5.07800e-06;0.0017288179936267238
5.07825e-06;0.0017286571262784105
5.07850e-06;0.0017284962589300965
5.07875e-06;0.0017283353915817832
5.07900e-06;0.0017257878592000931
5.07925e-06;0.001718740014878239
5.07950e-06;0.0017116921705564085
5.07975e-06;0.0017046443262345781
5.08000e-06;0.001697596481912724
5.08025e-06;0.0016905486375908935
5.08050e-06;0.0016835007932690393
5.08075e-06;0.001676452948947209
5.08100e-06;0.0016694051046253786
5.08125e-06;0.0016623572603035241
5.08150e-06;0.0016553094159816937
5.08175e-06;0.0016482615716598634
5.08200e-06;0.0016355953887674229
5.08225e-06;0.0016219107778097362
5.08250e-06;0.0016082261668520492
5.08275e-06;0.0015945415558943161
5.08300e-06;0.0015808569449366294
5.08325e-06;0.0015671723339789427
5.08350e-06;0.0015534877230212096
5.08375e-06;0.001539803112063523
5.08400e-06;0.0015261185011058362
5.08425e-06;0.001512433890148103
5.08450e-06;0.0014987492791904164
5.08475e-06;0.0014850187326505987
5.08500e-06;0.0014712015696623322
5.08525e-06;0.0014573844066741123
5.08550e-06;0.0014435672436858458
5.08575e-06;0.0014297500806976261
5.08600e-06;0.0014159329177094065
5.08625e-06;0.00140211575472114
5.08650e-06;0.00138829859173292
5.08675e-06;0.0013744814287447004
5.08700e-06;0.001360664265756434
5.08725e-06;0.0013499986115340801
5.08750e-06;0.0013399042267242239
5.08775e-06;0.0013298098419143335
5.08800e-06;0.0013197154571044775
5.08825e-06;0.0013096210722946214
5.08850e-06;0.001299526687484731
5.08875e-06;0.0012894323026748748
5.08900e-06;0.0012793379178650188
5.08925e-06;0.0012692435330551284
5.08950e-06;0.0012589548651838656
5.08975e-06;0.0012482998558408511
5.09000e-06;0.0012376448464978726
5.09025e-06;0.0012269898371548944
5.09050e-06;0.00121633482781188
5.09075e-06;0.0012056798184689015
5.09100e-06;0.001195024809125923
5.09125e-06;0.0011843697997829085
5.09150e-06;0.0011737147904399303
5.09175e-06;0.0011630597810969518
5.09200e-06;0.0011524047717539373
5.09225e-06;0.0011417497624109589
5.09250e-06;0.0011305932907682676
5.09275e-06;0.0011184912583774931
5.09300e-06;0.0011063892259867596
5.09325e-06;0.001094287193596026
5.09350e-06;0.0010821851612052515
5.09375e-06;0.001070083128814518
5.09400e-06;0.0010579810964237433
5.09425e-06;0.0010458790640330098
5.09450e-06;0.001033777031642276
5.09475e-06;0.0010216749992515016
5.09500e-06;0.0010095729668607681
5.09525e-06;0.0009974709344700344
5.09550e-06;0.0009862013798695086
5.09575e-06;0.0009765015510938127
5.09600e-06;0.0009668017223181168
5.09625e-06;0.000957101893542388
5.09650e-06;0.0009474020647666921
5.09675e-06;0.0009377022359909962
5.09700e-06;0.0009280024072152674
5.09725e-06;0.0009183025784395716
5.09750e-06;0.0009086027496638757
5.09775e-06;0.0008989029208881469
5.09800e-06;0.0008915638112424473
5.09825e-06;0.0008846526257213785
5.09850e-06;0.000877741440200333
5.09875e-06;0.0008708302546792875
5.09900e-06;0.0008639190691582186
5.09925e-06;0.0008570078836371732
5.09950e-06;0.0008500966981161277
5.09975e-06;0.0008431855125950588
5.10000e-06;0.0008362743270740134
5.10025e-06;0.0008293332237918258
5.10050e-06;0.0008223357073742367
5.10075e-06;0.0008153381909566712
5.10100e-06;0.0008083406745391058
5.10125e-06;0.0008013431581215167
5.10150e-06;0.0007943456417039512
5.10175e-06;0.0007873481252863858
5.10200e-06;0.0007803506088687966
5.10225e-06;0.0007733530924512312
5.10250e-06;0.000766355576033642
5.10275e-06;0.0007593580596160765
5.10300e-06;0.0007523605431985111
5.10325e-06;0.0007454176400388696
5.10350e-06;0.000738577716012589
5.10375e-06;0.0007317377919863083
5.10400e-06;0.0007248978679600045
5.10425e-06;0.0007180579439337239
5.10450e-06;0.0007112180199074432
5.10475e-06;0.0007043780958811395
5.10500e-06;0.0006975381718548588
5.10525e-06;0.0006906982478285782
5.10550e-06;0.0006838583238022744
5.10575e-06;0.0006770183997759937
5.10600e-06;0.0006701784757497131
5.10625e-06;0.0006637881368353108
5.10650e-06;0.0006582455386879537
5.10675e-06;0.0006527029405405778
5.10700e-06;0.0006471603423932208
5.10725e-06;0.0006416177442458638
5.10750e-06;0.0006385017261836071
5.10775e-06;0.0006358255707654486
5.10800e-06;0.00063314941534729
5.10825e-06;0.0006304732599291224
5.10850e-06;0.0006295265674911654
5.10875e-06;0.0006318409622967458
5.10900e-06;0.0006352588915303966
5.10925e-06;0.00064075765284157
5.10950e-06;0.0006473291766179857
5.10975e-06;0.0006559235086480579
5.11000e-06;0.0006658380496644419
5.11025e-06;0.00067824198578978
5.11050e-06;0.0006916689509983618
5.11075e-06;0.0007082120729011111
5.11100e-06;0.0007269936478098187
5.11125e-06;0.0007457752227184627
5.11150e-06;0.0007661109078228429
5.11175e-06;0.0007893770337589829
5.11200e-06;0.000812643159695044
5.11225e-06;0.0008373928822085656
5.11250e-06;0.0008649400845921375
5.11275e-06;0.000892487286975616
5.11300e-06;0.0009213884758949759
5.11325e-06;0.0009528427511020555
5.11350e-06;0.0009842970263090286
5.11375e-06;0.001015751301516002
5.11400e-06;0.0010472055767230815
5.11425e-06;0.0010786598519300548
5.11450e-06;0.0011104642544500591
5.11475e-06;0.001142928859430171
5.11500e-06;0.001175393464410173
5.11525e-06;0.0012078580693902848
5.11550e-06;0.0012403226743702865
5.11575e-06;0.0012727872793502884
5.11600e-06;0.001302156081773399
5.11625e-06;0.0013256874176873986
5.11650e-06;0.0013492187536013982
5.11675e-06;0.0013727500895154773
5.11700e-06;0.0013962814254294769
5.11725e-06;0.0014198127613434764
5.11750e-06;0.0014433440972575558
5.11775e-06;0.0014668754331715551
5.11800e-06;0.0014904067690855547
5.11825e-06;0.001513938104999634
5.11850e-06;0.0015374694409136334
5.11875e-06;0.0015559804054990146
5.11900e-06;0.0015650249235160012
5.11925e-06;0.0015740694415329573
5.11950e-06;0.001583113959549944
5.11975e-06;0.0015921584775669
5.12000e-06;0.0016012029955838562
5.12025e-06;0.0016102475136008428
5.12050e-06;0.001619292031617799
5.12075e-06;0.001628336549634755
5.12100e-06;0.0016373810676517417
5.12125e-06;0.0016464255856686978
5.12150e-06;0.0016521526733643595
5.12175e-06;0.0016516243917210805
5.12200e-06;0.0016510961100778033
5.12225e-06;0.001650567828434526
5.12250e-06;0.0016500395467912471
5.12275e-06;0.00164951126514797
5.12300e-06;0.0016489829835046926
5.12325e-06;0.0016484547018614138
5.12350e-06;0.0016479264202181364
5.12375e-06;0.0016473981385748575
5.12400e-06;0.0016468698569315802
5.12425e-06;0.0016431004546678832
5.12450e-06;0.0016387435391818684
5.12475e-06;0.0016343866236958682
5.12500e-06;0.0016300297082098682
5.12525e-06;0.0016256727927238532
5.12550e-06;0.001621315877237853
5.12575e-06;0.001616958961751853
5.12600e-06;0.001612602046265838
5.12625e-06;0.001608245130779838
5.12650e-06;0.0016038882152938378
5.12675e-06;0.001599679963482276
5.12700e-06;0.0015957520329136221
5.12725e-06;0.0015918241023449684
5.12750e-06;0.0015878961717763012
5.12775e-06;0.0015839682412076472
5.12800e-06;0.0015752699114970604
5.12825e-06;0.0015657068584702615
5.12850e-06;0.0015561438054434624
5.12875e-06;0.001546580752416631
5.12900e-06;0.0015340153670934443
5.12925e-06;0.001515788763426503
5.12950e-06;0.0014975621597595
5.12975e-06;0.0014767512760231543
5.13000e-06;0.0014510674560859452
5.13025e-06;0.0014253836361486489
5.13050e-06;0.0013965913537584752
5.13075e-06;0.0013619377332745005
5.13100e-06;0.0013272841127904085
5.13125e-06;0.0012902083121998104
5.13150e-06;0.0012485652322086684
5.13175e-06;0.0012069221522173854
5.13200e-06;0.0011628969128172392
5.13225e-06;0.0011143798573180178
5.13250e-06;0.001065862801818961
5.13275e-06;0.0010154613577856323
5.13300e-06;0.0009615066978242857
5.13325e-06;0.0009075520378631215
5.13350e-06;0.0008524303277619828
5.13375e-06;0.0007951080199227302
5.13400e-06;0.0007377857120836719
5.13425e-06;0.0006804634042446136
5.13450e-06;0.0006228043143677093
5.13475e-06;0.0005645101859739549
5.13500e-06;0.0005062160575802006
5.13525e-06;0.0004479219291862487
5.13550e-06;0.00039047474082358014
5.13575e-06;0.00033462454838476907
5.13600e-06;0.00027949234824011963
5.13625e-06;0.00022629627622853667
5.13650e-06;0.0001749062880198971
5.13675e-06;0.00012568969038915975
5.13700e-06;7.902152869357525e-05
5.13725e-06;3.5276781150660946e-05
5.13750e-06;-5.173797024772977e-06
5.13775e-06;-4.200131288442289e-05
5.13800e-06;-7.499378222167596e-05
5.13825e-06;-0.00010405835189317367
5.13850e-06;-0.00012913312766384415
5.13875e-06;-0.00015014437405708398
5.13900e-06;-0.00016701545175505438
5.13925e-06;-0.0001796697796477918
5.13950e-06;-0.00018803344202808305
5.13975e-06;-0.00019205874845109496
5.14000e-06;-0.00019177126455219686
5.14025e-06;-0.0001872711615558892
5.14050e-06;-0.00017867800809980515
5.14075e-06;-0.0001661039530211988
5.14100e-06;-0.00014965932894142126
5.14125e-06;-0.0001294544886534186
5.14150e-06;-0.00010560146950288214
5.14175e-06;-7.822872307394342e-05
5.14200e-06;-4.751057063012206e-05
5.14225e-06;-1.3668075279985103e-05
5.14250e-06;2.3065569506166262e-05
5.14275e-06;6.24618361791253e-05
5.14300e-06;0.0001042933434364
5.14325e-06;0.00014833271123579762
5.14350e-06;0.00019435152986820346
5.14375e-06;0.00024233335073818655
5.14400e-06;0.0002917630999350475
5.14425e-06;0.0003419813174628269
5.14450e-06;0.000393686276276026
5.14475e-06;0.00044539123508904985
5.14500e-06;0.0004970961939022489
5.14525e-06;0.0005485692408444221
5.14550e-06;0.000600000249458997
5.14575e-06;0.000651431258073746
5.14600e-06;0.0007015803671645134
5.14625e-06;0.0007493123177331694
5.14650e-06;0.0007970442683019874
5.14675e-06;0.000842944602924296
5.14700e-06;0.0008853912299730715
5.14725e-06;0.0009258402109888034
