Time(s);Current(A)
7.75000e-06;-0.0003823792887250886
7.75025e-06;-0.00043267339386717624
7.75050e-06;-0.00048572692155405243
7.75075e-06;-0.0005339498213258744
7.75100e-06;-0.0005792896910867245
7.75125e-06;-0.0006170522776428504
7.75150e-06;-0.000654519770254378
7.75175e-06;-0.0006791300063294888
7.75200e-06;-0.0007125198088143271
7.75225e-06;-0.0007329158023023056
7.75250e-06;-0.0007525605257670471
7.75275e-06;-0.0007671599600142188
7.75300e-06;-0.0007776381858309393
7.75325e-06;-0.0007831772574045854
7.75350e-06;-0.0007838353918981262
7.75375e-06;-0.000780079678515191
7.75400e-06;-0.0007720738011107503
7.75425e-06;-0.0007598575189890018
7.75450e-06;-0.000743344351525468
7.75475e-06;-0.000723039976959247
7.75500e-06;-0.000699110054990108
7.75525e-06;-0.0006712087409717152
7.75550e-06;-0.0006395392041568875
7.75575e-06;-0.000604560847319221
7.75600e-06;-0.0005665427627841908
7.75625e-06;-0.0005256765218644439
7.75650e-06;-0.000482074480836397
7.75675e-06;-0.00043622017512369107
7.75700e-06;-0.0003883838076222409
7.75725e-06;-0.00033851543699773065
7.75750e-06;-0.00028690888009236465
7.75775e-06;-0.00023401843365248903
7.75800e-06;-0.00018017916583286275
7.75825e-06;-0.00012567760046698818
7.75850e-06;-7.075063940279266e-05
7.75875e-06;-1.586758836170408e-05
7.75900e-06;3.863584528126545e-05
7.75925e-06;9.26245295818144e-05
7.75950e-06;0.00014574800305637358
7.75975e-06;0.00019755534376954346
7.76000e-06;0.0002476702877072357
7.76025e-06;0.0002957470483134207
7.76050e-06;0.0003414709497527028
7.76075e-06;0.0003843817277203054
7.76100e-06;0.0004241063015959815
7.76125e-06;0.00046044121266188763
7.76150e-06;0.0004932167603069866
7.76175e-06;0.000522373682548594
7.76200e-06;0.0005478901122988487
7.76225e-06;0.0005703460783130956
7.76250e-06;0.0005936051205342919
7.76275e-06;0.0006047135364270209
7.76300e-06;0.0006126513527340417
7.76325e-06;0.0006209915060419227
7.76350e-06;0.0006242759599419482
7.76375e-06;0.000622750615235812
7.76400e-06;0.0006188724421556014
7.76425e-06;0.0006126983218735488
7.76450e-06;0.0006031429378657845
7.76475e-06;0.0005900965804441783
7.76500e-06;0.0005736555641141423
7.76525e-06;0.0005551284627309116
7.76550e-06;0.0005336638609510391
7.76575e-06;0.0005085510105143962
7.76600e-06;0.0004816419691971787
7.76625e-06;0.00045311632079519503
7.76650e-06;0.00042243502836996765
7.76675e-06;0.0003887467795855982
7.76700e-06;0.0003550059376855998
7.76725e-06;0.00031880265361399764
7.76750e-06;0.0002825557536331916
7.76775e-06;0.0002439174900743747
7.76800e-06;0.00020523686958287004
7.76825e-06;0.00016621963025120653
7.76850e-06;0.00012719642857139565
7.76875e-06;8.796988577657218e-05
7.76900e-06;4.893042811949421e-05
7.76925e-06;1.0822477001854417e-05
7.76950e-06;-2.6459437901959314e-05
7.76975e-06;-6.296553462465957e-05
7.77000e-06;-9.774053254864564e-05
7.77025e-06;-0.0001304854553182062
7.77050e-06;-0.0001611833250255076
7.77075e-06;-0.00018957741163703012
7.77100e-06;-0.00021536038335953872
7.77125e-06;-0.00023790821733804882
7.77150e-06;-0.00025709786846172394
7.77175e-06;-0.00027284923786200345
7.77200e-06;-0.0002846270303298521
7.77225e-06;-0.0002923976242566258
7.77250e-06;-0.0002963088400386167
7.77275e-06;-0.0002963582989921428
7.77300e-06;-0.0002925119674773745
7.77325e-06;-0.0002845374631131103
7.77350e-06;-0.0002725161864179192
7.77375e-06;-0.000256556577223952
7.77400e-06;-0.00023648178200616282
7.77425e-06;-0.0002124292905369705
7.77450e-06;-0.00018465019052260436
7.77475e-06;-0.00015330153761306862
7.77500e-06;-0.00011852050017151007
7.77525e-06;-8.032003374793246e-05
7.77550e-06;-3.8909647156543106e-05
7.77575e-06;5.484300560077007e-06
7.77600e-06;5.2814062689069816e-05
7.77625e-06;0.00010283504718093628
7.77650e-06;0.00015523151003571487
7.77675e-06;0.00020974662824442447
7.77700e-06;0.0002661360620944704
7.77725e-06;0.0003242332585837058
7.77750e-06;0.00038374861206149925
7.77775e-06;0.00044438191966447455
7.77800e-06;0.0005059449312852849
7.77825e-06;0.0005681260690321791
7.77850e-06;0.0006305692399952724
7.77875e-06;0.0006929552647567545
7.77900e-06;0.0007549727803211547
7.77925e-06;0.0008163592229329486
7.77950e-06;0.0008767748775099854
7.77975e-06;0.000935873614033762
7.78000e-06;0.0009933791623371673
7.78025e-06;0.001048938249005241
7.78050e-06;0.0011021697336580992
7.78075e-06;0.0011527153422687822
7.78100e-06;0.001200222132874622
7.78125e-06;0.0012443722537322985
7.78150e-06;0.0012848557939988394
7.78175e-06;0.001321483424338943
7.78200e-06;0.0013542119649270637
7.78225e-06;0.0013829779089741883
7.78250e-06;0.001407701329979999
7.78275e-06;0.0014283166596060967
7.78300e-06;0.0014447617917546355
7.78325e-06;0.0014569962966196318
7.78350e-06;0.0014649850460659712
7.78375e-06;0.0014687683815696366
7.78400e-06;0.0014684780041221523
7.78425e-06;0.0014642331393944566
7.78450e-06;0.001454312069912926
7.78475e-06;0.0014442916792942995
7.78500e-06;0.0014255308665247124
7.78525e-06;0.0014066152393731129
7.78550e-06;0.0013876996122213852
7.78575e-06;0.0013595857963751522
7.78600e-06;0.0013313090579750832
7.78625e-06;0.0013030323195748227
7.78650e-06;0.001267546353890486
7.78675e-06;0.001231932695052512
7.78700e-06;0.0011963190362147792
7.78725e-06;0.0011562400230780566
7.78750e-06;0.0011160819175295854
7.78775e-06;0.001073545317189762
7.78800e-06;0.0010309665878545434
7.78825e-06;0.000987199011485739
7.78850e-06;0.0009434103777110697
7.78875e-06;0.0008996246036662912
7.78900e-06;0.0008558388802743709
7.78925e-06;0.0008132663688175146
7.78950e-06;0.0007707153463288907
7.78975e-06;0.0007306502872923066
7.79000e-06;0.0006906292607855578
7.79025e-06;0.0006544625786252948
7.79050e-06;0.0006183641663872334
7.79075e-06;0.0005860118863058515
7.79100e-06;0.0005566812046180767
7.79125e-06;0.0005314837883634115
7.79150e-06;0.0005063586552570968
7.79175e-06;0.00048309063093437005
7.79200e-06;0.00045985550057774533
7.79225e-06;0.0004379321570555742
7.79250e-06;0.0004160320485058303
7.79275e-06;0.0003941319399560864
7.79300e-06;0.0003749557101113901
7.79325e-06;0.00035582772686073487
7.79350e-06;0.00033796363472994383
7.79375e-06;0.00032012192922091374
7.79400e-06;0.0003022802237117627
7.79425e-06;0.00028430933738116386
7.79450e-06;0.0002663361629404781
7.79475e-06;0.0002483629884996706
7.79500e-06;0.00023094204655803424
7.79525e-06;0.00021411316820774443
7.79550e-06;0.00019728428985756868
7.79575e-06;0.00018045541150727887
7.79600e-06;0.0001633501790450013
7.79625e-06;0.00014624005167151874
7.79650e-06;0.00012918625383328603
7.79675e-06;0.00011213345372972968
7.79700e-06;9.556085237002414e-05
7.79725e-06;7.965975635817615e-05
7.79750e-06;6.377040370500056e-05
7.79775e-06;4.8153951529047366e-05
7.79800e-06;3.2608789646832524e-05
7.79825e-06;1.7277731446821566e-05
7.79850e-06;2.317861941256791e-06
7.79875e-06;-1.2113282811535637e-05
7.79900e-06;-2.5858129981951182e-05
7.79925e-06;-3.880101869968349e-05
7.79950e-06;-5.097941830051904e-05
7.79975e-06;-6.250888180243178e-05
7.80000e-06;-7.336545217803301e-05
7.80025e-06;-8.34118953107757e-05
7.80050e-06;-9.250400317831167e-05
7.80075e-06;-0.00010049730025604569
7.80100e-06;-0.00010724727925649236
7.80125e-06;-0.00011244780758445724
7.80150e-06;-0.00011524815688400578
7.80175e-06;-0.00011460732562169131
7.80200e-06;-0.00011012124832021159
7.80225e-06;-0.00010185916585525283
7.80250e-06;-8.991970659095539e-05
7.80275e-06;-7.440172434690511e-05
7.80300e-06;-5.5404102455289864e-05
7.80325e-06;-3.292444389858326e-05
7.80350e-06;-6.619268611898402e-06
7.80375e-06;2.3974066398505354e-05
7.80400e-06;5.891917582596656e-05
7.80425e-06;9.798320399489095e-05
7.80450e-06;0.00014091491130552395
7.80475e-06;0.00018746288154941875
7.80500e-06;0.00023737577271772236
7.80525e-06;0.0002904656300499192
7.80550e-06;0.0003467581852508277
7.80575e-06;0.00040635379916739684
7.80600e-06;0.0004691028462277082
7.80625e-06;0.000534670058248217
7.80650e-06;0.0006027086358667393
7.80675e-06;0.0006728716037226729
7.80700e-06;0.0007448122719218436
7.80725e-06;0.000818223534302607
7.80750e-06;0.0008929321347749541
7.80775e-06;0.0009688116158530374
7.80800e-06;0.0010455789648430686
7.80825e-06;0.0011228347364518189
7.80850e-06;0.0012001725537055215
7.80875e-06;0.001277185895314465
7.80900e-06;0.0013534682389743057
7.80925e-06;0.0014286379992279469
7.80950e-06;0.0015023976508234268
7.80975e-06;0.0015744786030066195
7.81000e-06;0.001644514605350861
7.81025e-06;0.0017120665189377664
7.81050e-06;0.001776690398538944
7.81075e-06;0.001836064422886488
7.81100e-06;0.0018953463643897744
7.81125e-06;0.0019468721456796637
7.81150e-06;0.0019982605462861265
7.81175e-06;0.0020419734692006053
7.81200e-06;0.002085550440517936
7.81225e-06;0.002129127411835267
7.81250e-06;0.0021632993787726374
7.81275e-06;0.0021973047599395724
7.81300e-06;0.0022313101411065074
7.81325e-06;0.002255115207863733
7.81350e-06;0.0022787396019527165
7.81375e-06;0.0023023639960417
7.81400e-06;0.002317836557648667
7.81425e-06;0.002333164730242976
7.81450e-06;0.0023484929028372847
7.81475e-06;0.0023558190928115036
7.81500e-06;0.002363003547982747
7.81525e-06;0.002370188003153991
7.81550e-06;0.002370308543465969
7.81575e-06;0.0023703039644633103
7.81600e-06;0.002370299385460652
7.81625e-06;0.002365041672753177
7.81650e-06;0.0023596909141211406
7.81675e-06;0.0023543401554891046
7.81700e-06;0.002344418785423604
7.81725e-06;0.0023344164585824487
7.81750e-06;0.002324414131741293
7.81775e-06;0.002311908320835068
7.81800e-06;0.002299358167065515
7.81825e-06;0.002285735614475852
7.81850e-06;0.002272094067064264
7.81875e-06;0.0022579428013440634
7.81900e-06;0.002243599484526358
7.81925e-06;0.0022292122033679296
7.81950e-06;0.0022150193489006505
7.81975e-06;0.002201316333894644
7.82000e-06;0.0021883281728939047
7.82025e-06;0.0021762168459747637
7.82050e-06;0.002165139807435855
7.82075e-06;0.002155254450792288
7.82100e-06;0.0021467186271160606
7.82125e-06;0.002139719479220558
7.82150e-06;0.0021345329770727692
7.82175e-06;0.002131430020225999
7.82200e-06;0.002130521932163487
7.82225e-06;0.002132901874263199
7.82250e-06;0.0021353393782716033
7.82275e-06;0.0021421188678174157
7.82300e-06;0.002148975264611758
7.82325e-06;0.0021614099654978093
7.82350e-06;0.0021739434718763407
7.82375e-06;0.002186476978254872
7.82400e-06;0.002208419038544237
7.82425e-06;0.002230527747475878
7.82450e-06;0.002252636456407519
7.82475e-06;0.0022747451653390106
7.82500e-06;0.0022968538742706517
7.82525e-06;0.002323941902599864
7.82550e-06;0.0023563683956726957
7.82575e-06;0.0023887948887457476
7.82600e-06;0.002421221381818799
7.82625e-06;0.002453647874891631
7.82650e-06;0.0024860743679646826
7.82675e-06;0.0025236768062915824
7.82700e-06;0.00256137092334567
7.82725e-06;0.0026008967547792644
7.82750e-06;0.0026404550303820223
7.82775e-06;0.0026813188300093826
7.82800e-06;0.0027222057536801514
7.82825e-06;0.002763712666855415
7.82850e-06;0.0028052305615702045
7.82875e-06;0.0028466113036255177
7.82900e-06;0.002887989616369718
7.82925e-06;0.0029284891912221295
7.82950e-06;0.0029689732014637807
7.82975e-06;0.0030078726924038356
7.83000e-06;0.0030467441176078146
7.83025e-06;0.003083225151543051
7.83050e-06;0.0031196638457668124
7.83075e-06;0.0031528621225213925
7.83100e-06;0.0031860030035082165
7.83125e-06;0.003214027712802042
7.83150e-06;0.003241961802105059
7.83175e-06;0.0032698958914078864
7.83200e-06;0.0032911478970269587
7.83225e-06;0.003312281546500348
7.83250e-06;0.0033334151959735934
7.83275e-06;0.0033438860173432695
7.83300e-06;0.0033541679737874768
7.83325e-06;0.0033644499302316142
7.83350e-06;0.0033747318866758215
7.83375e-06;0.0033850138431200287
7.83400e-06;0.003395295799564166
7.83425e-06;0.0033922185455062042
7.83450e-06;0.003388904666955071
7.83475e-06;0.0033855907884039606
7.83500e-06;0.0033822769098528277
7.83525e-06;0.0033789630313016943
7.83550e-06;0.003375649152750584
7.83575e-06;0.0033639760922151564
7.83600e-06;0.0033521549699959915
7.83625e-06;0.0033403338477769064
7.83650e-06;0.003324363295186654
7.83675e-06;0.0033083192459733243
7.83700e-06;0.003292275196760103
7.83725e-06;0.003273250622357064
7.83750e-06;0.0032541732555182116
7.83775e-06;0.003235095888679359
7.83800e-06;0.003214456880380334
7.83825e-06;0.0031937902115679
7.83850e-06;0.003173123542755466
7.83875e-06;0.003152267826712971
7.83900e-06;0.0031314087621786644
7.83925e-06;0.0031111838714105353
7.83950e-06;0.0030909702134205744
7.83975e-06;0.0030721307129797253
7.84000e-06;0.0030533155522507343
7.84025e-06;0.003037379834781837
7.84050e-06;0.003021495119338981
7.84075e-06;0.0030056104038961246
7.84100e-06;0.002994169175346938
7.84125e-06;0.0029828066518855566
7.84150e-06;0.0029714441284241747
7.84175e-06;0.0029615395335416874
7.84200e-06;0.0029516607621620974
7.84225e-06;0.0029417819907825073
7.84250e-06;0.0029328496299498214
7.84275e-06;0.002923934032376899
7.84300e-06;0.002915018434803976
7.84325e-06;0.0029061028372311137
7.84350e-06;0.002897187239658191
7.84375e-06;0.002888225291578406
7.84400e-06;0.00287926252251714
7.84425e-06;0.0028702997534558127
7.84450e-06;0.002861336984394486
7.84475e-06;0.0028523742153332195
7.84500e-06;0.0028427227927392117
7.84525e-06;0.002833059172396401
7.84550e-06;0.0028233955520536556
7.84575e-06;0.0028137319317108446
7.84600e-06;0.0028040683113680336
7.84625e-06;0.0027944046910252226
7.84650e-06;0.002784741070682477
7.84675e-06;0.0027749603530149267
7.84700e-06;0.0027650540920973426
7.84725e-06;0.002755147831179826
7.84750e-06;0.0027452415702622418
7.84775e-06;0.0027353353093446573
7.84800e-06;0.0027254290484271405
7.84825e-06;0.0027155227875095564
7.84850e-06;0.0027056165265919724
7.84875e-06;0.00269684944491364
7.84900e-06;0.002688102540903066
7.84925e-06;0.0026793556368924923
7.84950e-06;0.0026721063163859444
7.84975e-06;0.0026648835217687288
7.85000e-06;0.002657660727151513
7.85025e-06;0.002654820610124855
7.85050e-06;0.002652058121104027
7.85075e-06;0.002649295632083199
7.85100e-06;0.0026465331430623896
7.85125e-06;0.002643770654041561
7.85150e-06;0.002641008165020733
7.85175e-06;0.0026382456759999236
7.85200e-06;0.0026354831869790955
7.85225e-06;0.0026327206979582674
7.85250e-06;0.002629958208937458
7.85275e-06;0.0026318020131557906
7.85300e-06;0.002633727406163489
7.85325e-06;0.002635652799171174
7.85350e-06;0.0026375781921788724
7.85375e-06;0.0026395035851865707
7.85400e-06;0.002641428978194256
7.85425e-06;0.0026433543712019543
7.85450e-06;0.0026452797642096525
7.85475e-06;0.002647205157217351
7.85500e-06;0.002649130550225036
7.85525e-06;0.00265350708556899
7.85550e-06;0.0026579270366760043
7.85575e-06;0.002662346987782989
7.85600e-06;0.002666766938890003
7.85625e-06;0.0026711868899970174
7.85650e-06;0.0026756068411040016
7.85675e-06;0.0026800267922110163
7.85700e-06;0.0026844467433180304
7.85725e-06;0.0026888666944250147
7.85750e-06;0.002693286645532029
7.85775e-06;0.0026977065966390435
7.85800e-06;0.002703629268365239
7.85825e-06;0.0027095785569718825
7.85850e-06;0.002715527845578526
7.85875e-06;0.0027214771341851295
7.85900e-06;0.002727426422791773
7.85925e-06;0.002733375711398417
7.85950e-06;0.00273932500000502
7.85975e-06;0.002745274288611664
7.86000e-06;0.0027512235772183076
7.86025e-06;0.002757172865824911
7.86050e-06;0.0027631221544315546
7.86075e-06;0.002769845629194183
7.86100e-06;0.002776582816698905
7.86125e-06;0.0027833200042036736
7.86150e-06;0.0027887302769020947
7.86175e-06;0.002794117046673634
7.86200e-06;0.00279950381644521
7.86225e-06;0.0028016828078022043
7.86250e-06;0.002803804981508885
7.86275e-06;0.00280592715521558
7.86300e-06;0.0028036842090355283
7.86325e-06;0.0028013639458394036
7.86350e-06;0.002799043682643295
7.86375e-06;0.0027967234194471707
7.86400e-06;0.0027944031562510464
7.86425e-06;0.0027889400973421137
7.86450e-06;0.0027801075610429716
7.86475e-06;0.0027712750247438295
7.86500e-06;0.0027624424884447473
7.86525e-06;0.002753609952145605
7.86550e-06;0.002744777415846463
7.86575e-06;0.0027307095974933404
7.86600e-06;0.002716549049410534
7.86625e-06;0.0027023885013277267
7.86650e-06;0.002688227953245016
7.86675e-06;0.002674067405162209
7.86700e-06;0.0026585295511440308
7.86725e-06;0.0026415150496971185
7.86750e-06;0.0026245005482500913
7.86775e-06;0.002607486046803064
7.86800e-06;0.0025904715453561517
7.86825e-06;0.0025734570439091245
7.86850e-06;0.0025560639661805656
7.86875e-06;0.0025386641829344644
7.86900e-06;0.002521957712674533
7.86925e-06;0.002505263522693907
7.86950e-06;0.0024897094499439307
7.86975e-06;0.0024741755714759537
7.87000e-06;0.0024601806854048502
7.87025e-06;0.0024462130586768273
7.87050e-06;0.0024344165391058724
7.87075e-06;0.00242265847518603
7.87100e-06;0.0024137209059540326
7.87125e-06;0.002404833294624477
7.87150e-06;0.0023991878166012793
7.87175e-06;0.002393599764738246
7.87200e-06;0.002392189092341644
7.87225e-06;0.0023908524116164243
7.87250e-06;0.0023895157308912044
7.87275e-06;0.0023934762618434617
7.87300e-06;0.0023975306194516394
7.87325e-06;0.002401584977059817
7.87350e-06;0.002413921089821966
7.87375e-06;0.00242640389285033
7.87400e-06;0.002438886695878693
7.87425e-06;0.002451369498906972
7.87450e-06;0.0024638523019353356
7.87475e-06;0.002476335104963699
7.87500e-06;0.002493494598217538
7.87525e-06;0.002515668099195568
7.87550e-06;0.0025378416001735973
7.87575e-06;0.002560015101151477
7.87600e-06;0.0025821886021295064
7.87625e-06;0.0026043621031075362
7.87650e-06;0.002626535604085416
7.87675e-06;0.0026536847774778554
7.87700e-06;0.0026809220822746303
7.87725e-06;0.002708159387071221
7.87750e-06;0.002737292197294641
7.87775e-06;0.0027664585815843027
7.87800e-06;0.0027956249658737673
7.87825e-06;0.0028255528009875725
7.87850e-06;0.0028554941232695292
7.87875e-06;0.0028854784558932775
7.87900e-06;0.002915463550336241
7.87925e-06;0.0029449984088587527
7.87950e-06;0.0029745252925948056
7.87975e-06;0.0030030481822574356
7.88000e-06;0.0030315532887140134
7.88025e-06;0.0030565330965808845
7.88050e-06;0.003081450462733176
7.88075e-06;0.0031063678288856355
7.88100e-06;0.0031312851950380956
7.88125e-06;0.0031562025611903866
7.88150e-06;0.0031785308569532
7.88175e-06;0.0031980833394145876
7.88200e-06;0.0032176358218758425
7.88225e-06;0.00323718830433723
7.88250e-06;0.0032567407867986173
7.88275e-06;0.003276293269259872
7.88300e-06;0.0032887424011193043
7.88325e-06;0.0033010657151567647
7.88350e-06;0.003313389029194142
7.88375e-06;0.003325712343231602
7.88400e-06;0.003338035657269063
7.88425e-06;0.00335035897130644
7.88450e-06;0.0033626822853439005
7.88475e-06;0.003375005599381361
7.88500e-06;0.003387328913418738
7.88525e-06;0.003399652227456199
7.88550e-06;0.003411975541493659
7.88575e-06;0.0034242988555310363
7.88600e-06;0.0034366221695684967
7.88625e-06;0.003443119482886756
7.88650e-06;0.0034495136033930816
7.88675e-06;0.0034559077238994506
7.88700e-06;0.0034623018444058197
7.88725e-06;0.0034686959649121458
7.88750e-06;0.003475090085418515
7.88775e-06;0.003481484205924884
7.88800e-06;0.0034878783264312096
7.88825e-06;0.003494272446937579
7.88850e-06;0.003500666567443948
7.88875e-06;0.0035070606879502738
7.88900e-06;0.003513454808456643
7.88925e-06;0.0035198489289630123
7.88950e-06;0.0035252249195295553
7.88975e-06;0.0035305828765089427
7.89000e-06;0.0035359408334883664
7.89025e-06;0.00354129879046779
7.89050e-06;0.0035471856259476843
7.89075e-06;0.003553081829167575
7.89100e-06;0.0035589780323874655
7.89125e-06;0.003564874235607316
7.89150e-06;0.0035698798044582402
7.89175e-06;0.0035748695979823863
7.89200e-06;0.0035798593915064986
7.89225e-06;0.0035808032387642545
7.89250e-06;0.0035816754223553836
7.89275e-06;0.003582547605946507
7.89300e-06;0.0035834197895376362
7.89325e-06;0.0035842919731287654
7.89350e-06;0.0035851641567198884
7.89375e-06;0.0035830462719728686
7.89400e-06;0.0035777226530358656
7.89425e-06;0.003572399034098899
7.89450e-06;0.0035670754151618965
7.89475e-06;0.0035617517962248935
7.89500e-06;0.003556428177287927
7.89525e-06;0.0035511045583509243
7.89550e-06;0.0035401234251984433
7.89575e-06;0.003529042083544456
7.89600e-06;0.003517960741890394
7.89625e-06;0.0035068794002363316
7.89650e-06;0.0034957980585823443
7.89675e-06;0.003484716716928282
7.89700e-06;0.0034736353752742198
