Time(s);Current(A)
4.00000e-06;0.0027380129643773243
4.00025e-06;0.0027378829827899936
4.00050e-06;0.0027377530012026633
4.00075e-06;0.002737623019615332
4.00100e-06;0.002737493038028002
4.00125e-06;0.002737363056440671
4.00150e-06;0.0027372330748533405
4.00175e-06;0.0027371030932660098
4.00200e-06;0.002736973111678679
4.00225e-06;0.0027368431300913484
4.00250e-06;0.0027367131485040177
4.00275e-06;0.0027365831669166874
4.00300e-06;0.0027364531853293563
4.00325e-06;0.0027284900401133754
4.00350e-06;0.002713943371335512
4.00375e-06;0.0026993967025575995
4.00400e-06;0.0026848500337797363
4.00425e-06;0.002670303365001824
4.00450e-06;0.002655756696223961
4.00475e-06;0.0026412100274460977
4.00500e-06;0.002626663358668185
4.00525e-06;0.002612116689890322
4.00550e-06;0.002597570021112459
4.00575e-06;0.0025830233523345464
4.00600e-06;0.002568476683556683
4.00625e-06;0.00255393001477882
4.00650e-06;0.0025393833460009077
4.00675e-06;0.0025248366772230445
4.00700e-06;0.002508101218997322
4.00725e-06;0.0024895261532280042
4.00750e-06;0.002470951087458749
4.00775e-06;0.002452376021689494
4.00800e-06;0.0024338009559201758
4.00825e-06;0.0024152258901509204
4.00850e-06;0.002396650824381602
4.00875e-06;0.0023780757586123473
4.00900e-06;0.002359500692843092
4.00925e-06;0.0023409256270737738
4.00950e-06;0.002326557715244344
4.00975e-06;0.002315725781775764
4.01000e-06;0.002304893848307147
4.01025e-06;0.002294061914838567
4.01050e-06;0.0022832299813699865
4.01075e-06;0.0022723980479013696
4.01100e-06;0.002261566114432789
4.01125e-06;0.0022507341809642092
4.01150e-06;0.0022399022474955924
4.01175e-06;0.002229070314027012
4.01200e-06;0.002225391315669265
4.01225e-06;0.0022277241305537297
4.01250e-06;0.0022300569454381863
4.01275e-06;0.002232389760322651
4.01300e-06;0.002234722575207108
4.01325e-06;0.0022370553900915645
4.01350e-06;0.002239388204976029
4.01375e-06;0.002241721019860486
4.01400e-06;0.0022440538347449426
4.01425e-06;0.002246386649629407
4.01450e-06;0.0022487194645138637
4.01475e-06;0.002256468435984485
4.01500e-06;0.0022687695138814247
4.01525e-06;0.0022810705917783235
4.01550e-06;0.0022933716696752217
4.01575e-06;0.002305672747572162
4.01600e-06;0.0023179738254690604
4.01625e-06;0.0023302749033659587
4.01650e-06;0.002342575981262899
4.01675e-06;0.0023548770591597973
4.01700e-06;0.0023671781370567377
4.01725e-06;0.002379479214953636
4.01750e-06;0.0023928348241244795
4.01775e-06;0.0024070767331118943
4.01800e-06;0.002421318642099261
4.01825e-06;0.002435560551086627
4.01850e-06;0.002449802460074042
4.01875e-06;0.002464044369061408
4.01900e-06;0.0024782862780487747
4.01925e-06;0.002492285836072266
4.01950e-06;0.002500935898057121
4.01975e-06;0.002509585960041976
4.02000e-06;0.00251823602202686
4.02025e-06;0.002526886084011715
4.02050e-06;0.00253553614599657
4.02075e-06;0.0025441862079814545
4.02100e-06;0.0025528362699663095
4.02125e-06;0.002554659118014045
4.02150e-06;0.002550743911052003
4.02175e-06;0.0025468287040899735
4.02200e-06;0.002542913497127931
4.02225e-06;0.002538998290165902
4.02250e-06;0.002524639413881203
4.02275e-06;0.0025100587891291265
4.02300e-06;0.0024954781643771
4.02325e-06;0.0024808975396250726
4.02350e-06;0.002462288735042538
4.02375e-06;0.002438003459042944
4.02400e-06;0.0024113802719112876
4.02425e-06;0.0023808248452902147
4.02450e-06;0.0023505813212422078
4.02475e-06;0.0023209691958414893
4.02500e-06;0.002283518445441428
4.02525e-06;0.0022438976312933318
4.02550e-06;0.002203076238865528
4.02575e-06;0.002162254846437586
4.02600e-06;0.0021214334540097823
4.02625e-06;0.00208061206158184
4.02650e-06;0.002039274509199016
4.02675e-06;0.0019942575932382846
4.02700e-06;0.0019492406772774005
4.02725e-06;0.001904223761316669
4.02750e-06;0.0018592068453559373
4.02775e-06;0.0018141899293950534
4.02800e-06;0.001770403897114575
4.02825e-06;0.0017273626338309344
4.02850e-06;0.0016843213705471482
4.02875e-06;0.001641280107263508
4.02900e-06;0.0015982388439798674
4.02925e-06;0.0015564553364924656
4.02950e-06;0.0015236375397731103
4.02975e-06;0.001490819743053755
4.03000e-06;0.0014580019463342887
4.03025e-06;0.0014251841496149332
4.03050e-06;0.0013923663528954669
4.03075e-06;0.0013670149729635215
4.03100e-06;0.0013461812869693733
4.03125e-06;0.001329975365711373
4.03150e-06;0.0013165695593263923
4.03175e-06;0.0013075783525564053
4.03200e-06;0.0013012582811497214
4.03225e-06;0.0012998434735449066
4.03250e-06;0.0013013966867687216
4.03275e-06;0.0013080161074500824
4.03300e-06;0.0013177009309035088
4.03325e-06;0.0013320838730120847
4.03350e-06;0.001349309498936909
4.03375e-06;0.0013717198460341418
4.03400e-06;0.0013972673048243845
4.03425e-06;0.0014228147636147139
4.03450e-06;0.0014543433209272638
4.03475e-06;0.0014894908528167619
4.03500e-06;0.001524638384706141
4.03525e-06;0.0015645430986953607
4.03550e-06;0.0016073262339332988
4.03575e-06;0.0016501093691710918
4.03600e-06;0.0016973199297126713
4.03625e-06;0.0017472093860383612
4.03650e-06;0.0017970988423638824
4.03675e-06;0.0018469882986894034
4.03700e-06;0.0018968777550150936
4.03725e-06;0.0019467672113406146
4.03750e-06;0.001997551673473726
4.03775e-06;0.002048877675468212
4.03800e-06;0.0021002036774625237
4.03825e-06;0.0021515296794568355
4.03850e-06;0.002202855681451321
4.03875e-06;0.0022541816834456326
4.03900e-06;0.0022973423515905782
4.03925e-06;0.0023355624330689355
4.03950e-06;0.002373782514547293
4.03975e-06;0.00241200259602578
4.04000e-06;0.002450222677504137
4.04025e-06;0.0024884427589824945
4.04050e-06;0.0025266628404609815
4.04075e-06;0.0025648829219393388
4.04100e-06;0.0025845123248689817
4.04125e-06;0.0025928930929911614
4.04150e-06;0.002601273861113313
4.04175e-06;0.0026096546292354644
4.04200e-06;0.002618035397357644
4.04225e-06;0.0026264161654797956
4.04250e-06;0.002634796933601947
4.04275e-06;0.002643177701724127
4.04300e-06;0.00263713468951197
4.04325e-06;0.002622364301529591
4.04350e-06;0.002607593913547262
4.04375e-06;0.0025857103817164516
4.04400e-06;0.002559522910291823
4.04425e-06;0.0025333354388672835
4.04450e-06;0.0024978982329155013
4.04475e-06;0.00245686430355819
4.04500e-06;0.0024158303742010173
4.04525e-06;0.0023747964448438447
4.04550e-06;0.002333762515486533
4.04575e-06;0.0022927285861293603
4.04600e-06;0.0022502066953110533
4.04625e-06;0.002197078109518382
4.04650e-06;0.0021439495237258912
4.04675e-06;0.0020908209379334004
4.04700e-06;0.002037692352140729
4.04725e-06;0.0019845637663482383
4.04750e-06;0.0019314351805555673
4.04775e-06;0.0018778025036339746
4.04800e-06;0.0018238648170267329
4.04825e-06;0.0017699271304193085
4.04850e-06;0.001715989443812067
4.04875e-06;0.0016620517572048252
4.04900e-06;0.0016133551329294501
4.04925e-06;0.0015678297106096802
4.04950e-06;0.0015223042882899103
4.04975e-06;0.0014767788659699862
4.05000e-06;0.0014312534436502163
4.05025e-06;0.001393224490077827
4.05050e-06;0.0013597314139370317
4.05075e-06;0.00132623833779635
4.05100e-06;0.0012972846004618646
4.05125e-06;0.0012710774742504007
4.05150e-06;0.0012486629319759226
4.05175e-06;0.00122854316294281
4.05200e-06;0.0012125237581093776
4.05225e-06;0.001198985354672836
4.05250e-06;0.0011894119748042842
4.05275e-06;0.0011822377059737166
4.05300e-06;0.0011793481963047715
4.05325e-06;0.0011790512596238972
4.05350e-06;0.0011787543229430238
4.05375e-06;0.001183459114716475
4.05400e-06;0.0011911902950441353
4.05425e-06;0.0011989214753717692
4.05450e-06;0.0012110884098440417
4.05475e-06;0.0012259392796189104
4.05500e-06;0.0012407901493937288
4.05525e-06;0.0012590587206772494
4.05550e-06;0.001279395235637051
4.05575e-06;0.0012997317505967837
4.05600e-06;0.001323800832003001
4.05625e-06;0.0013501283719547633
4.05650e-06;0.0013764559119065257
4.05675e-06;0.0014027834518583772
4.05700e-06;0.0014291109918101396
4.05725e-06;0.0014554385317619017
4.05750e-06;0.0014819694352605011
4.05775e-06;0.0015099499832319442
4.05800e-06;0.0015379305312033873
4.05825e-06;0.0015659110791749252
4.05850e-06;0.0015938916271463683
4.05875e-06;0.0016218721751178114
4.05900e-06;0.0016498527230893493
4.05925e-06;0.0016729479312596386
4.05950e-06;0.0016930871739890177
4.05975e-06;0.0017132264167184648
4.06000e-06;0.001733365659447844
4.06025e-06;0.0017535049021772913
4.06050e-06;0.0017736441449066704
4.06075e-06;0.0017937833876360493
4.06100e-06;0.0018139226303654967
4.06125e-06;0.0018340618730948758
4.06150e-06;0.0018494701814570015
4.06175e-06;0.0018620159502494747
4.06200e-06;0.001874561719041905
4.06225e-06;0.0018871074878343357
4.06250e-06;0.0018996532566268088
4.06275e-06;0.0019121990254192395
4.06300e-06;0.0019247447942116699
4.06325e-06;0.001937290563004143
4.06350e-06;0.0019498363317965737
4.06375e-06;0.0019594461602324446
4.06400e-06;0.0019672795435113923
4.06425e-06;0.0019751129267903136
4.06450e-06;0.0019829463100692613
4.06475e-06;0.0019907796933481825
4.06500e-06;0.0019986130766271037
4.06525e-06;0.0020064464599060514
4.06550e-06;0.0020142798431849727
4.06575e-06;0.002022113226463894
4.06600e-06;0.0020299466097428416
4.06625e-06;0.002037779993021763
4.06650e-06;0.002045613376300684
4.06675e-06;0.0020534467595796323
4.06700e-06;0.0020612801428585535
4.06725e-06;0.0020691135261374748
4.06750e-06;0.0020769469094164225
4.06775e-06;0.00208194005240526
4.06800e-06;0.002085214655337184
4.06825e-06;0.002088489258269119
4.06850e-06;0.002091763861201043
4.06875e-06;0.0020950384641329786
4.06900e-06;0.0020983130670649028
4.06925e-06;0.002101587669996827
4.06950e-06;0.0021048622729287624
4.06975e-06;0.0021081368758606865
4.07000e-06;0.0021114114787926107
4.07025e-06;0.0021146860817245457
4.07050e-06;0.00211796068465647
4.07075e-06;0.002121235287588394
4.07100e-06;0.0021245098905203295
4.07125e-06;0.0021277844934522536
4.07150e-06;0.002131059096384178
4.07175e-06;0.0021285192605066143
4.07200e-06;0.0021224612906047408
4.07225e-06;0.0021164033207028672
4.07250e-06;0.002110345350800973
4.07275e-06;0.0021042873808990994
4.07300e-06;0.002098229410997205
4.07325e-06;0.0020921714410953316
4.07350e-06;0.002086113471193458
4.07375e-06;0.0020800555012915637
4.07400e-06;0.0020739975313896902
4.07425e-06;0.0020679395614878167
4.07450e-06;0.0020609452179805596
4.07475e-06;0.002047276085199144
4.07500e-06;0.0020336069524177288
4.07525e-06;0.0020199378196362667
4.07550e-06;0.0020062686868548515
4.07575e-06;0.001992599554073436
4.07600e-06;0.0019789304212919742
4.07625e-06;0.0019652612885105586
4.07650e-06;0.0019515921557291432
4.07675e-06;0.0019379230229476815
4.07700e-06;0.0019242538901662661
4.07725e-06;0.0019105847573848043
4.07750e-06;0.0018964123029437232
4.07775e-06;0.001881935304398929
4.07800e-06;0.001867458305854086
4.07825e-06;0.0018529813073092918
4.07850e-06;0.0018385043087644978
4.07875e-06;0.0018240273102196546
4.07900e-06;0.0018095503116748607
4.07925e-06;0.0017950733131300667
4.07950e-06;0.0017813514542824793
4.07975e-06;0.0017730124878208155
4.08000e-06;0.0017646735213591516
4.08025e-06;0.0017563345548974596
4.08050e-06;0.0017479955884357958
4.08075e-06;0.001739656621974132
4.08100e-06;0.00173131765551244
4.08125e-06;0.001722978689050776
4.08150e-06;0.001714639722589084
4.08175e-06;0.0017117094621646716
4.08200e-06;0.0017120518396261646
4.08225e-06;0.0017123942170876587
4.08250e-06;0.0017127365945491517
4.08275e-06;0.0017130789720106448
4.08300e-06;0.0017176446734652319
4.08325e-06;0.0017247657754183212
4.08350e-06;0.0017318868773714105
4.08375e-06;0.0017390079793245237
4.08400e-06;0.001746129081277613
4.08425e-06;0.0017555328560210765
4.08450e-06;0.001769238136609962
4.08475e-06;0.001784710418437657
4.08500e-06;0.0018001827002653518
4.08525e-06;0.0018156549820930992
4.08550e-06;0.001831127263920794
4.08575e-06;0.0018465995457485412
4.08600e-06;0.0018620718275762361
4.08625e-06;0.0018775441094039309
4.08650e-06;0.001893016391231678
4.08675e-06;0.0019105361252181412
4.08700e-06;0.0019292947081007243
4.08725e-06;0.001948053290983371
4.08750e-06;0.001966811873865954
4.08775e-06;0.0019855704567485373
4.08800e-06;0.002004329039631184
4.08825e-06;0.0020230876225137673
4.08850e-06;0.0020418462053963505
4.08875e-06;0.002060604788278997
4.08900e-06;0.0020745248444564855
4.08925e-06;0.002085517260326715
4.08950e-06;0.0020965096761969815
4.08975e-06;0.002107502092067211
4.09000e-06;0.0021184945079374775
4.09025e-06;0.002129486923807707
4.09050e-06;0.0021404793396779366
4.09075e-06;0.0021514717555482033
4.09100e-06;0.0021624641714184326
4.09125e-06;0.002173456587288662
4.09150e-06;0.0021844490031589286
4.09175e-06;0.002195441419029158
4.09200e-06;0.0022064338348993873
4.09225e-06;0.002217426250769654
4.09250e-06;0.0022284186666398833
4.09275e-06;0.0022326080954819683
4.09300e-06;0.0022326812508702046
4.09325e-06;0.0022327544062584405
4.09350e-06;0.002232827561646677
4.09375e-06;0.002232900717034913
4.09400e-06;0.002232973872423149
4.09425e-06;0.0022330470278113853
4.09450e-06;0.0022331201831996216
4.09475e-06;0.0022331933385878575
4.09500e-06;0.0022332664939760938
4.09525e-06;0.0022333396493643297
4.09550e-06;0.002233412804752566
4.09575e-06;0.0022334859601408023
4.09600e-06;0.002233559115529038
4.09625e-06;0.0022336322709172744
4.09650e-06;0.002231162847950195
4.09675e-06;0.0022271549908005847
4.09700e-06;0.002223147133650975
4.09725e-06;0.002219139276501351
4.09750e-06;0.002215131419351741
4.09775e-06;0.0022111235622021305
4.09800e-06;0.0022071157050525068
4.09825e-06;0.002203107847902897
4.09850e-06;0.002199099990753273
4.09875e-06;0.002195092133603663
4.09900e-06;0.0021910842764540526
4.09925e-06;0.002187076419304429
4.09950e-06;0.002183068562154819
4.09975e-06;0.0021782966871101697
4.10000e-06;0.0021730625288704664
4.10025e-06;0.0021678283706307805
4.10050e-06;0.002162594212391095
4.10075e-06;0.002157360054151392
4.10100e-06;0.0021521258959117063
4.10125e-06;0.002146891737672021
4.10150e-06;0.0021416575794323176
4.10175e-06;0.0021364234211926317
4.10200e-06;0.0021311892629529462
4.10225e-06;0.002125955104713243
4.10250e-06;0.0021207209464735575
4.10275e-06;0.0021154867882338542
4.10300e-06;0.0021064862033628898
4.10325e-06;0.0020952066722157224
4.10350e-06;0.002083927141068517
4.10375e-06;0.0020726476099213495
4.10400e-06;0.002061368078774182
4.10425e-06;0.0020500885476269766
4.10450e-06;0.002038809016479809
4.10475e-06;0.002027529485332642
4.10500e-06;0.0020162499541854363
4.10525e-06;0.002004970423038269
4.10550e-06;0.0019936908918911016
4.10575e-06;0.0019820370942572217
4.10600e-06;0.0019677153979200694
4.10625e-06;0.0019533937015829166
4.10650e-06;0.0019390720052457156
4.10675e-06;0.001924750308908563
4.10700e-06;0.0019104286125713617
4.10725e-06;0.0018961069162342092
4.10750e-06;0.0018817852198970567
4.10775e-06;0.0018674635235598554
4.10800e-06;0.0018531418272227029
4.10825e-06;0.0018388201308855504
4.10850e-06;0.001824498434548349
4.10875e-06;0.0018145747717346157
4.10900e-06;0.0018073122206591064
4.10925e-06;0.0018000496695835726
4.10950e-06;0.0017927871185080633
4.10975e-06;0.001785524567432554
4.11000e-06;0.00177826201635702
4.11025e-06;0.0017709994652815107
4.11050e-06;0.0017637369142060014
4.11075e-06;0.0017564743631304674
4.11100e-06;0.001749211812054958
4.11125e-06;0.0017419492609794243
4.11150e-06;0.001734686709903915
4.11175e-06;0.0017274241588284057
4.11200e-06;0.0017201616077528717
4.11225e-06;0.0017128990566773624
4.11250e-06;0.001707704653978163
4.11275e-06;0.0017172527157158048
4.11300e-06;0.0017268007774534143
4.11325e-06;0.0017363488391910237
4.11350e-06;0.0017458969009286655
4.11375e-06;0.001755444962666275
4.11400e-06;0.0017649930244038842
4.11425e-06;0.001774541086141526
4.11450e-06;0.0017840891478791354
4.11475e-06;0.0017936372096167448
4.11500e-06;0.0018031852713543866
4.11525e-06;0.001812733333091996
4.11550e-06;0.0018222813948296378
4.11575e-06;0.0018318294565672472
4.11600e-06;0.0018413775183048564
4.11625e-06;0.0018509255800424982
4.11650e-06;0.0018649521399035592
4.11675e-06;0.0018816884981007582
4.11700e-06;0.001898424856298014
4.11725e-06;0.001915161214495213
4.11750e-06;0.0019318975726924119
4.11775e-06;0.0019486339308896676
4.11800e-06;0.0019653702890868666
4.11825e-06;0.0019821066472840657
4.11850e-06;0.0019988430054813213
4.11875e-06;0.0020132224993355988
4.11900e-06;0.002026175928714996
4.11925e-06;0.0020391293580944367
4.11950e-06;0.0020520827874738337
4.11975e-06;0.0020650362168532746
4.12000e-06;0.0020779896462326717
4.12025e-06;0.0020909430756120683
4.12050e-06;0.0021038965049915096
4.12075e-06;0.0021168499343709062
4.12100e-06;0.002124670643393713
4.12125e-06;0.002129385704787007
4.12150e-06;0.002134100766180285
4.12175e-06;0.0021388158275735627
4.12200e-06;0.0021435308889668566
4.12225e-06;0.002148245950360135
4.12250e-06;0.0021529610117534126
4.12275e-06;0.0021576760731467064
4.12300e-06;0.0021623911345399847
4.12325e-06;0.0021671061959332625
4.12350e-06;0.0021718212573265563
4.12375e-06;0.002176536318719834
4.12400e-06;0.0021812513801131284
4.12425e-06;0.002185966441506406
4.12450e-06;0.0021899255717932565
4.12475e-06;0.0021884961682713602
4.12500e-06;0.002187066764749469
4.12525e-06;0.002185637361227578
4.12550e-06;0.002184207957705682
4.12575e-06;0.002182778554183791
4.12600e-06;0.0021813491506619
4.12625e-06;0.0021799197471400037
4.12650e-06;0.0021784903436181126
4.12675e-06;0.0021770609400962215
4.12700e-06;0.0021756315365743257
4.12725e-06;0.0021742021330524346
4.12750e-06;0.0021727727295305435
4.12775e-06;0.0021713433260086472
4.12800e-06;0.002169913922486756
4.12825e-06;0.002167960633145747
4.12850e-06;0.002165690356975346
4.12875e-06;0.002163420080804945
4.12900e-06;0.0021611498046345363
4.12925e-06;0.0021588795284641356
4.12950e-06;0.0021566092522937344
4.12975e-06;0.002154338976123326
4.13000e-06;0.0021520686999529247
4.13025e-06;0.002149798423782524
4.13050e-06;0.002147528147612115
4.13075e-06;0.002145953046895939
4.13100e-06;0.0021493333930522416
4.13125e-06;0.0021527137392085556
4.13150e-06;0.002156094085364858
4.13175e-06;0.0021594744315211606
4.13200e-06;0.0021628547776774746
4.13225e-06;0.002166235123833777
4.13250e-06;0.002169615469990091
4.13275e-06;0.0021729958161463936
4.13300e-06;0.002176376162302696
4.13325e-06;0.00217975650845901
4.13350e-06;0.0021885224274859187
4.13375e-06;0.0022005469872438447
4.13400e-06;0.002212571547001812
4.13425e-06;0.002224596106759738
4.13450e-06;0.0022366206665176643
4.13475e-06;0.002248645226275631
4.13500e-06;0.0022606697860335576
4.13525e-06;0.0022726943457914836
4.13550e-06;0.0022847189055494508
4.13575e-06;0.002296743465307377
4.13600e-06;0.0023087680250653032
4.13625e-06;0.0023230267931932916
4.13650e-06;0.0023386374105247745
4.13675e-06;0.0023542480278563108
4.13700e-06;0.0023698586451877937
4.13725e-06;0.002385469262519277
4.13750e-06;0.002401079879850813
4.13775e-06;0.002416690497182296
4.13800e-06;0.002432301114513779
4.13825e-06;0.0024479117318453153
4.13850e-06;0.0024635223491767983
4.13875e-06;0.0024791329665082816
4.13900e-06;0.0024900927686305734
4.13925e-06;0.0024982385087698716
4.13950e-06;0.0025063842489091697
4.13975e-06;0.0025145299890484956
4.14000e-06;0.0025226757291877937
4.14025e-06;0.002530821469327092
4.14050e-06;0.0025389672094664173
4.14075e-06;0.0025471129496057155
4.14100e-06;0.0025552586897450414
4.14125e-06;0.0025634044298843395
4.14150e-06;0.0025715501700236377
4.14175e-06;0.0025796959101629636
4.14200e-06;0.0025878416503022617
4.14225e-06;0.00259598739044156
4.14250e-06;0.0026041331305808853
4.14275e-06;0.0026122788707201835
4.14300e-06;0.0026133154561453183
4.14325e-06;0.0026100505156850945
4.14350e-06;0.002606785575224882
4.14375e-06;0.0026035206347646694
4.14400e-06;0.002600255694304446
4.14425e-06;0.0025969907538442335
4.14450e-06;0.002593725813384021
4.14475e-06;0.002590460872923797
4.14500e-06;0.0025871959324635847
4.14525e-06;0.0025839309920033613
4.14550e-06;0.0025806660515431488
4.14575e-06;0.0025774011110829362
4.14600e-06;0.0025741361706227124
4.14625e-06;0.0025708712301625
4.14650e-06;0.0025676062897022874
4.14675e-06;0.002564341349242064
4.14700e-06;0.0025589072439076124
4.14725e-06;0.002552160645143144
4.14750e-06;0.0025454140463786524
4.14775e-06;0.002538667447614184
4.14800e-06;0.0025319208488497153
4.14825e-06;0.002525174250085224
