Time(s);Current(A)
8.75000e-06;-0.013141843654616066
8.75025e-06;-0.013135323982672658
8.75050e-06;-0.013128804310729205
8.75075e-06;-0.013122284638785753
8.75100e-06;-0.013116720830348887
8.75125e-06;-0.013111766194251933
8.75150e-06;-0.013106811558154978
8.75175e-06;-0.013102749773404025
8.75200e-06;-0.013099257003308383
8.75225e-06;-0.013095764233212716
8.75250e-06;-0.013093729046549173
8.75275e-06;-0.01309262277861093
8.75300e-06;-0.01309151651067268
8.75325e-06;-0.013090410242734432
8.75350e-06;-0.01308930397479619
8.75375e-06;-0.01308819770685794
8.75400e-06;-0.013087416137877086
8.75425e-06;-0.013089241386842927
8.75450e-06;-0.01309106663580878
8.75475e-06;-0.013092891884774636
8.75500e-06;-0.013094717133740478
8.75525e-06;-0.013096542382706331
8.75550e-06;-0.013098367631672185
8.75575e-06;-0.013101431117827382
8.75600e-06;-0.013105283733226402
8.75625e-06;-0.013109136348625422
8.75650e-06;-0.013112988964024417
8.75675e-06;-0.013116841579423437
8.75700e-06;-0.013120694194822457
8.75725e-06;-0.01312454681022145
8.75750e-06;-0.013128699597892896
8.75775e-06;-0.013133043685519149
8.75800e-06;-0.013137387773145371
8.75825e-06;-0.013141731860771624
8.75850e-06;-0.013146075948397878
8.75875e-06;-0.013150420036024102
8.75900e-06;-0.013154764123650353
8.75925e-06;-0.013158637367149964
8.75950e-06;-0.013162210541427882
8.75975e-06;-0.013165783715705823
8.76000e-06;-0.013168734226186772
8.76025e-06;-0.013171287912686368
8.76050e-06;-0.013173841599185946
8.76075e-06;-0.013176334232779746
8.76100e-06;-0.013178787957323
8.76125e-06;-0.013181241681866237
8.76150e-06;-0.013184561333803158
8.76175e-06;-0.013188432841745834
8.76200e-06;-0.013192304349688485
8.76225e-06;-0.0131974362223837
8.76250e-06;-0.013203371326231129
8.76275e-06;-0.01320930643007852
8.76300e-06;-0.01321524153392595
8.76325e-06;-0.01322117663777338
8.76350e-06;-0.013227111741620771
8.76375e-06;-0.013233435389191004
8.76400e-06;-0.01324287842697602
8.76425e-06;-0.013252321464760972
8.76450e-06;-0.01326176450254599
8.76475e-06;-0.013271207540331006
8.76500e-06;-0.013280650578115958
8.76525e-06;-0.013290093615900975
8.76550e-06;-0.013301166173701955
8.76575e-06;-0.013313277225508255
8.76600e-06;-0.013325388277314637
8.76625e-06;-0.013337499329121018
8.76650e-06;-0.013349610380927319
8.76675e-06;-0.0133617214327337
8.76700e-06;-0.013373832484540082
8.76725e-06;-0.013386131733147365
8.76750e-06;-0.013398550919679862
8.76775e-06;-0.01341097010621236
8.76800e-06;-0.013423389292744774
8.76825e-06;-0.013435808479277271
8.76850e-06;-0.013448227665809769
8.76875e-06;-0.013460646852342266
8.76900e-06;-0.01347210379198999
8.76925e-06;-0.013482947491167097
8.76950e-06;-0.013493791190344202
8.76975e-06;-0.013503479245233135
8.77000e-06;-0.01351243080737948
8.77025e-06;-0.013521382369525825
8.77050e-06;-0.013529166721460876
8.77075e-06;-0.013536207209684112
8.77100e-06;-0.013543247697907346
8.77125e-06;-0.013551074251772781
8.77150e-06;-0.013559401765705963
8.77175e-06;-0.013567729279639146
8.77200e-06;-0.01357605679357227
8.77225e-06;-0.013584384307505451
8.77250e-06;-0.013592711821438635
8.77275e-06;-0.013601039335371759
8.77300e-06;-0.013609687948959658
8.77325e-06;-0.013620914483803103
8.77350e-06;-0.013632141018646472
8.77375e-06;-0.013643367553489917
8.77400e-06;-0.01365459408833336
8.77425e-06;-0.01366582062317673
8.77450e-06;-0.013677047158020175
8.77475e-06;-0.01368827369286362
8.77500e-06;-0.013701362943330152
8.77525e-06;-0.013715639303491754
8.77550e-06;-0.013729915663653357
8.77575e-06;-0.013744192023814862
8.77600e-06;-0.013758468383976465
8.77625e-06;-0.013772744744138067
8.77650e-06;-0.013787021104299572
8.77675e-06;-0.013801297464461175
8.77700e-06;-0.013815791965517498
8.77725e-06;-0.013830425487886466
8.77750e-06;-0.013845059010255335
8.77775e-06;-0.013859692532624302
8.77800e-06;-0.01387432605499327
8.77825e-06;-0.013888959577362138
8.77850e-06;-0.013903593099731106
8.77875e-06;-0.013918226622100073
8.77900e-06;-0.013931634938737492
8.77925e-06;-0.013944262431085847
8.77950e-06;-0.013956889923434199
8.77975e-06;-0.013968477241120677
8.78000e-06;-0.013979401654920917
8.78025e-06;-0.013988769030018527
8.78050e-06;-0.01399714410349113
8.78075e-06;-0.014005519176963788
8.78100e-06;-0.01401074263118234
8.78125e-06;-0.014013957556709906
8.78150e-06;-0.014017172482237493
8.78175e-06;-0.014016733144867387
8.78200e-06;-0.014013964943734783
8.78225e-06;-0.014011196742602162
8.78250e-06;-0.014004757403700378
8.78275e-06;-0.013995978446671234
8.78300e-06;-0.01398719948964203
8.78325e-06;-0.013973235282780399
8.78350e-06;-0.013955966513337482
8.78375e-06;-0.013938697743894446
8.78400e-06;-0.013921428974451412
8.78425e-06;-0.013904160205008493
8.78450e-06;-0.013881417151417712
8.78475e-06;-0.013855185333516578
8.78500e-06;-0.013828953515615621
8.78525e-06;-0.013802721697714487
8.78550e-06;-0.013776489879813352
8.78575e-06;-0.013746839781767852
8.78600e-06;-0.013715011211898867
8.78625e-06;-0.013683182642029668
8.78650e-06;-0.013649981614214964
8.78675e-06;-0.013615905918193876
8.78700e-06;-0.013581065733613297
8.78725e-06;-0.013545738340051695
8.78750e-06;-0.013510038372080875
8.78775e-06;-0.0134741009622329
8.78800e-06;-0.013438183745349103
8.78825e-06;-0.013402452317484027
8.78850e-06;-0.013367120618939313
8.78875e-06;-0.01333236307518212
8.78900e-06;-0.01329833336029975
8.78925e-06;-0.013265201944710115
8.78950e-06;-0.01323317122608256
8.78975e-06;-0.013202456752550452
8.79000e-06;-0.013173276091089144
8.79025e-06;-0.013145846033549527
8.79050e-06;-0.013120382077953187
8.79075e-06;-0.013097080588890064
8.79100e-06;-0.013076083307038196
8.79125e-06;-0.013057468949673162
8.79150e-06;-0.013041282019831341
8.79175e-06;-0.013028329378318092
8.79200e-06;-0.013016832201134542
8.79225e-06;-0.013008458392015317
8.79250e-06;-0.013002075107088881
8.79275e-06;-0.012999645851034919
8.79300e-06;-0.012999736499765513
8.79325e-06;-0.01299982714849611
8.79350e-06;-0.013005785739892356
8.79375e-06;-0.013015483974390871
8.79400e-06;-0.013025182208889385
8.79425e-06;-0.013034880443387898
8.79450e-06;-0.013044578677886347
8.79475e-06;-0.013060460168660123
8.79500e-06;-0.013080282252073751
8.79525e-06;-0.013100104335487245
8.79550e-06;-0.013119926418900873
8.79575e-06;-0.0131397485023145
8.79600e-06;-0.013164051262274462
8.79625e-06;-0.013191209559872824
8.79650e-06;-0.013218367857471186
8.79675e-06;-0.013245526155069364
8.79700e-06;-0.013272684452667726
8.79725e-06;-0.013299842750266088
8.79750e-06;-0.01332844394417759
8.79775e-06;-0.013357964696706894
8.79800e-06;-0.013387485449236198
8.79825e-06;-0.013417006201765301
8.79850e-06;-0.013446526954294604
8.79875e-06;-0.013476047706823906
8.79900e-06;-0.013504389209205766
8.79925e-06;-0.013531979174817462
8.79950e-06;-0.013553955693286535
8.79975e-06;-0.01357235475879012
8.80000e-06;-0.013590753824293826
8.80025e-06;-0.013609152889797534
8.80050e-06;-0.013627551955301116
8.80075e-06;-0.013645951020804823
8.80100e-06;-0.01366435008630853
8.80125e-06;-0.013682749151812112
8.80150e-06;-0.01370114821731582
8.80175e-06;-0.013719547282819527
8.80200e-06;-0.01373794634832311
8.80225e-06;-0.013756345413826818
8.80250e-06;-0.013774744479330525
8.80275e-06;-0.013788416334729377
8.80300e-06;-0.013799075536516447
8.80325e-06;-0.013809734738303514
8.80350e-06;-0.013820393940090584
8.80375e-06;-0.013831053141877579
8.80400e-06;-0.013841712343664648
8.80425e-06;-0.013852371545451716
8.80450e-06;-0.013863030747238712
8.80475e-06;-0.01387368994902578
8.80500e-06;-0.013884349150812849
8.80525e-06;-0.013895008352599844
8.80550e-06;-0.013905667554386913
8.80575e-06;-0.01391632675617398
8.80600e-06;-0.013925517177521935
8.80625e-06;-0.013933771544284433
8.80650e-06;-0.01394202591104693
8.80675e-06;-0.013950280277809372
8.80700e-06;-0.01395853464457187
8.80725e-06;-0.013966789011334368
8.80750e-06;-0.01397504337809681
8.80775e-06;-0.013983297744859308
8.80800e-06;-0.01399128518391195
8.80825e-06;-0.013997129616553389
8.80850e-06;-0.014002974049194868
8.80875e-06;-0.014008818481836346
8.80900e-06;-0.014014662914477784
8.80925e-06;-0.014020507347119262
8.80950e-06;-0.01402635177976074
8.80975e-06;-0.01403219621240218
8.81000e-06;-0.014038040645043657
8.81025e-06;-0.01404228495396753
8.81050e-06;-0.014045509503161692
8.81075e-06;-0.014048734052355877
8.81100e-06;-0.01404966115416169
8.81125e-06;-0.014049124091476997
8.81150e-06;-0.014048587028792301
8.81175e-06;-0.014043618831967716
8.81200e-06;-0.014035826670906495
8.81225e-06;-0.014028034509845326
8.81250e-06;-0.014020242348784104
8.81275e-06;-0.014012450187722882
8.81300e-06;-0.014004658026661712
8.81325e-06;-0.013995737195524272
8.81350e-06;-0.013977754932692803
8.81375e-06;-0.013959772669861458
8.81400e-06;-0.01394179040702999
8.81425e-06;-0.013923808144198522
8.81450e-06;-0.013905825881367176
8.81475e-06;-0.01388784361853571
8.81500e-06;-0.013866570934161927
8.81525e-06;-0.013843201262320446
8.81550e-06;-0.013819831590478806
8.81575e-06;-0.013796461918637168
8.81600e-06;-0.013773092246795687
8.81625e-06;-0.013746064753808025
8.81650e-06;-0.013715336216020585
8.81675e-06;-0.013684607678233353
8.81700e-06;-0.013653879140445913
8.81725e-06;-0.013623150602658472
8.81750e-06;-0.013592160303481374
8.81775e-06;-0.013560748966125602
8.81800e-06;-0.013529337628769829
8.81825e-06;-0.01349848582694018
8.81850e-06;-0.01346853402727926
8.81875e-06;-0.013438821084961847
8.81900e-06;-0.013409492340103543
8.81925e-06;-0.013380962999717545
8.81950e-06;-0.013353719486103605
8.81975e-06;-0.01332744853961047
8.82000e-06;-0.013302741948689783
8.82025e-06;-0.013279255351106524
8.82050e-06;-0.013257731089423299
8.82075e-06;-0.01323743788920565
8.82100e-06;-0.013219124827759698
8.82125e-06;-0.013202643065453278
8.82150e-06;-0.01318910691271305
8.82175e-06;-0.01317557075997273
8.82200e-06;-0.013164262990341291
8.82225e-06;-0.01315653953223004
8.82250e-06;-0.013148816074118736
8.82275e-06;-0.01314431379829889
8.82300e-06;-0.013144992732455781
8.82325e-06;-0.013145671666612678
8.82350e-06;-0.013146350600769574
8.82375e-06;-0.013147029534926465
8.82400e-06;-0.013147708469083362
8.82425e-06;-0.013152119326084575
8.82450e-06;-0.013162532909452579
8.82475e-06;-0.013172946492820654
8.82500e-06;-0.013183360076188729
8.82525e-06;-0.013193773659556733
8.82550e-06;-0.013204187242924808
8.82575e-06;-0.013217269443768838
8.82600e-06;-0.013234644064674665
8.82625e-06;-0.013252018685580609
8.82650e-06;-0.013269393306486554
8.82675e-06;-0.01328676792739238
8.82700e-06;-0.013304142548298325
8.82725e-06;-0.013321517169204268
8.82750e-06;-0.013339642535623357
8.82775e-06;-0.013358975461811553
8.82800e-06;-0.013378308387999749
8.82825e-06;-0.013397641314187815
8.82850e-06;-0.013416974240376012
8.82875e-06;-0.013436307166564208
8.82900e-06;-0.013455640092752404
8.82925e-06;-0.013474030357867903
8.82950e-06;-0.013490904370715645
8.82975e-06;-0.013507778383563387
8.83000e-06;-0.013523609195591823
8.83025e-06;-0.013537762039096967
8.83050e-06;-0.013550686320391568
8.83075e-06;-0.013561634482917388
8.83100e-06;-0.013570672143732013
8.83125e-06;-0.013576636799161159
8.83150e-06;-0.013580008715847903
8.83175e-06;-0.013579210261960595
8.83200e-06;-0.013578411808073287
8.83225e-06;-0.01357454355532337
8.83250e-06;-0.013565737589939503
8.83275e-06;-0.013556931624555636
8.83300e-06;-0.013544750594197626
8.83325e-06;-0.013527140836515938
8.83350e-06;-0.013509531078834252
8.83375e-06;-0.013488085758579653
8.83400e-06;-0.013460471009439444
8.83425e-06;-0.013432856260299234
8.83450e-06;-0.01340524151115921
8.83475e-06;-0.013377626762019002
8.83500e-06;-0.013341074408157879
8.83525e-06;-0.013303341977527874
8.83550e-06;-0.013265609546897613
8.83575e-06;-0.013227877116267354
8.83600e-06;-0.013188025635004985
8.83625e-06;-0.013144765701414096
8.83650e-06;-0.013100839537923554
8.83675e-06;-0.01305547222374736
8.83700e-06;-0.013009190618764039
8.83725e-06;-0.01296215952341416
8.83750e-06;-0.012914617016144322
8.83775e-06;-0.012866826521456872
8.83800e-06;-0.012819052597285734
8.83825e-06;-0.012771562967709742
8.83850e-06;-0.012724618418189938
8.83875e-06;-0.012678455130719364
8.83900e-06;-0.012633281364518667
8.83925e-06;-0.012589328011887484
8.83950e-06;-0.012546872576672792
8.83975e-06;-0.01250620785119971
8.84000e-06;-0.01246762755911588
8.84025e-06;-0.012431426355390749
8.84050e-06;-0.01239791339369986
8.84075e-06;-0.01236744700260905
8.84100e-06;-0.012340405017745979
8.84125e-06;-0.012317050609027222
8.84150e-06;-0.012297479202327006
8.84175e-06;-0.012281715726104788
8.84200e-06;-0.012269785186283608
8.84225e-06;-0.012261711937037074
8.84250e-06;-0.012257529910197724
8.84275e-06;-0.01225808222007547
8.84300e-06;-0.012262361647305813
8.84325e-06;-0.012269688380105833
8.84350e-06;-0.012281916645510576
8.84375e-06;-0.012298619132243945
8.84400e-06;-0.012322518318232584
8.84425e-06;-0.01234641750422122
8.84450e-06;-0.012370316690209698
8.84475e-06;-0.012394215876198336
8.84500e-06;-0.012430267769421459
8.84525e-06;-0.012467924245521489
8.84550e-06;-0.012505580721621775
8.84575e-06;-0.012543237197722061
8.84600e-06;-0.012584097242317587
8.84625e-06;-0.012630110165438727
8.84650e-06;-0.01267612308856018
8.84675e-06;-0.012723713993503373
8.84700e-06;-0.012773843051963427
8.84725e-06;-0.012823972110423822
8.84750e-06;-0.012874716580604564
8.84775e-06;-0.012926450928742386
8.84800e-06;-0.01297818527688056
8.84825e-06;-0.01302962691468685
8.84850e-06;-0.013080597733533922
8.84875e-06;-0.013130782536773742
8.84900e-06;-0.013179703048973144
8.84925e-06;-0.013227337694621812
8.84950e-06;-0.013272904048568736
8.84975e-06;-0.01331606677404741
8.85000e-06;-0.013355363309201326
8.85025e-06;-0.01339465984435551
8.85050e-06;-0.013430316512548997
8.85075e-06;-0.013460118524495633
8.85100e-06;-0.013489920536442471
8.85125e-06;-0.013516289881545681
8.85150e-06;-0.013537137847819165
8.85175e-06;-0.013557985814092791
8.85200e-06;-0.013573295193896016
8.85225e-06;-0.013579695863510462
8.85250e-06;-0.013586096533124951
8.85275e-06;-0.013592497202739438
8.85300e-06;-0.013598897872353884
8.85325e-06;-0.013605298541968373
8.85350e-06;-0.013605063035750558
8.85375e-06;-0.013594153367891132
8.85400e-06;-0.013583243700031633
8.85425e-06;-0.013572334032172133
8.85450e-06;-0.013561424364312633
8.85475e-06;-0.013550514696453209
8.85500e-06;-0.013534662665842577
8.85525e-06;-0.013510860939468817
8.85550e-06;-0.01348705921309522
8.85575e-06;-0.01346325748672146
8.85600e-06;-0.013439455760347701
8.85625e-06;-0.013415654033974104
8.85650e-06;-0.013385233031688653
8.85675e-06;-0.013353938053210916
8.85700e-06;-0.01332264307473339
8.85725e-06;-0.01329134809625565
8.85750e-06;-0.013260053117777913
8.85775e-06;-0.01322797291891031
8.85800e-06;-0.013194629708093927
8.85825e-06;-0.013161308990569966
8.85850e-06;-0.01312802445307601
8.85875e-06;-0.013095094631232986
8.85900e-06;-0.013062735362716684
8.85925e-06;-0.01303088612068039
8.85950e-06;-0.013000571854791849
8.85975e-06;-0.012971407022706478
8.86000e-06;-0.012943459863221436
8.86025e-06;-0.012917471306776791
8.86050e-06;-0.012892953204694746
8.86075e-06;-0.012870800300273806
8.86100e-06;-0.012850455844662271
8.86125e-06;-0.012833020244302036
8.86150e-06;-0.012815584643941919
8.86175e-06;-0.01280041432044921
8.86200e-06;-0.012788887651384053
8.86225e-06;-0.012777360982318974
8.86250e-06;-0.012769302921759797
8.86275e-06;-0.012766824051507022
8.86300e-06;-0.01276434518125425
8.86325e-06;-0.012761866311001492
8.86350e-06;-0.012759387440748718
8.86375e-06;-0.012756908570495945
8.86400e-06;-0.012758421367057082
8.86425e-06;-0.012766354683188532
8.86450e-06;-0.012774287999319983
8.86475e-06;-0.01278222131545138
8.86500e-06;-0.012790154631582831
8.86525e-06;-0.012798087947714282
8.86550e-06;-0.012809028819363074
8.86575e-06;-0.01282480728642221
8.86600e-06;-0.012840585753481345
8.86625e-06;-0.012856364220540373
8.86650e-06;-0.012872142687599508
8.86675e-06;-0.012887921154658644
8.86700e-06;-0.012903699621717672
8.86725e-06;-0.012920659471178288
8.86750e-06;-0.012939519551590745
8.86775e-06;-0.012958379632003072
8.86800e-06;-0.01297723971241553
8.86825e-06;-0.012996099792827984
8.86850e-06;-0.013014959873240313
8.86875e-06;-0.013033819953652768
8.86900e-06;-0.013052065149398811
8.86925e-06;-0.013069321314942886
8.86950e-06;-0.013086577480487077
8.86975e-06;-0.01310295420590251
8.87000e-06;-0.013117916368724895
8.87025e-06;-0.013131581239833004
8.87050e-06;-0.013143159442080624
8.87075e-06;-0.013154737644328165
8.87100e-06;-0.013163963809866397
8.87125e-06;-0.013169406769433319
8.87150e-06;-0.013174849729000243
8.87175e-06;-0.01317768596590124
8.87200e-06;-0.013176329339350878
8.87225e-06;-0.013174972712800515
8.87250e-06;-0.01316978818012648
8.87275e-06;-0.013158446533812799
8.87300e-06;-0.013147104887499117
8.87325e-06;-0.013135763241185514
8.87350e-06;-0.013124421594871831
8.87375e-06;-0.01311307994855815
8.87400e-06;-0.013091036650889332
8.87425e-06;-0.013067580360525067
8.87450e-06;-0.013044124070160801
8.87475e-06;-0.013020667779796696
8.87500e-06;-0.01299721148943243
8.87525e-06;-0.012970423335499122
8.87550e-06;-0.012938275942868761
8.87575e-06;-0.012906128550238184
8.87600e-06;-0.012873981157607607
8.87625e-06;-0.012841833764977249
8.87650e-06;-0.012805565753925701
8.87675e-06;-0.012768753676959734
8.87700e-06;-0.012731941599994016
8.87725e-06;-0.012695129523028047
8.87750e-06;-0.012657769990267796
8.87775e-06;-0.01261949346764281
8.87800e-06;-0.012581202640338547
8.87825e-06;-0.01254310763022074
8.87850e-06;-0.012505415128577828
8.87875e-06;-0.012468318306498305
8.87900e-06;-0.012431995263843977
8.87925e-06;-0.01239663723335976
8.87950e-06;-0.012362465559965088
8.87975e-06;-0.012329713788376629
8.88000e-06;-0.01229861661188319
8.88025e-06;-0.012269407652664599
8.88050e-06;-0.012242339875188408
8.88075e-06;-0.01221774404228347
8.88100e-06;-0.012196009771778787
8.88125e-06;-0.012177419899107431
8.88150e-06;-0.012162064929097478
8.88175e-06;-0.012149953243652143
8.88200e-06;-0.012141716610207116
8.88225e-06;-0.012136490959240931
8.88250e-06;-0.012133808656981467
8.88275e-06;-0.012135217282375573
8.88300e-06;-0.012139928196824166
8.88325e-06;-0.012149950779931298
8.88350e-06;-0.012159973363038496
8.88375e-06;-0.012174752860949156
8.88400e-06;-0.012197183765158617
8.88425e-06;-0.012219614669368231
8.88450e-06;-0.012242045573577845
8.88475e-06;-0.012264476477787308
8.88500e-06;-0.012291775715955569
8.88525e-06;-0.012326905575999095
8.88550e-06;-0.012362035436042381
8.88575e-06;-0.012397165296085907
8.88600e-06;-0.012432295156129433
8.88625e-06;-0.012470077772729616
8.88650e-06;-0.012512127297414362
8.88675e-06;-0.01255417682209911
8.88700e-06;-0.012597317568995962
8.88725e-06;-0.012642213525909593
8.88750e-06;-0.012687109482823223
8.88775e-06;-0.012732199548519226
8.88800e-06;-0.01277760183447259
8.88825e-06;-0.012823004120425953
8.88850e-06;-0.01286785912910332
8.88875e-06;-0.012911833852769929
8.88900e-06;-0.012954895812912173
8.88925e-06;-0.012996489610417074
8.88950e-06;-0.013033613788398698
8.88975e-06;-0.013063548669032848
8.89000e-06;-0.013093483549666997
8.89025e-06;-0.013123418430300942
8.89050e-06;-0.013153353310935091
8.89075e-06;-0.013183288191569241
8.89100e-06;-0.013213223072203188
8.89125e-06;-0.013243157952837335
8.89150e-06;-0.013273092833471485
8.89175e-06;-0.013296805125261553
8.89200e-06;-0.01331050850214416
8.89225e-06;-0.013324211879026765
8.89250e-06;-0.013337915255909279
8.89275e-06;-0.013351618632791886
8.89300e-06;-0.013365322009674491
8.89325e-06;-0.013379025386557004
8.89350e-06;-0.01339272876343961
8.89375e-06;-0.013406432140322217
8.89400e-06;-0.013415500448400109
8.89425e-06;-0.013417113337130202
8.89450e-06;-0.013418726225860293
8.89475e-06;-0.013420339114590375
8.89500e-06;-0.013421952003320468
8.89525e-06;-0.01342356489205056
8.89550e-06;-0.013425177780780641
8.89575e-06;-0.013426790669510734
8.89600e-06;-0.013428403558240827
8.89625e-06;-0.013430016446970908
8.89650e-06;-0.013431629335701
8.89675e-06;-0.013433242224431093
8.89700e-06;-0.01342927951217198
8.89725e-06;-0.013424580625352503
