Time(s);Current(A)
3.25000e-06;0.003442750605101768
3.25025e-06;0.003411663775455579
3.25050e-06;0.00340104552720844
3.25075e-06;0.0034090635160839507
3.25100e-06;0.003417081504959461
3.25125e-06;0.003425099493834958
3.25150e-06;0.0034331174827104687
3.25175e-06;0.003441135471585979
3.25200e-06;0.00344915346046149
3.25225e-06;0.003457171449336987
3.25250e-06;0.0034651894382124976
3.25275e-06;0.003473207427088008
3.25300e-06;0.003481225415963505
3.25325e-06;0.0034892434048390156
3.25350e-06;0.0035083925539747852
3.25375e-06;0.0035376764036068272
3.25400e-06;0.0035669602532388193
3.25425e-06;0.003596244102870861
3.25450e-06;0.0036255279525029024
3.25475e-06;0.0036548118021348945
3.25500e-06;0.0036840956517669365
3.25525e-06;0.003713379501398978
3.25550e-06;0.003742698205928805
3.25575e-06;0.003773469761198268
3.25600e-06;0.0038042413164677304
3.25625e-06;0.003835012871737193
3.25650e-06;0.0038657844270066034
3.25675e-06;0.0038965559822760664
3.25700e-06;0.0039273275375455285
3.25725e-06;0.003958099092814939
3.25750e-06;0.003988870648084402
3.25775e-06;0.004010582688399675
3.25800e-06;0.0040240462201535255
3.25825e-06;0.004037509751907352
3.25850e-06;0.004050973283661202
3.25875e-06;0.004064436815415052
3.25900e-06;0.004077900347168879
3.25925e-06;0.004091363878922729
3.25950e-06;0.004104827410676579
3.25975e-06;0.0041182909424304056
3.26000e-06;0.004131754474184256
3.26025e-06;0.004145218005938105
3.26050e-06;0.004158681537691955
3.26075e-06;0.004172145069445782
3.26100e-06;0.004185608601199632
3.26125e-06;0.004188710291282187
3.26150e-06;0.004182377730174578
3.26175e-06;0.004176045169066959
3.26200e-06;0.004169712607959339
3.26225e-06;0.00416338004685172
3.26250e-06;0.004157047485744111
3.26275e-06;0.004150714924636492
3.26300e-06;0.004144382363528873
3.26325e-06;0.004138049802421264
3.26350e-06;0.004131717241313645
3.26375e-06;0.004125384680206026
3.26400e-06;0.0041190521190984175
3.26425e-06;0.0041127195579907985
3.26450e-06;0.004106386996883179
3.26475e-06;0.004096981633614162
3.26500e-06;0.004084778544963082
3.26525e-06;0.004072575456311981
3.26550e-06;0.0040603723676608805
3.26575e-06;0.0040481692790098
3.26600e-06;0.0040359661903587
3.26625e-06;0.0040237631017075995
3.26650e-06;0.0040115600130564985
3.26675e-06;0.0039993569244054184
3.26700e-06;0.0039871538357543175
3.26725e-06;0.003974950747103217
3.26750e-06;0.0039627476584521365
3.26775e-06;0.003950544569801036
3.26800e-06;0.003938341481149935
3.26825e-06;0.003926138392498855
3.26850e-06;0.003915605283398635
3.26875e-06;0.0039065926575354805
3.26900e-06;0.003897580031672326
3.26925e-06;0.0038885674058091865
3.26950e-06;0.0038795547799460317
3.26975e-06;0.003870542154082877
3.27000e-06;0.0038615295282197377
3.27025e-06;0.003852516902356583
3.27050e-06;0.003843504276493428
3.27075e-06;0.0038344916506302734
3.27100e-06;0.0038254790247671338
3.27125e-06;0.003816466398903979
3.27150e-06;0.0038074537730408246
3.27175e-06;0.003798441147177685
3.27200e-06;0.0037894285213145302
3.27225e-06;0.003780176548831748
3.27250e-06;0.0037707066560021068
3.27275e-06;0.0037612367631724495
3.27300e-06;0.0037517668703427923
3.27325e-06;0.003742296977513135
3.27350e-06;0.0037328270846834935
3.27375e-06;0.0037233571918538363
3.27400e-06;0.003713887299024179
3.27425e-06;0.003704417406194538
3.27450e-06;0.0036949475133648806
3.27475e-06;0.0036854776205352234
3.27500e-06;0.003676007727705566
3.27525e-06;0.0036665731625660997
3.27550e-06;0.0036586111554905523
3.27575e-06;0.003650649148415005
3.27600e-06;0.0036426871413394704
3.27625e-06;0.003634725134263923
3.27650e-06;0.003626763127188375
3.27675e-06;0.003618801120112841
3.27700e-06;0.0036108391130372933
3.27725e-06;0.003602877105961746
3.27750e-06;0.003594915098886198
3.27775e-06;0.003586953091810664
3.27800e-06;0.0035789910847351166
3.27825e-06;0.0035710290776595687
3.27850e-06;0.003557318531985648
3.27875e-06;0.0035383740560084556
3.27900e-06;0.0035194295800312636
3.27925e-06;0.003500485104054071
3.27950e-06;0.003481540628076911
3.27975e-06;0.003462596152099719
3.28000e-06;0.0034436516761225267
3.28025e-06;0.003424707200145367
3.28050e-06;0.0034057627241681743
3.28075e-06;0.0033868182481909823
3.28100e-06;0.003367285558195088
3.28125e-06;0.0033232344439027123
3.28150e-06;0.003279183329610337
3.28175e-06;0.0032351322153179617
3.28200e-06;0.003191081101025661
3.28225e-06;0.0031470299867332853
3.28250e-06;0.00310297887244091
3.28275e-06;0.0030589277581486093
3.28300e-06;0.003014876643856234
3.28325e-06;0.0029708255295638588
3.28350e-06;0.002926774415271483
3.28375e-06;0.002875706718827595
3.28400e-06;0.002818250563591637
3.28425e-06;0.0027607944083556783
3.28450e-06;0.0027033382531198176
3.28475e-06;0.0026458820978838594
3.28500e-06;0.002588425942647901
3.28525e-06;0.0025309926627528788
3.28550e-06;0.0024745128917761225
3.28575e-06;0.002418033120799366
3.28600e-06;0.0023615533498226103
3.28625e-06;0.00230507357884595
3.28650e-06;0.0022485938078691935
3.28675e-06;0.0021921140368924372
3.28700e-06;0.00213964965854595
3.28725e-06;0.0020908412154963603
3.28750e-06;0.0020420327724467707
3.28775e-06;0.0019979270779012536
3.28800e-06;0.0019581031425341543
3.28825e-06;0.0019182792071669873
3.28850e-06;0.001884565337023823
3.28875e-06;0.0018564145600018268
3.28900e-06;0.0018282637829797831
3.28925e-06;0.0018067431726730837
3.28950e-06;0.0017912591975730806
3.28975e-06;0.0017757752224730513
3.29000e-06;0.0017660461624534266
3.29025e-06;0.0017615568383978107
3.29050e-06;0.00176283827255169
3.29075e-06;0.001769373867524165
3.29100e-06;0.0017759094624966402
3.29125e-06;0.0017889168132053442
3.29150e-06;0.0018078165690682067
3.29175e-06;0.0018267163249310694
3.29200e-06;0.0018514844976760248
3.29225e-06;0.0018815957475226905
3.29250e-06;0.0019117069973694071
3.29275e-06;0.0019468382442241752
3.29300e-06;0.001986540098723786
3.29325e-06;0.0020262419532234635
3.29350e-06;0.002071369299776653
3.29375e-06;0.0021214364491658104
3.29400e-06;0.0021715035985550527
3.29425e-06;0.0022215707479442946
3.29450e-06;0.002271637897333537
3.29475e-06;0.002321705046722694
3.29500e-06;0.0023718712202045323
3.29525e-06;0.002426164997998185
3.29550e-06;0.002480458775791746
3.29575e-06;0.0025347525535853992
3.29600e-06;0.002589046331379052
3.29625e-06;0.002643340109172705
3.29650e-06;0.0026976338869662657
3.29675e-06;0.002743104792361143
3.29700e-06;0.0027805426475425235
3.29725e-06;0.0028179805027238403
3.29750e-06;0.002855418357905221
3.29775e-06;0.0028928562130866014
3.29800e-06;0.002930294068267918
3.29825e-06;0.0029677319234492987
3.29850e-06;0.0030051697786306793
3.29875e-06;0.0030426076338120594
3.29900e-06;0.0030800454889933766
3.29925e-06;0.003117483344174757
3.29950e-06;0.003136244044697212
3.29975e-06;0.0031379995665839376
3.30000e-06;0.0031397550884706663
3.30025e-06;0.003141510610357395
3.30050e-06;0.0031432661322441206
3.30075e-06;0.003145021654130849
3.30100e-06;0.0031467771760175776
3.30125e-06;0.0031485326979043063
3.30150e-06;0.0031502882197910315
3.30175e-06;0.00315204374167776
3.30200e-06;0.003153799263564489
3.30225e-06;0.003141839658658892
3.30250e-06;0.00311739270300971
3.30275e-06;0.003092945747360528
3.30300e-06;0.0030684987917113456
3.30325e-06;0.0030440518360622046
3.30350e-06;0.0030196048804130224
3.30375e-06;0.00299515792476384
3.30400e-06;0.0029707109691146996
3.30425e-06;0.0029408911056794194
3.30450e-06;0.0029061793163396386
3.30475e-06;0.0028714675269999167
3.30500e-06;0.002836755737660136
3.30525e-06;0.002802043948320355
3.30550e-06;0.0027673321589805743
3.30575e-06;0.002732620369640852
3.30600e-06;0.0026979085803010712
3.30625e-06;0.00266417126527
3.30650e-06;0.0026313211897569314
3.30675e-06;0.002598471114243807
3.30700e-06;0.0025656210387306824
3.30725e-06;0.002532770963217558
3.30750e-06;0.002499920887704489
3.30775e-06;0.002473560665655527
3.30800e-06;0.0024531093263833654
3.30825e-06;0.002432657987111239
3.30850e-06;0.0024122066478390776
3.30875e-06;0.002391755308566916
3.30900e-06;0.00237130396929479
3.30925e-06;0.0023593431050789883
3.30950e-06;0.002355112649894007
3.30975e-06;0.002350882194709026
3.31000e-06;0.0023526965838663602
3.31025e-06;0.002360014683827049
3.31050e-06;0.002367332783787738
3.31075e-06;0.0023811599723962003
3.31100e-06;0.002400913557034449
3.31125e-06;0.0024206671416726984
3.31150e-06;0.0024463575530116587
3.31175e-06;0.002477453327235013
3.31200e-06;0.0025085491014584203
3.31225e-06;0.0025477964557611573
3.31250e-06;0.00259446566194395
3.31275e-06;0.002641134868126821
3.31300e-06;0.0026878040743096927
3.31325e-06;0.0027344732804924854
3.31350e-06;0.002781142486675357
3.31375e-06;0.0028278116928582286
3.31400e-06;0.0028810778387100945
3.31425e-06;0.002940350367202973
3.31450e-06;0.0029996228956959514
3.31475e-06;0.00305889542418893
3.31500e-06;0.0031181679526818083
3.31525e-06;0.0031774404811747868
3.31550e-06;0.0032367130096677657
3.31575e-06;0.0032934629850893842
3.31600e-06;0.003347916226003769
3.31625e-06;0.0034023694669182464
3.31650e-06;0.0034568227078327234
3.31675e-06;0.0035112759487471086
3.31700e-06;0.003565729189661586
3.31725e-06;0.003620182430576063
3.31750e-06;0.003674635671490448
3.31775e-06;0.0037290889124049252
3.31800e-06;0.003771083590550212
3.31825e-06;0.00380173499455517
3.31850e-06;0.003832386398560076
3.31875e-06;0.003863037802565034
3.31900e-06;0.003893689206569992
3.31925e-06;0.003924340610574898
3.31950e-06;0.003954992014579856
3.31975e-06;0.003985643418584814
3.32000e-06;0.004016294822589772
3.32025e-06;0.004036730189687146
3.32050e-06;0.004047864057934417
3.32075e-06;0.004058997926181687
3.32100e-06;0.004070131794428939
3.32125e-06;0.00408126566267621
3.32150e-06;0.004084045596364347
3.32175e-06;0.004079219438434003
3.32200e-06;0.004074393280503651
3.32225e-06;0.004069567122573298
3.32250e-06;0.004064740964642945
3.32275e-06;0.004059914806712601
3.32300e-06;0.0040550886487822485
3.32325e-06;0.004050262490851895
3.32350e-06;0.004045436332921552
3.32375e-06;0.004040610174991199
3.32400e-06;0.004035518018382296
3.32425e-06;0.0040193382843395796
3.32450e-06;0.00400315855029689
3.32475e-06;0.003986978816254174
3.32500e-06;0.003970799082211457
3.32525e-06;0.0039546193481687685
3.32550e-06;0.003938439614126051
3.32575e-06;0.003922259880083335
3.32600e-06;0.003906080146040646
3.32625e-06;0.0038899004119979297
3.32650e-06;0.003873720677955213
3.32675e-06;0.003858200657505225
3.32700e-06;0.0038432812931883512
3.32725e-06;0.003828361928871452
3.32750e-06;0.0038134425645545526
3.32775e-06;0.0037985232002376787
3.32800e-06;0.0037835284739719957
3.32825e-06;0.0037653924484809128
3.32850e-06;0.00374725642298983
3.32875e-06;0.003729120397498777
3.32900e-06;0.0037109843720076943
3.32925e-06;0.003692848346516611
3.32950e-06;0.0036624856465171875
3.32975e-06;0.0036209908020358385
3.33000e-06;0.0035794959575544895
3.33025e-06;0.003538001113073211
3.33050e-06;0.003496506268591862
3.33075e-06;0.0034550114241105132
3.33100e-06;0.0034135165796291642
3.33125e-06;0.0033720217351478855
3.33150e-06;0.0033305268906665365
3.33175e-06;0.0032728777418008057
3.33200e-06;0.0032005204194011133
3.33225e-06;0.0031281630970012987
3.33250e-06;0.0030558057746014836
3.33275e-06;0.0029834484522016686
3.33300e-06;0.0029110911298019762
3.33325e-06;0.0028387338074021616
3.33350e-06;0.0027663764850023465
3.33375e-06;0.002694019162602654
3.33400e-06;0.002614252219973968
3.33425e-06;0.00252773896518247
3.33450e-06;0.0024412257103911183
3.33475e-06;0.0023547124555996202
3.33500e-06;0.002268199200808122
3.33525e-06;0.0021817169254274857
3.33550e-06;0.002095262856185751
3.33575e-06;0.0020088087869438694
3.33600e-06;0.001922354717701988
3.33625e-06;0.001835900648460253
3.33650e-06;0.0017533054048591288
3.33675e-06;0.0016742235454195174
3.33700e-06;0.001595141685979906
3.33725e-06;0.001520245398437905
3.33750e-06;0.0014491599910392639
3.33775e-06;0.0013827814858874835
3.33800e-06;0.0013206885218158082
3.33825e-06;0.001262952997124447
3.33850e-06;0.0012126907971039148
3.33875e-06;0.001169440058320299
3.33900e-06;0.0011335720340010938
3.33925e-06;0.0011051815865279883
3.33950e-06;0.0010843004363487144
3.33975e-06;0.001070960187495743
3.34000e-06;0.0010651934244181426
3.34025e-06;0.0010670904053177565
3.34050e-06;0.0010768475773969702
3.34075e-06;0.001094611291868068
3.34100e-06;0.0011202946125480628
3.34125e-06;0.0011536374437882855
3.34150e-06;0.0011943401934853555
3.34175e-06;0.0012421032640812621
3.34200e-06;0.0012982995799550143
3.34225e-06;0.001359172627869267
3.34250e-06;0.0014265293240215994
3.34275e-06;0.0014997892532166459
3.34300e-06;0.0015787760470279799
3.34325e-06;0.001662977037414287
3.34350e-06;0.0017528056697432204
3.34375e-06;0.0018477581583717468
3.34400e-06;0.0019427106470001126
3.34425e-06;0.002043249662620116
3.34450e-06;0.002148875100192714
3.34475e-06;0.0022545005377651336
3.34500e-06;0.0023601259753377323
3.34525e-06;0.002465751412910331
3.34550e-06;0.0025718742272398394
3.34575e-06;0.0026784498932351376
3.34600e-06;0.0027850255592306162
3.34625e-06;0.002891601225226095
3.34650e-06;0.0029981768912213927
3.34675e-06;0.003099473545360876
3.34700e-06;0.003195963763975414
3.34725e-06;0.0032924539825897894
3.34750e-06;0.00338104112031536
3.34775e-06;0.003462432659740018
3.34800e-06;0.0035438241991646757
3.34825e-06;0.003615290424455238
3.34850e-06;0.0036777198482096517
3.34875e-06;0.0037401492719640658
3.34900e-06;0.003793391508905899
3.34925e-06;0.003838268994588466
3.34950e-06;0.003883146480271033
3.34975e-06;0.003917937376890331
3.35000e-06;0.003943544634350843
3.35025e-06;0.003969151891811397
3.35050e-06;0.0039851181989933255
3.35075e-06;0.0039923066122854916
3.35100e-06;0.003999495025577669
3.35125e-06;0.003998142773594012
3.35150e-06;0.003989014415378929
3.35175e-06;0.00397988605716383
3.35200e-06;0.003958272198992419
3.35225e-06;0.003925290540904102
3.35250e-06;0.00389230888281584
3.35275e-06;0.0038593272247275227
3.35300e-06;0.0038263455666392053
3.35325e-06;0.003793363908550944
3.35350e-06;0.0037603822504626264
3.35375e-06;0.0037163723295027
3.35400e-06;0.0036623213940703853
3.35425e-06;0.003608270458638162
3.35450e-06;0.003554219523205847
3.35475e-06;0.0035001685877735322
3.35500e-06;0.003446117652341309
3.35525e-06;0.003392066716908994
3.35550e-06;0.0033361646424190537
3.35575e-06;0.003278577142555816
3.35600e-06;0.0032209896426924813
3.35625e-06;0.003163402142829146
3.35650e-06;0.003105814642965811
3.35675e-06;0.0030482271431025733
3.35700e-06;0.0029906396432392386
3.35725e-06;0.002940537534384723
3.35750e-06;0.002897250725485326
3.35775e-06;0.002853963916585855
3.35800e-06;0.0028106771076863843
3.35825e-06;0.002767390298786914
3.35850e-06;0.0027241034898875163
3.35875e-06;0.0026808166809880454
3.35900e-06;0.0026440091425737012
3.35925e-06;0.0026131008513456382
3.35950e-06;0.0025821925601175228
3.35975e-06;0.002551284268889407
3.36000e-06;0.002520375977661344
3.36025e-06;0.0024894676864332284
3.36050e-06;0.0024585593952051125
3.36075e-06;0.002427651103976997
3.36100e-06;0.002396742812748934
3.36125e-06;0.0023658345215208185
3.36150e-06;0.002338033774752295
3.36175e-06;0.002313062385540623
3.36200e-06;0.0022880909963289087
3.36225e-06;0.0022631196071171943
3.36250e-06;0.0022381482179054803
3.36275e-06;0.0022131768286938083
3.36300e-06;0.002188205439482094
3.36325e-06;0.00216323405027038
3.36350e-06;0.002138262661058708
3.36375e-06;0.0021132912718469935
3.36400e-06;0.002090217072968368
3.36425e-06;0.002068870228235645
3.36450e-06;0.002047523383502885
3.36475e-06;0.002026176538770126
3.36500e-06;0.0020048296940373663
3.36525e-06;0.001983482849304643
3.36550e-06;0.0019621360045718834
3.36575e-06;0.001940789159839124
3.36600e-06;0.0019194423151064005
3.36625e-06;0.0018982419270237461
3.36650e-06;0.0018831462664627354
3.36675e-06;0.0018680506059017246
3.36700e-06;0.0018529549453407393
3.36725e-06;0.0018378592847797285
3.36750e-06;0.0018227636242187178
3.36775e-06;0.0018076679636577324
3.36800e-06;0.0017925723030967216
3.36825e-06;0.0017774766425357109
3.36850e-06;0.0017623809819747257
3.36875e-06;0.0017555653453767842
3.36900e-06;0.0017562885062687998
3.36925e-06;0.0017570116671608155
3.36950e-06;0.0017577348280528298
3.36975e-06;0.0017584579889448454
3.37000e-06;0.0017591811498368609
3.37025e-06;0.0017599043107288754
3.37050e-06;0.0017606274716208908
3.37075e-06;0.0017613506325129065
3.37100e-06;0.0017620737934049221
3.37125e-06;0.0017632355928254482
3.37150e-06;0.0017826810870862724
3.37175e-06;0.0018021265813470966
3.37200e-06;0.0018215720756078878
3.37225e-06;0.001841017569868712
3.37250e-06;0.0018604630641295362
3.37275e-06;0.0018799085583903275
3.37300e-06;0.0018993540526511517
3.37325e-06;0.0019187995469119759
3.37350e-06;0.0019382450411728
3.37375e-06;0.0019576905354335913
3.37400e-06;0.00198185264760913
3.37425e-06;0.002010309146788331
3.37450e-06;0.002038765645967484
3.37475e-06;0.002067222145146685
3.37500e-06;0.002095678644325886
3.37525e-06;0.0021241351435050872
3.37550e-06;0.00215259164268424
3.37575e-06;0.0021810073181053272
3.37600e-06;0.0022077213437915145
3.37625e-06;0.002234435369477657
3.37650e-06;0.0022611493951638444
3.37675e-06;0.002287863420850032
3.37700e-06;0.0023145774465361743
3.37725e-06;0.002341291472222362
3.37750e-06;0.0023680054979085497
3.37775e-06;0.0023861753842057574
3.37800e-06;0.002396566001159115
3.37825e-06;0.00240695661811249
3.37850e-06;0.002417347235065865
3.37875e-06;0.0024277378520192227
3.37900e-06;0.0024381284689725976
3.37925e-06;0.0024485190859259726
3.37950e-06;0.0024589097028793303
3.37975e-06;0.0024693003198327053
3.38000e-06;0.0024796909367860802
3.38025e-06;0.0024900815537394552
3.38050e-06;0.002500472170692813
3.38075e-06;0.0025103023942332527
3.38100e-06;0.0024967738348763203
3.38125e-06;0.002483245275519411
3.38150e-06;0.0024697167161624786
3.38175e-06;0.0024561881568055458
3.38200e-06;0.0024426595974486134
3.38225e-06;0.002429131038091704
3.38250e-06;0.0024156024787347716
3.38275e-06;0.002402073919377839
3.38300e-06;0.0023885453600209295
3.38325e-06;0.002375016800663997
3.38350e-06;0.0023614882413070647
3.38375e-06;0.002347959681950155
3.38400e-06;0.0023285345114426727
3.38425e-06;0.0023037405935085755
3.38450e-06;0.0022789466755744787
3.38475e-06;0.0022541527576404236
3.38500e-06;0.0022293588397063265
3.38525e-06;0.0022045649217722293
3.38550e-06;0.0021797710038381746
3.38575e-06;0.002154999273535503
3.38600e-06;0.0021311523864834415
3.38625e-06;0.00210730549943138
3.38650e-06;0.002083458612379358
3.38675e-06;0.0020596117253272963
3.38700e-06;0.0020357648382752346
3.38725e-06;0.002011917951223213
3.38750e-06;0.001988071064171151
3.38775e-06;0.0019714507939722122
3.38800e-06;0.0019614102149965737
3.38825e-06;0.0019513696360209181
3.38850e-06;0.0019413290570452627
3.38875e-06;0.0019312884780696073
3.38900e-06;0.0019212478990939688
3.38925e-06;0.0019112073201183132
3.38950e-06;0.0019011667411426578
3.38975e-06;0.0018911261621670193
3.39000e-06;0.001881085583191364
3.39025e-06;0.0018710450042157083
3.39050e-06;0.001861004425240053
3.39075e-06;0.0018618366201394445
3.39100e-06;0.0018725682598680186
3.39125e-06;0.0018832998995965925
3.39150e-06;0.0018940315393251484
3.39175e-06;0.0019047631790537224
3.39200e-06;0.0019154948187822963
3.39225e-06;0.0019262264585108522
3.39250e-06;0.0019369580982394263
3.39275e-06;0.0019476897379680001
3.39300e-06;0.0019584213776965742
3.39325e-06;0.00196915301742513
3.39350e-06;0.001979884657153704
3.39375e-06;0.001996240480756523
3.39400e-06;0.002017717012157763
3.39425e-06;0.0020391935435590397
3.39450e-06;0.0020606700749603163
3.39475e-06;0.002082146606361593
3.39500e-06;0.002103623137762833
3.39525e-06;0.0021250996691641096
3.39550e-06;0.002146576200565386
3.39575e-06;0.0021678219706981086
3.39600e-06;0.002188857637275626
3.39625e-06;0.0022098933038531446
3.39650e-06;0.0022309289704306266
3.39675e-06;0.0022519646370081445
3.39700e-06;0.0022730003035856625
3.39725e-06;0.0022940359701631805
3.39750e-06;0.002315071636740663
3.39775e-06;0.002327847104953229
3.39800e-06;0.0023331018264883337
3.39825e-06;0.00233835654802343
3.39850e-06;0.002343611269558535
3.39875e-06;0.0023488659910936398
3.39900e-06;0.0023541207126287446
