Time(s);Current(A)
9.00000e-06;0.00061006630558944
9.00025e-06;0.0006117827549223321
9.00050e-06;0.0006134992042552242
9.00075e-06;0.0006152156535881045
9.00100e-06;0.0006169321029209966
9.00125e-06;0.0006214219816658711
9.00150e-06;0.0006265797624993829
9.00175e-06;0.0006317375433329296
9.00200e-06;0.0006368953241664764
9.00225e-06;0.0006420531049999882
9.00250e-06;0.0006472108858335348
9.00275e-06;0.0006523686666670815
9.00300e-06;0.0006575264475005933
9.00325e-06;0.0006633397254326983
9.00350e-06;0.0006693108613147448
9.00375e-06;0.000675281997196751
9.00400e-06;0.0006812531330787976
9.00425e-06;0.0006872242689608442
9.00450e-06;0.0006931954048428504
9.00475e-06;0.0006981160956786632
9.00500e-06;0.0007027838165136981
9.00525e-06;0.0007074515373487016
9.00550e-06;0.0007121192581837366
9.00575e-06;0.0007167869790187717
9.00600e-06;0.000721454699853775
9.00625e-06;0.0007232335033056115
9.00650e-06;0.0007243165926547845
9.00675e-06;0.0007253996820039501
9.00700e-06;0.0007233939601922583
9.00725e-06;0.0007206443855111228
9.00750e-06;0.0007178948108300058
9.00775e-06;0.000712146352559894
9.00800e-06;0.0007056756979344484
9.00825e-06;0.0006992050433090028
9.00850e-06;0.0006892035235395488
9.00875e-06;0.0006783516946924684
9.00900e-06;0.0006674998658453879
9.00925e-06;0.0006535371465936817
9.00950e-06;0.000638825257310571
9.00975e-06;0.0006241133680274603
9.01000e-06;0.0006066718149443118
9.01025e-06;0.000588572899482861
9.01050e-06;0.0005704739840214102
9.01075e-06;0.0005499353433859411
9.01100e-06;0.0005288091638957027
9.01125e-06;0.0005076829844054642
9.01150e-06;0.00048469090552904207
9.01175e-06;0.00046124947752086324
9.01200e-06;0.00043780804951268435
9.01225e-06;0.00041436662150466435
9.01250e-06;0.0003906088843826411
9.01275e-06;0.00036613348782358474
9.01300e-06;0.0003416580912646943
9.01325e-06;0.000317182694705638
9.01350e-06;0.00029270729814658166
9.01375e-06;0.0002690907456033666
9.01400e-06;0.0002456810213678319
9.01425e-06;0.00022227129713229724
9.01450e-06;0.00020019694104673411
9.01475e-06;0.00017844417063867744
9.01500e-06;0.00015783934890647623
9.01525e-06;0.0001384468793188926
9.01550e-06;0.00012034361549578884
9.01575e-06;0.00010366080458346908
9.01600e-06;8.827832639983019e-05
9.01625e-06;7.377083324627307e-05
9.01650e-06;5.982956923811228e-05
9.01675e-06;4.6437390282666214e-05
9.01700e-06;3.368146668264903e-05
9.01725e-06;2.1659609680700745e-05
9.01750e-06;1.0469610591573726e-05
9.01775e-06;1.9202360376073828e-07
9.01800e-06;-9.250041983107923e-06
9.01825e-06;-1.8124664815736924e-05
9.01850e-06;-2.662686762047096e-05
9.01875e-06;-3.4768992783784486e-05
9.01900e-06;-4.2498045588378936e-05
9.01925e-06;-4.9754375723120454e-05
9.01950e-06;-5.6478341457478446e-05
9.01975e-06;-6.262111172241685e-05
9.02000e-06;-6.823247294015738e-05
9.02025e-06;-7.348196962812661e-05
9.02050e-06;-7.84933571392086e-05
9.02075e-06;-8.327597430416642e-05
9.02100e-06;-8.767608153694325e-05
9.02125e-06;-9.199489352586694e-05
9.02150e-06;-9.57709413686693e-05
9.02175e-06;-9.941627980688775e-05
9.02200e-06;-0.00010251710863471035
9.02225e-06;-0.00010548680771215362
9.02250e-06;-0.00010845650678961702
9.02275e-06;-0.0001110644862432809
9.02300e-06;-0.00011358535574870029
9.02325e-06;-0.00011610622525413676
9.02350e-06;-0.00011816755485969051
9.02375e-06;-0.00012011821726816703
9.02400e-06;-0.00012206887967665676
9.02425e-06;-0.0001237325529616043
9.02450e-06;-0.00012532711302721067
9.02475e-06;-0.0001269216730928278
9.02500e-06;-0.00012833615128024842
9.02525e-06;-0.0001297072618368956
9.02550e-06;-0.00013107837239353348
9.02575e-06;-0.00013217685628096144
9.02600e-06;-0.00013320968574025588
9.02625e-06;-0.00013352021548801215
9.02650e-06;-0.00013365679976434607
9.02675e-06;-0.00013284962536937175
9.02700e-06;-0.00013181517337153634
9.02725e-06;-0.00013011549424020785
9.02750e-06;-0.00012783821538801064
9.02775e-06;-0.00012483403271024526
9.02800e-06;-0.00012167900286575257
9.02825e-06;-0.00011776982102944146
9.02850e-06;-0.00011311180378516855
9.02875e-06;-0.00010777702428294367
9.02900e-06;-0.00010180962039819813
9.02925e-06;-9.525626881120788e-05
9.02950e-06;-8.816363892615928e-05
9.02975e-06;-8.05744523831267e-05
9.03000e-06;-7.249688075563449e-05
9.03025e-06;-6.390155596578411e-05
9.03050e-06;-5.4784632767146165e-05
9.03075e-06;-4.518920258505412e-05
9.03100e-06;-3.51743713929252e-05
9.03125e-06;-2.480083522923938e-05
9.03150e-06;-1.4129280603776363e-05
9.03175e-06;-3.2179208634471852e-06
9.03200e-06;7.89667240590123e-06
9.03225e-06;1.9201455437891815e-05
9.03250e-06;3.0700873208491145e-05
9.03275e-06;4.223835192134419e-05
9.03300e-06;5.377583063411905e-05
9.03325e-06;6.531330934697209e-05
9.03350e-06;7.685078805982513e-05
9.03375e-06;8.806477549376545e-05
9.03400e-06;9.920086145284138e-05
9.03425e-06;0.00010988954953258982
9.03450e-06;0.00012047049447769424
9.03475e-06;0.00013040865899933475
9.03500e-06;0.0001401920280226876
9.03525e-06;0.00014909241102444503
9.03550e-06;0.00015778015179828005
9.03575e-06;0.00016543471648158077
9.03600e-06;0.00017284046990364362
9.03625e-06;0.00017967318133551828
9.03650e-06;0.00018636789179973505
9.03675e-06;0.00019259880522945737
9.03700e-06;0.00019871802625145803
9.03725e-06;0.00020483724727350016
9.03750e-06;0.0002101340711905212
9.03775e-06;0.00021523284400777796
9.03800e-06;0.00022033161682506928
9.03825e-06;0.00022492286413374366
9.03850e-06;0.0002293918882675819
9.03875e-06;0.0002338609124014504
9.03900e-06;0.00023743059467275563
9.03925e-06;0.00024078369587408836
9.03950e-06;0.0002441367970754438
9.03975e-06;0.0002474898982767993
9.04000e-06;0.000250842999478132
9.04025e-06;0.00025419610067948747
9.04050e-06;0.0002575492018808429
9.04075e-06;0.00026090230308217565
9.04100e-06;0.0002642554042835311
9.04125e-06;0.0002676085054848866
9.04150e-06;0.00027096160668621934
9.04175e-06;0.0002743147078875748
9.04200e-06;0.00027727871676769906
9.04225e-06;0.0002793599316836601
9.04250e-06;0.000281441146599607
9.04275e-06;0.00028352236151556805
9.04300e-06;0.0002856035764315291
9.04325e-06;0.00028768479134747596
9.04350e-06;0.000289766006263437
9.04375e-06;0.000291847221179398
9.04400e-06;0.00029392843609534494
9.04425e-06;0.00029600965101130597
9.04450e-06;0.000298090865927267
9.04475e-06;0.00030017208084321393
9.04500e-06;0.00030225329575917496
9.04525e-06;0.0003037967982116845
9.04550e-06;0.00030521080781441534
9.04575e-06;0.00030662481741715574
9.04600e-06;0.00030803882701989615
9.04625e-06;0.0003103443310496122
9.04650e-06;0.00031286452631630975
9.04675e-06;0.0003153847215830073
9.04700e-06;0.0003179049168496878
9.04725e-06;0.00032175394992284045
9.04750e-06;0.000325922996025553
9.04775e-06;0.0003300920421282373
9.04800e-06;0.00033545888721056344
9.04825e-06;0.0003411141883244868
9.04850e-06;0.00034676948943837186
9.04875e-06;0.00035394513882566476
9.04900e-06;0.0003614869211259632
9.04925e-06;0.0003690287034262105
9.04950e-06;0.00037850011982948014
9.04975e-06;0.00038843623407045007
9.05000e-06;0.00039837234831135266
9.05025e-06;0.0004083084625523226
9.05050e-06;0.0004182445767932925
9.05075e-06;0.00042818069103426243
9.05100e-06;0.000438116805275165
9.05125e-06;0.0004498461533044719
9.05150e-06;0.0004620073510107306
9.05175e-06;0.0004741685487169069
9.05200e-06;0.00048632974642316565
9.05225e-06;0.0004984909441294244
9.05250e-06;0.0005106521418356007
9.05275e-06;0.0005228133395418594
9.05300e-06;0.0005349079198501747
9.05325e-06;0.0005469864572408751
9.05350e-06;0.0005590649946316574
9.05375e-06;0.0005711435320224398
9.05400e-06;0.0005832220694131402
9.05425e-06;0.0005953006068039224
9.05450e-06;0.0006065736520060661
9.05475e-06;0.0006160191524228266
9.05500e-06;0.0006254646528396511
9.05525e-06;0.0006349101532564755
9.05550e-06;0.000644355653673236
9.05575e-06;0.0006538011540900605
9.05600e-06;0.0006632466545068848
9.05625e-06;0.0006729376788578529
9.05650e-06;0.0006826878307093779
9.05675e-06;0.0006924379825609027
9.05700e-06;0.0007044641885899575
9.05725e-06;0.0007170385179413428
9.05750e-06;0.0007296128472927283
9.05775e-06;0.0007440463990910003
9.05800e-06;0.0007589276920699228
9.05825e-06;0.0007738089850488454
9.05850e-06;0.0007919078899884123
9.05875e-06;0.0008107816658319432
9.05900e-06;0.0008296554416754741
9.05925e-06;0.0008511841527721703
9.05950e-06;0.0008733522299900558
9.05975e-06;0.0008955203072080918
9.06000e-06;0.0009202272988650848
9.06025e-06;0.0009455457163091773
9.06050e-06;0.0009708641337534414
9.06075e-06;0.0009961825511977055
9.06100e-06;0.001026039744652546
9.06125e-06;0.0010560209903743597
9.06150e-06;0.0010860022360961736
9.06175e-06;0.0011148757993949075
9.06200e-06;0.0011369940836902922
9.06225e-06;0.0011719006642120849
9.06250e-06;0.001203508256374848
9.06275e-06;0.0012319110670250607
9.06300e-06;0.001260313877675273
9.06325e-06;0.0012885164464397538
9.06350e-06;0.0013154978260104594
9.06375e-06;0.001342479205581165
9.06400e-06;0.0013694605851516878
9.06425e-06;0.0013921410704295129
9.06450e-06;0.0014124114614864844
9.06475e-06;0.0014326818525433188
9.06500e-06;0.0014529522436002903
9.06525e-06;0.001473222634657262
9.06550e-06;0.0014934930257140963
9.06575e-06;0.0015137634167710677
9.06600e-06;0.0015318327958164677
9.06625e-06;0.0015364791486191542
9.06650e-06;0.001541125501421872
9.06675e-06;0.0015457718542245902
9.06700e-06;0.0015504182070272764
9.06725e-06;0.0015550645598299945
9.06750e-06;0.0015597109126327124
9.06775e-06;0.0015643572654354303
9.06800e-06;0.001560704415595763
9.06825e-06;0.001552400937546009
9.06850e-06;0.001544097459496255
9.06875e-06;0.0015313543882812944
9.06900e-06;0.0015161235000908913
9.06925e-06;0.0015008926119004882
9.06950e-06;0.0014814811677423788
9.06975e-06;0.0014597270634087594
9.07000e-06;0.0014379729590751403
9.07025e-06;0.0014112957055792844
9.07050e-06;0.0013818596645991637
9.07075e-06;0.0013524236236190433
9.07100e-06;0.0013229875826391224
9.07125e-06;0.0012935515416590017
9.07150e-06;0.0012641155006788813
9.07175e-06;0.001230745394436154
9.07200e-06;0.0011951707541335455
9.07225e-06;0.0011595961138309372
9.07250e-06;0.0011240214735285699
9.07275e-06;0.0010884468332259614
9.07300e-06;0.001052872192923353
9.07325e-06;0.0010169344777688511
9.07350e-06;0.0009807933061830826
9.07375e-06;0.0009446521345973141
9.07400e-06;0.0009085109630117906
9.07425e-06;0.0008723697914260222
9.07450e-06;0.0008391284860556613
9.07475e-06;0.0008075121801234729
9.07500e-06;0.0007758958741910703
9.07525e-06;0.0007442795682586677
9.07550e-06;0.0007126632623264793
9.07575e-06;0.0006847244092026267
9.07600e-06;0.0006588462920932883
9.07625e-06;0.0006329681749839499
9.07650e-06;0.0006075135921480457
9.07675e-06;0.0005822963454181651
9.07700e-06;0.0005570790986882846
9.07725e-06;0.0005326662665000162
9.07750e-06;0.000508704204478468
9.07775e-06;0.00048474214245691993
9.07800e-06;0.00046078008043553425
9.07825e-06;0.0004368180184139861
9.07850e-06;0.0004128192103441203
9.07875e-06;0.00038859630391936646
9.07900e-06;0.0003643733974944485
9.07925e-06;0.0003401504910695305
9.07950e-06;0.00031592758464477674
9.07975e-06;0.0002917046782198588
9.08000e-06;0.0002673198777856365
9.08025e-06;0.00024284435672702686
9.08050e-06;0.00021836883566825137
9.08075e-06;0.0001934652634745866
9.08100e-06;0.0001683218240589147
9.08125e-06;0.0001431783846430724
9.08150e-06;0.00011819145619325001
9.08175e-06;9.32922318695773e-05
9.08200e-06;6.839300754573587e-05
9.08225e-06;4.362428595465542e-05
9.08250e-06;1.8914431238000444e-05
9.08275e-06;-5.740281731113793e-06
9.08300e-06;-3.0225604361773676e-05
9.08325e-06;-5.443852772199896e-05
9.08350e-06;-7.826018073302836e-05
9.08375e-06;-0.00010140429170637286
9.08400e-06;-0.0001242568740393618
9.08425e-06;-0.00014646477307110335
9.08450e-06;-0.0001683114106083406
9.08475e-06;-0.00018937321001552264
9.08500e-06;-0.00020999520929870408
9.08525e-06;-0.00022955940030627988
9.08550e-06;-0.00024853082677695073
9.08575e-06;-0.00026620789260600655
9.08600e-06;-0.0002831596369342595
9.08625e-06;-0.0002988909892821324
9.08650e-06;-0.0003139384699834993
9.08675e-06;-0.0003277866539717536
9.08700e-06;-0.00034096278747868495
9.08725e-06;-0.00035285058956166916
9.08750e-06;-0.0003640164487393778
9.08775e-06;-0.000373827081554553
9.08800e-06;-0.0003828782855150445
9.08825e-06;-0.0003904176184753244
9.08850e-06;-0.0003971097435492689
9.08875e-06;-0.0004038018686231681
9.08900e-06;-0.00040881331082131503
9.08925e-06;-0.0004128829479404642
9.08950e-06;-0.00041695258505958574
9.08975e-06;-0.00041944371425738455
9.09000e-06;-0.000421050294204984
9.09025e-06;-0.0004226568741525725
9.09050e-06;-0.0004230119570147661
9.09075e-06;-0.0004226657378476512
9.09100e-06;-0.0004223195186805387
9.09125e-06;-0.00042061597170668094
9.09150e-06;-0.0004181518182908443
9.09175e-06;-0.00041568766487502426
9.09200e-06;-0.00041322351145918755
9.09225e-06;-0.0004107593580433509
9.09250e-06;-0.0004082952046275309
9.09275e-06;-0.00040515046305687806
9.09300e-06;-0.0004016243399715084
9.09325e-06;-0.00039809821688613876
9.09350e-06;-0.00039457209380079297
9.09375e-06;-0.0003910459707154233
9.09400e-06;-0.0003875198476300536
9.09425e-06;-0.00038451906695215584
9.09450e-06;-0.00038181267265414916
9.09475e-06;-0.00037910627835614243
9.09500e-06;-0.0003763998840581541
9.09525e-06;-0.0003750403647469554
9.09550e-06;-0.00037443559442602105
9.09575e-06;-0.0003738308241050908
9.09600e-06;-0.0003732260537841565
9.09625e-06;-0.0003749880894367721
9.09650e-06;-0.0003780764133018475
9.09675e-06;-0.00038341013344314265
9.09700e-06;-0.0003900021073858695
9.09725e-06;-0.0003987270627726147
9.09750e-06;-0.00040864727800677515
9.09775e-06;-0.00042067196529877013
9.09800e-06;-0.00043387593661944386
9.09825e-06;-0.00044955752002188347
9.09850e-06;-0.0004666274841094517
9.09875e-06;-0.000486164009044437
9.09900e-06;-0.0005070827218792645
9.09925e-06;-0.0005301713655164143
9.09950e-06;-0.0005544759743306679
9.09975e-06;-0.0005807063702697835
9.10000e-06;-0.0006080159204750292
9.10025e-06;-0.0006377009544369466
9.10050e-06;-0.0006687171393853314
9.10075e-06;-0.0006997333243337162
9.10100e-06;-0.0007335992168824827
9.10125e-06;-0.0007690620014633691
9.10150e-06;-0.0008045247860442554
9.10175e-06;-0.0008399875706251418
9.10200e-06;-0.0008754503552057878
9.10225e-06;-0.0009112358540874783
9.10250e-06;-0.0009489894487880639
9.10275e-06;-0.0009867430434883939
9.10300e-06;-0.0010244966381889795
9.10325e-06;-0.0010622502328895653
9.10350e-06;-0.001100003827589895
9.10375e-06;-0.0011357326908982925
9.10400e-06;-0.0011703269544931767
9.10425e-06;-0.0012049212180878265
9.10450e-06;-0.0012395154816827105
9.10475e-06;-0.0012741097452775947
9.10500e-06;-0.0013087040088722445
9.10525e-06;-0.0013418739878789494
9.10550e-06;-0.0013663578673339565
9.10575e-06;-0.0013908417467887976
9.10600e-06;-0.0014153256262438045
9.10625e-06;-0.0014398095056988116
9.10650e-06;-0.0014642933851536527
9.10675e-06;-0.0014887772646086598
9.10700e-06;-0.0015069856404510465
9.10725e-06;-0.0015216774092859354
9.10750e-06;-0.0015363691781209235
9.10775e-06;-0.0015468349052915559
9.10800e-06;-0.0015549324834420316
9.10825e-06;-0.0015630300615925622
9.10850e-06;-0.0015671807046902858
9.10875e-06;-0.001569119601875309
9.10900e-06;-0.0015710584990603453
9.10925e-06;-0.0015669721502505353
9.10950e-06;-0.0015595094314160996
9.10975e-06;-0.0015520467125816131
9.11000e-06;-0.0015445839937471269
9.11025e-06;-0.001537121274912691
9.11050e-06;-0.0015296585560782047
9.11075e-06;-0.0015221958372437182
9.11100e-06;-0.0015134801322828943
9.11125e-06;-0.001497123003464175
9.11150e-06;-0.0014807658746453453
9.11175e-06;-0.0014644087458265155
9.11200e-06;-0.0014480516170077965
9.11225e-06;-0.0014316944881889665
9.11250e-06;-0.0014153373593701367
9.11275e-06;-0.0013989802305514178
9.11300e-06;-0.0013821295566220034
9.11325e-06;-0.001365002314579217
9.11350e-06;-0.0013478750725365465
9.11375e-06;-0.0013307478304937599
9.11400e-06;-0.0013136205884509734
9.11425e-06;-0.001296493346408303
9.11450e-06;-0.0012793661043655163
9.11475e-06;-0.0012622388623227299
9.11500e-06;-0.0012451116202800592
9.11525e-06;-0.0012322797302573882
9.11550e-06;-0.0012218548287330365
9.11575e-06;-0.0012114299272087555
9.11600e-06;-0.0012010050256844036
9.11625e-06;-0.001190580124160052
9.11650e-06;-0.001180155222635771
9.11675e-06;-0.0011697303211114193
9.11700e-06;-0.0011593054195870676
9.11725e-06;-0.0011488805180627864
9.11750e-06;-0.0011399454643006473
9.11775e-06;-0.0011318452772529045
9.11800e-06;-0.0011237450902052163
9.11825e-06;-0.0011156449031574736
9.11850e-06;-0.0011075447161097306
9.11875e-06;-0.0010994445290620426
9.11900e-06;-0.0010913443420142999
9.11925e-06;-0.0010832441549665569
9.11950e-06;-0.001075143967918814
9.11975e-06;-0.001067043780871126
9.12000e-06;-0.0010589435938233832
9.12025e-06;-0.0010508434067756402
9.12050e-06;-0.0010427432197279523
9.12075e-06;-0.0010346682758367186
9.12100e-06;-0.0010266074774653645
9.12125e-06;-0.0010185466790940652
9.12150e-06;-0.0010104858807227111
9.12175e-06;-0.0010024250823513572
9.12200e-06;-0.000994364283980058
9.12225e-06;-0.0009863034856087039
9.12250e-06;-0.00097824268723735
9.12275e-06;-0.0009701818888660506
9.12300e-06;-0.0009621210904946966
9.12325e-06;-0.0009540602921233426
9.12350e-06;-0.0009459994937520433
9.12375e-06;-0.0009379386953806893
9.12400e-06;-0.0009316458319066228
9.12425e-06;-0.0009263436669702205
9.12450e-06;-0.0009210415020337823
9.12475e-06;-0.0009157393370973441
9.12500e-06;-0.0009104371721609419
9.12525e-06;-0.0009051350072245037
9.12550e-06;-0.0009012408223611408
9.12575e-06;-0.0008981356279756879
9.12600e-06;-0.000895030433590214
9.12625e-06;-0.00089192523920474
9.12650e-06;-0.0008888200448192872
9.12675e-06;-0.0008857148504338132
9.12700e-06;-0.0008805709700317358
9.12725e-06;-0.0008742846701556193
9.12750e-06;-0.0008679983702794601
9.12775e-06;-0.000861712070403301
9.12800e-06;-0.0008554257705271418
9.12825e-06;-0.0008491394706510254
9.12850e-06;-0.0008428531707748662
9.12875e-06;-0.0008365668708987071
9.12900e-06;-0.0008302805710225905
9.12925e-06;-0.0008239942711464314
9.12950e-06;-0.0008169521907201375
9.12975e-06;-0.0008053009295427702
9.13000e-06;-0.0007936496683653241
9.13025e-06;-0.0007819984071878779
9.13050e-06;-0.0007703471460105108
9.13075e-06;-0.0007586958848330646
9.13100e-06;-0.0007470446236556185
9.13125e-06;-0.0007353933624782512
9.13150e-06;-0.0007237421013008051
9.13175e-06;-0.0007120908401233589
9.13200e-06;-0.0007004395789459917
9.13225e-06;-0.0006877841000961701
9.13250e-06;-0.0006745658873010367
9.13275e-06;-0.0006613476745059929
9.13300e-06;-0.0006481294617108594
9.13325e-06;-0.0006349112489157261
9.13350e-06;-0.0006216930361206823
9.13375e-06;-0.000609877524918707
9.13400e-06;-0.0005988480462905186
9.13425e-06;-0.0005878185676624051
9.13450e-06;-0.0005767890890342167
9.13475e-06;-0.0005657596104060283
9.13500e-06;-0.0005547301317779147
9.13525e-06;-0.0005460235821477497
9.13550e-06;-0.0005386187333697502
9.13575e-06;-0.0005312138845918008
9.13600e-06;-0.000525134897911898
9.13625e-06;-0.0005197988852206386
9.13650e-06;-0.0005144628725293792
9.13675e-06;-0.0005097853803412174
9.13700e-06;-0.0005054769036075528
9.13725e-06;-0.0005011684268738881
9.13750e-06;-0.0004968599501402526
9.13775e-06;-0.0004925514734065879
9.13800e-06;-0.0004882429966729233
9.13825e-06;-0.0004839345199392878
9.13850e-06;-0.00047972074127195343
9.13875e-06;-0.00047608448541162473
9.13900e-06;-0.0004724482295513207
9.13925e-06;-0.00046881197369099206
9.13950e-06;-0.00046517571783066336
9.13975e-06;-0.00046153946197035933
9.14000e-06;-0.00045790320611003064
9.14025e-06;-0.000454266950249702
9.14050e-06;-0.00045062178713310496
9.14075e-06;-0.0004469716326529422
9.14100e-06;-0.0004433214781727794
9.14125e-06;-0.00043967132369264136
9.14150e-06;-0.00043602116921247853
9.14175e-06;-0.00043237101473231576
9.14200e-06;-0.0004287208602521777
9.14225e-06;-0.00042507070577201494
9.14250e-06;-0.00042157306582191537
9.14275e-06;-0.00041900554644292006
9.14300e-06;-0.0004164380270639073
9.14325e-06;-0.0004138705076848946
9.14350e-06;-0.00041130298830589925
9.14375e-06;-0.00040873546892688655
