Time(s);Current(A)
1.37500e-05;-0.003966290785863958
1.37503e-05;-0.003981403667723102
1.37505e-05;-0.0039965165495822455
1.37508e-05;-0.004002116556002684
1.37510e-05;-0.0040067266027470514
1.37513e-05;-0.004011336649491419
1.37515e-05;-0.004002086883132846
1.37518e-05;-0.003991394791982115
1.37520e-05;-0.003980702700831384
1.37523e-05;-0.003970010609680726
1.37525e-05;-0.003959318518529996
1.37528e-05;-0.003941392482620819
1.37530e-05;-0.00391287153309742
1.37533e-05;-0.0038843505835738277
1.37535e-05;-0.0038558296340502353
1.37538e-05;-0.003827308684526836
1.37540e-05;-0.0037987877350032437
1.37543e-05;-0.0037602613980365217
1.37545e-05;-0.0037206938480133928
1.37548e-05;-0.003681126297989996
1.37550e-05;-0.0036366534958312134
1.37553e-05;-0.003591670227426518
1.37555e-05;-0.0035466869590215174
1.37558e-05;-0.003498929957202226
1.37560e-05;-0.003450884306146679
1.37563e-05;-0.0034016796319010123
1.37565e-05;-0.003352354343627618
1.37568e-05;-0.0033028009833786206
1.37570e-05;-0.0032534149504471472
1.37573e-05;-0.003204496508953273
1.37575e-05;-0.0031563226872445282
1.37578e-05;-0.003109167535561791
1.37580e-05;-0.0030633259512273373
1.37583e-05;-0.003019113373125603
1.37585e-05;-0.002979110576625007
1.37588e-05;-0.0029395296000344928
1.37590e-05;-0.0028999486234439786
1.37593e-05;-0.002867134028172066
1.37595e-05;-0.0028350235780036153
1.37598e-05;-0.002802913127835165
1.37600e-05;-0.002774083543979432
1.37603e-05;-0.00274559538426756
1.37605e-05;-0.002717107224555688
1.37608e-05;-0.002690325589570176
1.37610e-05;-0.002666043349128309
1.37613e-05;-0.0026417611086864416
1.37615e-05;-0.002617478868244739
1.37618e-05;-0.002596698180100087
1.37620e-05;-0.0025762818818397953
1.37623e-05;-0.0025558655835796426
1.37625e-05;-0.002535449285319351
1.37628e-05;-0.00251503298705906
1.37630e-05;-0.0024946166887989066
1.37633e-05;-0.002474200390538615
1.37635e-05;-0.002455148962971753
1.37638e-05;-0.0024380965397629165
1.37640e-05;-0.0024210441165539646
1.37643e-05;-0.0024039916933450128
1.37645e-05;-0.0023869392701361763
1.37648e-05;-0.0023698868469272244
1.37650e-05;-0.0023528344237182725
1.37653e-05;-0.002335782000509436
1.37655e-05;-0.0023211617184143206
1.37658e-05;-0.0023067945376709325
1.37660e-05;-0.002292427356927545
1.37663e-05;-0.0022780601761842544
1.37665e-05;-0.0022636929954408668
1.37668e-05;-0.002249325814697479
1.37670e-05;-0.0022349586339541886
1.37673e-05;-0.0022232286286358992
1.37675e-05;-0.0022117730616144442
1.37678e-05;-0.002200317494593067
1.37680e-05;-0.002188861927571612
1.37683e-05;-0.002177406360550157
1.37685e-05;-0.002165950793528779
1.37688e-05;-0.002154495226507324
1.37690e-05;-0.0021455484763262416
1.37693e-05;-0.0021368628067750073
1.37695e-05;-0.0021281771372237144
1.37698e-05;-0.002120421610494195
1.37700e-05;-0.0021127628793018963
1.37703e-05;-0.002105104148109546
1.37705e-05;-0.0020974454169171955
1.37708e-05;-0.002089786685724897
1.37710e-05;-0.0020821279545325468
1.37713e-05;-0.0020744692233401964
1.37715e-05;-0.0020668720484988603
1.37718e-05;-0.0020593650297539147
1.37720e-05;-0.002051858011008969
1.37723e-05;-0.0020443509922640746
1.37725e-05;-0.002036843973519129
1.37728e-05;-0.0020293369547741834
1.37730e-05;-0.0020218299360292885
1.37733e-05;-0.0020143229172843433
1.37735e-05;-0.002006514222880843
1.37738e-05;-0.001998674134527189
1.37740e-05;-0.0019908340461734816
1.37743e-05;-0.001982993957819774
1.37745e-05;-0.001975153869466067
1.37748e-05;-0.001967313781112413
1.37750e-05;-0.001959449915502681
1.37753e-05;-0.001951551225466971
1.37755e-05;-0.0019436525354313147
1.37758e-05;-0.0019357538453956046
1.37760e-05;-0.0019278551553598947
1.37763e-05;-0.0019199564653242381
1.37765e-05;-0.0019120577752885282
1.37768e-05;-0.0019045149426391557
1.37770e-05;-0.0018970091423746295
1.37773e-05;-0.0018895033421100524
1.37775e-05;-0.001882550411652965
1.37778e-05;-0.0018756550157258806
1.37780e-05;-0.0018687596197987494
1.37783e-05;-0.0018622555207290078
1.37785e-05;-0.001856043833141409
1.37788e-05;-0.001850150835147342
1.37790e-05;-0.0018446216849188268
1.37793e-05;-0.0018395176842925425
1.37795e-05;-0.0018352032738646027
1.37798e-05;-0.0018324233856147377
1.37800e-05;-0.0018317094896512511
1.37803e-05;-0.0018331427609635641
1.37805e-05;-0.0018366495050726388
1.37808e-05;-0.001842144822290119
1.37810e-05;-0.0018495435295192177
1.37813e-05;-0.0018596569877257691
1.37815e-05;-0.0018700343659286734
1.37818e-05;-0.0018845589530635534
1.37820e-05;-0.0018995151204969642
1.37823e-05;-0.0019198490803141119
1.37825e-05;-0.0019407426813938936
1.37828e-05;-0.0019616362824736756
1.37830e-05;-0.001987865903161314
1.37833e-05;-0.0020146508180172882
1.37835e-05;-0.002041435732873444
1.37838e-05;-0.0020731888841419048
1.37840e-05;-0.002105459056131683
1.37843e-05;-0.0021377292281216805
1.37845e-05;-0.002173561385983778
1.37848e-05;-0.002209764222765273
1.37850e-05;-0.002247910468972579
1.37853e-05;-0.0022862589565509116
1.37855e-05;-0.0023259679678020295
1.37858e-05;-0.002365818562277895
1.37860e-05;-0.0024066792952322355
1.37863e-05;-0.0024476451484909253
1.37865e-05;-0.002488823573688577
1.37868e-05;-0.0025300241202363474
1.37870e-05;-0.00257053496784985
1.37873e-05;-0.0026109740417775505
1.37875e-05;-0.0026499483094690533
1.37878e-05;-0.0026887701417456712
1.37880e-05;-0.002725497992807145
1.37883e-05;-0.0027620079332078646
1.37885e-05;-0.002794560548919223
1.37888e-05;-0.0028267013446815637
1.37890e-05;-0.002858842140443904
1.37893e-05;-0.002885950766534023
1.37895e-05;-0.002912535718672387
1.37898e-05;-0.0029374268436168447
1.37900e-05;-0.0029621417000252137
1.37903e-05;-0.002986706722740864
1.37905e-05;-0.0030112561529770845
1.37908e-05;-0.0030342962275503637
1.37910e-05;-0.0030571792306622924
1.37913e-05;-0.003080062233774221
1.37915e-05;-0.0031029452368861498
1.37918e-05;-0.0031253962423626346
1.37920e-05;-0.0031478022919010384
1.37923e-05;-0.003170208341439442
1.37925e-05;-0.003192614390977694
1.37928e-05;-0.0032153857106669973
1.37930e-05;-0.003238195042282763
1.37933e-05;-0.0032610043738983746
1.37935e-05;-0.00328381370551414
1.37938e-05;-0.0033068419965256767
1.37940e-05;-0.003330190977833131
1.37943e-05;-0.003353539959140744
1.37945e-05;-0.003376888940448356
1.37948e-05;-0.0034002379217558105
1.37950e-05;-0.003423298389143582
1.37953e-05;-0.0034463288322606044
1.37955e-05;-0.003469359275377471
1.37958e-05;-0.0034923897184944933
1.37960e-05;-0.003515420161611516
1.37963e-05;-0.0035384506047283822
1.37965e-05;-0.0035614810478454047
1.37968e-05;-0.003582089237336529
1.37970e-05;-0.0036024453544188846
1.37973e-05;-0.0036228014715013785
1.37975e-05;-0.003643157588583872
1.37978e-05;-0.003663513705666228
1.37980e-05;-0.0036838698227487214
1.37983e-05;-0.003704225939831215
1.37985e-05;-0.003721523623918587
1.37988e-05;-0.003738503031437689
1.37990e-05;-0.003753407753706274
1.37993e-05;-0.0037680965733530095
1.37995e-05;-0.003781631641931996
1.37998e-05;-0.003795046645127401
1.38000e-05;-0.003810117094472068
1.38003e-05;-0.003825359818220053
1.38005e-05;-0.0038426032066328454
1.38008e-05;-0.0038600547946972775
1.38010e-05;-0.0038775063827615913
1.38013e-05;-0.003896687929625715
1.38015e-05;-0.003916049505070254
1.38018e-05;-0.003935411080514662
1.38020e-05;-0.003959125038285122
1.38023e-05;-0.003983291927773819
1.38025e-05;-0.004007458817262353
1.38028e-05;-0.00403162570675105
1.38030e-05;-0.004059630911572462
1.38033e-05;-0.004088035551606111
1.38035e-05;-0.004116440191639952
1.38038e-05;-0.004144844831673793
1.38040e-05;-0.004176632275742999
1.38043e-05;-0.004208771752131692
1.38045e-05;-0.004240911228520385
1.38048e-05;-0.0042745825725302115
1.38050e-05;-0.004308982719835778
1.38053e-05;-0.004343442120757838
1.38055e-05;-0.004378363781292272
1.38058e-05;-0.004413333546985221
1.38060e-05;-0.004448803531565536
1.38063e-05;-0.004484325571544991
1.38065e-05;-0.004519709060171822
1.38068e-05;-0.004555078130418637
1.38070e-05;-0.004589500749414598
1.38073e-05;-0.004623824875732695
1.38075e-05;-0.004656613549386859
1.38078e-05;-0.0046892424357882915
1.38080e-05;-0.004720037256564601
1.38083e-05;-0.004750641214858397
1.38085e-05;-0.004779431352473192
1.38088e-05;-0.004806546417909334
1.38090e-05;-0.00483181382580644
1.38093e-05;-0.00485498515718719
1.38095e-05;-0.004875478375279335
1.38098e-05;-0.0048923192838166265
1.38100e-05;-0.004902814870611195
1.38103e-05;-0.0049126868899020855
1.38105e-05;-0.004912659973875963
1.38108e-05;-0.004911602922753769
1.38110e-05;-0.004910545871631583
1.38113e-05;-0.004897701481568051
1.38115e-05;-0.0048836304392290125
1.38118e-05;-0.004869559396890068
1.38120e-05;-0.004838475401256824
1.38123e-05;-0.004805620948527599
1.38125e-05;-0.004772766495798596
1.38128e-05;-0.004739912043069372
1.38130e-05;-0.004707057590340146
1.38133e-05;-0.004656101540435138
1.38135e-05;-0.004603261743444982
1.38138e-05;-0.004550421946454826
1.38140e-05;-0.004497582149465028
1.38143e-05;-0.004444742352474871
1.38145e-05;-0.0043804078966110235
1.38148e-05;-0.004314877246293799
1.38150e-05;-0.00424934659597613
1.38153e-05;-0.00417915623379735
1.38155e-05;-0.004108480957577985
1.38158e-05;-0.004035184593436285
1.38160e-05;-0.003961615465146466
1.38163e-05;-0.0038867799732743456
1.38165e-05;-0.003811489621364248
1.38168e-05;-0.00373624156706272
1.38170e-05;-0.0036614763259480614
1.38173e-05;-0.0035876314612090093
1.38175e-05;-0.003515092562004217
1.38178e-05;-0.0034441850107112372
1.38180e-05;-0.003375280994134349
1.38183e-05;-0.003308836190974718
1.38185e-05;-0.0032453342230517987
1.38188e-05;-0.0031852605642037984
1.38190e-05;-0.0031311018581984527
1.38193e-05;-0.0030775246167106516
1.38195e-05;-0.003031535961458668
1.38198e-05;-0.0029863370142674296
1.38200e-05;-0.002946971036854278
1.38203e-05;-0.0029082120688514465
1.38205e-05;-0.0028755012786257626
1.38208e-05;-0.0028434198934826614
1.38210e-05;-0.0028199243690768326
1.38213e-05;-0.002797322334344133
1.38215e-05;-0.002774720299611434
1.38218e-05;-0.0027631544553803015
1.38220e-05;-0.0027527370949817814
1.38223e-05;-0.0027423197345832614
1.38225e-05;-0.0027319023741848116
1.38228e-05;-0.0027267139027097437
1.38230e-05;-0.0027291837184374884
1.38233e-05;-0.002731653534165216
1.38235e-05;-0.0027341233498929607
1.38238e-05;-0.0027365931656207054
1.38240e-05;-0.0027468653462523816
1.38243e-05;-0.0027579494818741924
1.38245e-05;-0.0027690336174960037
1.38248e-05;-0.0027842230486822598
1.38250e-05;-0.0027998396984440558
1.38253e-05;-0.0028184276104371467
1.38255e-05;-0.002837324727552576
1.38258e-05;-0.002858272910813941
1.38260e-05;-0.0028794345387696757
1.38263e-05;-0.0029017831321584437
1.38265e-05;-0.002924255247391832
1.38268e-05;-0.002947447323536511
1.38270e-05;-0.002970714322587486
1.38273e-05;-0.002994209604498966
1.38275e-05;-0.003017728642721696
1.38278e-05;-0.0030405824446543936
1.38280e-05;-0.0030633670186115632
1.38283e-05;-0.0030846279494573174
1.38285e-05;-0.003105730322014242
1.38288e-05;-0.003122617681365522
1.38290e-05;-0.0031390664043484708
1.38293e-05;-0.003155515127331419
1.38295e-05;-0.0031719638503142564
1.38298e-05;-0.0031884125732972047
1.38300e-05;-0.0032025186922080787
1.38303e-05;-0.003213193807888159
1.38305e-05;-0.003223868923568312
1.38308e-05;-0.003234544039248465
1.38310e-05;-0.003245219154928545
1.38313e-05;-0.003255894270608698
1.38315e-05;-0.003259928439788421
1.38318e-05;-0.003263271517264524
1.38320e-05;-0.0032666145947406497
1.38323e-05;-0.0032699576722167757
1.38325e-05;-0.0032733007496928788
1.38328e-05;-0.0032766438271690044
1.38330e-05;-0.0032799869046451304
1.38333e-05;-0.0032833299821212335
1.38335e-05;-0.0032866730595973595
1.38338e-05;-0.003290016137073485
1.38340e-05;-0.003293359214549588
1.38343e-05;-0.003295599553899042
1.38345e-05;-0.0032932848143630636
1.38348e-05;-0.0032909700748270853
1.38350e-05;-0.003288655335291123
1.38353e-05;-0.003286340595755145
1.38355e-05;-0.0032840258562191666
1.38358e-05;-0.003281711116683204
1.38360e-05;-0.0032793963771472257
1.38363e-05;-0.0032770816376112475
1.38365e-05;-0.0032747668980752853
1.38368e-05;-0.003272452158539307
1.38370e-05;-0.0032701374190033288
1.38373e-05;-0.003267007044646192
1.38375e-05;-0.003263007342045514
1.38378e-05;-0.003259007639444836
1.38380e-05;-0.003255007936844185
1.38383e-05;-0.0032511720832172552
1.38385e-05;-0.003247864980489937
1.38388e-05;-0.003244557877762641
1.38390e-05;-0.003241250775035323
1.38393e-05;-0.0032379436723080045
1.38395e-05;-0.0032361956367346952
1.38398e-05;-0.0032344648222510123
1.38400e-05;-0.00323413621261161
1.38403e-05;-0.003235617063798455
1.38405e-05;-0.003238260163353861
1.38408e-05;-0.0032428067970506668
1.38410e-05;-0.003251632430985335
1.38413e-05;-0.0032604580649200627
1.38415e-05;-0.003269283698854791
1.38418e-05;-0.003278109332789459
1.38420e-05;-0.0032905684705816667
1.38423e-05;-0.0033080694187425535
1.38425e-05;-0.0033255703669033214
1.38428e-05;-0.003343071315064208
1.38430e-05;-0.003360572263225095
1.38433e-05;-0.0033780732113859817
1.38435e-05;-0.003398977472048535
1.38438e-05;-0.003424604132062727
1.38440e-05;-0.0034502307920769196
1.38443e-05;-0.003475857452090938
1.38445e-05;-0.0035014841121051303
1.38448e-05;-0.0035271107721193224
1.38450e-05;-0.0035542880832339237
1.38453e-05;-0.0035836170609230707
1.38455e-05;-0.003613379843204345
1.38458e-05;-0.00364374456801158
1.38460e-05;-0.003674417739244755
1.38463e-05;-0.0037055189073780734
1.38465e-05;-0.0037366046678174517
1.38468e-05;-0.0037676690487090728
1.38470e-05;-0.0037983949966824233
1.38473e-05;-0.0038286513388250385
1.38475e-05;-0.0038583310626576143
1.38478e-05;-0.0038872106772045094
1.38480e-05;-0.003915291383327972
1.38483e-05;-0.003942263532826733
1.38485e-05;-0.003968418830765256
1.38488e-05;-0.003992783019399407
1.38490e-05;-0.00401548786759022
1.38493e-05;-0.004036280391105072
1.38495e-05;-0.004054061090760734
1.38498e-05;-0.004069349449314978
1.38500e-05;-0.004081757836863717
1.38503e-05;-0.004090170008018903
1.38505e-05;-0.0040949732032166345
1.38508e-05;-0.004094768622691076
1.38510e-05;-0.0040945640421655195
1.38513e-05;-0.004088362384170424
1.38515e-05;-0.004073839246809612
1.38518e-05;-0.004059316109448801
1.38520e-05;-0.004044792972088088
1.38523e-05;-0.004030269834727276
1.38525e-05;-0.00400852440919334
1.38528e-05;-0.003976757415268537
1.38530e-05;-0.003944990421343518
1.38533e-05;-0.003913223427418499
1.38535e-05;-0.003881456433493697
1.38538e-05;-0.003844806032802455
1.38540e-05;-0.0038013794700809244
1.38543e-05;-0.003757952907359688
1.38545e-05;-0.0037117428504997874
1.38548e-05;-0.0036616704474960156
1.38550e-05;-0.0036115980444925825
1.38553e-05;-0.003559932733000594
1.38555e-05;-0.0035060571190429503
1.38558e-05;-0.0034513098001855043
1.38560e-05;-0.003395352913104239
1.38563e-05;-0.0033390018133527726
1.38565e-05;-0.003282103708394922
1.38568e-05;-0.003225256458577689
1.38570e-05;-0.0031686983105067125
1.38573e-05;-0.0031127940715098045
1.38575e-05;-0.0030578423566588976
1.38578e-05;-0.0030041163239171447
1.38580e-05;-0.0029519096937539115
1.38583e-05;-0.00290156455717922
1.38585e-05;-0.0028543708101687296
1.38588e-05;-0.0028098780848861238
1.38590e-05;-0.002765385359603216
1.38593e-05;-0.002727779374052832
1.38595e-05;-0.002690781746586166
1.38598e-05;-0.002655523166656789
1.38600e-05;-0.002622677670146323
1.38603e-05;-0.0025898321736358572
1.38605e-05;-0.0025591496594462694
1.38608e-05;-0.002531468475962404
1.38610e-05;-0.0025037872924785383
1.38613e-05;-0.0024761061089948605
1.38615e-05;-0.002448424925510995
1.38618e-05;-0.002425191966500752
1.38620e-05;-0.0024023519529803214
1.38623e-05;-0.0023795119394597365
1.38625e-05;-0.002356671925939151
1.38628e-05;-0.002335274883026395
1.38630e-05;-0.0023158800904100278
1.38633e-05;-0.0022964852977936604
1.38635e-05;-0.0022770905051774245
1.38638e-05;-0.002257695712561057
1.38640e-05;-0.00224048169899125
1.38643e-05;-0.0022234603302162628
1.38645e-05;-0.00220643896144116
1.38648e-05;-0.002189417592666057
1.38650e-05;-0.0021735700164859533
1.38653e-05;-0.0021593511821240935
1.38655e-05;-0.002145132347762234
1.38658e-05;-0.0021309135134004705
1.38660e-05;-0.0021166946790386106
1.38663e-05;-0.002102475844676751
1.38665e-05;-0.0020882570103149876
1.38668e-05;-0.0020753062876568097
1.38670e-05;-0.0020641151829850247
1.38673e-05;-0.002052924078313316
1.38675e-05;-0.002041732973641531
1.38678e-05;-0.0020305418689697463
1.38680e-05;-0.0020193507642980372
1.38683e-05;-0.0020081596596262527
1.38685e-05;-0.0019977107990065174
1.38688e-05;-0.0019885220083835017
1.38690e-05;-0.0019799123432624245
1.38693e-05;-0.00197206648407191
1.38695e-05;-0.0019656880681174047
1.38698e-05;-0.0019621006941522978
1.38700e-05;-0.00196239095879903
1.38703e-05;-0.0019668031851417475
1.38705e-05;-0.001975177326269337
1.38708e-05;-0.0019873386994786525
1.38710e-05;-0.002003846470745204
1.38713e-05;-0.0020234132087917772
1.38715e-05;-0.0020464017225666473
1.38718e-05;-0.0020741382550685237
1.38720e-05;-0.002105860796943134
1.38723e-05;-0.0021431142820043624
1.38725e-05;-0.0021839044666358033
1.38728e-05;-0.0022296021370654387
1.38730e-05;-0.002277607645974113
1.38733e-05;-0.0023302147585511097
1.38735e-05;-0.0023862110289726976
1.38738e-05;-0.002445758419074658
1.38740e-05;-0.0025089260208355077
1.38743e-05;-0.0025754525646470017
1.38745e-05;-0.0026449178864337845
1.38748e-05;-0.0027168960414311227
1.38750e-05;-0.0027909612421117675
1.38753e-05;-0.0028667158017326518
1.38755e-05;-0.0029438892031245943
1.38758e-05;-0.003022363319604288
1.38760e-05;-0.0031019618337979546
1.38763e-05;-0.0031823015334517166
1.38765e-05;-0.003262899786334543
1.38768e-05;-0.0033432703445465312
1.38770e-05;-0.003422926922389591
1.38773e-05;-0.0035014010200656183
1.38775e-05;-0.00357830392170336
1.38778e-05;-0.003653342162480647
1.38780e-05;-0.0037261860638307205
1.38783e-05;-0.0037963763354163017
1.38785e-05;-0.003863391213587134
1.38788e-05;-0.00392670685131847
1.38790e-05;-0.003985799590568391
1.38793e-05;-0.004040197365866381
1.38795e-05;-0.004089689432834119
1.38798e-05;-0.004133528837167979
1.38800e-05;-0.0041734567314175375
1.38803e-05;-0.004208522783173297
1.38805e-05;-0.0042368425952424415
1.38808e-05;-0.004265162407311778
1.38810e-05;-0.004287165845092272
1.38813e-05;-0.004300404750710801
1.38815e-05;-0.004313643656329419
1.38818e-05;-0.004321001178708456
1.38820e-05;-0.004320197757767422
1.38823e-05;-0.0043193943368263835
1.38825e-05;-0.0043132091449926795
1.38828e-05;-0.004299556266489737
1.38830e-05;-0.0042859033879867016
1.38833e-05;-0.004267251590524861
1.38835e-05;-0.004241663347567045
1.38838e-05;-0.0042160751046090555
1.38840e-05;-0.004186515707375963
1.38843e-05;-0.00415144597972691
1.38845e-05;-0.004116376252077619
1.38848e-05;-0.004078137025306283
1.38850e-05;-0.004035499836077243
1.38853e-05;-0.003992862646847913
1.38855e-05;-0.003948277538314797
1.38858e-05;-0.0039009895181733745
1.38860e-05;-0.00385282735520632
1.38863e-05;-0.003803452241175184
1.38865e-05;-0.0037536846697809245
1.38868e-05;-0.0037033725288247443
1.38870e-05;-0.0036531384990243563
1.38873e-05;-0.003603012855413402
1.38875e-05;-0.003553527898813755
1.38878e-05;-0.0035049319525316067
1.38880e-05;-0.003457225459252052
1.38883e-05;-0.003411538368548342
1.38885e-05;-0.0033678653820498274
1.38888e-05;-0.003327140943696546
1.38890e-05;-0.003288727729199538
1.38893e-05;-0.0032529828249514394
1.38895e-05;-0.00322094043894115
1.38898e-05;-0.0031919203988260507
1.38900e-05;-0.003167094132954526
1.38903e-05;-0.0031454204469967112
1.38905e-05;-0.0031281212465886677
1.38908e-05;-0.0031149041260980807
1.38910e-05;-0.0031073512552383443
1.38913e-05;-0.003099798384378659
1.38915e-05;-0.003098427769359129
1.38918e-05;-0.003105635585204947
1.38920e-05;-0.0031128434010507166
1.38923e-05;-0.0031200512168965346
1.38925e-05;-0.003127259032742353
1.38928e-05;-0.003149227611678343
1.38930e-05;-0.003172500121054586
1.38933e-05;-0.003195772630430829
1.38935e-05;-0.0032190451398069145
1.38938e-05;-0.0032459459010082373
1.38940e-05;-0.003279032958786381
1.38943e-05;-0.00331477694803212
1.38945e-05;-0.0033529560408622873
1.38948e-05;-0.0033933486203011924
