Time(s);Current(A)
8.75000e-06;-0.010054350375110002
8.75025e-06;-0.01002767974573766
8.75050e-06;-0.01000125321833251
8.75075e-06;-0.00997521864447571
8.75100e-06;-0.00994970223761349
8.75125e-06;-0.0099247701772834
8.75150e-06;-0.009900471991159015
8.75175e-06;-0.009876918306071706
8.75200e-06;-0.0098542617641427
8.75225e-06;-0.009832659898310371
8.75250e-06;-0.00981227061514185
8.75275e-06;-0.009793263666711257
8.75300e-06;-0.00977594353571212
8.75325e-06;-0.009760940828476741
8.75350e-06;-0.009748932001172576
8.75375e-06;-0.009740169122880666
8.75400e-06;-0.009734613875448382
8.75425e-06;-0.009732211031996637
8.75450e-06;-0.009732903921271945
8.75475e-06;-0.009736645447604681
8.75500e-06;-0.009743740884395516
8.75525e-06;-0.009755150982918456
8.75550e-06;-0.009767630669351064
8.75575e-06;-0.009786185409005001
8.75600e-06;-0.0098062559771928
8.75625e-06;-0.00983493615935837
8.75650e-06;-0.009863616341523745
8.75675e-06;-0.009892296523689314
8.75700e-06;-0.009920976705854885
8.75725e-06;-0.009957472029560935
8.75750e-06;-0.009998180967139666
8.75775e-06;-0.010038889904718398
8.75800e-06;-0.010079598842296852
8.75825e-06;-0.010121405477125723
8.75850e-06;-0.010169446820814687
8.75875e-06;-0.010217488164503326
8.75900e-06;-0.010266042958722322
8.75925e-06;-0.010317514053012736
8.75950e-06;-0.010368985147302804
8.75975e-06;-0.010420651062793598
8.76000e-06;-0.01047342352516161
8.76025e-06;-0.010526195987529621
8.76050e-06;-0.010578811877229324
8.76075e-06;-0.010630538464346043
8.76100e-06;-0.010681938660887808
8.76125e-06;-0.010731485021857017
8.76150e-06;-0.010780538729645635
8.76175e-06;-0.010826794262297774
8.76200e-06;-0.010872127763650841
8.76225e-06;-0.01091222430489662
8.76250e-06;-0.010952320846142399
8.76275e-06;-0.010991011811914812
8.76300e-06;-0.011021719379845033
8.76325e-06;-0.011052426947775255
8.76350e-06;-0.01108184187332308
8.76375e-06;-0.011103914839223185
8.76400e-06;-0.011125987805123288
8.76425e-06;-0.011145975970396946
8.76450e-06;-0.011154122869838842
8.76475e-06;-0.011162269769280737
8.76500e-06;-0.01117041666872258
8.76525e-06;-0.011178563568164476
8.76550e-06;-0.011186710467606371
8.76575e-06;-0.011192367587428672
8.76600e-06;-0.011183883238773906
8.76625e-06;-0.01117539889011914
8.76650e-06;-0.01116691454146443
8.76675e-06;-0.011158430192809664
8.76700e-06;-0.011149945844154898
8.76725e-06;-0.011139604728458324
8.76750e-06;-0.01111871753374898
8.76775e-06;-0.011097830339039634
8.76800e-06;-0.011076943144330432
8.76825e-06;-0.011056055949621087
8.76850e-06;-0.011035168754911744
8.76875e-06;-0.011009540115268923
8.76900e-06;-0.010981355076865084
8.76925e-06;-0.010953170038461052
8.76950e-06;-0.01092498500005702
8.76975e-06;-0.01089679996165318
8.77000e-06;-0.01086830260811734
8.77025e-06;-0.010838031364813325
8.77050e-06;-0.010807752732060364
8.77075e-06;-0.010777432128659895
8.77100e-06;-0.010747224249214891
8.77125e-06;-0.010717656620116199
8.77150e-06;-0.010688344763554462
8.77175e-06;-0.010660485645718702
8.77200e-06;-0.010632892199493666
8.77225e-06;-0.010607144703589862
8.77250e-06;-0.010583311227582878
8.77275e-06;-0.010560029171791021
8.77300e-06;-0.01053987907656664
8.77325e-06;-0.010520405046227817
8.77350e-06;-0.010504770934167853
8.77375e-06;-0.010489855968876093
8.77400e-06;-0.01047902561865589
8.77425e-06;-0.010469111420706861
8.77450e-06;-0.010464400791124435
8.77475e-06;-0.01045969016154201
8.77500e-06;-0.010456571343520455
8.77525e-06;-0.01046249370843813
8.77550e-06;-0.010468416073355805
8.77575e-06;-0.010474338438273442
8.77600e-06;-0.010480260803191116
8.77625e-06;-0.010486183168108792
8.77650e-06;-0.010500048866987603
8.77675e-06;-0.01051819729600209
8.77700e-06;-0.010536345725016579
8.77725e-06;-0.010554494154031068
8.77750e-06;-0.010572642583045433
8.77775e-06;-0.010592217750015087
8.77800e-06;-0.010619896513652265
8.77825e-06;-0.010647575277289252
8.77850e-06;-0.01067525404092643
8.77875e-06;-0.010702932804563605
8.77900e-06;-0.010730611568200593
8.77925e-06;-0.01075829033183777
8.77950e-06;-0.010788540799203663
8.77975e-06;-0.010820177827063137
8.78000e-06;-0.010851814854922825
8.78025e-06;-0.010883451882782513
8.78050e-06;-0.010915088910641985
8.78075e-06;-0.010946725938501673
8.78100e-06;-0.010978087883660012
8.78125e-06;-0.011007887412079783
8.78150e-06;-0.011037686940499754
8.78175e-06;-0.011066925149631545
8.78200e-06;-0.011092975173365938
8.78225e-06;-0.011119025197100507
8.78250e-06;-0.011144207448542609
8.78275e-06;-0.011164460920572635
8.78300e-06;-0.011184714392602798
8.78325e-06;-0.011203805862135766
8.78350e-06;-0.01121629738138814
8.78375e-06;-0.0112287889006406
8.78400e-06;-0.011240018636595163
8.78425e-06;-0.011244081686547343
8.78450e-06;-0.01124814473649955
8.78475e-06;-0.011250361421254455
8.78500e-06;-0.011242091107460538
8.78525e-06;-0.011233820793666565
8.78550e-06;-0.011225550479872592
8.78575e-06;-0.01121728016607862
8.78600e-06;-0.011209009852284702
8.78625e-06;-0.011191224194073974
8.78650e-06;-0.011168308240134334
8.78675e-06;-0.01114539228619485
8.78700e-06;-0.01112247633225521
8.78725e-06;-0.011099560378315571
8.78750e-06;-0.011075016684629778
8.78775e-06;-0.011041227742829184
8.78800e-06;-0.011007438801028589
8.78825e-06;-0.010973649859228224
8.78850e-06;-0.01093986091742763
8.78875e-06;-0.010905171243603056
8.78900e-06;-0.010865365585441687
8.78925e-06;-0.010825559927280046
8.78950e-06;-0.010785754269118406
8.78975e-06;-0.010745948610957035
8.79000e-06;-0.010705922872692038
8.79025e-06;-0.010664647121846367
8.79050e-06;-0.01062341201297128
8.79075e-06;-0.010582479964064747
8.79100e-06;-0.010542063244214101
8.79125e-06;-0.010502382900359333
8.79150e-06;-0.01046366961615493
8.79175e-06;-0.010426170420791813
8.79200e-06;-0.010390144082522394
8.79225e-06;-0.010355848298852222
8.79250e-06;-0.010323539880607404
8.79275e-06;-0.01029349144911237
8.79300e-06;-0.010266088668037016
8.79325e-06;-0.010241990049741221
8.79350e-06;-0.010221863713131838
8.79375e-06;-0.010205962976605656
8.79400e-06;-0.010194273596973391
8.79425e-06;-0.010187073290166724
8.79450e-06;-0.010185161284921043
8.79475e-06;-0.010184505416318263
8.79500e-06;-0.010190984161808598
8.79525e-06;-0.010199164130447861
8.79550e-06;-0.010217006718773243
8.79575e-06;-0.010234849307098625
8.79600e-06;-0.010255143974907599
8.79625e-06;-0.01028936598170539
8.79650e-06;-0.01032358798850318
8.79675e-06;-0.010357809995300738
8.79700e-06;-0.01039203200209853
8.79725e-06;-0.010428771496623492
8.79750e-06;-0.010479809836357224
8.79775e-06;-0.010530848176091302
8.79800e-06;-0.01058188651582538
8.79825e-06;-0.01063292485555911
8.79850e-06;-0.010685333217754339
8.79875e-06;-0.010745523043547447
8.79900e-06;-0.010805712869340145
8.79925e-06;-0.010866467360586702
8.79950e-06;-0.010930429042807003
8.79975e-06;-0.01099439072502687
8.80000e-06;-0.011058447819442716
8.80025e-06;-0.01112304683674491
8.80050e-06;-0.011187645854046668
8.80075e-06;-0.011251825671152184
8.80100e-06;-0.011313624511913369
8.80125e-06;-0.011375423352674134
8.80150e-06;-0.011436514897671132
8.80175e-06;-0.011493589139011292
8.80200e-06;-0.01154980257923774
8.80225e-06;-0.011601126835002225
8.80250e-06;-0.011651327057955628
8.80275e-06;-0.011695142991123264
8.80300e-06;-0.011737573193441677
8.80325e-06;-0.011772132711540508
8.80350e-06;-0.011804761956804915
8.80375e-06;-0.011826427624298906
8.80400e-06;-0.011848093291793045
8.80425e-06;-0.011867359526144122
8.80450e-06;-0.011872997442569973
8.80475e-06;-0.011878635358995863
8.80500e-06;-0.011881803712223507
8.80525e-06;-0.011870945422326114
8.80550e-06;-0.011860087132428648
8.80575e-06;-0.011846329188606456
8.80600e-06;-0.011816101769203797
8.80625e-06;-0.011785874349800931
8.80650e-06;-0.011755646930398067
8.80675e-06;-0.011725419510995408
8.80700e-06;-0.011682234401095903
8.80725e-06;-0.011632063019198507
8.80750e-06;-0.01158189163730145
8.80775e-06;-0.011531720255404053
8.80800e-06;-0.011479637577769345
8.80825e-06;-0.011416699108618117
8.80850e-06;-0.01135376063946646
8.80875e-06;-0.011289929046170998
8.80900e-06;-0.011221024679827251
8.80925e-06;-0.011151731949132453
8.80950e-06;-0.011080050738881665
8.80975e-06;-0.011007211539546695
8.81000e-06;-0.010933628929095824
8.81025e-06;-0.010859718416821389
8.81050e-06;-0.010785896025067606
8.81075e-06;-0.010712576192379177
8.81100e-06;-0.010640173217878737
8.81125e-06;-0.010569103118414124
8.81150e-06;-0.010499800487144481
8.81175e-06;-0.010432726418029538
8.81200e-06;-0.010368353231038194
8.81225e-06;-0.010307154316885886
8.81250e-06;-0.010249604231814145
8.81275e-06;-0.010196172089050208
8.81300e-06;-0.010147290200167025
8.81325e-06;-0.0101032526392139
8.81350e-06;-0.010064184872380658
8.81375e-06;-0.010030165498895717
8.81400e-06;-0.010001286485488795
8.81425e-06;-0.009977643618961744
8.81450e-06;-0.00995933217306439
8.81475e-06;-0.009946857795247545
8.81500e-06;-0.009941390931734535
8.81525e-06;-0.009937531621968122
8.81550e-06;-0.009942802907740463
8.81575e-06;-0.009950492572768723
8.81600e-06;-0.00997191816599907
8.81625e-06;-0.009993343759229561
8.81650e-06;-0.010014769352460052
8.81675e-06;-0.0100361949456904
8.81700e-06;-0.010070280393203861
8.81725e-06;-0.01011119153126157
8.81750e-06;-0.010152102669319003
8.81775e-06;-0.010193013807376711
8.81800e-06;-0.010236216866105036
8.81825e-06;-0.010292437592638023
8.81850e-06;-0.010348658319171394
8.81875e-06;-0.010404879045704763
8.81900e-06;-0.010461099772237753
8.81925e-06;-0.010517320498771122
8.81950e-06;-0.01057839301571028
8.81975e-06;-0.01064208142530924
8.82000e-06;-0.01070576983490863
8.82025e-06;-0.010769458244508022
8.82050e-06;-0.010833146654107412
8.82075e-06;-0.010896682337861818
8.82100e-06;-0.010959350568246406
8.82125e-06;-0.011021551171981843
8.82150e-06;-0.011081095746450767
8.82175e-06;-0.011138254462986899
8.82200e-06;-0.011181861966162636
8.82225e-06;-0.011225469469338075
8.82250e-06;-0.01126907697251381
8.82275e-06;-0.011312684475689547
8.82300e-06;-0.011356291978864987
8.82325e-06;-0.011399899482040721
8.82350e-06;-0.011443506985216458
8.82375e-06;-0.011487114488391898
8.82400e-06;-0.011530721991567633
8.82425e-06;-0.011572269065361955
8.82450e-06;-0.011602113297265305
8.82475e-06;-0.011631957529168858
8.82500e-06;-0.011661801761072411
8.82525e-06;-0.011691645992975763
8.82550e-06;-0.011721490224879316
8.82575e-06;-0.011751334456782869
8.82600e-06;-0.011781178688686219
8.82625e-06;-0.011811022920589772
8.82650e-06;-0.011840867152493325
8.82675e-06;-0.011870049261869537
8.82700e-06;-0.011895470642866241
8.82725e-06;-0.011920892023862945
8.82750e-06;-0.011946313404859478
8.82775e-06;-0.011971734785856182
8.82800e-06;-0.011997156166852886
8.82825e-06;-0.012022577547849418
8.82850e-06;-0.012047998928846122
8.82875e-06;-0.012073420309842826
8.82900e-06;-0.01209884169083953
8.82925e-06;-0.012124263071836061
8.82950e-06;-0.01214655990989137
8.82975e-06;-0.012167172118507536
8.83000e-06;-0.012187784327123563
8.83025e-06;-0.012208396535739728
8.83050e-06;-0.012229008744355894
8.83075e-06;-0.01224962095297192
8.83100e-06;-0.012270233161588085
8.83125e-06;-0.01229084537020425
8.83150e-06;-0.012311457578820278
8.83175e-06;-0.012332069787436443
8.83200e-06;-0.012351846264625958
8.83225e-06;-0.012366875948335002
8.83250e-06;-0.012381905632044147
8.83275e-06;-0.012396156077428803
8.83300e-06;-0.012405980599268378
8.83325e-06;-0.012415805121108018
8.83350e-06;-0.012424221790227206
8.83375e-06;-0.012424642127149214
8.83400e-06;-0.012425062464071225
8.83425e-06;-0.012423273704261727
8.83450e-06;-0.012408937700650323
8.83475e-06;-0.01239460169703882
8.83500e-06;-0.01238026569342732
8.83525e-06;-0.012365929689815916
8.83550e-06;-0.012351593686204414
8.83575e-06;-0.01233425161750659
8.83600e-06;-0.012299835678304913
8.83625e-06;-0.012265419739103002
8.83650e-06;-0.01223100379990109
8.83675e-06;-0.012196587860699413
8.83700e-06;-0.012162171921497501
8.83725e-06;-0.012125412958664442
8.83750e-06;-0.012075346073041376
8.83775e-06;-0.01202527918741865
8.83800e-06;-0.011975212301795586
8.83825e-06;-0.011925145416172522
8.83850e-06;-0.011875078530549796
8.83875e-06;-0.011819514614034913
8.83900e-06;-0.011760986916818532
8.83925e-06;-0.011702459219602548
8.83950e-06;-0.011643931522386167
8.83975e-06;-0.011585403825169786
8.84000e-06;-0.01152662009558259
8.84025e-06;-0.011466382151456461
8.84050e-06;-0.011406316534860975
8.84075e-06;-0.011347229705437471
8.84100e-06;-0.01128849150464654
8.84125e-06;-0.011231733447320461
8.84150e-06;-0.011175495788464078
8.84175e-06;-0.011122213892647751
8.84200e-06;-0.011069904894492201
8.84225e-06;-0.011023121767601859
8.84250e-06;-0.0109763386407112
8.84275e-06;-0.010930665186001933
8.84300e-06;-0.010891294455482906
8.84325e-06;-0.01085199673643896
8.84350e-06;-0.010813113708507906
8.84375e-06;-0.010774230680577115
8.84400e-06;-0.010735310751874944
8.84425e-06;-0.010696181233902475
8.84450e-06;-0.01065705171593027
8.84475e-06;-0.010618050746487907
8.84500e-06;-0.010579779907929233
8.84525e-06;-0.010541509069370817
8.84550e-06;-0.010502681233656237
8.84575e-06;-0.010460689761411974
8.84600e-06;-0.010418698289167711
8.84625e-06;-0.010376706816923733
8.84650e-06;-0.01033471534467947
8.84675e-06;-0.0102910573342792
8.84700e-06;-0.010246500792704177
8.84725e-06;-0.010201944251128851
8.84750e-06;-0.010157387709553526
8.84775e-06;-0.0101124036333517
8.84800e-06;-0.01006499124284146
8.84825e-06;-0.010017578852331219
8.84850e-06;-0.009970125843088368
8.84875e-06;-0.009922442127268056
8.84900e-06;-0.009874781276912962
8.84925e-06;-0.00982725029799521
8.84950e-06;-0.00977968557857358
8.84975e-06;-0.009731947762927044
8.85000e-06;-0.009684376755642323
8.85025e-06;-0.009637259125224614
8.85050e-06;-0.009590879995805641
8.85075e-06;-0.009545518033390555
8.85100e-06;-0.00950138074916807
8.85125e-06;-0.009458488386366131
8.85150e-06;-0.009416792321824007
8.85175e-06;-0.009376425779983268
8.85200e-06;-0.009337660891101957
8.85225e-06;-0.009300776538900829
8.85250e-06;-0.009266053564526217
8.85275e-06;-0.009233754260294255
8.85300e-06;-0.009203980182993506
8.85325e-06;-0.009176396796913854
8.85350e-06;-0.00915046992602242
8.85375e-06;-0.009126159355747808
8.85400e-06;-0.00910393147985946
8.85425e-06;-0.009082262413633132
8.85450e-06;-0.009063767278623843
8.85475e-06;-0.009045991894549086
8.85500e-06;-0.00903230455711082
8.85525e-06;-0.009018617219672554
8.85550e-06;-0.00900577906471471
8.85575e-06;-0.008997764102637558
8.85600e-06;-0.008989749140560407
8.85625e-06;-0.00898173417848331
8.85650e-06;-0.008973719216406157
8.85675e-06;-0.008966669093306739
8.85700e-06;-0.008965099069710462
8.85725e-06;-0.008963529046114173
8.85750e-06;-0.008961959022517884
8.85775e-06;-0.008960388998921605
8.85800e-06;-0.008959542602234858
8.85825e-06;-0.008962806266977172
8.85850e-06;-0.008966069931719466
8.85875e-06;-0.008969333596461779
8.85900e-06;-0.008972597261204094
8.85925e-06;-0.008975860925946386
8.85950e-06;-0.00897954169953066
8.85975e-06;-0.008985591570975369
8.86000e-06;-0.008991641442420036
8.86025e-06;-0.008997691313864745
8.86050e-06;-0.009003741185309454
8.86075e-06;-0.009009791056754124
8.86100e-06;-0.00901589177132675
8.86125e-06;-0.009022281265070329
8.86150e-06;-0.009028670758813865
8.86175e-06;-0.009034919992447703
8.86200e-06;-0.00904037257568122
8.86225e-06;-0.009045825158914698
8.86250e-06;-0.009051107831292949
8.86275e-06;-0.009055425442748866
8.86300e-06;-0.009059758460509083
8.86325e-06;-0.009064178983109466
8.86350e-06;-0.009068850049862144
8.86375e-06;-0.00907494415912914
8.86400e-06;-0.009081306449629742
8.86425e-06;-0.009089191957869011
8.86450e-06;-0.00909707746610828
8.86475e-06;-0.00910525785519446
8.86500e-06;-0.009115113110679042
8.86525e-06;-0.009124968366163623
8.86550e-06;-0.009135497293092895
8.86575e-06;-0.00914985254403759
8.86600e-06;-0.009164207794982282
8.86625e-06;-0.00917856304592688
8.86650e-06;-0.009192918296871574
8.86675e-06;-0.009207273547816267
8.86700e-06;-0.009222333003967015
8.86725e-06;-0.009241392210015662
8.86750e-06;-0.00926045141606431
8.86775e-06;-0.009279510622112828
8.86800e-06;-0.009298569828161475
8.86825e-06;-0.009317629034210123
8.86850e-06;-0.009337081135874035
8.86875e-06;-0.00935876480893795
8.86900e-06;-0.009380448482001863
8.86925e-06;-0.009402132155065631
8.86950e-06;-0.009423815828129544
8.86975e-06;-0.009445499501193458
8.87000e-06;-0.009467183174257226
8.87025e-06;-0.009488866847321139
8.87050e-06;-0.009509274114051728
8.87075e-06;-0.009528993193188442
8.87100e-06;-0.00954871227232529
8.87125e-06;-0.00956843135146214
8.87150e-06;-0.009588150430598987
8.87175e-06;-0.009607869509735701
8.87200e-06;-0.00962758858887255
8.87225e-06;-0.009646665664304688
8.87250e-06;-0.009662096282382099
8.87275e-06;-0.009677228534023578
8.87300e-06;-0.009690666121791418
8.87325e-06;-0.009704406049566884
8.87350e-06;-0.009719863210337777
8.87375e-06;-0.009735902371557009
8.87400e-06;-0.009755247183195074
8.87425e-06;-0.00977459199483327
8.87450e-06;-0.009794432736103658
8.87475e-06;-0.009817090262139607
8.87500e-06;-0.009839747788175712
8.87525e-06;-0.009863685106381793
8.87550e-06;-0.00989489139755051
8.87575e-06;-0.009926097688719437
8.87600e-06;-0.009957303979888366
8.87625e-06;-0.009988510271057082
8.87650e-06;-0.01001971656222601
8.87675e-06;-0.01005238754445351
8.87700e-06;-0.010093377689709354
8.87725e-06;-0.010134367834965475
8.87750e-06;-0.010175357980221598
8.87775e-06;-0.010216348125477443
8.87800e-06;-0.010257338270733564
8.87825e-06;-0.010299250785883533
8.87850e-06;-0.010346402184329091
8.87875e-06;-0.01039355358277497
8.87900e-06;-0.010440704981220848
8.87925e-06;-0.010487856379666408
8.87950e-06;-0.010535007778112287
8.87975e-06;-0.010582159176558165
8.88000e-06;-0.01062903246482082
8.88025e-06;-0.010674326140822199
8.88050e-06;-0.010719619816823884
8.88075e-06;-0.010764913492825568
8.88100e-06;-0.010810207168826946
8.88125e-06;-0.010855500844828631
8.88150e-06;-0.010900794520830316
8.88175e-06;-0.010945134997731448
8.88200e-06;-0.010984061487382651
8.88225e-06;-0.011022268969692823
8.88250e-06;-0.011056392628826503
8.88275e-06;-0.011089574412045711
8.88300e-06;-0.011117406521526808
8.88325e-06;-0.011143646901841898
8.88350e-06;-0.011160846567149935
8.88375e-06;-0.011178046232457972
8.88400e-06;-0.011193209570078485
8.88425e-06;-0.011196806958743375
8.88450e-06;-0.011200404347408264
8.88475e-06;-0.011201919445082751
8.88500e-06;-0.011191607531095703
8.88525e-06;-0.011181295617108657
8.88550e-06;-0.011168185379159675
8.88575e-06;-0.011139181200218425
8.88600e-06;-0.011110177021277175
8.88625e-06;-0.011081172842336121
8.88650e-06;-0.011052168663394871
8.88675e-06;-0.011020193591293982
8.88700e-06;-0.010971344418404127
8.88725e-06;-0.010922495245513942
8.88750e-06;-0.010873646072623755
8.88775e-06;-0.0108247968997339
8.88800e-06;-0.010774119149567928
8.88825e-06;-0.010713055432758974
8.88850e-06;-0.01065199171595002
8.88875e-06;-0.010590167606238134
8.88900e-06;-0.010524024611327655
8.88925e-06;-0.01045754693014187
8.88950e-06;-0.010389008376558847
8.88975e-06;-0.010319460990422299
8.89000e-06;-0.010249302212267318
8.89025e-06;-0.010178932884429764
8.89050e-06;-0.01010875096049518
8.89075e-06;-0.010039154862460008
8.89100e-06;-0.009970531657880165
8.89125e-06;-0.009903239627098817
8.89150e-06;-0.009837643553229459
8.89175e-06;-0.009774159168776362
8.89200e-06;-0.009713231551148177
8.89225e-06;-0.00965531025030174
8.89250e-06;-0.009600843092972218
8.89275e-06;-0.009550262753367188
8.89300e-06;-0.009503855368714922
8.89325e-06;-0.009461489253057703
8.89350e-06;-0.009422795291501633
8.89375e-06;-0.009387672445135211
8.89400e-06;-0.009356562543216873
8.89425e-06;-0.00933042497516029
8.89450e-06;-0.00930552897397755
8.89475e-06;-0.009287684833448039
8.89500e-06;-0.009271314632405664
8.89525e-06;-0.00926331612369399
8.89550e-06;-0.009255317614982371
8.89575e-06;-0.00924939330139818
8.89600e-06;-0.009255250016540916
8.89625e-06;-0.009261106731683611
8.89650e-06;-0.009266963446826346
8.89675e-06;-0.009272820161969082
8.89700e-06;-0.009280890923372996
8.89725e-06;-0.009301537041000533
8.89750e-06;-0.009322183158628209
