Time(s);Current(A)
1.17500e-05;0.0030861041075612434
1.17503e-05;0.0031290240593954202
1.17505e-05;0.003171944011229306
1.17508e-05;0.003214863963063483
1.17510e-05;0.0032577839148976596
1.17513e-05;0.0033007038667315454
1.17515e-05;0.003343623818565722
1.17518e-05;0.0033859786040050317
1.17520e-05;0.003426473263476837
1.17523e-05;0.003466967922948916
1.17525e-05;0.003507462582420996
1.17528e-05;0.003547957241892801
1.17530e-05;0.00358845190136488
1.17533e-05;0.00362894656083696
1.17535e-05;0.003669441220308765
1.17538e-05;0.0037099358797808442
1.17540e-05;0.003750430539252924
1.17543e-05;0.003790925198724729
1.17545e-05;0.0038185019136798503
1.17548e-05;0.0038413739100002795
1.17550e-05;0.003864245906320554
1.17553e-05;0.003887117902640983
1.17555e-05;0.003909989898961412
1.17558e-05;0.003932861895281687
1.17560e-05;0.003955733891602116
1.17563e-05;0.003978605887922545
1.17565e-05;0.004001477884242819
1.17568e-05;0.004024349880563249
1.17570e-05;0.00404385252612476
1.17572e-05;0.004052265664422595
1.17575e-05;0.004060678802720487
1.17578e-05;0.00406909194101838
1.17580e-05;0.004077505079316215
1.17583e-05;0.004085918217614107
1.17585e-05;0.004094331355912
1.17588e-05;0.004102744494209892
1.17590e-05;0.0041111576325077274
1.17593e-05;0.004119570770805619
1.17595e-05;0.004127983909103512
1.17598e-05;0.004136397047401348
1.17600e-05;0.0041448101856992395
1.17603e-05;0.004151397807295364
1.17605e-05;0.00415197712575687
1.17608e-05;0.004152556444218381
1.17610e-05;0.004153135762679891
1.17613e-05;0.004153715081141397
1.17615e-05;0.004154294399602908
1.17618e-05;0.004154873718064419
1.17620e-05;0.004155453036525925
1.17623e-05;0.004156032354987435
1.17625e-05;0.004156611673448946
1.17628e-05;0.004157190991910452
1.17630e-05;0.004157770310371962
1.17633e-05;0.0041583496288334736
1.17635e-05;0.00415859645466001
1.17638e-05;0.004157081734769134
1.17640e-05;0.004153371013016662
1.17643e-05;0.004149660291264214
1.17645e-05;0.00414594956951174
1.17648e-05;0.004142238847759267
1.17650e-05;0.0041385281260068185
1.17653e-05;0.004134817404254345
1.17655e-05;0.004126044280580527
1.17657e-05;0.0041006093288836224
1.17660e-05;0.004075174377186545
1.17663e-05;0.004049739425489468
1.17665e-05;0.004024304473792564
1.17668e-05;0.003998869522095486
1.17670e-05;0.00397343457039841
1.17673e-05;0.003940706255683736
1.17675e-05;0.0038839733751116425
1.17678e-05;0.003827240494539165
1.17680e-05;0.0037705076139666867
1.17683e-05;0.003713774733394593
1.17685e-05;0.003657041852822115
1.17688e-05;0.003600308972249637
1.17690e-05;0.0035435760916775437
1.17693e-05;0.0034688753289985595
1.17695e-05;0.0033876306591439182
1.17698e-05;0.0033063859892898282
1.17700e-05;0.003225141319435187
1.17703e-05;0.0031438966495805462
1.17705e-05;0.0030626519797264558
1.17708e-05;0.0029814073098718146
1.17710e-05;0.0028981686181797917
1.17713e-05;0.002808367024242743
1.17715e-05;0.0027185654303050863
1.17718e-05;0.002628763836367429
1.17720e-05;0.0025389622424303805
1.17723e-05;0.0024491606484927236
1.17725e-05;0.0023643125425763275
1.17728e-05;0.0022812684982421103
1.17730e-05;0.00219822445390733
1.17733e-05;0.00211518040957255
1.17735e-05;0.0020321363652383326
1.17738e-05;0.0019518765623713487
1.17740e-05;0.0018807805029707604
1.17742e-05;0.0018119713310515765
1.17745e-05;0.001750688966865677
1.17748e-05;0.0016919092007362058
1.17750e-05;0.0016413662081968443
1.17753e-05;0.0015931970086059727
1.17755e-05;0.0015528406477644302
1.17758e-05;0.0015149829920700331
1.17760e-05;0.001485349297276205
1.17763e-05;0.0014583734150335314
1.17765e-05;0.001440145162149469
1.17768e-05;0.0014245387090156805
1.17770e-05;0.0014175613567019595
1.17773e-05;0.0014129539858127303
1.17775e-05;0.0014161469088444668
1.17778e-05;0.0014216169531737046
1.17780e-05;0.0014345816619043268
1.17783e-05;0.001449752036023895
1.17785e-05;0.0014721818924956123
1.17788e-05;0.00149662375907835
1.17790e-05;0.0015276877325161344
1.17793e-05;0.0015608072750515358
1.17795e-05;0.0016006922896575546
1.17798e-05;0.0016405773042633032
1.17800e-05;0.001682481694310194
1.17803e-05;0.0017310324326423663
1.17805e-05;0.0017795831709742096
1.17808e-05;0.0018298128732452243
1.17810e-05;0.0018855685311511064
1.17813e-05;0.0019413241890566106
1.17815e-05;0.001997079846962493
1.17818e-05;0.002052835504868375
1.17820e-05;0.002108591162773879
1.17823e-05;0.002164409162468746
1.17825e-05;0.002220249867058828
1.17827e-05;0.002276090571648532
1.17830e-05;0.002331931276238614
1.17833e-05;0.0023877719808286964
1.17835e-05;0.002438920808049162
1.17838e-05;0.0024746273106370817
1.17840e-05;0.0025103338132250017
1.17843e-05;0.0025460403158129217
1.17845e-05;0.0025817468184005997
1.17848e-05;0.0026174533209885197
1.17850e-05;0.0026531598235764397
1.17853e-05;0.0026888663261641177
1.17855e-05;0.0027245728287520377
1.17858e-05;0.0027602793313399577
1.17860e-05;0.0027959858339276357
1.17863e-05;0.0028316923365155557
1.17865e-05;0.002846037173553013
1.17868e-05;0.002852602086627584
1.17870e-05;0.0028591669997021993
1.17873e-05;0.0028657319127768145
1.17875e-05;0.002872296825851385
1.17878e-05;0.002878861738926
1.17880e-05;0.0028854266520006154
1.17883e-05;0.002891991565075186
1.17885e-05;0.002898556478149801
1.17888e-05;0.0029051213912244162
1.17890e-05;0.002911686304298987
1.17893e-05;0.0029142544262209464
1.17895e-05;0.0029036679531649263
1.17898e-05;0.0028930814801089787
1.17900e-05;0.0028824950070529586
1.17903e-05;0.002871908533996939
1.17905e-05;0.0028613220609409913
1.17908e-05;0.0028507355878849712
1.17910e-05;0.0028401491148289516
1.17912e-05;0.0028295626417730035
1.17915e-05;0.0028178414165787734
1.17918e-05;0.002802385394091027
1.17920e-05;0.0027869293716033853
1.17923e-05;0.002771473349115639
1.17925e-05;0.0027560173266278926
1.17928e-05;0.0027405613041401465
1.17930e-05;0.002725105281652505
1.17933e-05;0.0027096492591647584
1.17935e-05;0.0026941932366770123
1.17938e-05;0.0026803355375128245
1.17940e-05;0.0026717383824112124
1.17943e-05;0.0026631412273096008
1.17945e-05;0.0026545440722080473
1.17948e-05;0.002645946917106435
1.17950e-05;0.002637349762004823
1.17953e-05;0.0026287526069032697
1.17955e-05;0.002620155451801658
1.17958e-05;0.002616510802894689
1.17960e-05;0.0026291662834266
1.17963e-05;0.0026418217639585973
1.17965e-05;0.002654477244490594
1.17968e-05;0.0026671327250225056
1.17970e-05;0.0026797882055545025
1.17973e-05;0.0026924436860864998
1.17975e-05;0.0027050991666184108
1.17978e-05;0.0027233161223531024
1.17980e-05;0.0027598375005591915
1.17983e-05;0.0027963588787650335
1.17985e-05;0.0028328802569711226
1.17988e-05;0.0028694016351772118
1.17990e-05;0.0029059230133830533
1.17993e-05;0.0029424443915891424
1.17995e-05;0.0029789657697952316
1.17997e-05;0.0030190049747285336
1.18000e-05;0.0030706223642733782
1.18003e-05;0.003122239753818223
1.18005e-05;0.003173857143362718
1.18008e-05;0.0032254745329075626
1.18010e-05;0.003277091922452407
1.18013e-05;0.003328709311997252
1.18015e-05;0.0033803267015417465
1.18018e-05;0.003431973111571782
1.18020e-05;0.003483715036407151
1.18023e-05;0.003535456961242169
1.18025e-05;0.003587198886077538
1.18028e-05;0.003638940810912907
1.18030e-05;0.0036906827357479255
1.18033e-05;0.0037424246605832945
1.18035e-05;0.0037941665854186635
1.18038e-05;0.003841722357826362
1.18040e-05;0.0038755002925582776
1.18043e-05;0.003909278227290193
1.18045e-05;0.00394305616202188
1.18048e-05;0.003976834096753795
1.18050e-05;0.004010612031485711
1.18053e-05;0.0040443899662173976
1.18055e-05;0.004078167900949313
1.18058e-05;0.004104742739011424
1.18060e-05;0.004107610103823873
1.18063e-05;0.004110477468636342
1.18065e-05;0.0041133448334488105
1.18068e-05;0.004116212198261259
1.18070e-05;0.004119079563073728
1.18073e-05;0.004121946927886197
1.18075e-05;0.004124814292698646
1.18078e-05;0.004127681657511114
1.18080e-05;0.004130549022323583
1.18082e-05;0.004133416387136032
1.18085e-05;0.00411535079512374
1.18088e-05;0.004089661414968983
1.18090e-05;0.004063972034814401
1.18093e-05;0.004038282654659645
1.18095e-05;0.0040125932745048885
1.18098e-05;0.003986903894350132
1.18100e-05;0.00396121451419555
1.18103e-05;0.003935525134040794
1.18105e-05;0.003909835753886037
1.18108e-05;0.003884146373731455
1.18110e-05;0.003855960350956658
1.18113e-05;0.0038195571556450324
1.18115e-05;0.0037831539603336533
1.18118e-05;0.0037467507650220276
1.18120e-05;0.003710347569710402
1.18123e-05;0.0036739443743990224
1.18125e-05;0.0036375411790873966
1.18128e-05;0.003601137983775771
1.18130e-05;0.0035686145702760177
1.18133e-05;0.003537504174288189
1.18135e-05;0.0035063937783003604
1.18138e-05;0.0034752833823127427
1.18140e-05;0.0034441729863249142
1.18143e-05;0.0034130625903370853
1.18145e-05;0.0033819521943494676
1.18148e-05;0.003350963574482237
1.18150e-05;0.0033203757550283202
1.18153e-05;0.00328978793557461
1.18155e-05;0.003259200116120693
1.18158e-05;0.0032286122966667763
1.18160e-05;0.0031980244772130666
1.18163e-05;0.0031674366577591493
1.18165e-05;0.0031368488383052323
1.18167e-05;0.0031062610188515227
1.18170e-05;0.0030756731993976053
1.18173e-05;0.0030334203690492645
1.18175e-05;0.002986919138797163
1.18178e-05;0.0029404179085447467
1.18180e-05;0.00289391667829233
1.18183e-05;0.0028474154480399136
1.18185e-05;0.0028009142177878124
1.18188e-05;0.002754412987535396
1.18190e-05;0.0027079117572829793
1.18193e-05;0.0026614105270308776
1.18195e-05;0.0026121231399742015
1.18198e-05;0.002553665705510242
1.18200e-05;0.0024952082710466787
1.18203e-05;0.002436750836582719
1.18205e-05;0.00237829340211876
1.18208e-05;0.002319835967655196
1.18210e-05;0.002261378533191237
1.18213e-05;0.0022020590612372103
1.18215e-05;0.0021424256350126582
1.18218e-05;0.002082792208787702
1.18220e-05;0.002023158782562746
1.18223e-05;0.001963525356338194
1.18225e-05;0.0019038919301132377
1.18228e-05;0.001847509846214053
1.18230e-05;0.0018018288697415675
1.18233e-05;0.0017561478932687725
1.18235e-05;0.0017104669167959776
1.18238e-05;0.001664785940323492
1.18240e-05;0.001619104963850697
1.18243e-05;0.001573423987377902
1.18245e-05;0.0015277430109054166
1.18248e-05;0.0014820620344326216
1.18250e-05;0.0014363810579598266
1.18252e-05;0.0013966573665327212
1.18255e-05;0.0013765408222040912
1.18258e-05;0.001356424277875461
1.18260e-05;0.0013363077335469674
1.18263e-05;0.0013161911892183376
1.18265e-05;0.0012960746448897075
1.18268e-05;0.0012759581005610777
1.18270e-05;0.001255841556232584
1.18273e-05;0.001235725011903954
1.18275e-05;0.001215608467575324
1.18278e-05;0.0011987468239684927
1.18280e-05;0.0011925979995002236
1.18283e-05;0.0011864491750319547
1.18285e-05;0.0011816492865561145
1.18288e-05;0.0011812891363554884
1.18290e-05;0.0011809289861548623
1.18293e-05;0.0011820611733642556
1.18295e-05;0.0011881050743660299
1.18298e-05;0.0011941489753678042
1.18300e-05;0.0012001928763695376
1.18303e-05;0.001206236777371312
1.18305e-05;0.0012122806783730863
1.18308e-05;0.0012183245793748196
1.18310e-05;0.0012255911212740867
1.18313e-05;0.0012368817277845238
1.18315e-05;0.0012481723342948846
1.18318e-05;0.001259462940805322
1.18320e-05;0.0012707535473157592
1.18323e-05;0.0012820441538261198
1.18325e-05;0.001293334760336557
1.18328e-05;0.0013044549721377568
1.18330e-05;0.0013150143656963365
1.18333e-05;0.0013255737592549877
1.18335e-05;0.001336133152813639
1.18337e-05;0.0013466925463722185
1.18340e-05;0.0013572519399308698
1.18343e-05;0.001367811333489521
1.18345e-05;0.0013783707270481006
1.18348e-05;0.0013885400090557004
1.18350e-05;0.0013974253211826498
1.18352e-05;0.0014063106333095392
1.18355e-05;0.0014151959454364886
1.18358e-05;0.001424081257563438
1.18360e-05;0.0014329665696903875
1.18363e-05;0.0014418518818172766
1.18365e-05;0.001450737193944226
1.18368e-05;0.0014603348722843535
1.18370e-05;0.001472277153749629
1.18373e-05;0.0014842194352149855
1.18375e-05;0.0014961617166803422
1.18378e-05;0.0015081039981456178
1.18380e-05;0.0015200462796109743
1.18383e-05;0.0015319885610763308
1.18385e-05;0.0015439308425416066
1.18388e-05;0.001555873124006963
1.18390e-05;0.0015678154054723195
1.18393e-05;0.0015797576869375951
1.18395e-05;0.0015916999684029518
1.18398e-05;0.0016042257748030665
1.18400e-05;0.001618672130438269
1.18403e-05;0.0016331184860735692
1.18405e-05;0.0016475648417088695
1.18408e-05;0.0016620111973440718
1.18410e-05;0.001676457552979372
1.18413e-05;0.0016909039086146723
1.18415e-05;0.0017053502642498748
1.18418e-05;0.001719796619885175
1.18420e-05;0.0017342429755204754
1.18422e-05;0.0017486893311556779
1.18425e-05;0.0017631356867909781
1.18428e-05;0.0017769088777185125
1.18430e-05;0.0017884664890060252
1.18433e-05;0.0018000241002936162
1.18435e-05;0.0018115817115812074
1.18437e-05;0.0018231393228687201
1.18440e-05;0.0018346969341563111
1.18443e-05;0.0018462545454439021
1.18445e-05;0.0018578121567314934
1.18448e-05;0.0018671262383275651
1.18450e-05;0.0018690562151885593
1.18453e-05;0.0018709861920495536
1.18455e-05;0.0018729161689105347
1.18458e-05;0.0018748461457715289
1.18460e-05;0.0018767761226325232
1.18463e-05;0.0018787060994935043
1.18465e-05;0.0018806360763544987
1.18468e-05;0.0018791716113286472
1.18470e-05;0.0018665350568465044
1.18473e-05;0.0018538985023642757
1.18475e-05;0.001841261947882047
1.18478e-05;0.0018286253933999042
1.18480e-05;0.0018159888389176755
1.18483e-05;0.0018033522844354468
1.18485e-05;0.001790715729953304
1.18488e-05;0.0017780791754710753
1.18490e-05;0.0017566867009418806
1.18493e-05;0.0017321053181239459
1.18495e-05;0.0017075239353058446
1.18498e-05;0.001682942552487743
1.18500e-05;0.0016583611696698083
1.18503e-05;0.001633779786851707
1.18505e-05;0.0016091984040336055
1.18507e-05;0.0015846170212156707
1.18510e-05;0.0015590277559992458
1.18513e-05;0.0015301212584680336
1.18515e-05;0.0015012147609370172
1.18518e-05;0.0014723082634058048
1.18520e-05;0.0014434017658745925
1.18522e-05;0.001414495268343576
1.18525e-05;0.001385588770812364
1.18528e-05;0.0013589969517927853
1.18530e-05;0.0013332481392709058
1.18533e-05;0.0013074993267492008
1.18535e-05;0.0012817505142273212
1.18538e-05;0.0012560017017054419
1.18540e-05;0.0012302528891837369
1.18543e-05;0.0012064895584337008
1.18545e-05;0.0011912216820156231
1.18548e-05;0.0011749354769838808
1.18550e-05;0.0011535470697758995
1.18553e-05;0.0011395129675582539
1.18555e-05;0.001129054803921593
1.18558e-05;0.0011212000775585385
1.18560e-05;0.001115238240421721
1.18563e-05;0.0011137641401113706
1.18565e-05;0.0011123850578171322
1.18568e-05;0.0011174036102857099
1.18570e-05;0.0011224221627542535
1.18573e-05;0.00113296672076059
1.18575e-05;0.0011455282020736406
1.18578e-05;0.001160825510023153
1.18580e-05;0.0011794587786818473
1.18583e-05;0.0011986215622826854
1.18585e-05;0.0012191086367312446
1.18588e-05;0.0012384642759463767
1.18590e-05;0.001266791325168316
1.18592e-05;0.0012968946260931596
1.18595e-05;0.0013338364091301962
1.18598e-05;0.0013706174533898016
1.18600e-05;0.0014067796612239791
1.18603e-05;0.0014439773997978829
1.18605e-05;0.0014851618810312413
1.18607e-05;0.0015263463622643206
1.18610e-05;0.001567530843497679
1.18613e-05;0.0016087153247310373
1.18615e-05;0.0016503114354941848
1.18618e-05;0.0016934922997981963
1.18620e-05;0.0017366731641025002
1.18623e-05;0.0017798540284068045
1.18625e-05;0.001823034892710816
1.18628e-05;0.0018651953052124944
1.18630e-05;0.0019034270282230344
1.18633e-05;0.0019416587512333155
1.18635e-05;0.0019798904742438553
1.18638e-05;0.0020181221972543953
1.18640e-05;0.0020563539202646764
1.18643e-05;0.002091617310649283
1.18645e-05;0.0021154527657167386
1.18648e-05;0.002139288220784033
1.18650e-05;0.002163123675851489
1.18653e-05;0.0021869591309189446
1.18655e-05;0.0022107945859862386
1.18658e-05;0.00223149690107404
1.18660e-05;0.0022401367805987868
1.18663e-05;0.002248776660123475
1.18665e-05;0.002255276300366859
1.18668e-05;0.002253536124136186
1.18670e-05;0.002251795947905525
1.18673e-05;0.00224804331050021
1.18675e-05;0.0022365427960773046
1.18678e-05;0.0022250422816544766
1.18680e-05;0.00221152826590949
1.18683e-05;0.0021902623686305056
1.18685e-05;0.0021689964713516655
1.18688e-05;0.002145255735992585
1.18690e-05;0.002111986995162072
1.18692e-05;0.002078718254331784
1.18695e-05;0.002045449513501271
1.18698e-05;0.002012180772670758
1.18700e-05;0.001978912031840245
1.18703e-05;0.0019456432910099572
1.18705e-05;0.0019053544463868161
1.18708e-05;0.001862144857945105
1.18710e-05;0.0018189352695036866
1.18713e-05;0.0017757256810619754
1.18715e-05;0.0017325160926202642
1.18718e-05;0.0016893065041788456
1.18720e-05;0.0016459375700802494
1.18723e-05;0.0016019551630021024
1.18725e-05;0.0015579727559242537
1.18728e-05;0.0015139903488461067
1.18730e-05;0.0014700079417679598
1.18733e-05;0.0014274359505519862
1.18735e-05;0.0013902939913690681
1.18738e-05;0.00135315203218615
1.18740e-05;0.0013160100730034837
1.18743e-05;0.0012788681138205657
1.18745e-05;0.0012436232874693078
1.18748e-05;0.0012156823296624929
1.18750e-05;0.0011896044558622264
1.18753e-05;0.001170699364297124
1.18755e-05;0.0011538310813563142
1.18758e-05;0.0011448044119248058
1.18760e-05;0.001137777549874312
1.18763e-05;0.0011384498483578605
1.18765e-05;0.0011411487300166691
1.18768e-05;0.0011516498577067815
1.18770e-05;0.0011643757166504847
1.18773e-05;0.0011856666820288413
1.18775e-05;0.0012091038275298864
1.18777e-05;0.0012408036614554852
1.18780e-05;0.0012744391296687127
1.18783e-05;0.0013155266951466501
1.18785e-05;0.001358379278734981
1.18788e-05;0.0014080270956571602
1.18790e-05;0.0014593767297341755
1.18793e-05;0.001517278276558899
1.18795e-05;0.0015769445094464553
1.18798e-05;0.001643404697303805
1.18800e-05;0.0017098648851611546
1.18803e-05;0.0017782242934180092
1.18805e-05;0.0018538956072565343
1.18808e-05;0.0019295669210950596
1.18810e-05;0.002005238234933072
1.18813e-05;0.0020809095487715973
1.18815e-05;0.0021565808626101226
1.18818e-05;0.0022338705983678646
1.18820e-05;0.002311833685398297
1.18823e-05;0.0023897967724287295
1.18825e-05;0.0024677598594586335
1.18828e-05;0.0025457229464890658
1.18830e-05;0.0026198524344364597
1.18833e-05;0.002679222753549977
1.18835e-05;0.0027385930726638963
1.18838e-05;0.002797963391777816
1.18840e-05;0.0028573337108913333
1.18843e-05;0.002916704030005253
1.18845e-05;0.0029760743491191724
1.18848e-05;0.0030354446682326897
1.18850e-05;0.0030948149873466094
1.18853e-05;0.003154185306460529
1.18855e-05;0.0031919112009406243
1.18858e-05;0.0032206318411748813
1.18860e-05;0.0032493524814091383
1.18862e-05;0.003278073121643201
1.18865e-05;0.003306793761877458
1.18868e-05;0.003335514402111715
1.18870e-05;0.003364235042345972
1.18873e-05;0.003392955682580034
1.18875e-05;0.003421676322814291
1.18878e-05;0.0034457776926610324
1.18880e-05;0.003452095097602432
1.18883e-05;0.003458412502543874
1.18885e-05;0.003464729907485316
1.18888e-05;0.0034710473124267152
1.18890e-05;0.003477364717368157
1.18893e-05;0.0034836821223095996
1.18895e-05;0.0034899995272509986
1.18898e-05;0.003496316932192441
1.18900e-05;0.003502634337133883
1.18903e-05;0.0035089517420752825
1.18905e-05;0.003506519384509697
1.18908e-05;0.003500446651313215
1.18910e-05;0.0034943739181167743
1.18913e-05;0.0034883011849202923
1.18915e-05;0.00348222845172381
1.18918e-05;0.003476155718527369
1.18920e-05;0.003470082985330887
1.18923e-05;0.003464010252134405
1.18925e-05;0.0034579375189379637
1.18928e-05;0.0034518647857414817
1.18930e-05;0.003445511085452741
1.18933e-05;0.0034380756756104383
1.18935e-05;0.003430640265768085
1.18938e-05;0.0034232048559257318
1.18940e-05;0.0034157694460834292
1.18943e-05;0.003408334036241076
1.18945e-05;0.003400898626398723
1.18947e-05;0.00339346321655642
1.18950e-05;0.0033860278067140673
1.18953e-05;0.003378592396871714
1.18955e-05;0.0033674959813114603
1.18958e-05;0.0033548763888660844
1.18960e-05;0.003342256796420623
1.18963e-05;0.0033296372039751617
1.18965e-05;0.003317017611529786
1.18968e-05;0.0033043980190843245
1.18970e-05;0.003291778426638863
1.18973e-05;0.003279158834193487
1.18975e-05;0.003266539241748026
1.18978e-05;0.0032517693399647094
1.18980e-05;0.00322872085247296
1.18983e-05;0.003205672364981054
1.18985e-05;0.0031826238774891485
