Time(s);Current(A)
8.55000e-06;-0.016035996039296237
8.55025e-06;-0.01603667065550301
8.55050e-06;-0.016036856688234544
8.55075e-06;-0.016035816316253008
8.55100e-06;-0.016034775944271478
8.55125e-06;-0.016033735572289938
8.55150e-06;-0.0160326952003084
8.55175e-06;-0.016031654828326868
8.55200e-06;-0.016024438421731124
8.55225e-06;-0.016015529389982353
8.55250e-06;-0.016006620358233643
8.55275e-06;-0.01599771132648487
8.55300e-06;-0.0159888022947361
8.55325e-06;-0.015979893262987387
8.55350e-06;-0.015970984231238616
8.55375e-06;-0.015962075199489844
8.55400e-06;-0.015944497221524682
8.55425e-06;-0.015924543402532885
8.55450e-06;-0.015904589583541087
8.55475e-06;-0.015884635764549425
8.55500e-06;-0.015864681945557627
8.55525e-06;-0.01584472812656583
8.55550e-06;-0.015824774307574032
8.55575e-06;-0.01580482048858237
8.55600e-06;-0.015778364049241538
8.55625e-06;-0.015750125479544793
8.55650e-06;-0.01572188690984824
8.55675e-06;-0.015693648340151495
8.55700e-06;-0.01566540977045475
8.55725e-06;-0.015637171200758197
8.55750e-06;-0.015608932631061454
8.55775e-06;-0.015580126797039606
8.55800e-06;-0.015549897059678538
8.55825e-06;-0.015519667322317266
8.55850e-06;-0.015489437584955993
8.55875e-06;-0.015459207847594927
8.55900e-06;-0.015428978110233655
8.55925e-06;-0.015398748372872383
8.55950e-06;-0.015368518635511315
8.55975e-06;-0.015340428445561933
8.56000e-06;-0.015312924627288388
8.56025e-06;-0.01528542080901503
8.56050e-06;-0.015265082907824506
8.56075e-06;-0.01524670892236013
8.56100e-06;-0.015228334936895882
8.56125e-06;-0.015209960951431508
8.56150e-06;-0.015191586965967133
8.56175e-06;-0.015173212980502884
8.56200e-06;-0.015154838995038509
8.56225e-06;-0.015136465009574135
8.56250e-06;-0.015118091024109884
8.56275e-06;-0.01509971703864551
8.56300e-06;-0.015081343053181137
8.56325e-06;-0.015062969067716887
8.56350e-06;-0.015053500746114648
8.56375e-06;-0.015046473141187029
8.56400e-06;-0.015039445536259409
8.56425e-06;-0.015032417931331837
8.56450e-06;-0.01502539032640422
8.56475e-06;-0.0150183627214766
8.56500e-06;-0.015011335116549028
8.56525e-06;-0.015004307511621408
8.56550e-06;-0.014997279906693788
8.56575e-06;-0.014990252301766217
8.56600e-06;-0.014983224696838597
8.56625e-06;-0.014976197091910979
8.56650e-06;-0.01497361255630907
8.56675e-06;-0.014972245703471618
8.56700e-06;-0.014970878850634165
8.56725e-06;-0.014969511997796722
8.56750e-06;-0.014968145144959269
8.56775e-06;-0.014966778292121818
8.56800e-06;-0.014965411439284374
8.56825e-06;-0.014964044586446922
8.56850e-06;-0.014963089236696231
8.56875e-06;-0.014963166810388328
8.56900e-06;-0.014963244384080426
8.56925e-06;-0.014963321957772523
8.56950e-06;-0.01496339953146462
8.56975e-06;-0.014963477105156718
8.57000e-06;-0.014963554678848814
8.57025e-06;-0.014963632252540911
8.57050e-06;-0.01496370982623301
8.57075e-06;-0.014963367598941268
8.57100e-06;-0.014962910319557134
8.57125e-06;-0.014962453040172997
8.57150e-06;-0.014964162403416498
8.57175e-06;-0.014966465564143511
8.57200e-06;-0.01496876872487054
8.57225e-06;-0.014975689768085085
8.57250e-06;-0.014983876403956832
8.57275e-06;-0.014992063039828522
8.57300e-06;-0.015007460553110029
8.57325e-06;-0.015024834304099283
8.57350e-06;-0.01504220805508842
8.57375e-06;-0.015059581806077672
8.57400e-06;-0.015076955557066927
8.57425e-06;-0.015094329308056062
8.57450e-06;-0.015115514469551741
8.57475e-06;-0.015146266740965544
8.57500e-06;-0.015177019012379138
8.57525e-06;-0.01520777128379294
8.57550e-06;-0.015238523555206744
8.57575e-06;-0.015269275826620339
8.57600e-06;-0.015300028098034142
8.57625e-06;-0.015338587300373154
8.57650e-06;-0.015379286096883575
8.57675e-06;-0.015419984893394271
8.57700e-06;-0.015460683689904968
8.57725e-06;-0.015501382486415388
8.57750e-06;-0.015542081282926085
8.57775e-06;-0.015582780079436781
8.57800e-06;-0.01562379390487221
8.57825e-06;-0.015665598491719834
8.57850e-06;-0.015707403078567456
8.57875e-06;-0.015749207665414797
8.57900e-06;-0.01579101225226242
8.57925e-06;-0.015832816839110045
8.57950e-06;-0.015874621425957382
8.57975e-06;-0.015916426012805008
8.58000e-06;-0.015948582931210396
8.58025e-06;-0.015978095776628228
8.58050e-06;-0.01600760862204626
8.58075e-06;-0.01603712146746429
8.58100e-06;-0.016066634312882324
8.58125e-06;-0.016096147158300156
8.58150e-06;-0.01612566000371819
8.58175e-06;-0.016155172849136222
8.58200e-06;-0.016179175617344235
8.58225e-06;-0.016189347412936834
8.58250e-06;-0.01619951920852943
8.58275e-06;-0.016209691004121958
8.58300e-06;-0.016219862799714553
8.58325e-06;-0.01623003459530715
8.58350e-06;-0.016240206390899677
8.58375e-06;-0.016250378186492276
8.58400e-06;-0.01626054998208487
8.58425e-06;-0.016257411095181817
8.58450e-06;-0.01625062423713973
8.58475e-06;-0.016243837379097646
8.58500e-06;-0.016237050521055604
8.58525e-06;-0.016230263663013517
8.58550e-06;-0.01622347680497143
8.58575e-06;-0.016216689946929392
8.58600e-06;-0.016209903088887305
8.58625e-06;-0.016203116230845218
8.58650e-06;-0.01618791604834692
8.58675e-06;-0.016170410081392146
8.58700e-06;-0.016152904114437372
8.58725e-06;-0.016135398147482716
8.58750e-06;-0.01611789218052794
8.58775e-06;-0.016100386213573167
8.58800e-06;-0.01608288024661851
8.58825e-06;-0.016065374279663737
8.58850e-06;-0.016047868312708963
8.58875e-06;-0.016029588150315594
8.58900e-06;-0.01601109580927403
8.58925e-06;-0.015992603468232464
8.58950e-06;-0.0159741111271909
8.58975e-06;-0.01595561878614946
8.59000e-06;-0.015937126445107894
8.59025e-06;-0.01591863410406633
8.59050e-06;-0.015900141763024893
8.59075e-06;-0.015881649421983328
8.59100e-06;-0.015863157080941763
8.59125e-06;-0.015852417577857304
8.59150e-06;-0.015843802844042104
8.59175e-06;-0.015835188110226904
8.59200e-06;-0.015826573376411766
8.59225e-06;-0.015817958642596566
8.59250e-06;-0.015809343908781366
8.59275e-06;-0.015800729174966225
8.59300e-06;-0.01579211444115103
8.59325e-06;-0.015783499707335828
8.59350e-06;-0.015774884973520687
8.59375e-06;-0.015776491809889468
8.59400e-06;-0.015780900004720017
8.59425e-06;-0.015785308199550537
8.59450e-06;-0.015789716394381086
8.59475e-06;-0.015794124589211634
8.59500e-06;-0.015798532784042155
8.59525e-06;-0.015802940978872703
8.59550e-06;-0.01580734917370325
8.59575e-06;-0.015811757368533772
8.59600e-06;-0.01581858510169173
8.59625e-06;-0.015831486174131135
8.59650e-06;-0.015844387246570453
8.59675e-06;-0.015857288319009854
8.59700e-06;-0.015870189391449258
8.59725e-06;-0.015883090463888576
8.59750e-06;-0.01589599153632798
8.59775e-06;-0.01590889260876738
8.59800e-06;-0.015921793681206785
8.59825e-06;-0.015934694753646103
8.59850e-06;-0.015947550133603335
8.59875e-06;-0.015960392990922726
8.59900e-06;-0.01597323584824203
8.59925e-06;-0.01598607870556142
8.59950e-06;-0.01599892156288081
8.59975e-06;-0.016011764420200116
8.60000e-06;-0.016024607277519507
8.60025e-06;-0.016037450134838895
8.60050e-06;-0.0160502929921582
8.60075e-06;-0.01606313584947759
8.60100e-06;-0.016075978706796983
8.60125e-06;-0.016084440937065403
8.60150e-06;-0.016081907253755016
8.60175e-06;-0.01607937357044463
8.60200e-06;-0.01607683988713426
8.60225e-06;-0.01607430620382387
8.60250e-06;-0.016071772520513485
8.60275e-06;-0.016069238837203115
8.60300e-06;-0.01606670515389273
8.60325e-06;-0.01606417147058234
8.60350e-06;-0.01606163778727197
8.60375e-06;-0.016059104103961584
8.60400e-06;-0.016056570420651197
8.60425e-06;-0.01603906184628381
8.60450e-06;-0.016017449202088255
8.60475e-06;-0.015995836557892697
8.60500e-06;-0.015974223913697287
8.60525e-06;-0.015952611269501732
8.60550e-06;-0.015930998625306173
8.60575e-06;-0.015909385981110764
8.60600e-06;-0.015884783303818522
8.60625e-06;-0.015852675275088768
8.60650e-06;-0.01582056724635901
8.60675e-06;-0.01578845921762947
8.60700e-06;-0.015756351188899714
8.60725e-06;-0.015724243160169956
8.60750e-06;-0.015692135131440417
8.60775e-06;-0.015660027102710663
8.60800e-06;-0.01562544826806204
8.60825e-06;-0.015590192275898066
8.60850e-06;-0.01555493628373385
8.60875e-06;-0.015519680291569637
8.60900e-06;-0.015484424299405662
8.60925e-06;-0.015449168307241447
8.60950e-06;-0.015417047879702179
8.60975e-06;-0.015385786795721989
8.61000e-06;-0.015354525711741588
8.61025e-06;-0.015323264627761186
8.61050e-06;-0.015292003543780998
8.61075e-06;-0.015260742459800596
8.61100e-06;-0.015235402850080142
8.61125e-06;-0.015211686099836003
8.61150e-06;-0.015187969349591704
8.61175e-06;-0.015171120456868985
8.61200e-06;-0.015156153792654158
8.61225e-06;-0.015141187128439228
8.61250e-06;-0.015133764971158179
8.61275e-06;-0.015128410487235868
8.61300e-06;-0.01512305600331352
8.61325e-06;-0.015130063468000436
8.61350e-06;-0.015140458890578235
8.61375e-06;-0.015150854313156104
8.61400e-06;-0.015161249735733972
8.61425e-06;-0.015171645158311771
8.61450e-06;-0.01518204058088964
8.61475e-06;-0.015197953982789194
8.61500e-06;-0.015227718192591558
8.61525e-06;-0.015257482402393724
8.61550e-06;-0.015287246612196088
8.61575e-06;-0.015317010821998453
8.61600e-06;-0.015346775031800616
8.61625e-06;-0.015376539241602982
8.61650e-06;-0.015416792898673265
8.61675e-06;-0.015459921329516325
8.61700e-06;-0.01550304976035968
8.61725e-06;-0.015546178191203032
8.61750e-06;-0.015589306622046094
8.61775e-06;-0.015632435052889446
8.61800e-06;-0.0156755634837328
8.61825e-06;-0.015719178555551563
8.61850e-06;-0.015764015156173105
8.61875e-06;-0.015808851756794643
8.61900e-06;-0.015853688357415883
8.61925e-06;-0.015898524958037424
8.61950e-06;-0.015943361558658966
8.61975e-06;-0.015988198159280202
8.62000e-06;-0.016033034759901744
8.62025e-06;-0.016071986727960234
8.62050e-06;-0.01610932593350318
8.62075e-06;-0.01614666513904638
8.62100e-06;-0.016177331904003545
8.62125e-06;-0.016206169997085462
8.62150e-06;-0.01623500809016757
8.62175e-06;-0.016249509179975256
8.62200e-06;-0.01626008102165791
8.62225e-06;-0.01627065286334064
8.62250e-06;-0.016281224705023366
8.62275e-06;-0.01629179654670602
8.62300e-06;-0.01630236838838875
8.62325e-06;-0.016312940230071477
8.62350e-06;-0.01630266790035682
8.62375e-06;-0.016286682945778362
8.62400e-06;-0.016270697991199796
8.62425e-06;-0.016254713036621227
8.62450e-06;-0.01623872808204277
8.62475e-06;-0.016222743127464204
8.62500e-06;-0.016206758172885638
8.62525e-06;-0.01617382133069454
8.62550e-06;-0.01613623859623811
8.62575e-06;-0.01609865586178168
8.62600e-06;-0.016061073127325506
8.62625e-06;-0.01602349039286908
8.62650e-06;-0.015985907658412648
8.62675e-06;-0.015944792430999822
8.62700e-06;-0.01589481021106536
8.62725e-06;-0.015844827991130895
8.62750e-06;-0.015794845771196768
8.62775e-06;-0.015744863551262304
8.62800e-06;-0.01569488133132784
8.62825e-06;-0.015644899111393717
8.62850e-06;-0.015592788747430792
8.62875e-06;-0.015540095137040764
8.62900e-06;-0.015487401526651094
8.62925e-06;-0.015436181096796443
8.62950e-06;-0.015385364411835124
8.62975e-06;-0.01533454772687415
8.63000e-06;-0.015286974280781155
8.63025e-06;-0.015240289687818891
8.63050e-06;-0.015195297123878472
8.63075e-06;-0.015154551761239045
8.63100e-06;-0.015113806398599617
8.63125e-06;-0.015077057702141556
8.63150e-06;-0.01504140434567884
8.63175e-06;-0.015004016359339995
8.63200e-06;-0.014966152974407716
8.63225e-06;-0.01492501026426321
8.63250e-06;-0.014882968811040776
8.63275e-06;-0.014840927357818343
8.63300e-06;-0.014796679545061418
8.63325e-06;-0.014751827049867937
8.63350e-06;-0.014706974554674455
8.63375e-06;-0.014656492979638988
8.63400e-06;-0.01460446867973925
8.63425e-06;-0.014552444379839513
8.63450e-06;-0.014494089578380899
8.63475e-06;-0.01443399981802442
8.63500e-06;-0.01437391005766794
8.63525e-06;-0.01431382029731187
8.63550e-06;-0.014251362543006357
8.63575e-06;-0.01418296083215172
8.63600e-06;-0.014114559121297547
8.63625e-06;-0.014046157410442912
8.63650e-06;-0.013977755699588276
8.63675e-06;-0.013905785883425137
8.63700e-06;-0.01383283818012323
8.63725e-06;-0.013759410218992185
8.63750e-06;-0.013685524616984834
8.63775e-06;-0.013611065021137745
8.63800e-06;-0.013536134886617986
8.63825e-06;-0.013461121699438881
8.63850e-06;-0.013386470030780476
8.63875e-06;-0.013312623590861866
8.63900e-06;-0.013240027882187177
8.63925e-06;-0.013169055909664534
8.63950e-06;-0.013099869857193433
8.63975e-06;-0.013032529182801289
8.64000e-06;-0.012967273963580316
8.64025e-06;-0.012904520371796919
8.64050e-06;-0.012844719698226722
8.64075e-06;-0.012788325827276915
8.64100e-06;-0.012735791051405002
8.64125e-06;-0.012687610921222552
8.64150e-06;-0.01264436464416506
8.64175e-06;-0.012606554570489946
8.64200e-06;-0.012574427807402243
8.64225e-06;-0.01254805764689362
8.64250e-06;-0.01252748692980213
8.64275e-06;-0.012512757765980303
8.64300e-06;-0.012503911333958168
8.64325e-06;-0.012501016389398354
8.64350e-06;-0.012506611992725165
8.64375e-06;-0.012514182713934188
8.64400e-06;-0.012531187540991922
8.64425e-06;-0.012550777911349025
8.64450e-06;-0.012584232406626678
8.64475e-06;-0.01262148655137473
8.64500e-06;-0.012658740696122781
8.64525e-06;-0.01269599484087058
8.64550e-06;-0.012739173628413406
8.64575e-06;-0.012797223999292048
8.64600e-06;-0.012855274370170299
8.64625e-06;-0.012913324741048943
8.64650e-06;-0.012971375111927586
8.64675e-06;-0.01303931320610315
8.64700e-06;-0.013109961163527473
8.64725e-06;-0.013180609120951795
8.64750e-06;-0.013256118622873942
8.64775e-06;-0.013332960496301175
8.64800e-06;-0.013409802369728406
8.64825e-06;-0.01348850338432
8.64850e-06;-0.013567713921495339
8.64875e-06;-0.013646924458670676
8.64900e-06;-0.01372519848089565
8.64925e-06;-0.013803215838632477
8.64950e-06;-0.01387877525580566
8.64975e-06;-0.013953661041385342
8.65000e-06;-0.014023175541533591
8.65025e-06;-0.014091217968834998
8.65050e-06;-0.014159260396136405
8.65075e-06;-0.014213546671247412
8.65100e-06;-0.014264062888263096
8.65125e-06;-0.01431457910527878
8.65150e-06;-0.014365095322294122
8.65175e-06;-0.014415611539309805
8.65200e-06;-0.014466127756325489
8.65225e-06;-0.014516643973340829
8.65250e-06;-0.014567160190356513
8.65275e-06;-0.014611781827309163
8.65300e-06;-0.014654787975498178
8.65325e-06;-0.014697794123687484
8.65350e-06;-0.01474080027187679
8.65375e-06;-0.014783806420065805
8.65400e-06;-0.014826812568255111
8.65425e-06;-0.014869818716444418
8.65450e-06;-0.014912824864633432
8.65475e-06;-0.014956174597761687
8.65500e-06;-0.014999618494952903
8.65525e-06;-0.015043062392143824
8.65550e-06;-0.01508650628933504
8.65575e-06;-0.015129950186526256
8.65600e-06;-0.015173394083717177
8.65625e-06;-0.015216837980908393
8.65650e-06;-0.01526028187809961
8.65675e-06;-0.015303534210818244
8.65700e-06;-0.015346305693110586
8.65725e-06;-0.01538907717540293
8.65750e-06;-0.015431848657694983
8.65775e-06;-0.015474620139987327
8.65800e-06;-0.01551739162227967
8.65825e-06;-0.015560163104572014
8.65850e-06;-0.015602934586864068
8.65875e-06;-0.015645706069156412
8.65900e-06;-0.01568430948815283
8.65925e-06;-0.015721770593472763
8.65950e-06;-0.015759231698792953
8.65975e-06;-0.01579669280411314
8.66000e-06;-0.015832122465195598
8.66025e-06;-0.015862452950963387
8.66050e-06;-0.015892783436731176
8.66075e-06;-0.015923113922498757
8.66100e-06;-0.015953444408266546
8.66125e-06;-0.015975075347938125
8.66150e-06;-0.01599432206026504
8.66175e-06;-0.016013568772592086
8.66200e-06;-0.01602037800109117
8.66225e-06;-0.016023778570251935
8.66250e-06;-0.016027179139412723
8.66275e-06;-0.016018043297967955
8.66300e-06;-0.01600547168497411
8.66325e-06;-0.015992900071980176
8.66350e-06;-0.01596225400066817
8.66375e-06;-0.01592665438151825
8.66400e-06;-0.015891054762368087
8.66425e-06;-0.015855455143217925
8.66450e-06;-0.015819855524068005
8.66475e-06;-0.015763557011782763
8.66500e-06;-0.01570158569008076
8.66525e-06;-0.015639614368379177
8.66550e-06;-0.015577643046677175
8.66575e-06;-0.01551567172497517
8.66600e-06;-0.015438008634567454
8.66625e-06;-0.015356045004381267
8.66650e-06;-0.01527408137419508
8.66675e-06;-0.015192117744008892
8.66700e-06;-0.015106989673926223
8.66725e-06;-0.015013918469833456
8.66750e-06;-0.014920847265740689
8.66775e-06;-0.014827776061648552
8.66800e-06;-0.014734704857555785
8.66825e-06;-0.0146390287440952
8.66850e-06;-0.014542548808985246
8.66875e-06;-0.014446388526906374
8.66900e-06;-0.014351101103468558
8.66925e-06;-0.01425720977385407
8.66950e-06;-0.01416515646084128
8.66975e-06;-0.01407536012961297
8.67000e-06;-0.013988331048246904
8.67025e-06;-0.01390466320610558
8.67050e-06;-0.013824964426517853
8.67075e-06;-0.013749844124760997
8.67100e-06;-0.013679912317120345
8.67125e-06;-0.013615680336767258
8.67150e-06;-0.013557328381247836
8.67175e-06;-0.013504744246101272
8.67200e-06;-0.013457891470078894
8.67225e-06;-0.01341927587332975
8.67250e-06;-0.013382579901244751
8.67275e-06;-0.013355653923091642
8.67300e-06;-0.01333140554287783
8.67325e-06;-0.01331722978481663
8.67350e-06;-0.01330581456401953
8.67375e-06;-0.013306095850865573
8.67400e-06;-0.013309582722584949
8.67425e-06;-0.013313069594304325
8.67450e-06;-0.013334672160813065
8.67475e-06;-0.013361239576570677
8.67500e-06;-0.01338780699232829
8.67525e-06;-0.013414374408085903
8.67550e-06;-0.013440941823843335
8.67575e-06;-0.013474230253299597
8.67600e-06;-0.013524389255191923
8.67625e-06;-0.013574548257083907
8.67650e-06;-0.013624707258976233
8.67675e-06;-0.013674866260868557
8.67700e-06;-0.013725025262760543
8.67725e-06;-0.013784611680868846
8.67750e-06;-0.013846781808896444
8.67775e-06;-0.013908951936923621
8.67800e-06;-0.013974208044354513
8.67825e-06;-0.01404030990585128
8.67850e-06;-0.014106411767347598
8.67875e-06;-0.014172743402123265
8.67900e-06;-0.01423913800934932
8.67925e-06;-0.014305532616574924
8.67950e-06;-0.01436908320077732
8.67975e-06;-0.014431854342306403
8.68000e-06;-0.01449462548383506
8.68025e-06;-0.014552497556917161
8.68050e-06;-0.014609026974551171
8.68075e-06;-0.014659932185585164
8.68100e-06;-0.014709296007330083
8.68125e-06;-0.014749516899335893
8.68150e-06;-0.014787232048758123
8.68175e-06;-0.01482494719818061
8.68200e-06;-0.014849953424294009
8.68225e-06;-0.014871476599434134
8.68250e-06;-0.014892999774574403
8.68275e-06;-0.014901224120670417
8.68300e-06;-0.01490580374421064
8.68325e-06;-0.014910383367750893
8.68350e-06;-0.014896936924252036
8.68375e-06;-0.014878550195190406
8.68400e-06;-0.014860163466128904
8.68425e-06;-0.014841776737067275
8.68450e-06;-0.014823390008005645
8.68475e-06;-0.014784844292102323
8.68500e-06;-0.01474077373534243
8.68525e-06;-0.014696703178582536
8.68550e-06;-0.01465263262182294
8.68575e-06;-0.014608562065063046
8.68600e-06;-0.014549439011258433
8.68625e-06;-0.01448619061865043
8.68650e-06;-0.014422942226042
8.68675e-06;-0.01435969383343357
8.68700e-06;-0.0142932348933838
8.68725e-06;-0.014218717083701376
8.68750e-06;-0.014144199274018955
8.68775e-06;-0.014069681464337038
8.68800e-06;-0.013995163654654615
8.68825e-06;-0.013917908221028006
8.68850e-06;-0.013839637887877055
8.68875e-06;-0.013761373979392828
8.68900e-06;-0.013683554217185923
8.68925e-06;-0.013606614860894845
8.68950e-06;-0.013530992500469508
8.68975e-06;-0.013457141469862918
8.69000e-06;-0.013385543571672109
8.69025e-06;-0.01331669485977165
8.69050e-06;-0.013252606732844271
8.69075e-06;-0.01318965491473614
8.69100e-06;-0.013134923278320266
8.69125e-06;-0.013082444493004117
8.69150e-06;-0.013029965707688324
8.69175e-06;-0.012983649622021498
8.69200e-06;-0.012939022506891074
8.69225e-06;-0.012896149825161702
8.69250e-06;-0.012857680987423925
8.69275e-06;-0.012819212149685889
8.69300e-06;-0.012784896482238135
8.69325e-06;-0.012759862962322458
8.69350e-06;-0.012737061391728147
8.69375e-06;-0.012714259821133837
8.69400e-06;-0.01269145825053968
8.69425e-06;-0.01266865667994537
8.69450e-06;-0.012645855109351059
8.69475e-06;-0.012623053538756904
8.69500e-06;-0.012600251968162593
8.69525e-06;-0.012587990302546016
8.69550e-06;-0.012578617239324507
8.69575e-06;-0.012569244176102933
8.69600e-06;-0.012559871112881359
8.69625e-06;-0.012550498049659848
8.69650e-06;-0.012541124986438274
8.69675e-06;-0.0125317519232167
8.69700e-06;-0.01252237885999519
8.69725e-06;-0.012519214097768417
8.69750e-06;-0.012517750803739179
8.69775e-06;-0.01251628750970995
