Time(s);Current(A)
1.35000e-05;0.004874101738074933
1.35003e-05;0.0049099314249448685
1.35005e-05;0.004945761111815046
1.35008e-05;0.004981590798685223
1.35010e-05;0.005017420485555401
1.35013e-05;0.005035507685931424
1.35015e-05;0.005053170472556073
1.35018e-05;0.0050708332591807214
1.35020e-05;0.00508849604580525
1.35023e-05;0.005106158832429899
1.35025e-05;0.005123821619054547
1.35028e-05;0.005141484405679075
1.35030e-05;0.0051591471923037235
1.35033e-05;0.0051768099789283725
1.35035e-05;0.005194472765552901
1.35038e-05;0.005212135552177549
1.35040e-05;0.005229798338802197
1.35043e-05;0.0052474611254267264
1.35045e-05;0.0052651239120513746
1.35048e-05;0.005282786698676023
1.35050e-05;0.005300449485300552
1.35053e-05;0.005312973318701682
1.35055e-05;0.005319854437877073
1.35058e-05;0.005326735557052417
1.35060e-05;0.0053336166762278075
1.35063e-05;0.005340497795403199
1.35065e-05;0.005347378914578543
1.35068e-05;0.005354260033753933
1.35070e-05;0.005361141152929324
1.35073e-05;0.005368022272104668
1.35075e-05;0.005374903391280059
1.35078e-05;0.00538178451045545
1.35080e-05;0.005388665629630794
1.35083e-05;0.005395546748806185
1.35085e-05;0.005402427867981575
1.35088e-05;0.005409308987156919
1.35090e-05;0.0054161901063323106
1.35093e-05;0.005423071225507701
1.35095e-05;0.005425899242604427
1.35098e-05;0.005428630306420998
1.35100e-05;0.005431361370237571
1.35103e-05;0.005434092434054142
1.35105e-05;0.0054368234978706955
1.35108e-05;0.005439554561687267
1.35110e-05;0.005442285625503839
1.35113e-05;0.005445016689320392
1.35115e-05;0.0054477477531369636
1.35118e-05;0.005450478816953536
1.35120e-05;0.0054532098807700885
1.35123e-05;0.005455940944586661
1.35125e-05;0.0054586720084032325
1.35128e-05;0.005461403072219786
1.35130e-05;0.005464134136036357
1.35133e-05;0.005466865199852929
1.35135e-05;0.005469596263669482
1.35138e-05;0.005472327327486054
1.35140e-05;0.005475058391302626
1.35143e-05;0.005477789455119179
1.35145e-05;0.005480520518935751
1.35148e-05;0.005483251582752323
1.35150e-05;0.005485982646568876
1.35153e-05;0.00548855131807193
1.35155e-05;0.005491036783271006
1.35158e-05;0.005493522248470065
1.35160e-05;0.00549600771366914
1.35163e-05;0.0054984931788682155
1.35165e-05;0.0055009786440672745
1.35168e-05;0.00550346410926635
1.35170e-05;0.005505949574465425
1.35173e-05;0.005508435039664484
1.35175e-05;0.00551092050486356
1.35178e-05;0.005513405970062635
1.35180e-05;0.005515891435261694
1.35183e-05;0.0055183769004607695
1.35185e-05;0.005520862365659845
1.35188e-05;0.00552334783085892
1.35190e-05;0.005525833296057979
1.35193e-05;0.005528318761257055
1.35195e-05;0.00553080422645613
1.35198e-05;0.005533289691655189
1.35200e-05;0.0055357751568542645
1.35203e-05;0.00553826062205334
1.35205e-05;0.005540746087252399
1.35208e-05;0.005543231552451474
1.35210e-05;0.005541024313010604
1.35213e-05;0.005529938510890055
1.35215e-05;0.005518852708769431
1.35218e-05;0.005507766906648807
1.35220e-05;0.005496681104528258
1.35223e-05;0.005485595302407634
1.35225e-05;0.00547450950028701
1.35228e-05;0.0054634236981664615
1.35230e-05;0.005452337896045837
1.35233e-05;0.005441252093925213
1.35235e-05;0.005430166291804664
1.35238e-05;0.0054183792661083325
1.35240e-05;0.0053821242936771
1.35243e-05;0.005345869321246114
1.35245e-05;0.005309614348814883
1.35248e-05;0.005273359376383652
1.35250e-05;0.005237104403952665
1.35253e-05;0.005200849431521434
1.35255e-05;0.005164594459090202
1.35258e-05;0.005128339486659216
1.35260e-05;0.005092084514227984
1.35263e-05;0.005055829541796753
1.35265e-05;0.005019574569365767
1.35268e-05;0.00497478926984446
1.35270e-05;0.004926518711234778
1.35273e-05;0.004878248152625096
1.35275e-05;0.004829977594015741
1.35278e-05;0.00478170703540606
1.35280e-05;0.004733436476796377
1.35283e-05;0.004685165918187023
1.35285e-05;0.00463689535957734
1.35288e-05;0.004590008867256401
1.35290e-05;0.004548331031585343
1.35293e-05;0.004506653195914002
1.35295e-05;0.004464975360242662
1.35298e-05;0.004423297524571603
1.35300e-05;0.004381619688900262
1.35303e-05;0.0043399418532289215
1.35305e-05;0.004298264017557864
1.35308e-05;0.004256586181886523
1.35310e-05;0.004226292765734578
1.35313e-05;0.004200650713028006
1.35315e-05;0.004175008660321261
1.35318e-05;0.004149366607614517
1.35320e-05;0.004123724554907945
1.35323e-05;0.0040980825022012
1.35325e-05;0.004072440449494456
1.35328e-05;0.004046798396787884
1.35330e-05;0.004021156344081139
1.35333e-05;0.003995514291374395
1.35335e-05;0.003969872238667823
1.35338e-05;0.003944230185961078
1.35340e-05;0.0039185881332543335
1.35343e-05;0.0038943664316411918
1.35345e-05;0.0038754899372843124
1.35348e-05;0.0038566134429274326
1.35350e-05;0.003837736948570681
1.35353e-05;0.003818860454213802
1.35355e-05;0.003799983959856922
1.35358e-05;0.0037811074655000427
1.35360e-05;0.0037622309711432913
1.35363e-05;0.0037433544767864115
1.35365e-05;0.003724477982429532
1.35368e-05;0.0037056014880727807
1.35370e-05;0.003686724993715901
1.35373e-05;0.0036678484993590216
1.35375e-05;0.00364897200500227
1.35378e-05;0.003632802525214201
1.35380e-05;0.003617739057778652
1.35383e-05;0.0036026755903432054
1.35385e-05;0.0035876121229076563
1.35388e-05;0.0035725486554721076
1.35390e-05;0.0035574851880366604
1.35393e-05;0.003542421720601112
1.35395e-05;0.0035273582531655627
1.35398e-05;0.0035122947857301155
1.35400e-05;0.003497231318294567
1.35403e-05;0.003488425506267899
1.35405e-05;0.0034821764016414606
1.35408e-05;0.0034759272970149796
1.35410e-05;0.0034696781923884987
1.35413e-05;0.00346342908776206
1.35415e-05;0.003457179983135579
1.35418e-05;0.003450930878509098
1.35420e-05;0.003444681773882659
1.35423e-05;0.003438432669256178
1.35425e-05;0.0034321835646296973
1.35428e-05;0.0034388181978161894
1.35430e-05;0.003450716775029484
1.35433e-05;0.003462615352242779
1.35435e-05;0.003474513929455993
1.35438e-05;0.0034864125066692876
1.35440e-05;0.003498311083882582
1.35443e-05;0.0035102096610958766
1.35445e-05;0.0035221082383090907
1.35448e-05;0.0035340068155223854
1.35450e-05;0.00354590539273568
1.35453e-05;0.003557803969948894
1.35455e-05;0.0035800863913746646
1.35458e-05;0.003606611368455882
1.35460e-05;0.00363313634553692
1.35463e-05;0.0036596613226181378
1.35465e-05;0.0036861862996993553
1.35468e-05;0.0037127112767803934
1.35470e-05;0.003739236253861611
1.35473e-05;0.0037657612309428285
1.35475e-05;0.0037922862080238665
1.35478e-05;0.003818811185105084
1.35480e-05;0.0038453361621863017
1.35483e-05;0.003872136389559947
1.35485e-05;0.0038990490766993256
1.35488e-05;0.0039259617638387045
1.35490e-05;0.0039528744509779
1.35493e-05;0.003979787138117279
1.35495e-05;0.004006699825256658
1.35498e-05;0.004033612512395855
1.35500e-05;0.004060525199535233
1.35503e-05;0.0040874378866746115
1.35505e-05;0.0041078392192984235
1.35508e-05;0.0041255801899828465
1.35510e-05;0.004143321160667269
1.35513e-05;0.004161062131351571
1.35515e-05;0.004178803102035993
1.35518e-05;0.004196544072720416
1.35520e-05;0.004214285043404718
1.35523e-05;0.00423202601408914
1.35525e-05;0.0042497669847735625
1.35528e-05;0.00426466538822521
1.35530e-05;0.004276167741113126
1.35533e-05;0.004286757074854414
1.35535e-05;0.004297346408595702
1.35538e-05;0.004307935742336919
1.35540e-05;0.004318525076078207
1.35543e-05;0.004329114409819495
1.35545e-05;0.0043397037435607124
1.35548e-05;0.004350293077302001
1.35550e-05;0.00436088241104329
1.35553e-05;0.004371471744784506
1.35555e-05;0.004382061078525795
1.35558e-05;0.004392650412267083
1.35560e-05;0.004403239746008299
1.35563e-05;0.004413829079749588
1.35565e-05;0.004424418413490876
1.35568e-05;0.004435007747232093
1.35570e-05;0.0044455970809733816
1.35573e-05;0.00445618641471467
1.35575e-05;0.004466775748455887
1.35578e-05;0.004474436047085833
1.35580e-05;0.004480899621821574
1.35583e-05;0.0044873631965572725
1.35585e-05;0.004493826771293014
1.35588e-05;0.0045002903460287565
1.35590e-05;0.004506753920764455
1.35593e-05;0.004513217495500196
1.35595e-05;0.004519681070235938
1.35598e-05;0.004526144644971636
1.35600e-05;0.004532608219707378
1.35603e-05;0.00453907179444312
1.35605e-05;0.004545535369178818
1.35608e-05;0.00455199894391456
1.35610e-05;0.004558462518650302
1.35613e-05;0.004564926093386043
1.35615e-05;0.0045713896681217414
1.35618e-05;0.004577853242857484
1.35620e-05;0.0045843168175932255
1.35623e-05;0.004590780392328924
1.35625e-05;0.004601524044865172
1.35628e-05;0.004614016420506206
1.35630e-05;0.004626508796147155
1.35633e-05;0.004639001171788188
1.35635e-05;0.004651493547429222
1.35638e-05;0.0046639859230701705
1.35640e-05;0.004676478298711205
1.35643e-05;0.004688970674352238
1.35645e-05;0.004701463049993187
1.35648e-05;0.00471395542563422
1.35650e-05;0.0047264478012752536
1.35653e-05;0.004738940176916203
1.35655e-05;0.004751432552557236
1.35658e-05;0.00476392492819827
1.35660e-05;0.004777616565621198
1.35663e-05;0.004795821384903779
1.35665e-05;0.0048140262041863596
1.35668e-05;0.004832231023468817
1.35670e-05;0.004850435842751398
1.35673e-05;0.004868640662033979
1.35675e-05;0.004886845481316437
1.35678e-05;0.004905050300599018
1.35680e-05;0.004923255119881599
1.35683e-05;0.004941459939164057
1.35685e-05;0.004959664758446638
1.35688e-05;0.004977869577729219
1.35690e-05;0.004996074397011677
1.35693e-05;0.005014279216294258
1.35695e-05;0.005032484035576839
1.35698e-05;0.0050428846041293135
1.35700e-05;0.005050096568593819
1.35703e-05;0.005057308533058374
1.35705e-05;0.005064520497522929
1.35708e-05;0.005071732461987435
1.35710e-05;0.005078944426451989
1.35713e-05;0.0050861563909165445
1.35715e-05;0.00509336835538105
1.35718e-05;0.005100580319845605
1.35720e-05;0.00510779228431016
1.35723e-05;0.005115004248774666
1.35725e-05;0.00512221621323922
1.35728e-05;0.005129428177703775
1.35730e-05;0.005136640142168281
1.35733e-05;0.005143852106632836
1.35735e-05;0.005151064071097391
1.35738e-05;0.005154379425500372
1.35740e-05;0.005143030667268852
1.35743e-05;0.005131681909037333
1.35745e-05;0.005120333150805891
1.35748e-05;0.005108984392574372
1.35750e-05;0.005097635634342852
1.35753e-05;0.005086286876111411
1.35755e-05;0.005074938117879891
1.35758e-05;0.005063589359648372
1.35760e-05;0.00505224060141693
1.35763e-05;0.005040891843185411
1.35765e-05;0.005029543084953891
1.35768e-05;0.00501819432672245
1.35770e-05;0.00500684556849093
1.35773e-05;0.004995496810259411
1.35775e-05;0.004984148052027969
1.35778e-05;0.00497279929379645
1.35780e-05;0.004959630666312442
1.35783e-05;0.0049457184898651875
1.35785e-05;0.004931806313418026
1.35788e-05;0.0049178941369707714
1.35790e-05;0.004903981960523516
1.35793e-05;0.0048900697840763546
1.35795e-05;0.0048761576076291
1.35798e-05;0.004862245431181844
1.35800e-05;0.004848333254734684
1.35803e-05;0.004834421078287428
1.35805e-05;0.004820508901840173
1.35808e-05;0.004806596725393012
1.35810e-05;0.004792684548945756
1.35813e-05;0.004778772372498501
1.35815e-05;0.00476486019605134
1.35818e-05;0.004750948019604085
1.35820e-05;0.00473703584315683
1.35823e-05;0.0047238961736066586
1.35825e-05;0.004713663679260926
1.35828e-05;0.004703431184915193
1.35830e-05;0.004693198690569529
1.35833e-05;0.004682966196223796
1.35835e-05;0.004672733701878063
1.35838e-05;0.004662501207532399
1.35840e-05;0.004652268713186666
1.35843e-05;0.004642036218840933
1.35845e-05;0.004631803724495269
1.35848e-05;0.004621571230149536
1.35850e-05;0.004611338735803803
1.35853e-05;0.004601106241458139
1.35855e-05;0.004590873747112406
1.35858e-05;0.004580641252766673
1.35860e-05;0.004570408758421009
1.35863e-05;0.004560176264075276
1.35865e-05;0.004549943769729543
1.35868e-05;0.004539815680703362
1.35870e-05;0.004529730248844533
1.35873e-05;0.004519644816985636
1.35875e-05;0.0045095593851267384
1.35878e-05;0.004499473953267909
1.35880e-05;0.004489388521409013
1.35883e-05;0.004479303089550115
1.35885e-05;0.004469217657691286
1.35888e-05;0.0044591322258323894
1.35890e-05;0.004449046793973492
1.35893e-05;0.004440270898669849
1.35895e-05;0.0044320300443022355
1.35898e-05;0.004423789189934622
1.35900e-05;0.004415548335567064
1.35903e-05;0.00440730748119945
1.35905e-05;0.0043990666268318365
1.35908e-05;0.004390825772464278
1.35910e-05;0.004382584918096665
1.35913e-05;0.004374344063729051
1.35915e-05;0.004366103209361493
1.35918e-05;0.004348155496273601
1.35920e-05;0.004326241825338864
1.35923e-05;0.0043043281544042754
1.35925e-05;0.004282414483469539
1.35928e-05;0.004260500812534802
1.35930e-05;0.004238587141600214
1.35933e-05;0.004216673470665477
1.35935e-05;0.00419475979973074
1.35938e-05;0.004172846128796152
1.35940e-05;0.004150932457861415
1.35943e-05;0.004129018786926678
1.35945e-05;0.004107105115992091
1.35948e-05;0.004070785341804437
1.35950e-05;0.004028579626562905
1.35953e-05;0.003986373911321373
1.35955e-05;0.0039441681960801275
1.35958e-05;0.0039019624808385965
1.35960e-05;0.0038597567655970647
1.35963e-05;0.003817551050355819
1.35965e-05;0.0037753453351142877
1.35968e-05;0.0037331396198727563
1.35970e-05;0.0036909339046315107
1.35973e-05;0.0036487281893899793
1.35975e-05;0.0036065224741484475
1.35978e-05;0.0035612579834101905
1.35980e-05;0.0035147437603909085
1.35983e-05;0.003468229537371626
1.35985e-05;0.0034217153143526594
1.35988e-05;0.0033752010913333775
1.35990e-05;0.0033286868683140955
1.35993e-05;0.0032821726452951284
1.35995e-05;0.0032380607886002637
1.35998e-05;0.003202989757099368
1.36000e-05;0.0031679187255987096
1.36003e-05;0.0031328476940978137
1.36005e-05;0.003097776662596918
1.36008e-05;0.0030627056310962597
1.36010e-05;0.0030276345995953638
1.36013e-05;0.0029925635680944683
1.36015e-05;0.0029770915187298467
1.36018e-05;0.002969627079166029
1.36020e-05;0.0029621626396022114
1.36023e-05;0.0029546982000384445
1.36025e-05;0.002947233760474627
1.36028e-05;0.0029397693209108093
1.36030e-05;0.002932304881347042
1.36033e-05;0.0029248404417832243
1.36035e-05;0.002917376002219407
1.36038e-05;0.0029099115626555895
1.36040e-05;0.0029089864070599254
1.36043e-05;0.002932670538839797
1.36045e-05;0.0029563546706196688
1.36048e-05;0.00298003880239938
1.36050e-05;0.0030037229341792512
1.36053e-05;0.003027407065959123
1.36055e-05;0.003051091197738834
1.36058e-05;0.003074775329518706
1.36060e-05;0.003098459461298577
1.36063e-05;0.0031221435930782883
1.36065e-05;0.00314582772485816
1.36068e-05;0.0031802146829294485
1.36070e-05;0.0032189745240471935
1.36073e-05;0.0032577343651652014
1.36075e-05;0.0032964942062832093
1.36078e-05;0.0033352540474009544
1.36080e-05;0.0033740138885189623
1.36083e-05;0.0034127737296369702
1.36085e-05;0.0034515335707547157
1.36088e-05;0.0034883107137907983
1.36090e-05;0.0035242777804420085
1.36093e-05;0.003560244847092975
1.36095e-05;0.003596211913744185
1.36098e-05;0.0036321789803953953
1.36100e-05;0.0036681460470463618
1.36103e-05;0.003704113113697572
1.36105e-05;0.003740080180348782
1.36108e-05;0.0037605065511994128
1.36110e-05;0.003774583417408935
1.36113e-05;0.003788660283618457
1.36115e-05;0.003802737149827884
1.36118e-05;0.003816814016037406
1.36120e-05;0.0038308908822469283
1.36123e-05;0.003844967748456451
1.36125e-05;0.0038590446146658775
1.36128e-05;0.0038731214808753996
1.36130e-05;0.003887198347084922
1.36133e-05;0.003901275213294349
1.36135e-05;0.003915352079503871
1.36138e-05;0.003923946599135886
1.36140e-05;0.003911909403870662
1.36143e-05;0.003899872208605355
1.36145e-05;0.003887835013340049
1.36148e-05;0.0038757978180748247
1.36150e-05;0.0038637606228095183
1.36153e-05;0.0038517234275442123
1.36155e-05;0.003839686232278988
1.36158e-05;0.0038276490370136814
1.36160e-05;0.0038156118417483754
1.36163e-05;0.0038035746464831505
1.36165e-05;0.0037915374512178445
1.36168e-05;0.0037795002559525386
1.36170e-05;0.0037594821781014834
1.36173e-05;0.0037362033291961708
1.36175e-05;0.0037129244802908586
1.36178e-05;0.0036896456313857038
1.36180e-05;0.0036663667824803916
1.36183e-05;0.003643087933575079
1.36185e-05;0.003619809084669924
1.36188e-05;0.003596530235764612
1.36190e-05;0.0035732513868592997
1.36193e-05;0.003550958604196511
1.36195e-05;0.003532376684628361
1.36198e-05;0.0035137947650602116
1.36200e-05;0.0034952128454921877
1.36203e-05;0.003476630925924038
1.36205e-05;0.0034580490063558884
1.36208e-05;0.0034394670867877388
1.36210e-05;0.0034208851672197153
1.36213e-05;0.0034023032476515657
1.36215e-05;0.003383721328083416
1.36218e-05;0.0033744940887466233
1.36220e-05;0.003369088916730836
1.36223e-05;0.003363683744715049
1.36225e-05;0.0033582785726992983
1.36228e-05;0.0033528734006835112
1.36230e-05;0.003347468228667724
1.36233e-05;0.003342063056651973
1.36235e-05;0.003336657884636186
1.36238e-05;0.003331252712620399
1.36240e-05;0.0033258475406046486
1.36243e-05;0.003320442368588861
1.36245e-05;0.003315037196573074
1.36248e-05;0.0033096320245573235
1.36250e-05;0.0033064822244152016
1.36253e-05;0.003311820065258187
1.36255e-05;0.0033171579061011362
1.36258e-05;0.0033224957469441215
1.36260e-05;0.0033278335877871064
1.36263e-05;0.0033331714286300557
1.36265e-05;0.003338509269473041
1.36268e-05;0.0033438471103160263
1.36270e-05;0.003349184951158975
1.36273e-05;0.0033545227920019605
1.36275e-05;0.003359860632844946
1.36278e-05;0.003365198473687895
1.36280e-05;0.0033705363145308804
1.36283e-05;0.0033758741553738657
1.36285e-05;0.0033822498084160038
1.36288e-05;0.0033890494832306594
1.36290e-05;0.003395849158045315
1.36293e-05;0.0034026488328599705
1.36295e-05;0.00340944850767458
1.36298e-05;0.0034162481824892357
1.36300e-05;0.0034230478573038917
1.36303e-05;0.0034298475321185014
1.36305e-05;0.003436647206933157
1.36308e-05;0.0034434468817478125
1.36310e-05;0.003450837032985438
1.36313e-05;0.0034604493241497795
1.36315e-05;0.0034700616153141212
1.36318e-05;0.0034796739064783975
1.36320e-05;0.003489286197642739
1.36323e-05;0.00349889848880708
1.36325e-05;0.0035085107799713564
1.36328e-05;0.0035181230711356978
1.36330e-05;0.0035277353623000395
1.36333e-05;0.003537347653464316
1.36335e-05;0.003546959944628657
1.36338e-05;0.003564512992901139
1.36340e-05;0.0035853104180531654
1.36343e-05;0.0036061078432053323
1.36345e-05;0.003626905268357499
1.36348e-05;0.0036477026935095255
1.36350e-05;0.0036685001186616923
1.36353e-05;0.0036892975438138596
1.36355e-05;0.0037100949689658855
1.36358e-05;0.003730892394118053
1.36360e-05;0.0037516898192702197
1.36363e-05;0.0037724872444222456
1.36365e-05;0.0037944090396916904
1.36368e-05;0.003820562177032184
1.36370e-05;0.003846715314372501
1.36373e-05;0.0038728684517129945
1.36375e-05;0.003899021589053488
1.36378e-05;0.003925174726393982
1.36380e-05;0.003951327863734299
1.36383e-05;0.003977481001074793
1.36385e-05;0.004003634138415286
1.36388e-05;0.004029787275755603
1.36390e-05;0.0040559404130960965
1.36393e-05;0.004082093550436591
1.36395e-05;0.004102098472166404
1.36398e-05;0.00411959140060512
1.36400e-05;0.0041370843290438365
1.36403e-05;0.004154577257482435
1.36405e-05;0.004172070185921151
1.36408e-05;0.004189563114359867
1.36410e-05;0.004207056042798466
1.36413e-05;0.004224548971237182
1.36415e-05;0.004242041899675898
1.36418e-05;0.004259534828114497
1.36420e-05;0.0042770277565532125
1.36423e-05;0.004294520684991929
1.36425e-05;0.004312013613430528
1.36428e-05;0.004327939068882076
1.36430e-05;0.004337965653226957
1.36433e-05;0.004347992237571771
1.36435e-05;0.004358018821916652
1.36438e-05;0.004368045406261534
1.36440e-05;0.004378071990606347
1.36443e-05;0.004388098574951229
1.36445e-05;0.00439812515929611
1.36448e-05;0.004408151743640924
1.36450e-05;0.004418178327985805
1.36453e-05;0.004428204912330687
1.36455e-05;0.004438231496675501
1.36458e-05;0.004448258081020382
1.36460e-05;0.004458284665365264
1.36463e-05;0.004466181725881693
1.36465e-05;0.004473208721014722
1.36468e-05;0.004480235716147798
1.36470e-05;0.004487262711280875
1.36473e-05;0.004494289706413903
1.36475e-05;0.00450131670154698
1.36478e-05;0.004508343696680056
1.36480e-05;0.004515370691813085
1.36483e-05;0.0045223976869461615
1.36485e-05;0.0045294246820792375
1.36488e-05;0.004536451677212267
1.36490e-05;0.004543478672345343
1.36493e-05;0.00455050566747842
1.36495e-05;0.004557532662611448
1.36498e-05;0.004563862748576868
1.36500e-05;0.004569908096454779
