Time(s);Current(A)
1.30500e-05;-0.013090758856809808
1.30503e-05;-0.013080593703738515
1.30505e-05;-0.013070428550667222
1.30508e-05;-0.013060263397595999
1.30510e-05;-0.013050098244524706
1.30513e-05;-0.013039933091453413
1.30515e-05;-0.013029767938382187
1.30518e-05;-0.013019602785310894
1.30520e-05;-0.01301325221262603
1.30523e-05;-0.013011267331388894
1.30525e-05;-0.013009282450151743
1.30528e-05;-0.013007297568914592
1.30530e-05;-0.013005312687677455
1.30533e-05;-0.013003327806440304
1.30535e-05;-0.013001342925203153
1.30538e-05;-0.012999358043966016
1.30540e-05;-0.01299872282541408
1.30543e-05;-0.012999632261908194
1.30545e-05;-0.0130005416984023
1.30548e-05;-0.013001451134896414
1.30550e-05;-0.013002259924836815
1.30553e-05;-0.013002953527324257
1.30555e-05;-0.013003647129811703
1.30558e-05;-0.013004340732299148
1.30560e-05;-0.013004876941092924
1.30563e-05;-0.013005233016757286
1.30565e-05;-0.01300558909242165
1.30567e-05;-0.013007068385073069
1.30570e-05;-0.01300983317135625
1.30573e-05;-0.013012597957639432
1.30575e-05;-0.013017519631571675
1.30578e-05;-0.013024909809247281
1.30580e-05;-0.013032299986922936
1.30583e-05;-0.013039690164598593
1.30585e-05;-0.0130470803422742
1.30588e-05;-0.013054470519949854
1.30590e-05;-0.013061860697625511
1.30593e-05;-0.013072581005932575
1.30595e-05;-0.013087112565110382
1.30598e-05;-0.01310164412428819
1.30600e-05;-0.0131161756834659
1.30603e-05;-0.013130707242643706
1.30605e-05;-0.013145238801821514
1.30608e-05;-0.013159770360999223
1.30610e-05;-0.013176885619113555
1.30613e-05;-0.013196957855770698
1.30615e-05;-0.013217030092427704
1.30618e-05;-0.013237102329084847
1.30620e-05;-0.01325717456574199
1.30623e-05;-0.013277246802398996
1.30625e-05;-0.013297319039056139
1.30628e-05;-0.013317391275713282
1.30630e-05;-0.013338355903408717
1.30633e-05;-0.013359351639530849
1.30635e-05;-0.01338034737565298
1.30638e-05;-0.013401343111774969
1.30640e-05;-0.0134223388478971
1.30643e-05;-0.013443334584019232
1.30645e-05;-0.013464330320141221
1.30648e-05;-0.01348405214087673
1.30650e-05;-0.013502315997446657
1.30652e-05;-0.01352057985401646
1.30655e-05;-0.013537623502314376
1.30658e-05;-0.013553270652890491
1.30660e-05;-0.013567538934823719
1.30663e-05;-0.013580229136225343
1.30665e-05;-0.013590609569791764
1.30668e-05;-0.013598346532080408
1.30670e-05;-0.013602531369505542
1.30673e-05;-0.013602650889235951
1.30675e-05;-0.013602770408966361
1.30678e-05;-0.013598747966533013
1.30680e-05;-0.013589985152428435
1.30683e-05;-0.013581222338323859
1.30685e-05;-0.013567935097913405
1.30688e-05;-0.013549469765226503
1.30690e-05;-0.013531004432539602
1.30693e-05;-0.013504407418065021
1.30695e-05;-0.013468503898010735
1.30698e-05;-0.013432600377956447
1.30700e-05;-0.013396696857902403
1.30703e-05;-0.013360793337848117
1.30705e-05;-0.013324889817793829
1.30708e-05;-0.013288986297739785
1.30710e-05;-0.013253082777685497
1.30713e-05;-0.01321717925763121
1.30715e-05;-0.013175436114270836
1.30718e-05;-0.013127009668697268
1.30720e-05;-0.01307732009258904
1.30723e-05;-0.01302618489530755
1.30725e-05;-0.012974305326103287
1.30728e-05;-0.012921178638632522
1.30730e-05;-0.01286733299726277
1.30733e-05;-0.012813058839312818
1.30735e-05;-0.012758663066943319
1.30737e-05;-0.012704452085281684
1.30740e-05;-0.012650731865164891
1.30743e-05;-0.012597789640245658
1.30745e-05;-0.012545871357181519
1.30748e-05;-0.012495214802194916
1.30750e-05;-0.012446105557924143
1.30753e-05;-0.012398871816543273
1.30755e-05;-0.01235385071682461
1.30758e-05;-0.012311379397539554
1.30760e-05;-0.012271794997460431
1.30763e-05;-0.012235396003608554
1.30765e-05;-0.012202360232123117
1.30768e-05;-0.012172744581015223
1.30770e-05;-0.012146584614020642
1.30773e-05;-0.012123944399246984
1.30775e-05;-0.012104899745368417
1.30778e-05;-0.012089526649290716
1.30780e-05;-0.01207878925852496
1.30783e-05;-0.012071090480461875
1.30785e-05;-0.012066862108484908
1.30788e-05;-0.012066605529115601
1.30790e-05;-0.012070406442633493
1.30793e-05;-0.01207885105485837
1.30795e-05;-0.012087295667083305
1.30798e-05;-0.012101622844178525
1.30800e-05;-0.012122682469029132
1.30803e-05;-0.012143742093879882
1.30805e-05;-0.012164801718730632
1.30808e-05;-0.012185861343581239
1.30810e-05;-0.012212616586219173
1.30813e-05;-0.01224589032037149
1.30815e-05;-0.012279164054523582
1.30818e-05;-0.012312437788675898
1.30820e-05;-0.012345711522828215
1.30822e-05;-0.012381931881174124
1.30825e-05;-0.012421524576907036
1.30828e-05;-0.012461117272639946
1.30830e-05;-0.012501671774489534
1.30833e-05;-0.012543327039284078
1.30835e-05;-0.012584982304078904
1.30838e-05;-0.012626643214635103
1.30840e-05;-0.012668310586623117
1.30843e-05;-0.01270941077673829
1.30845e-05;-0.01274986184144414
1.30848e-05;-0.012789196999700275
1.30850e-05;-0.012827255031050649
1.30853e-05;-0.012863110708795452
1.30855e-05;-0.012896445848149297
1.30858e-05;-0.012929780987503366
1.30860e-05;-0.012959510946314343
1.30863e-05;-0.012985114866535499
1.30865e-05;-0.013010718786756827
1.30868e-05;-0.01303259201681695
1.30870e-05;-0.013050195565681355
1.30873e-05;-0.013067799114545878
1.30875e-05;-0.013081473937311947
1.30878e-05;-0.0130906524317256
1.30880e-05;-0.013099830926139314
1.30883e-05;-0.013103120963824908
1.30885e-05;-0.013099671810669839
1.30888e-05;-0.013096222657514745
1.30890e-05;-0.013092773504359653
1.30893e-05;-0.013089324351204584
1.30895e-05;-0.013085875198049492
1.30898e-05;-0.013075713524150923
1.30900e-05;-0.01305786953884182
1.30903e-05;-0.013040025553532597
1.30905e-05;-0.013022181568223374
1.30907e-05;-0.01300433758291427
1.30910e-05;-0.012986493597605047
1.30913e-05;-0.012964198595365461
1.30915e-05;-0.012936809516033109
1.30918e-05;-0.012909420436700942
1.30920e-05;-0.012882031357368592
1.30923e-05;-0.01285464227803624
1.30925e-05;-0.012825128915845061
1.30928e-05;-0.012793184365271236
1.30930e-05;-0.012761239814697409
1.30933e-05;-0.0127292952641238
1.30935e-05;-0.012697350713549974
1.30938e-05;-0.012665100510141346
1.30940e-05;-0.012632500494739728
1.30943e-05;-0.012600235533560744
1.30945e-05;-0.01256835403352522
1.30948e-05;-0.012536987383497934
1.30950e-05;-0.012506973229882928
1.30953e-05;-0.012477832612184497
1.30955e-05;-0.01245002309130159
1.30958e-05;-0.012423736977294356
1.30960e-05;-0.012399031242181405
1.30963e-05;-0.012376134211023352
1.30965e-05;-0.0123537646242639
1.30968e-05;-0.012331998684372562
1.30970e-05;-0.012310232744481371
1.30973e-05;-0.012288453341620612
1.30975e-05;-0.01226665853072946
1.30978e-05;-0.012244863719838456
1.30980e-05;-0.012223484234315768
1.30983e-05;-0.012202580078246806
1.30985e-05;-0.012181675922177988
1.30988e-05;-0.01216009082938259
1.30990e-05;-0.012137726421604805
1.30992e-05;-0.01211536201382717
1.30995e-05;-0.012092997606049384
1.30998e-05;-0.012070633198271598
1.31000e-05;-0.012047719153910008
1.31003e-05;-0.012024176064281949
1.31005e-05;-0.012000632974653728
1.31008e-05;-0.01197708988502551
1.31010e-05;-0.011953546795397448
1.31013e-05;-0.01192946006237828
1.31015e-05;-0.011904751143151157
1.31018e-05;-0.0118800422239242
1.31020e-05;-0.011855393236625461
1.31023e-05;-0.011830812839913635
1.31025e-05;-0.011806251986222099
1.31028e-05;-0.01178171349902613
1.31030e-05;-0.011757163286018087
1.31033e-05;-0.011732670442274554
1.31035e-05;-0.011708394547510931
1.31038e-05;-0.011684474865824242
1.31040e-05;-0.011661049295699588
1.31043e-05;-0.011638219998408231
1.31045e-05;-0.011616002035025198
1.31048e-05;-0.011594372358707937
1.31050e-05;-0.0115733771246956
1.31053e-05;-0.011553134538375451
1.31055e-05;-0.01153377957877703
1.31058e-05;-0.011515446916127966
1.31060e-05;-0.011498282323947303
1.31063e-05;-0.011482781261085382
1.31065e-05;-0.01147025848825657
1.31068e-05;-0.011462274968409519
1.31070e-05;-0.011459578700952508
1.31073e-05;-0.011462159250567181
1.31075e-05;-0.011469824330513885
1.31077e-05;-0.011482381157019573
1.31080e-05;-0.011499643460651502
1.31083e-05;-0.011521643057803291
1.31085e-05;-0.011550385640440163
1.31088e-05;-0.011583862961707063
1.31090e-05;-0.011624218702242091
1.31093e-05;-0.011672446620886838
1.31095e-05;-0.011720674539531257
1.31098e-05;-0.011777418341258273
1.31100e-05;-0.011843908357308081
1.31103e-05;-0.01191039837335744
1.31105e-05;-0.01197688838940725
1.31108e-05;-0.012043378405457057
1.31110e-05;-0.012127883033117872
1.31113e-05;-0.012213015643584617
1.31115e-05;-0.012298148254051362
1.31118e-05;-0.01238328086451753
1.31120e-05;-0.012472901951781112
1.31123e-05;-0.01256765998801708
1.31125e-05;-0.012662418024252407
1.31128e-05;-0.012759049729447186
1.31130e-05;-0.012857825801710904
1.31133e-05;-0.012956601873973954
1.31135e-05;-0.013055318448598634
1.31138e-05;-0.013153966929669629
1.31140e-05;-0.013251274325270287
1.31143e-05;-0.01334704688223087
1.31145e-05;-0.013440647123932616
1.31148e-05;-0.013531761205374354
1.31150e-05;-0.013619741889257278
1.31153e-05;-0.013704136478323784
1.31155e-05;-0.013782842890429636
1.31158e-05;-0.013855039326854685
1.31160e-05;-0.013927235763279736
1.31162e-05;-0.01398702568252667
1.31165e-05;-0.014032616654433692
1.31168e-05;-0.014078207626340714
1.31170e-05;-0.014123798598247734
1.31173e-05;-0.014169389570154447
1.31175e-05;-0.014214980542061467
1.31178e-05;-0.014260571513968489
1.31180e-05;-0.014306162485875202
1.31183e-05;-0.014319282999306142
1.31185e-05;-0.014331271604368319
1.31188e-05;-0.014343260209430416
1.31190e-05;-0.014355248814492592
1.31193e-05;-0.01436723741955477
1.31195e-05;-0.014379226024616868
1.31198e-05;-0.014391214629679044
1.31200e-05;-0.014391001834485365
1.31203e-05;-0.014376824843116405
1.31205e-05;-0.014362647851747347
1.31208e-05;-0.014348470860378292
1.31210e-05;-0.01433429386900933
1.31213e-05;-0.014320116877640274
1.31215e-05;-0.014305939886271216
1.31218e-05;-0.014284704762572428
1.31220e-05;-0.014255391783674623
1.31223e-05;-0.014226078804776818
1.31225e-05;-0.014196765825879212
1.31228e-05;-0.014167452846981407
1.31230e-05;-0.014138139868083604
1.31233e-05;-0.014108826889185999
1.31235e-05;-0.014077475314784217
1.31238e-05;-0.014043790619023808
1.31240e-05;-0.014010105923263627
1.31243e-05;-0.013976564253457866
1.31245e-05;-0.013943186273265363
1.31247e-05;-0.013909808293073088
1.31250e-05;-0.013877897776546827
1.31253e-05;-0.01384766673533395
1.31255e-05;-0.013817435694121074
1.31258e-05;-0.013789621907352374
1.31260e-05;-0.013764574607589808
1.31263e-05;-0.01373952730782724
1.31265e-05;-0.013717833735080216
1.31268e-05;-0.013699978418679688
1.31270e-05;-0.01368212310227916
1.31273e-05;-0.013670629069947756
1.31275e-05;-0.013666415367481942
1.31278e-05;-0.013662201665016128
1.31280e-05;-0.013657987962550341
1.31283e-05;-0.013653774260084526
1.31285e-05;-0.013649560557618711
1.31288e-05;-0.013645346855152925
1.31290e-05;-0.013649807647883408
1.31293e-05;-0.013664196182523
1.31295e-05;-0.013678584717162493
1.31298e-05;-0.013692973251802083
1.31300e-05;-0.013707361786441673
1.31303e-05;-0.013721750321081166
1.31305e-05;-0.013736138855720758
1.31308e-05;-0.013757262593411507
1.31310e-05;-0.013786094601852601
1.31313e-05;-0.01381492661029389
1.31315e-05;-0.013843758618735179
1.31318e-05;-0.013872590627176273
1.31320e-05;-0.013901422635617562
1.31323e-05;-0.013930254644058853
1.31325e-05;-0.013959086652499945
1.31328e-05;-0.013993437278156357
1.31330e-05;-0.014027980280801532
1.31332e-05;-0.014062523283446472
1.31335e-05;-0.014097066286091647
1.31338e-05;-0.014131609288736822
1.31340e-05;-0.014166152291381996
1.31343e-05;-0.014200695294026938
1.31345e-05;-0.014234087893173883
1.31348e-05;-0.014266163884407074
1.31350e-05;-0.014298239875640046
1.31353e-05;-0.014328194797756637
1.31355e-05;-0.014355722209535406
1.31358e-05;-0.014383249621313987
1.31360e-05;-0.014407456022541076
1.31363e-05;-0.01442786161059176
1.31365e-05;-0.014448267198642305
1.31368e-05;-0.014463663983018947
1.31370e-05;-0.014473328317375755
1.31373e-05;-0.014482992651732494
1.31375e-05;-0.014484522457301646
1.31378e-05;-0.01447674249895415
1.31380e-05;-0.014468962540606705
1.31383e-05;-0.014461182582259207
1.31385e-05;-0.014453402623911711
1.31388e-05;-0.014445622665564267
1.31390e-05;-0.014427021809360356
1.31393e-05;-0.014396036707302865
1.31395e-05;-0.014365051605245581
1.31398e-05;-0.01433406650318809
1.31400e-05;-0.014303081401130598
1.31403e-05;-0.014272096299073316
1.31405e-05;-0.014232611759903906
1.31408e-05;-0.01418339982840434
1.31410e-05;-0.014134187896905105
1.31413e-05;-0.014084975965405536
1.31415e-05;-0.01403576403390597
1.31418e-05;-0.013986552102406735
1.31420e-05;-0.01392720492698881
1.31423e-05;-0.013867504440653922
1.31425e-05;-0.013807803954319036
1.31428e-05;-0.013748103467984553
1.31430e-05;-0.013688402981649665
1.31433e-05;-0.013627422388016437
1.31435e-05;-0.013564976743727605
1.31438e-05;-0.013502835319118126
1.31440e-05;-0.013441042066292389
1.31443e-05;-0.013380171895450446
1.31445e-05;-0.013320358168757054
1.31448e-05;-0.013261596942269126
1.31450e-05;-0.013204967483567757
1.31453e-05;-0.013150509234373199
1.31455e-05;-0.01309861341291108
1.31458e-05;-0.013049670677629823
1.31460e-05;-0.013004993094546771
1.31463e-05;-0.012963265652252412
1.31465e-05;-0.012925496322965213
1.31468e-05;-0.0128922569546159
1.31470e-05;-0.012863249952989049
1.31473e-05;-0.012839086788790815
1.31475e-05;-0.012819271946567463
1.31478e-05;-0.012804433649647352
1.31480e-05;-0.012795187768886494
1.31483e-05;-0.012792342267980178
1.31485e-05;-0.012789496767073864
1.31488e-05;-0.012795868491428561
1.31490e-05;-0.01281278909862695
1.31493e-05;-0.012829709705825339
1.31495e-05;-0.012846630313023613
1.31498e-05;-0.012863550920222004
1.31500e-05;-0.012880471527420393
1.31503e-05;-0.012918364256685544
1.31505e-05;-0.012956988066500046
1.31508e-05;-0.012995611876314546
1.31510e-05;-0.013034235686129046
1.31513e-05;-0.013072859495943286
1.31515e-05;-0.013118742552226795
1.31518e-05;-0.013172933633796539
1.31520e-05;-0.013227124715365917
1.31523e-05;-0.013281315796935662
1.31525e-05;-0.013335506878505406
1.31528e-05;-0.013389697960074784
1.31530e-05;-0.01344388904164453
1.31533e-05;-0.013502286492426767
1.31535e-05;-0.013560830575709866
1.31538e-05;-0.013619374658993365
1.31540e-05;-0.013677918742276862
1.31543e-05;-0.013736462825559964
1.31545e-05;-0.01379500690884346
1.31548e-05;-0.01385079040412485
1.31550e-05;-0.013903414475762283
1.31553e-05;-0.013956038547400072
1.31555e-05;-0.01400459926324901
1.31558e-05;-0.014048509570437542
1.31560e-05;-0.014092419877626371
1.31563e-05;-0.014127309387305729
1.31565e-05;-0.014151874820768066
1.31568e-05;-0.014176440254230573
1.31570e-05;-0.014201005687693077
1.31573e-05;-0.014225571121155417
1.31575e-05;-0.014250136554617921
1.31578e-05;-0.014274701988080427
1.31580e-05;-0.014299267421542765
1.31583e-05;-0.014297135039813917
1.31585e-05;-0.014294071981954173
1.31588e-05;-0.01429100892409445
1.31590e-05;-0.014287945866234705
1.31593e-05;-0.014284882808374961
1.31595e-05;-0.014281819750515217
1.31598e-05;-0.014278756692655494
1.31600e-05;-0.01426550260569643
1.31603e-05;-0.014240585141852792
1.31605e-05;-0.01421566767800932
1.31608e-05;-0.014190750214165682
1.31610e-05;-0.014165832750322042
1.31613e-05;-0.014140915286478572
1.31615e-05;-0.014115997822634934
1.31618e-05;-0.014078875505348943
1.31620e-05;-0.014041327731309415
1.31623e-05;-0.014003779957269633
1.31625e-05;-0.01396623218322985
1.31628e-05;-0.013928684409190322
1.31630e-05;-0.01389113663515054
1.31633e-05;-0.013851850812917793
1.31635e-05;-0.013810575838174547
1.31638e-05;-0.013769300863431023
1.31640e-05;-0.013728286607052062
1.31643e-05;-0.01368757073629444
1.31645e-05;-0.013646854865536543
1.31648e-05;-0.01360757099148172
1.31650e-05;-0.013569926001693444
1.31653e-05;-0.013532281011904911
1.31655e-05;-0.013502353213413225
1.31658e-05;-0.013481257546566622
1.31660e-05;-0.013460161879719877
1.31663e-05;-0.01343906621287313
1.31665e-05;-0.013417970546026527
1.31668e-05;-0.013396874879179782
1.31670e-05;-0.013375779212333037
1.31673e-05;-0.013354683545486435
1.31675e-05;-0.01333358787863969
1.31678e-05;-0.013312492211792943
1.31680e-05;-0.013291396544946198
1.31683e-05;-0.013270300878099595
1.31685e-05;-0.01324920521125285
1.31688e-05;-0.013228109544406104
1.31690e-05;-0.0132070138775595
1.31693e-05;-0.013185918210712756
1.31695e-05;-0.013164822543866011
1.31698e-05;-0.013143726877019408
1.31700e-05;-0.013122631210172661
1.31703e-05;-0.013101535543325916
1.31705e-05;-0.013084510069392631
1.31708e-05;-0.013077081796556445
1.31710e-05;-0.013069653523720259
1.31713e-05;-0.013062225250884123
1.31715e-05;-0.013054796978047938
1.31718e-05;-0.013047368705211752
1.31720e-05;-0.013039940432375616
1.31723e-05;-0.01303251215953943
1.31725e-05;-0.013025083886703244
1.31728e-05;-0.013017655613867108
1.31730e-05;-0.013010227341030921
1.31733e-05;-0.013002799068194737
1.31735e-05;-0.012995370795358601
1.31738e-05;-0.012987942522522415
1.31740e-05;-0.012980514249686229
1.31743e-05;-0.012973085976850093
1.31745e-05;-0.012965657704013906
1.31748e-05;-0.01295822943117772
1.31750e-05;-0.012950801158341584
1.31753e-05;-0.0129433728855054
1.31755e-05;-0.012936282495120037
1.31758e-05;-0.012931467557409291
1.31760e-05;-0.012926882125440863
1.31763e-05;-0.012923842288557311
1.31765e-05;-0.01292080245167376
1.31768e-05;-0.012918694244343507
1.31770e-05;-0.01292286005021977
1.31773e-05;-0.012927025856096036
1.31775e-05;-0.012932124375235771
1.31778e-05;-0.012943504205775024
1.31780e-05;-0.012954884036314276
1.31783e-05;-0.01296795016626965
1.31785e-05;-0.012992372596344781
1.31788e-05;-0.013016795026419913
1.31790e-05;-0.01304121745649488
1.31793e-05;-0.01306563988657001
1.31795e-05;-0.013090062316645144
1.31798e-05;-0.01311448474672011
1.31800e-05;-0.013149242358155622
1.31803e-05;-0.013190088303633107
1.31805e-05;-0.013230934249110317
1.31808e-05;-0.013271780194587803
1.31810e-05;-0.013312626140065289
1.31813e-05;-0.013353472085542497
1.31815e-05;-0.013395655897090089
1.31818e-05;-0.013446849501601963
1.31820e-05;-0.01349804310611349
1.31823e-05;-0.013549236710625365
1.31825e-05;-0.013600430315137238
1.31828e-05;-0.013651623919648765
1.31830e-05;-0.01370281752416064
1.31833e-05;-0.013753968451131922
1.31835e-05;-0.01380483196831379
1.31838e-05;-0.013855695485496004
1.31840e-05;-0.013906559002678218
1.31843e-05;-0.013957422519860088
1.31845e-05;-0.014008286037042302
1.31848e-05;-0.014059149554224515
1.31850e-05;-0.014107464881342397
1.31853e-05;-0.014138619548337367
1.31855e-05;-0.014169774215332546
1.31858e-05;-0.014200928882327726
1.31860e-05;-0.014232083549322695
1.31863e-05;-0.014263238216317876
1.31865e-05;-0.014294392883313056
1.31868e-05;-0.014325547550308024
1.31870e-05;-0.014356702217303204
1.31873e-05;-0.014387856884298384
1.31875e-05;-0.014419011551293354
1.31878e-05;-0.014450166218288533
1.31880e-05;-0.014481320885283713
1.31883e-05;-0.014512475552278683
1.31885e-05;-0.014543630219273863
1.31888e-05;-0.014565241426516877
1.31890e-05;-0.014581230693623484
1.31893e-05;-0.014597219960730197
1.31895e-05;-0.014613209227836911
1.31898e-05;-0.014629198494943516
1.31900e-05;-0.01464518776205023
1.31903e-05;-0.014661177029156945
1.31905e-05;-0.01467716629626355
1.31908e-05;-0.014693155563370265
1.31910e-05;-0.014709144830476978
1.31913e-05;-0.014725134097583584
1.31915e-05;-0.014741123364690297
1.31918e-05;-0.014757112631797012
1.31920e-05;-0.014773101898903617
1.31923e-05;-0.014788454556546031
1.31925e-05;-0.014799519999193284
1.31928e-05;-0.014810585441840461
1.31930e-05;-0.014821650884487714
1.31933e-05;-0.014832716327134968
1.31935e-05;-0.01484378176978222
1.31938e-05;-0.014854847212429398
1.31940e-05;-0.014865506521770462
1.31943e-05;-0.014873430746419619
1.31945e-05;-0.014881354971068723
1.31948e-05;-0.01488927919571788
1.31950e-05;-0.014897203420367036
1.31953e-05;-0.01490512764501614
1.31955e-05;-0.014913051869665296
1.31958e-05;-0.014920534995585455
1.31960e-05;-0.014925047563900316
1.31963e-05;-0.014929560132215206
1.31965e-05;-0.014932818847805833
1.31968e-05;-0.014927633554151255
1.31970e-05;-0.014922448260496643
1.31973e-05;-0.0149156436228118
