Time(s);Current(A)
1.00000e-06;-0.010056685911042185
1.00025e-06;-0.010087419822096662
1.00050e-06;-0.010118153733151138
1.00075e-06;-0.010148887644205639
1.00100e-06;-0.010179621555260115
1.00125e-06;-0.010210355466314616
1.00150e-06;-0.010241089377369093
1.00175e-06;-0.010271823288423567
1.00200e-06;-0.01030255719947807
1.00225e-06;-0.010333291110532546
1.00250e-06;-0.010364025021587047
1.00275e-06;-0.010394758932641524
1.00300e-06;-0.010425492843695998
1.00325e-06;-0.010451997021217725
1.00350e-06;-0.010467733339278053
1.00375e-06;-0.010483469657338396
1.00400e-06;-0.010499205975398726
1.00425e-06;-0.010514942293459069
1.00450e-06;-0.0105306786115194
1.00475e-06;-0.010546414929579728
1.00500e-06;-0.01056215124764007
1.00525e-06;-0.0105778875657004
1.00550e-06;-0.010593623883760743
1.00575e-06;-0.010609360201821074
1.00600e-06;-0.010625096519881402
1.00625e-06;-0.010640832837941747
1.00650e-06;-0.010656569156002075
1.00675e-06;-0.010672305474062418
1.00700e-06;-0.010688041792122748
1.00725e-06;-0.010703778110183077
1.00750e-06;-0.010719514428243421
1.00775e-06;-0.01072945113461168
1.00800e-06;-0.010737771330151991
1.00825e-06;-0.010746091525692296
1.00850e-06;-0.010754411721232602
1.00875e-06;-0.010762731916772914
1.00900e-06;-0.010771052112313217
1.00925e-06;-0.01077937230785353
1.00950e-06;-0.010787692503393835
1.00975e-06;-0.010796012698934147
1.01000e-06;-0.010804332894474451
1.01025e-06;-0.010812653090014756
1.01050e-06;-0.010820973285555069
1.01075e-06;-0.010829293481095374
1.01100e-06;-0.010837613676635686
1.01125e-06;-0.01084593387217599
1.01150e-06;-0.010852477004562709
1.01175e-06;-0.010854496171989804
1.01200e-06;-0.010856515339416898
1.01225e-06;-0.010858534506843993
1.01250e-06;-0.010860553674271087
1.01275e-06;-0.01086257284169818
1.01300e-06;-0.010864592009125276
1.01325e-06;-0.010866611176552372
1.01350e-06;-0.010868630343979467
1.01375e-06;-0.01087064951140656
1.01400e-06;-0.010872668678833656
1.01425e-06;-0.01087468784626075
1.01450e-06;-0.010876707013687844
1.01475e-06;-0.010878726181114939
1.01500e-06;-0.010880745348542033
1.01525e-06;-0.010882764515969128
1.01550e-06;-0.010882906391976557
1.01575e-06;-0.010882525015382252
1.01600e-06;-0.010882143638787947
1.01625e-06;-0.010881762262193641
1.01650e-06;-0.010881380885599336
1.01675e-06;-0.010880999509005031
1.01700e-06;-0.010880618132410726
1.01725e-06;-0.01088023675581642
1.01750e-06;-0.01088004130309671
1.01775e-06;-0.010879897672459646
1.01800e-06;-0.010879754041822584
1.01825e-06;-0.010879610411185521
1.01850e-06;-0.010879512016191008
1.01875e-06;-0.01087952877999735
1.01900e-06;-0.010879545543803694
1.01925e-06;-0.010879562307610037
1.01950e-06;-0.01087957907141638
1.01975e-06;-0.01087301889882303
1.02000e-06;-0.010864625553688431
1.02025e-06;-0.010856232208553826
1.02050e-06;-0.010847838863419227
1.02075e-06;-0.01083944551828462
1.02100e-06;-0.010831052173150021
1.02125e-06;-0.010822658828015422
1.02150e-06;-0.010803483123581337
1.02175e-06;-0.010781302079913884
1.02200e-06;-0.010759121036246412
1.02225e-06;-0.01073693999257896
1.02250e-06;-0.010714758948911489
1.02275e-06;-0.010692577905244036
1.02300e-06;-0.010670396861576583
1.02325e-06;-0.010638006750382716
1.02350e-06;-0.010602771092094714
1.02375e-06;-0.010567535433806683
1.02400e-06;-0.01053229977551868
1.02425e-06;-0.010497064117230679
1.02450e-06;-0.010461828458942647
1.02475e-06;-0.010426592800654645
1.02500e-06;-0.010391357142366614
1.02525e-06;-0.010351584688649612
1.02550e-06;-0.010310547705629008
1.02575e-06;-0.01026951072260837
1.02600e-06;-0.010228473739587766
1.02625e-06;-0.010187436756567128
1.02650e-06;-0.010146399773546524
1.02675e-06;-0.010105362790525886
1.02700e-06;-0.010064325807505282
1.02725e-06;-0.010027745168581799
1.02750e-06;-0.009992406634969368
1.02775e-06;-0.009957068101356967
1.02800e-06;-0.009921729567744538
1.02825e-06;-0.009886391034132138
1.02850e-06;-0.009851052500519738
1.02875e-06;-0.00981936172871373
1.02900e-06;-0.009796957259737197
1.02925e-06;-0.009774552790760645
1.02950e-06;-0.009752148321784112
1.02975e-06;-0.009729743852807579
1.03000e-06;-0.009707339383831028
1.03025e-06;-0.009684934914854495
1.03050e-06;-0.009675349389768334
1.03075e-06;-0.009669336855892304
1.03100e-06;-0.00966332432201627
1.03125e-06;-0.009657311788140242
1.03150e-06;-0.009651299254264212
1.03175e-06;-0.009645286720388179
1.03200e-06;-0.00963927418651215
1.03225e-06;-0.009633261652636116
1.03250e-06;-0.009627249118760086
1.03275e-06;-0.009621236584884058
1.03300e-06;-0.009615224051008025
1.03325e-06;-0.00962051768974805
1.03350e-06;-0.009628962668857606
1.03375e-06;-0.009637407647967153
1.03400e-06;-0.009645852627076701
1.03425e-06;-0.009654297606186255
1.03450e-06;-0.009662742585295803
1.03475e-06;-0.009671187564405357
1.03500e-06;-0.009679632543514904
1.03525e-06;-0.00968807752262446
1.03550e-06;-0.009696522501734006
1.03575e-06;-0.009704967480843554
1.03600e-06;-0.009716832383787712
1.03625e-06;-0.009729650513292819
1.03650e-06;-0.009742468642797939
1.03675e-06;-0.009755286772303048
1.03700e-06;-0.009768104901808156
1.03725e-06;-0.009780923031313275
1.03750e-06;-0.009793741160818385
1.03775e-06;-0.009806559290323503
1.03800e-06;-0.009819377419828612
1.03825e-06;-0.009832195549333721
1.03850e-06;-0.009845013678838839
1.03875e-06;-0.009857831808343948
1.03900e-06;-0.009870649937849068
1.03925e-06;-0.009879621478122904
1.03950e-06;-0.009881823670247735
1.03975e-06;-0.009884025862372567
1.04000e-06;-0.009886228054497397
1.04025e-06;-0.009888430246622228
1.04050e-06;-0.009890632438747058
1.04075e-06;-0.00989283463087189
1.04100e-06;-0.00989503682299672
1.04125e-06;-0.00989723901512155
1.04150e-06;-0.009899441207246383
1.04175e-06;-0.009901643399371213
1.04200e-06;-0.009903845591496045
1.04225e-06;-0.009906047783620874
1.04250e-06;-0.009908249975745706
1.04275e-06;-0.009898458557279591
1.04300e-06;-0.00988793751856129
1.04325e-06;-0.00987741647984298
1.04350e-06;-0.009866895441124679
1.04375e-06;-0.009856374402406378
1.04400e-06;-0.00984585336368807
1.04425e-06;-0.009835332324969769
1.04450e-06;-0.009824811286251458
1.04475e-06;-0.009814290247533157
1.04500e-06;-0.009803769208814848
1.04525e-06;-0.009789226524446352
1.04550e-06;-0.009774040452411622
1.04575e-06;-0.009758854380376877
1.04600e-06;-0.009743668308342146
1.04625e-06;-0.009728482236307403
1.04650e-06;-0.009713296164272672
1.04675e-06;-0.00969811009223794
1.04700e-06;-0.009682924020203197
1.04725e-06;-0.009667737948168467
1.04750e-06;-0.009652551876133722
1.04775e-06;-0.009643940491267069
1.04800e-06;-0.009637167203925361
1.04825e-06;-0.009630393916583647
1.04850e-06;-0.00962362062924194
1.04875e-06;-0.009616847341900225
1.04900e-06;-0.009610074054558517
1.04925e-06;-0.009603300767216803
1.04950e-06;-0.009596527479875095
1.04975e-06;-0.009589754192533386
1.05000e-06;-0.009582980905191673
1.05025e-06;-0.009576207617849964
1.05050e-06;-0.009569434330508251
1.05075e-06;-0.009562661043166542
1.05100e-06;-0.009555887755824834
1.05125e-06;-0.00954911446848312
1.05150e-06;-0.009542341181141412
1.05175e-06;-0.009535567893799697
1.05200e-06;-0.00952879460645799
1.05225e-06;-0.00952202131911628
1.05250e-06;-0.009515248031774568
1.05275e-06;-0.009508474744432859
1.05300e-06;-0.009508188202760533
1.05325e-06;-0.009509715172644656
1.05350e-06;-0.00951124214252878
1.05375e-06;-0.009512769112412903
1.05400e-06;-0.009514296082297027
1.05425e-06;-0.009515823052181151
1.05450e-06;-0.009517350022065274
1.05475e-06;-0.009518876991949398
1.05500e-06;-0.009520403961833521
1.05525e-06;-0.009521930931717644
1.05550e-06;-0.00952345790160177
1.05575e-06;-0.009524984871485892
1.05600e-06;-0.009526511841370017
1.05625e-06;-0.00952803881125414
1.05650e-06;-0.009529565781138262
1.05675e-06;-0.009531092751022386
1.05700e-06;-0.00953261972090651
1.05725e-06;-0.009534146690790635
1.05750e-06;-0.009535673660674758
1.05775e-06;-0.009537200630558882
1.05800e-06;-0.009538727600443005
1.05825e-06;-0.009540451902734115
1.05850e-06;-0.009542231373613414
1.05875e-06;-0.009544010844492712
1.05900e-06;-0.009545790315372012
1.05925e-06;-0.00954756978625131
1.05950e-06;-0.009549349257130607
1.05975e-06;-0.009551128728009907
1.06000e-06;-0.009552908198889206
1.06025e-06;-0.009554687669768505
1.06050e-06;-0.009556467140647803
1.06075e-06;-0.009558246611527101
1.06100e-06;-0.0095600260824064
1.06125e-06;-0.009561805553285698
1.06150e-06;-0.009559566119987437
1.06175e-06;-0.0095562031141705
1.06200e-06;-0.00955284010835356
1.06225e-06;-0.009549477102536624
1.06250e-06;-0.009546114096719687
1.06275e-06;-0.009542751090902747
1.06300e-06;-0.009539388085085811
1.06325e-06;-0.009536025079268873
1.06350e-06;-0.009532662073451936
1.06375e-06;-0.009529299067635
1.06400e-06;-0.00952593606181806
1.06425e-06;-0.009522573056001123
1.06450e-06;-0.009519210050184183
1.06475e-06;-0.009513965751260772
1.06500e-06;-0.009508195495723178
1.06525e-06;-0.009502425240185578
1.06550e-06;-0.009496654984647985
1.06575e-06;-0.009490884729110386
1.06600e-06;-0.009485114473572791
1.06625e-06;-0.009479344218035193
1.06650e-06;-0.009473573962497598
1.06675e-06;-0.009467803706960005
1.06700e-06;-0.009462033451422406
1.06725e-06;-0.009456263195884811
1.06750e-06;-0.009450492940347213
1.06775e-06;-0.009444722684809618
1.06800e-06;-0.009438952429272025
1.06825e-06;-0.009433182173734426
1.06850e-06;-0.009427411918196831
1.06875e-06;-0.009421641662659233
1.06900e-06;-0.009422466186964427
1.06925e-06;-0.0094251344261407
1.06950e-06;-0.009427802665316976
1.06975e-06;-0.00943047090449325
1.07000e-06;-0.009433139143669524
1.07025e-06;-0.009435807382845798
1.07050e-06;-0.009438475622022074
1.07075e-06;-0.009441143861198348
1.07100e-06;-0.009443812100374621
1.07125e-06;-0.009446480339550896
1.07150e-06;-0.00944914857872717
1.07175e-06;-0.009451816817903445
1.07200e-06;-0.009454485057079718
1.07225e-06;-0.009457153296255991
1.07250e-06;-0.009459821535432266
1.07275e-06;-0.00946248977460854
1.07300e-06;-0.009465158013784817
1.07325e-06;-0.009475349534981189
1.07350e-06;-0.009487644354129876
1.07375e-06;-0.009499939173278574
1.07400e-06;-0.009512233992427262
1.07425e-06;-0.009524528811575958
1.07450e-06;-0.009536823630724646
1.07475e-06;-0.009549118449873344
1.07500e-06;-0.009561413269022032
1.07525e-06;-0.009573708088170717
1.07550e-06;-0.009586002907319415
1.07575e-06;-0.009598297726468103
1.07600e-06;-0.009610592545616801
1.07625e-06;-0.009622887364765489
1.07650e-06;-0.009635231900931112
1.07675e-06;-0.009647590336575676
1.07700e-06;-0.009659948772220229
1.07725e-06;-0.009672307207864793
1.07750e-06;-0.009684665643509347
1.07775e-06;-0.009697024079153899
1.07800e-06;-0.009709382514798463
1.07825e-06;-0.009721740950443016
1.07850e-06;-0.00973409938608758
1.07875e-06;-0.009746457821732134
1.07900e-06;-0.009758816257376696
1.07925e-06;-0.00977117469302125
1.07950e-06;-0.009783533128665804
1.07975e-06;-0.009790071306072573
1.08000e-06;-0.009794982303054603
1.08025e-06;-0.009799893300036637
1.08050e-06;-0.009804804297018665
1.08075e-06;-0.009809715294000695
1.08100e-06;-0.00981462629098273
1.08125e-06;-0.009819537287964758
1.08150e-06;-0.009824448284946791
1.08175e-06;-0.009829359281928822
1.08200e-06;-0.00983427027891085
1.08225e-06;-0.009839181275892884
1.08250e-06;-0.009844092272874914
1.08275e-06;-0.009849003269856948
1.08300e-06;-0.009853914266838976
1.08325e-06;-0.009853903719047012
1.08350e-06;-0.009852517245825572
1.08375e-06;-0.009851130772604133
1.08400e-06;-0.009849744299382695
1.08425e-06;-0.009848357826161256
1.08450e-06;-0.009846971352939816
1.08475e-06;-0.009845584879718377
1.08500e-06;-0.00984419840649694
1.08525e-06;-0.0098428119332755
1.08550e-06;-0.009841425460054062
1.08575e-06;-0.009840038986832623
1.08600e-06;-0.009838652513611185
1.08625e-06;-0.009837266040389746
1.08650e-06;-0.009835879567168306
1.08675e-06;-0.00983370036007092
1.08700e-06;-0.00983129952688888
1.08725e-06;-0.009828898693706843
1.08750e-06;-0.009826497860524806
1.08775e-06;-0.009824097027342767
1.08800e-06;-0.00982169619416073
1.08825e-06;-0.009819295360978692
1.08850e-06;-0.009816894527796655
1.08875e-06;-0.009818031539064012
1.08900e-06;-0.009820157632086537
1.08925e-06;-0.009822283725109062
1.08950e-06;-0.00982440981813159
1.08975e-06;-0.009826535911154115
1.09000e-06;-0.009828662004176642
1.09025e-06;-0.009830788097199167
1.09050e-06;-0.009832914190221692
1.09075e-06;-0.00984358147639626
1.09100e-06;-0.009856636639831898
1.09125e-06;-0.009869691803267548
1.09150e-06;-0.009882746966703186
1.09175e-06;-0.009895802130138824
1.09200e-06;-0.009908857293574472
1.09225e-06;-0.00992191245701011
1.09250e-06;-0.009934967620445758
1.09275e-06;-0.009956610103843523
1.09300e-06;-0.00998065336026046
1.09325e-06;-0.010004696616677376
1.09350e-06;-0.010028739873094293
1.09375e-06;-0.01005278312951123
1.09400e-06;-0.010076826385928148
1.09425e-06;-0.010100869642345085
1.09450e-06;-0.010124912898762002
1.09475e-06;-0.010153704105102117
1.09500e-06;-0.01018382270463618
1.09525e-06;-0.010213941304170216
1.09550e-06;-0.010244059903704278
1.09575e-06;-0.010274178503238314
1.09600e-06;-0.010304297102772352
1.09625e-06;-0.010334415702306414
1.09650e-06;-0.010364216786895189
1.09675e-06;-0.010393207492703217
1.09700e-06;-0.010422198198511218
1.09725e-06;-0.010451188904319245
1.09750e-06;-0.010480179610127247
1.09775e-06;-0.010509170315935248
1.09800e-06;-0.010538161021743276
1.09825e-06;-0.010567151727551278
1.09850e-06;-0.010591901896542678
1.09875e-06;-0.010615466530766457
1.09900e-06;-0.010639031164990237
1.09925e-06;-0.010658152098212042
1.09950e-06;-0.010676030697676935
1.09975e-06;-0.010693909297141844
1.10000e-06;-0.010702397107140157
1.10025e-06;-0.010708259516655197
1.10050e-06;-0.010714121926170241
1.10075e-06;-0.010719984335685282
1.10100e-06;-0.010725846745200327
1.10125e-06;-0.010731709154715368
1.10150e-06;-0.010737571564230412
1.10175e-06;-0.010730218285243025
1.10200e-06;-0.010719170271632526
1.10225e-06;-0.010708122258022017
1.10250e-06;-0.010697074244411518
1.10275e-06;-0.01068602623080101
1.10300e-06;-0.01067497821719051
1.10325e-06;-0.01066393020358001
1.10350e-06;-0.010642082837537281
1.10375e-06;-0.010617216276442363
1.10400e-06;-0.010592349715347423
1.10425e-06;-0.010567483154252506
1.10450e-06;-0.010542616593157587
1.10475e-06;-0.010517750032062647
1.10500e-06;-0.010492883470967728
1.10525e-06;-0.010466235358439244
1.10550e-06;-0.010435040274185296
1.10575e-06;-0.01040384518993132
1.10600e-06;-0.010372650105677372
1.10625e-06;-0.010341455021423423
1.10650e-06;-0.010310259937169448
1.10675e-06;-0.0102790648529155
1.10700e-06;-0.010247869768661525
1.10725e-06;-0.010217716076752042
1.10750e-06;-0.010187853528837856
1.10775e-06;-0.010157990980923643
1.10800e-06;-0.010137981596776818
1.10825e-06;-0.010120726879956616
1.10850e-06;-0.010103472163136428
1.10875e-06;-0.010086217446316242
1.10900e-06;-0.01006896272949604
1.10925e-06;-0.010051708012675853
1.10950e-06;-0.010034453295855651
1.10975e-06;-0.010017198579035465
1.11000e-06;-0.009999943862215263
1.11025e-06;-0.009982689145395076
1.11050e-06;-0.00996543442857489
1.11075e-06;-0.009948179711754688
1.11100e-06;-0.0099309249949345
1.11125e-06;-0.009913670278114298
1.11150e-06;-0.009896415561294112
1.11175e-06;-0.009879160844473924
1.11200e-06;-0.009861906127653723
1.11225e-06;-0.009844651410833535
1.11250e-06;-0.00983547449620076
1.11275e-06;-0.009828555907754513
1.11300e-06;-0.009821637319308267
1.11325e-06;-0.009814718730862015
1.11350e-06;-0.009807800142415769
1.11375e-06;-0.009800881553969517
1.11400e-06;-0.00979396296552327
1.11425e-06;-0.009787044377077019
1.11450e-06;-0.009780125788630772
1.11475e-06;-0.009773207200184526
1.11500e-06;-0.009766288611738274
1.11525e-06;-0.009759370023292028
1.11550e-06;-0.009752451434845774
1.11575e-06;-0.009745532846399528
1.11600e-06;-0.009738614257953283
1.11625e-06;-0.00973169566950703
1.11650e-06;-0.009724777081060784
1.11675e-06;-0.009717858492614532
1.11700e-06;-0.00971474895633459
1.11725e-06;-0.009712704323855594
1.11750e-06;-0.009710659691376597
1.11775e-06;-0.009708615058897599
1.11800e-06;-0.009706570426418601
1.11825e-06;-0.009704525793939605
1.11850e-06;-0.009702481161460606
1.11875e-06;-0.00970043652898161
1.11900e-06;-0.009698391896502614
1.11925e-06;-0.009696347264023615
1.11950e-06;-0.009694302631544619
1.11975e-06;-0.009692257999065621
1.12000e-06;-0.009690213366586624
1.12025e-06;-0.009690347568605689
1.12050e-06;-0.009696042709629754
1.12075e-06;-0.009701737850653813
1.12100e-06;-0.009707432991677879
1.12125e-06;-0.00971312813270194
1.12150e-06;-0.009718823273725998
1.12175e-06;-0.009724518414750064
1.12200e-06;-0.009730213555774123
1.12225e-06;-0.009735908696798188
1.12250e-06;-0.009741603837822247
1.12275e-06;-0.009747298978846308
1.12300e-06;-0.009752994119870372
1.12325e-06;-0.009758689260894432
1.12350e-06;-0.009764384401918498
1.12375e-06;-0.00977487671648487
1.12400e-06;-0.009786710185783632
1.12425e-06;-0.009798543655082386
1.12450e-06;-0.009810377124381138
1.12475e-06;-0.009822210593679902
1.12500e-06;-0.009834044062978654
1.12525e-06;-0.009845877532277418
1.12550e-06;-0.00985771100157617
1.12575e-06;-0.009869544470874923
1.12600e-06;-0.009881377940173686
1.12625e-06;-0.00989321140947244
1.12650e-06;-0.009905034689022233
1.12675e-06;-0.009916855119804942
1.12700e-06;-0.00992867555058765
1.12725e-06;-0.00994049598137037
1.12750e-06;-0.009952316412153077
1.12775e-06;-0.009964136842935794
1.12800e-06;-0.009975957273718503
1.12825e-06;-0.009987777704501221
1.12850e-06;-0.00999959813528393
1.12875e-06;-0.010011418566066637
1.12900e-06;-0.010023238996849357
1.12925e-06;-0.010034992481128385
1.12950e-06;-0.010046727249048835
1.12975e-06;-0.010058462016969277
1.13000e-06;-0.010070196784889717
1.13025e-06;-0.010081931552810168
1.13050e-06;-0.01009366632073061
1.13075e-06;-0.01010540108865106
1.13100e-06;-0.010117135856571502
1.13125e-06;-0.010128870624491942
1.13150e-06;-0.010145242213418889
1.13175e-06;-0.010162910127021347
1.13200e-06;-0.010180578040623821
1.13225e-06;-0.01019824595422628
1.13250e-06;-0.010215913867828752
1.13275e-06;-0.01023358178143121
1.13300e-06;-0.010251249695033668
1.13325e-06;-0.01026891760863614
1.13350e-06;-0.010286585522238599
1.13375e-06;-0.010308285013350186
1.13400e-06;-0.01033111162008665
1.13425e-06;-0.010353938226823112
1.13450e-06;-0.010376764833559593
1.13475e-06;-0.010399591440296056
1.13500e-06;-0.010422418047032539
1.13525e-06;-0.010445244653769
1.13550e-06;-0.010468071260505463
1.13575e-06;-0.01049099132596098
1.13600e-06;-0.010514149921803455
1.13625e-06;-0.010537308517645949
1.13650e-06;-0.010560467113488424
1.13675e-06;-0.010583625709330918
1.13700e-06;-0.010606784305173393
1.13725e-06;-0.010629942901015868
1.13750e-06;-0.010653101496858362
1.13775e-06;-0.010676260092700837
1.13800e-06;-0.010695501886045086
1.13825e-06;-0.01071364865162779
1.13850e-06;-0.01073179541721049
1.13875e-06;-0.01074994218279321
1.13900e-06;-0.010768088948375913
1.13925e-06;-0.01078623571395863
1.13950e-06;-0.010804382479541333
1.13975e-06;-0.010822529245124035
1.14000e-06;-0.010840761110576662
1.14025e-06;-0.010859210172510346
1.14050e-06;-0.010877659234444047
1.14075e-06;-0.010896108296377731
1.14100e-06;-0.010914557358311431
1.14125e-06;-0.010933006420245117
1.14150e-06;-0.010951455482178801
1.14175e-06;-0.010969904544112502
1.14200e-06;-0.010988353606046187
1.14225e-06;-0.011010494506998696
1.14250e-06;-0.011033667542254195
1.14275e-06;-0.011056840577509696
1.14300e-06;-0.011080013612765215
1.14325e-06;-0.011103186648020716
1.14350e-06;-0.011126359683276237
1.14375e-06;-0.011149532718531736
1.14400e-06;-0.011175136840732354
1.14425e-06;-0.011201420626433175
1.14450e-06;-0.011227704412133973
1.14475e-06;-0.011253988197834793
1.14500e-06;-0.011280271983535591
1.14525e-06;-0.011306555769236412
1.14550e-06;-0.01133283955493721
1.14575e-06;-0.011359711434721307
1.14600e-06;-0.011386747729062417
1.14625e-06;-0.011413784023403505
1.14650e-06;-0.011440278805370883
1.14675e-06;-0.011466622195716456
1.14700e-06;-0.01149296558606203
1.14725e-06;-0.011517978486328077
