Time(s);Current(A)
2.00000e-06;-0.012683075052180979
2.00025e-06;-0.012685718612193647
2.00050e-06;-0.012687715367793624
2.00075e-06;-0.01268697920861525
2.00100e-06;-0.01268393192115111
2.00125e-06;-0.012675285085072608
2.00150e-06;-0.01266190291099795
2.00175e-06;-0.012648520736923316
2.00200e-06;-0.012629066708430664
2.00225e-06;-0.012604477929815667
2.00250e-06;-0.012579889151200669
2.00275e-06;-0.012548266581952978
2.00300e-06;-0.012510695787529556
2.00325e-06;-0.012473124993106136
2.00350e-06;-0.012426544169331312
2.00375e-06;-0.012372343885976118
2.00400e-06;-0.012318143602620926
2.00425e-06;-0.012263943319265731
2.00450e-06;-0.012209053998560098
2.00475e-06;-0.012138373651806249
2.00500e-06;-0.012067693305052401
2.00525e-06;-0.011997012958298671
2.00550e-06;-0.011926332611544823
2.00575e-06;-0.011850350654571806
2.00600e-06;-0.01176988531544774
2.00625e-06;-0.011687470705683102
2.00650e-06;-0.01160340766745316
2.00675e-06;-0.011518219370738058
2.00700e-06;-0.011431406851076863
2.00725e-06;-0.011343564305914716
2.00750e-06;-0.011255150585040117
2.00775e-06;-0.011166682572482125
2.00800e-06;-0.011078677152269354
2.00825e-06;-0.010991652217631296
2.00850e-06;-0.010906080596622217
2.00875e-06;-0.010822315044927002
2.00900e-06;-0.01074065071713541
2.00925e-06;-0.010661484497569295
2.00950e-06;-0.010585334251760331
2.00975e-06;-0.010512755630440808
2.01000e-06;-0.010444304050709825
2.01025e-06;-0.010380534658699815
2.01050e-06;-0.010321735006671873
2.01075e-06;-0.010267420157758283
2.01100e-06;-0.01021659746500322
2.01125e-06;-0.010169556066363645
2.01150e-06;-0.010124542452364755
2.01175e-06;-0.01008323815456508
2.01200e-06;-0.010045070692812255
2.01225e-06;-0.01001114338668743
2.01250e-06;-0.009980801828529033
2.01275e-06;-0.009954702948999828
2.01300e-06;-0.009932191951048797
2.01325e-06;-0.009909680953097766
2.01350e-06;-0.009893229515668275
2.01375e-06;-0.00988190243185306
2.01400e-06;-0.009870575348037827
2.01425e-06;-0.009859248264222594
2.01450e-06;-0.00984792118040738
2.01475e-06;-0.009837096805261342
2.01500e-06;-0.009837793265215777
2.01525e-06;-0.009838489725170213
2.01550e-06;-0.009839186185124646
2.01575e-06;-0.009839882645079082
2.01600e-06;-0.009840579105033517
2.01625e-06;-0.009844984131932268
2.01650e-06;-0.009852525361259792
2.01675e-06;-0.009860066590587316
2.01700e-06;-0.009869107996361589
2.01725e-06;-0.009879418047703441
2.01750e-06;-0.009889728099045291
2.01775e-06;-0.009900898157357915
2.01800e-06;-0.00991279549280775
2.01825e-06;-0.009924692828257604
2.01850e-06;-0.009936907220844149
2.01875e-06;-0.009949389737311699
2.01900e-06;-0.00996187225377927
2.01925e-06;-0.009973630500734595
2.01950e-06;-0.009984776258866734
2.01975e-06;-0.009995922016998856
2.02000e-06;-0.010004549862095483
2.02025e-06;-0.010011048398190506
2.02050e-06;-0.010017546934285521
2.02075e-06;-0.010024045470380546
2.02100e-06;-0.010030544006475569
2.02125e-06;-0.010037042542570583
2.02150e-06;-0.010043541078665608
2.02175e-06;-0.010050039614760631
2.02200e-06;-0.010052549853811248
2.02225e-06;-0.010051687332691834
2.02250e-06;-0.010050824811572417
2.02275e-06;-0.010049962290453001
2.02300e-06;-0.010049099769333587
2.02325e-06;-0.010048237248214171
2.02350e-06;-0.010047374727094754
2.02375e-06;-0.010046512205975338
2.02400e-06;-0.01004227525079617
2.02425e-06;-0.01003518465741842
2.02450e-06;-0.01002809406404067
2.02475e-06;-0.010021003470662933
2.02500e-06;-0.010013912877285184
2.02525e-06;-0.010006822283907433
2.02550e-06;-0.009999731690529695
2.02575e-06;-0.009992487220883398
2.02600e-06;-0.009981716289043456
2.02625e-06;-0.009970945357203515
2.02650e-06;-0.009960174425363592
2.02675e-06;-0.00994940349352365
2.02700e-06;-0.009938632561683708
2.02725e-06;-0.009927861629843784
2.02750e-06;-0.009917090698003842
2.02775e-06;-0.0099058447018791
2.02800e-06;-0.009894196960879243
2.02825e-06;-0.009882549219879406
2.02850e-06;-0.009871065305750173
2.02875e-06;-0.009859719934146208
2.02900e-06;-0.009848374562542261
2.02925e-06;-0.00983742404060851
2.02950e-06;-0.009826807428919181
2.02975e-06;-0.009816675485738805
2.03000e-06;-0.009806953409382395
2.03025e-06;-0.009797889584009747
2.03050e-06;-0.009789382417951922
2.03075e-06;-0.009782136752437927
2.03100e-06;-0.00977595789281664
2.03125e-06;-0.009771506279739942
2.03150e-06;-0.009768515337291568
2.03175e-06;-0.009767603600039504
2.03200e-06;-0.00976845017225983
2.03225e-06;-0.009769296744480157
2.03250e-06;-0.009772705676605086
2.03275e-06;-0.009778281504859312
2.03300e-06;-0.009783857333113538
2.03325e-06;-0.009793514704327258
2.03350e-06;-0.009806623690446688
2.03375e-06;-0.009819732676566117
2.03400e-06;-0.009832841662685523
2.03425e-06;-0.009845950648804953
2.03450e-06;-0.009859059634924382
2.03475e-06;-0.00987651835901892
2.03500e-06;-0.009897655500951928
2.03525e-06;-0.00991879264288497
2.03550e-06;-0.009939929784818015
2.03575e-06;-0.009961066926751022
2.03600e-06;-0.009982204068684067
2.03625e-06;-0.010005853505123187
2.03650e-06;-0.010031627499174682
2.03675e-06;-0.010057401493226136
2.03700e-06;-0.010083175487277631
2.03725e-06;-0.010108949481329128
2.03750e-06;-0.01013472347538058
2.03775e-06;-0.010160472015352928
2.03800e-06;-0.010185637211001412
2.03825e-06;-0.010210802406649852
2.03850e-06;-0.010235967602298335
2.03875e-06;-0.010261132797946819
2.03900e-06;-0.010286297993595303
2.03925e-06;-0.010311463189243744
2.03950e-06;-0.010334663510460623
2.03975e-06;-0.010356202207643755
2.04000e-06;-0.010375676921737144
2.04025e-06;-0.01039340619914924
2.04050e-06;-0.010411135476561336
2.04075e-06;-0.010425739596626292
2.04100e-06;-0.010437700882892916
2.04125e-06;-0.010449662169159562
2.04150e-06;-0.010458211180555312
2.04175e-06;-0.010463874553131542
2.04200e-06;-0.010469537925707782
2.04225e-06;-0.010469868767285378
2.04250e-06;-0.010465690078113512
2.04275e-06;-0.010461511388941639
2.04300e-06;-0.010457332699769766
2.04325e-06;-0.010453154010597893
2.04350e-06;-0.010448975321426027
2.04375e-06;-0.010438323116063679
2.04400e-06;-0.010422196489582062
2.04425e-06;-0.010406069863100472
2.04450e-06;-0.010389943236618855
2.04475e-06;-0.010373816610137239
2.04500e-06;-0.010357689983655622
2.04525e-06;-0.010336888931895456
2.04550e-06;-0.010312134885856312
2.04575e-06;-0.010287380839817168
2.04600e-06;-0.010262626793778066
2.04625e-06;-0.010237872747738921
2.04650e-06;-0.010212937302923483
2.04675e-06;-0.01018384464833769
2.04700e-06;-0.010154751993751846
2.04725e-06;-0.010125659339166005
2.04750e-06;-0.010096566684580161
2.04775e-06;-0.010067474029994368
2.04800e-06;-0.01003809148258357
2.04825e-06;-0.010008463783178614
2.04850e-06;-0.0099792364840463
2.04875e-06;-0.009950347789104303
2.04900e-06;-0.009922234160096393
2.04925e-06;-0.009894775976629005
2.04950e-06;-0.009868145842118587
2.04975e-06;-0.009842901206091513
2.05000e-06;-0.009819020207763396
2.05025e-06;-0.009796686395559336
2.05050e-06;-0.009776141695773823
2.05075e-06;-0.009757770536690632
2.05100e-06;-0.009741989789131718
2.05125e-06;-0.00972980259530955
2.05150e-06;-0.009719583658359574
2.05175e-06;-0.009712443539636689
2.05200e-06;-0.00970790706737574
2.05225e-06;-0.009706438564437198
2.05250e-06;-0.009707564533429908
2.05275e-06;-0.009712799293793655
2.05300e-06;-0.009721508712070611
2.05325e-06;-0.009730218130347567
2.05350e-06;-0.009745445867197819
2.05375e-06;-0.009766185912940343
2.05400e-06;-0.0097869259586829
2.05425e-06;-0.00980766600442546
2.05450e-06;-0.009828406050167982
2.05475e-06;-0.009849672118378621
2.05500e-06;-0.009882993316115963
2.05525e-06;-0.009916314513853249
2.05550e-06;-0.00994963571159059
2.05575e-06;-0.009982956909327932
2.05600e-06;-0.010016278107065273
2.05625e-06;-0.010053743907498096
2.05650e-06;-0.01009471465020058
2.05675e-06;-0.010135685392903064
2.05700e-06;-0.01017665613560548
2.05725e-06;-0.010217626878307963
2.05750e-06;-0.010258597621010447
2.05775e-06;-0.010299753467892716
2.05800e-06;-0.010341065850759586
2.05825e-06;-0.010382378233626524
2.05850e-06;-0.010423690616493463
2.05875e-06;-0.010465002999360332
2.05900e-06;-0.010506315382227271
2.05925e-06;-0.010544728752744679
2.05950e-06;-0.010580690532199961
2.05975e-06;-0.010616652311655306
2.06000e-06;-0.010644510944970063
2.06025e-06;-0.010665517037399229
2.06050e-06;-0.01068652312982836
2.06075e-06;-0.010707529222257525
2.06100e-06;-0.010728535314686689
2.06125e-06;-0.01074954140711582
2.06150e-06;-0.010770547499544985
2.06175e-06;-0.01079155359197415
2.06200e-06;-0.010812559684403316
2.06225e-06;-0.010833565776832445
2.06250e-06;-0.010854571869261611
2.06275e-06;-0.010875577961690776
2.06300e-06;-0.0108959130896262
2.06325e-06;-0.010900871376507647
2.06350e-06;-0.010905829663389096
2.06375e-06;-0.010910787950270534
2.06400e-06;-0.01091574623715198
2.06425e-06;-0.010920704524033428
2.06450e-06;-0.010925662810914876
2.06475e-06;-0.010930621097796314
2.06500e-06;-0.010935579384677761
2.06525e-06;-0.010940537671559208
2.06550e-06;-0.010945495958440648
2.06575e-06;-0.010950454245322094
2.06600e-06;-0.010955412532203541
2.06625e-06;-0.010956450590681014
2.06650e-06;-0.010954173452202402
2.06675e-06;-0.010951896313723786
2.06700e-06;-0.01094961917524517
2.06725e-06;-0.010947342036766559
2.06750e-06;-0.010945064898287943
2.06775e-06;-0.010942787759809327
2.06800e-06;-0.010940510621330715
2.06825e-06;-0.010938168917524823
2.06850e-06;-0.010934347536650133
2.06875e-06;-0.010930526155775444
2.06900e-06;-0.010926704774900759
2.06925e-06;-0.01092288339402607
2.06950e-06;-0.01091906201315138
2.06975e-06;-0.010915240632276696
2.07000e-06;-0.010911419251402005
2.07025e-06;-0.010907597870527315
2.07050e-06;-0.01090301483421142
2.07075e-06;-0.010897787693129142
2.07100e-06;-0.010892560552046853
2.07125e-06;-0.010887333410964567
2.07150e-06;-0.01088210626988229
2.07175e-06;-0.010876879128800003
2.07200e-06;-0.010871651987717716
2.07225e-06;-0.010866424846635438
2.07250e-06;-0.01086119770555315
2.07275e-06;-0.010855970564470864
2.07300e-06;-0.010848376797908612
2.07325e-06;-0.010838781660819138
2.07350e-06;-0.010829186523729646
2.07375e-06;-0.010819591386640156
2.07400e-06;-0.010809996249550681
2.07425e-06;-0.010800401112461189
2.07450e-06;-0.010790805975371699
2.07475e-06;-0.010781210838282209
2.07500e-06;-0.010771615701192734
2.07525e-06;-0.010762020564103242
2.07550e-06;-0.010750779536865599
2.07575e-06;-0.010738146639194087
2.07600e-06;-0.010725513741522556
2.07625e-06;-0.010712880843851023
2.07650e-06;-0.010700247946179511
2.07675e-06;-0.01068761504850798
2.07700e-06;-0.010674982150836447
2.07725e-06;-0.010662349253164914
2.07750e-06;-0.010649727789795718
2.07775e-06;-0.010637368372259039
2.07800e-06;-0.01062500895472236
2.07825e-06;-0.010612649537185704
2.07850e-06;-0.010600290119649025
2.07875e-06;-0.010587930702112348
2.07900e-06;-0.01057557128457567
2.07925e-06;-0.010563211867039011
2.07950e-06;-0.010550852449502334
2.07975e-06;-0.010539502900253803
2.08000e-06;-0.010529007360499191
2.08025e-06;-0.010519242734159549
2.08050e-06;-0.01051009621515425
2.08075e-06;-0.010503205763721213
2.08100e-06;-0.010498223187947018
2.08125e-06;-0.010493240612172822
2.08150e-06;-0.010491779977716411
2.08175e-06;-0.010493297723072175
2.08200e-06;-0.010494815468427943
2.08225e-06;-0.010501992589868793
2.08250e-06;-0.010513955643260305
2.08275e-06;-0.010525918696651836
2.08300e-06;-0.010537881750043367
2.08325e-06;-0.010549844803434898
2.08350e-06;-0.01056180785682641
2.08375e-06;-0.010574358834147753
2.08400e-06;-0.010600383568892415
2.08425e-06;-0.010626408303637034
2.08450e-06;-0.010652433038381696
2.08475e-06;-0.010678457773126359
2.08500e-06;-0.010704482507870977
2.08525e-06;-0.01073050724261564
2.08550e-06;-0.010762000912147875
2.08575e-06;-0.010798119464236613
2.08600e-06;-0.01083423801632529
2.08625e-06;-0.010870356568414027
2.08650e-06;-0.010906475120502765
2.08675e-06;-0.010942593672591441
2.08700e-06;-0.010978712224680179
2.08725e-06;-0.011016070219074466
2.08750e-06;-0.011054476365498559
2.08775e-06;-0.011092882511922716
2.08800e-06;-0.011131288658346873
2.08825e-06;-0.011169694804771032
2.08850e-06;-0.011208100951195123
2.08875e-06;-0.01124650709761928
2.08900e-06;-0.01128266544230336
2.08925e-06;-0.0113169229014471
2.08950e-06;-0.011351180360590896
2.08975e-06;-0.011382435953041104
2.09000e-06;-0.011411152974188514
2.09025e-06;-0.011439869995335875
2.09050e-06;-0.01146419615359115
2.09075e-06;-0.011484809116135114
2.09100e-06;-0.011505422078679044
2.09125e-06;-0.011520635146096074
2.09150e-06;-0.011531281715328226
2.09175e-06;-0.011541928284560361
2.09200e-06;-0.011543586461873053
2.09225e-06;-0.011537643477603835
2.09250e-06;-0.011531700493334619
2.09275e-06;-0.01152575750906541
2.09300e-06;-0.011519814524796192
2.09325e-06;-0.011513871540526974
2.09350e-06;-0.011507036501312
2.09375e-06;-0.011479757776540717
2.09400e-06;-0.011452479051769434
2.09425e-06;-0.01142520032699815
2.09450e-06;-0.011397921602226914
2.09475e-06;-0.011370642877455631
2.09500e-06;-0.011343364152684348
2.09525e-06;-0.011308015374278954
2.09550e-06;-0.011265842040135582
2.09575e-06;-0.011223668705992212
2.09600e-06;-0.01118149537184891
2.09625e-06;-0.011139322037705538
2.09650e-06;-0.011096857072214906
2.09675e-06;-0.011047708639981781
2.09700e-06;-0.010998560207748741
2.09725e-06;-0.010949411775515616
2.09750e-06;-0.010900263343282491
2.09775e-06;-0.01085111491104945
2.09800e-06;-0.01080157855593099
2.09825e-06;-0.010751714148302215
2.09850e-06;-0.010702593016793722
2.09875e-06;-0.01065410044731744
2.09900e-06;-0.010606955412721731
2.09925e-06;-0.010560949940180876
2.09950e-06;-0.010517607747587707
2.09975e-06;-0.010476517795595672
2.10000e-06;-0.010435427843603637
2.10025e-06;-0.010401910780294812
2.10050e-06;-0.010374797838105833
2.10075e-06;-0.010347684895916854
2.10100e-06;-0.010320571953727877
2.10125e-06;-0.010293459011538945
2.10150e-06;-0.010266346069349966
2.10175e-06;-0.010239233127160989
2.10200e-06;-0.010212120184972055
2.10225e-06;-0.010185007242783078
2.10250e-06;-0.010157894300594099
2.10275e-06;-0.010139069063756221
2.10300e-06;-0.01012725244292952
2.10325e-06;-0.010115435822102798
2.10350e-06;-0.010103619201276077
2.10375e-06;-0.010091802580449376
2.10400e-06;-0.010079985959622655
2.10425e-06;-0.010068169338795934
2.10450e-06;-0.010056352717969232
2.10475e-06;-0.01004453609714251
2.10500e-06;-0.01003271947631579
2.10525e-06;-0.010025986198079389
2.10550e-06;-0.010023551720869347
2.10575e-06;-0.0100211172436593
2.10600e-06;-0.010018682766449256
2.10625e-06;-0.010016248289239214
2.10650e-06;-0.010013813812029168
2.10675e-06;-0.010011379334819121
2.10700e-06;-0.010008944857609076
2.10725e-06;-0.010006510380399035
2.10750e-06;-0.010004075903188988
2.10775e-06;-0.010001776195470304
2.10800e-06;-0.010002565070039696
2.10825e-06;-0.01000335394460909
2.10850e-06;-0.010004142819178483
2.10875e-06;-0.010004931693747875
2.10900e-06;-0.01000572056831727
2.10925e-06;-0.010006509442886663
2.10950e-06;-0.010007298317456056
2.10975e-06;-0.010008087192025448
2.11000e-06;-0.010008876066594842
2.11025e-06;-0.010009664941164235
2.11050e-06;-0.010010835918241123
2.11075e-06;-0.01001233002574297
2.11100e-06;-0.010013824133244817
2.11125e-06;-0.010015318240746666
2.11150e-06;-0.010016812348248512
2.11175e-06;-0.010018306455750359
2.11200e-06;-0.010019800563252206
2.11225e-06;-0.010021294670754051
2.11250e-06;-0.0100227887782559
2.11275e-06;-0.010024282885757747
2.11300e-06;-0.010025918478789258
2.11325e-06;-0.01003079656904032
2.11350e-06;-0.01003567465929138
2.11375e-06;-0.010040552749542441
2.11400e-06;-0.010045430839793494
2.11425e-06;-0.010050308930044554
2.11450e-06;-0.010055187020295616
2.11475e-06;-0.010060065110546667
2.11500e-06;-0.010064943200797729
2.11525e-06;-0.01006982129104879
2.11550e-06;-0.01007469938129985
2.11575e-06;-0.010080754631772383
2.11600e-06;-0.010087805364543938
2.11625e-06;-0.010094856097315495
2.11650e-06;-0.010101906830087038
2.11675e-06;-0.010108957562858595
2.11700e-06;-0.01011600829563015
2.11725e-06;-0.010123059028401693
2.11750e-06;-0.01013010976117325
2.11775e-06;-0.010137160493944804
2.11800e-06;-0.01014372978204226
2.11825e-06;-0.010149891929597336
2.11850e-06;-0.010156054077152421
2.11875e-06;-0.010162216224707508
2.11900e-06;-0.010168378372262584
2.11925e-06;-0.01017454051981767
2.11950e-06;-0.010180702667372758
2.11975e-06;-0.010186864814927843
2.12000e-06;-0.010193026962482919
2.12025e-06;-0.010197743654681903
2.12050e-06;-0.010201237976981862
2.12075e-06;-0.010204732299281816
2.12100e-06;-0.010204923508558636
2.12125e-06;-0.010202321393285158
2.12150e-06;-0.010199719278011686
2.12175e-06;-0.01019711716273821
2.12200e-06;-0.010194515047464735
2.12225e-06;-0.010191912932191257
2.12250e-06;-0.010189310816917785
2.12275e-06;-0.010181602147444178
2.12300e-06;-0.01016957504771559
2.12325e-06;-0.010157547947987025
2.12350e-06;-0.010145520848258437
2.12375e-06;-0.01013349374852985
2.12400e-06;-0.010121466648801262
2.12425e-06;-0.010109439549072697
2.12450e-06;-0.010093116205462343
2.12475e-06;-0.01007315968205309
2.12500e-06;-0.010053203158643869
2.12525e-06;-0.010033246635234616
2.12550e-06;-0.01001329011182536
2.12575e-06;-0.00999333358841614
2.12600e-06;-0.009973191991267467
2.12625e-06;-0.009948808963301258
2.12650e-06;-0.00992442593533505
2.12675e-06;-0.009900042907368881
2.12700e-06;-0.009875659879402672
2.12725e-06;-0.009851276851436464
2.12750e-06;-0.009826893823470295
2.12775e-06;-0.00980216568777079
2.12800e-06;-0.009777145706803745
2.12825e-06;-0.0097521257258367
2.12850e-06;-0.009727738008942093
2.12875e-06;-0.009703884975161042
2.12900e-06;-0.00968003194137999
2.12925e-06;-0.009657128565208114
2.12950e-06;-0.009635028280512489
2.12975e-06;-0.009614056029602846
2.13000e-06;-0.009594037716522806
2.13025e-06;-0.009575477698070996
2.13050e-06;-0.009558150907231562
2.13075e-06;-0.009543088005267455
2.13100e-06;-0.009529939593159056
2.13125e-06;-0.009516791181050635
2.13150e-06;-0.009506592157212855
2.13175e-06;-0.00949888732555307
2.13200e-06;-0.009491182493893273
2.13225e-06;-0.009488324192059902
2.13250e-06;-0.009489564427168497
2.13275e-06;-0.009490804662277093
2.13300e-06;-0.009492044897385688
2.13325e-06;-0.009493285132494284
2.13350e-06;-0.009494525367602879
2.13375e-06;-0.00949622781979275
2.13400e-06;-0.00950852314042283
2.13425e-06;-0.009520818461052885
2.13450e-06;-0.009533113781682964
2.13475e-06;-0.009545409102313043
2.13500e-06;-0.009557704422943122
2.13525e-06;-0.00956999974357318
2.13550e-06;-0.009586574074046708
2.13575e-06;-0.009606767010109521
2.13600e-06;-0.0096269599461723
2.13625e-06;-0.009647152882235112
2.13650e-06;-0.009667345818297925
2.13675e-06;-0.009687538754360738
2.13700e-06;-0.009707731690423516
2.13725e-06;-0.009729261096204946
2.13750e-06;-0.00975192070662967
2.13775e-06;-0.009774580317054355
2.13800e-06;-0.009797239927479077
2.13825e-06;-0.0098198995379038
2.13850e-06;-0.009842559148328484
2.13875e-06;-0.009865218758753208
2.13900e-06;-0.00988666619931287
2.13925e-06;-0.009907088551169896
2.13950e-06;-0.009927510903026888
2.13975e-06;-0.009943722065080273
2.14000e-06;-0.00995637197452639
2.14025e-06;-0.009969021883972487
2.14050e-06;-0.009981671793418604
2.14075e-06;-0.009994321702864722
2.14100e-06;-0.010006971612310839
2.14125e-06;-0.010019621521756934
2.14150e-06;-0.010032271431203051
2.14175e-06;-0.010044921340649169
2.14200e-06;-0.010057073823708372
2.14225e-06;-0.010057826528416572
2.14250e-06;-0.010058579233124771
2.14275e-06;-0.01005933193783297
2.14300e-06;-0.01006008464254117
2.14325e-06;-0.010060837347249371
2.14350e-06;-0.01006159005195757
2.14375e-06;-0.010062342756665768
2.14400e-06;-0.01006309546137397
2.14425e-06;-0.010063848166082169
2.14450e-06;-0.010060106798797916
2.14475e-06;-0.010052564955556287
2.14500e-06;-0.010045023112314656
2.14525e-06;-0.010037481269073027
2.14550e-06;-0.01002993942583141
2.14575e-06;-0.01002239758258978
2.14600e-06;-0.010014855739348152
2.14625e-06;-0.010007313896106535
2.14650e-06;-0.009999457351247468
2.14675e-06;-0.00998738505970663
2.14700e-06;-0.00997531276816581
2.14725e-06;-0.00996324047662497
2.14750e-06;-0.00995116818508413
