Time(s);Current(A)
3.00000e-06;0.0027078536232180176
3.00025e-06;0.0027119389559251404
3.00050e-06;0.002716024288632263
3.00075e-06;0.002720109621339379
3.00100e-06;0.0027241949540465016
3.00125e-06;0.0027316541527547165
3.00150e-06;0.00274428981357813
3.00175e-06;0.0027569254744015644
3.00200e-06;0.002769561135224999
3.00225e-06;0.0027821967960484336
3.00250e-06;0.0027948324568718465
3.00275e-06;0.002807468117695281
3.00300e-06;0.0028201037785187157
3.00325e-06;0.002832739439342129
3.00350e-06;0.0028453751001655636
3.00375e-06;0.002858010760988998
3.00400e-06;0.0028706464218124328
3.00425e-06;0.0028856470167062265
3.00450e-06;0.0029042760875432772
3.00475e-06;0.002922905158380328
3.00500e-06;0.002941534229217347
3.00525e-06;0.0029601633000543976
3.00550e-06;0.0029787923708914483
3.00575e-06;0.0029974214417284673
3.00600e-06;0.003016050512565518
3.00625e-06;0.0030346795834025686
3.00650e-06;0.0030533086542396193
3.00675e-06;0.0030719377250766383
3.00700e-06;0.003090566795913689
3.00725e-06;0.0031074633578091885
3.00750e-06;0.0031217017622977715
3.00775e-06;0.0031359401667863784
3.00800e-06;0.0031501785712749857
3.00825e-06;0.0031644169757635925
3.00850e-06;0.0031786553802521755
3.00875e-06;0.0031928937847407824
3.00900e-06;0.0032071321892293897
3.00925e-06;0.0032213705937179722
3.00950e-06;0.0032356089982065795
3.00975e-06;0.0032498474026951864
3.01000e-06;0.0032621543847363445
3.01025e-06;0.003271957744002931
3.01050e-06;0.0032817611032695177
3.01075e-06;0.0032915644625361043
3.01100e-06;0.0033013678218026745
3.01125e-06;0.003311171181069261
3.01150e-06;0.0033209745403358477
3.01175e-06;0.0033307778996024178
3.01200e-06;0.0033405812588690044
3.01225e-06;0.003350384618135591
3.01250e-06;0.0033601879774021776
3.01275e-06;0.003369806024810789
3.01300e-06;0.0033792203946196014
3.01325e-06;0.003388634764428414
3.01350e-06;0.0033980491342372105
3.01375e-06;0.003407463504046023
3.01400e-06;0.0034168778738548357
3.01425e-06;0.0034262922436636323
3.01450e-06;0.003435706613472445
3.01475e-06;0.003445120983281257
3.01500e-06;0.0034545353530900697
3.01525e-06;0.0034639497228988662
3.01550e-06;0.003473364092707679
3.01575e-06;0.0034827784625164914
3.01600e-06;0.003492192832325288
3.01625e-06;0.0035016072021341006
3.01650e-06;0.0035110215719429128
3.01675e-06;0.003517015042937878
3.01700e-06;0.003522473991318097
3.01725e-06;0.0035279329396983253
3.01750e-06;0.0035333918880785533
3.01775e-06;0.003538850836458772
3.01800e-06;0.0035443097848390005
3.01825e-06;0.003549768733219229
3.01850e-06;0.0035552276815994477
3.01875e-06;0.003560686629979676
3.01900e-06;0.003566145578359904
3.01925e-06;0.0035716045267401323
3.01950e-06;0.003577063475120351
3.01975e-06;0.0035825224235005795
3.02000e-06;0.003587981371880808
3.02025e-06;0.0035934403202610267
3.02050e-06;0.0035959562989924016
3.02075e-06;0.0035897982734020427
3.02100e-06;0.0035836402478116834
3.02125e-06;0.003577482222221335
3.02150e-06;0.0035713241966309757
3.02175e-06;0.0035651661710406164
3.02200e-06;0.003559008145450268
3.02225e-06;0.0035528501198599086
3.02250e-06;0.00354669209426955
3.02275e-06;0.003540534068679201
3.02300e-06;0.003534376043088842
3.02325e-06;0.0035282180174984828
3.02350e-06;0.0035220599919081235
3.02375e-06;0.003515901966317775
3.02400e-06;0.003503450086775681
3.02425e-06;0.003488937390575733
3.02450e-06;0.0034744246943758097
3.02475e-06;0.003459911998175862
3.02500e-06;0.003445399301975914
3.02525e-06;0.003430886605775966
3.02550e-06;0.003416373909576043
3.02575e-06;0.003401861213376095
3.02600e-06;0.003387348517176147
3.02625e-06;0.003372835820976224
3.02650e-06;0.003358323124776276
3.02675e-06;0.003343810428576328
3.02700e-06;0.003329297732376405
3.02725e-06;0.003315831399805092
3.02750e-06;0.003305449082266319
3.02775e-06;0.003295066764727546
3.02800e-06;0.003284684447188791
3.02825e-06;0.0032743021296500184
3.02850e-06;0.0032639198121112455
3.02875e-06;0.00325353749457249
3.02900e-06;0.0032431551770337173
3.02925e-06;0.0032327728594949445
3.02950e-06;0.0032223905419561717
3.02975e-06;0.0032120082244174166
3.03000e-06;0.003201625906878644
3.03025e-06;0.003191243589339871
3.03050e-06;0.0031808612718011156
3.03075e-06;0.0031704789542623428
3.03100e-06;0.00316009663672357
3.03125e-06;0.003149714319184815
3.03150e-06;0.003139332001646042
3.03175e-06;0.003133753986913149
3.03200e-06;0.0031297490603593545
3.03225e-06;0.0031257441338055675
3.03250e-06;0.003121739207251773
3.03275e-06;0.0031177342806979792
3.03300e-06;0.003113729354144192
3.03325e-06;0.0031097244275903975
3.03350e-06;0.0031057195010366035
3.03375e-06;0.003101714574482809
3.03400e-06;0.003097709647929022
3.03425e-06;0.003093704721375228
3.03450e-06;0.003089699794821434
3.03475e-06;0.0030856948682676465
3.03500e-06;0.003081689941713852
3.03525e-06;0.0030776850151600582
3.03550e-06;0.003073680088606271
3.03575e-06;0.003069675162052477
3.03600e-06;0.00306620615926957
3.03625e-06;0.003064316719193765
3.03650e-06;0.0030624272791179635
3.03675e-06;0.0030605378390421586
3.03700e-06;0.003058648398966354
3.03725e-06;0.003056758958890552
3.03750e-06;0.0030548695188147477
3.03775e-06;0.0030529800787389427
3.03800e-06;0.003051090638663138
3.03825e-06;0.0030492011985873363
3.03850e-06;0.0030473117585115314
3.03875e-06;0.003045422318435727
3.03900e-06;0.003042706716550632
3.03925e-06;0.003037556114661935
3.03950e-06;0.003032405512773239
3.03975e-06;0.0030272549108845514
3.04000e-06;0.0030221043089958552
3.04025e-06;0.0030169537071071586
3.04050e-06;0.0030118031052184624
3.04075e-06;0.003006652503329775
3.04100e-06;0.003001501901441078
3.04125e-06;0.002996351299552382
3.04150e-06;0.0029912006976636945
3.04175e-06;0.002986050095774998
3.04200e-06;0.002978645661378422
3.04225e-06;0.002964598361016354
3.04250e-06;0.00295055106065431
3.04275e-06;0.002936503760292243
3.04300e-06;0.002922456459930175
3.04325e-06;0.002908409159568131
3.04350e-06;0.0028943618592060637
3.04375e-06;0.002880314558843996
3.04400e-06;0.002866267258481952
3.04425e-06;0.0028522199581198847
3.04450e-06;0.002838172657757817
3.04475e-06;0.002824125357395749
3.04500e-06;0.0028071927563803134
3.04525e-06;0.0027893154121762806
3.04550e-06;0.0027714380679722474
3.04575e-06;0.002753560723768244
3.04600e-06;0.002735683379564211
3.04625e-06;0.002717806035360178
3.04650e-06;0.0026999286911561448
3.04675e-06;0.0026820513469521415
3.04700e-06;0.0026641740027481082
3.04725e-06;0.0026462966585440754
3.04750e-06;0.002628419314340072
3.04775e-06;0.002611957047575004
3.04800e-06;0.002599665529845439
3.04825e-06;0.0025873740121158946
3.04850e-06;0.0025750824943863294
3.04875e-06;0.0025627909766567643
3.04900e-06;0.002550499458927199
3.04925e-06;0.0025382079411976548
3.04950e-06;0.0025259164234680896
3.04975e-06;0.0025136249057385244
3.05000e-06;0.0025055285795346017
3.05025e-06;0.002509797011984567
3.05050e-06;0.002514065444434532
3.05075e-06;0.0025183338768844966
3.05100e-06;0.0025226023093344544
3.05125e-06;0.0025268707417844196
3.05150e-06;0.0025311391742343843
3.05175e-06;0.002535407606684342
3.05200e-06;0.002539676039134307
3.05225e-06;0.0025487375821070437
3.05250e-06;0.002571926168971211
3.05275e-06;0.0025951147558354176
3.05300e-06;0.002618303342699624
3.05325e-06;0.0026414919295638306
3.05350e-06;0.0026646805164279976
3.05375e-06;0.0026878691032922045
3.05400e-06;0.002711057690156411
3.05425e-06;0.002734246277020578
3.05450e-06;0.002760168396994439
3.05475e-06;0.0027941472354679974
3.05500e-06;0.002828126073941556
3.05525e-06;0.0028621049124150566
3.05550e-06;0.002896083750888615
3.05575e-06;0.0029300625893621734
3.05600e-06;0.002964041427835674
3.05625e-06;0.0029980202663092326
3.05650e-06;0.003031999104782791
3.05675e-06;0.0030656294921184786
3.05700e-06;0.0030982328669338995
3.05725e-06;0.0031308362417493203
3.05750e-06;0.003163439616564741
3.05775e-06;0.003196042991380107
3.05800e-06;0.003228646366195528
3.05825e-06;0.0032612497410109487
3.05850e-06;0.0032905242543264913
3.05875e-06;0.003309987399367531
3.05900e-06;0.003329450544408571
3.05925e-06;0.0033489136894496114
3.05950e-06;0.0033683768344906183
3.05975e-06;0.003387839979531658
3.06000e-06;0.003407303124572698
3.06025e-06;0.003423506259085975
3.06050e-06;0.0034255760103812727
3.06075e-06;0.003414309102704216
3.06100e-06;0.003403042195027179
3.06125e-06;0.0033917752873501225
3.06150e-06;0.003380508379673066
3.06175e-06;0.0033692414719960094
3.06200e-06;0.003357974564318972
3.06225e-06;0.0033467076566419153
3.06250e-06;0.0033354407489648587
3.06275e-06;0.0033170431560486683
3.06300e-06;0.003277628834458852
3.06325e-06;0.0032382145128690364
3.06350e-06;0.0031988001912792207
3.06375e-06;0.0031593858696894713
3.06400e-06;0.0031199715480996555
3.06425e-06;0.00308055722650984
3.06450e-06;0.0030411429049200904
3.06475e-06;0.0030017285833302747
3.06500e-06;0.0029589797787728704
3.06525e-06;0.0029064030374260064
3.06550e-06;0.0028538262960790535
3.06575e-06;0.0028012495547321005
3.06600e-06;0.0027486728133851476
3.06625e-06;0.0026960960720382836
3.06650e-06;0.0026435193306913306
3.06675e-06;0.002592139081345742
3.06700e-06;0.0025411506031895984
3.06725e-06;0.002490162125033369
3.06750e-06;0.002439173646877139
3.06775e-06;0.002388185168720909
3.06800e-06;0.0023371966905647652
3.06825e-06;0.002288487377513867
3.06850e-06;0.002246495594828746
3.06875e-06;0.002204503812143696
3.06900e-06;0.0021647765559893568
3.06925e-06;0.0021317236849856098
3.06950e-06;0.0020986708139819187
3.06975e-06;0.00206747432112643
3.07000e-06;0.002041749251360187
3.07025e-06;0.0020160241815939434
3.07050e-06;0.001992326022034165
3.07075e-06;0.001974601905701336
3.07100e-06;0.001956877789368507
3.07125e-06;0.0019411439542890538
3.07150e-06;0.00193127620355993
3.07175e-06;0.0019214084528308062
3.07200e-06;0.0019144707443175973
3.07225e-06;0.0019161689382728303
3.07250e-06;0.0019178671322280664
3.07275e-06;0.0019195653261833022
3.07300e-06;0.0019212635201385352
3.07325e-06;0.001922961714093771
3.07350e-06;0.001924659908049007
3.07375e-06;0.00192635810200424
3.07400e-06;0.0019311471919715249
3.07425e-06;0.0019450462791789226
3.07450e-06;0.0019589453663863203
3.07475e-06;0.0019728444535936944
3.07500e-06;0.0019867435408010923
3.07525e-06;0.0020006426280084902
3.07550e-06;0.0020145417152158643
3.07575e-06;0.002028440802423262
3.07600e-06;0.0020429489055052686
3.07625e-06;0.002059252000368028
3.07650e-06;0.0020755550952308147
3.07675e-06;0.0020918581900936017
3.07700e-06;0.0021081612849563882
3.07725e-06;0.0021244643798191474
3.07750e-06;0.0021407674746819344
3.07775e-06;0.002157070569544721
3.07800e-06;0.00217337366440748
3.07825e-06;0.002189676759270267
3.07850e-06;0.0022059798541330536
3.07875e-06;0.0022222829489958406
3.07900e-06;0.0022385860438586
3.07925e-06;0.0022548891387213867
3.07950e-06;0.0022657870686253003
3.07975e-06;0.002274915168139664
3.08000e-06;0.002284043267654043
3.08025e-06;0.0022931713671684216
3.08050e-06;0.0023022994666827856
3.08075e-06;0.0023114275661971643
3.08100e-06;0.0023205556657115434
3.08125e-06;0.0023296837652259225
3.08150e-06;0.002338811864740286
3.08175e-06;0.002347939964254665
3.08200e-06;0.002357068063769044
3.08225e-06;0.0023661961632834077
3.08250e-06;0.0023753242627977864
3.08275e-06;0.0023835628032719183
3.08300e-06;0.0023891794889924238
3.08325e-06;0.00239479617471292
3.08350e-06;0.002400412860433426
3.08375e-06;0.002406029546153932
3.08400e-06;0.0024116462318744284
3.08425e-06;0.0024172629175949344
3.08450e-06;0.0024228796033154403
3.08475e-06;0.0024284962890359367
3.08500e-06;0.0024341129747564427
3.08525e-06;0.0024397296604769486
3.08550e-06;0.002445346346197454
3.08575e-06;0.0024509630319179505
3.08600e-06;0.0024565797176384564
3.08625e-06;0.002460613653461049
3.08650e-06;0.002464129344440073
3.08675e-06;0.0024676450354191035
3.08700e-06;0.0024711607263981335
3.08725e-06;0.0024746764173771635
3.08750e-06;0.002478192108356188
3.08775e-06;0.002481707799335218
3.08800e-06;0.0024852234903142483
3.08825e-06;0.0024887391812932723
3.08850e-06;0.0024922548722723027
3.08875e-06;0.0024957705632513327
3.08900e-06;0.002499286254230357
3.08925e-06;0.002502801945209387
3.08950e-06;0.0025087495192191852
3.08975e-06;0.002521864738991048
3.09000e-06;0.0025349799587628887
3.09025e-06;0.002548095178534752
3.09050e-06;0.0025612103983066146
3.09075e-06;0.0025743256180784553
3.09100e-06;0.002587440837850318
3.09125e-06;0.0026005560576221813
3.09150e-06;0.002613671277394044
3.09175e-06;0.0026267864971658847
3.09200e-06;0.0026399017169377475
3.09225e-06;0.0026530169367096107
3.09250e-06;0.0026661321564814514
3.09275e-06;0.0026925961490924574
3.09300e-06;0.0027234309729392723
3.09325e-06;0.0027542657967860353
3.09350e-06;0.0027851006206328502
3.09375e-06;0.0028159354444796648
3.09400e-06;0.0028467702683264797
3.09425e-06;0.0028776050921732427
3.09450e-06;0.0029084399160200576
3.09475e-06;0.0029392747398668726
3.09500e-06;0.002970109563713635
3.09525e-06;0.00300094438756045
3.09550e-06;0.003031779211407265
3.09575e-06;0.0030637353193632842
3.09600e-06;0.0030989962603199398
3.09625e-06;0.003134257201276655
3.09650e-06;0.0031695181422333706
3.09675e-06;0.003204779083190026
3.09700e-06;0.003240040024146741
3.09725e-06;0.0032753009651034564
3.09750e-06;0.003310561906060112
3.09775e-06;0.0033458228470168274
3.09800e-06;0.003372762852621509
3.09825e-06;0.0033969783078432905
3.09850e-06;0.003421193763065031
3.09875e-06;0.0034454092182868126
3.09900e-06;0.0034696246735085945
3.09925e-06;0.003493840128730335
3.09950e-06;0.0035180555839521167
3.09975e-06;0.003542271039173898
3.10000e-06;0.0035598976859798942
3.10025e-06;0.0035581047126289856
3.10050e-06;0.003556311739278074
3.10075e-06;0.0035545187659271624
3.10100e-06;0.003552725792576254
3.10125e-06;0.003550932819225342
3.10150e-06;0.0035491398458744306
3.10175e-06;0.003547346872523522
3.10200e-06;0.0035455538991726104
3.10225e-06;0.003543760925821699
3.10250e-06;0.003541967952470787
3.10275e-06;0.0035200174581042527
3.10300e-06;0.0034914667223850987
3.10325e-06;0.0034629159866659447
3.10350e-06;0.003434365250946839
3.10375e-06;0.003405814515227685
3.10400e-06;0.0033772637795085308
3.10425e-06;0.0033487130437893768
3.10450e-06;0.003320162308070271
3.10475e-06;0.003291611572351117
3.10500e-06;0.003263060836631963
3.10525e-06;0.003231706494275325
3.10550e-06;0.003192088901185581
3.10575e-06;0.003152471308095837
3.10600e-06;0.0031128537150061602
3.10625e-06;0.0030732361219164162
3.10650e-06;0.003033618528826672
3.10675e-06;0.002994000935736928
3.10700e-06;0.0029543833426472514
3.10725e-06;0.002918160751986136
3.10750e-06;0.002883049797790879
3.10775e-06;0.0028479388435956815
3.10800e-06;0.0028128278894004244
3.10825e-06;0.002777716935205167
3.10850e-06;0.0027426059810099104
3.10875e-06;0.0027074950268147126
3.10900e-06;0.0026762462491247948
3.10925e-06;0.0026563807134392463
3.10950e-06;0.0026365151777537317
3.10975e-06;0.0026166496420681837
3.11000e-06;0.0025967841063826358
3.11025e-06;0.002576918570697121
3.11050e-06;0.0025570530350115727
3.11075e-06;0.0025371874993260247
3.11100e-06;0.0025173219636404768
3.11125e-06;0.002497456427954962
3.11150e-06;0.002477590892269414
3.11175e-06;0.0024577253565838657
3.11200e-06;0.0024468152740896223
3.11225e-06;0.0024388375041770366
3.11250e-06;0.002430859734264451
3.11275e-06;0.0024228819643518653
3.11300e-06;0.0024149041944392935
3.11325e-06;0.002406926424526708
3.11350e-06;0.002398948654614122
3.11375e-06;0.0023909708847015504
3.11400e-06;0.0023829931147889647
3.11425e-06;0.002375015344876379
3.11450e-06;0.0023670375749638073
3.11475e-06;0.0023605641223690492
3.11500e-06;0.0023585244412649524
3.11525e-06;0.0023564847601608555
3.11550e-06;0.002354445079056762
3.11575e-06;0.0023524053979526657
3.11600e-06;0.002350365716848569
3.11625e-06;0.0023483260357444755
3.11650e-06;0.0023462863546403786
3.11675e-06;0.002344246673536282
3.11700e-06;0.002342206992432185
3.11725e-06;0.0023401673113280915
3.11750e-06;0.002338891658386108
3.11775e-06;0.0023398678749421047
3.11800e-06;0.0023408440914981
3.11825e-06;0.0023418203080540962
3.11850e-06;0.002342796524610093
3.11875e-06;0.002343772741166088
3.11900e-06;0.0023447489577220846
3.11925e-06;0.0023457251742780814
3.11950e-06;0.002346701390834078
3.11975e-06;0.002347677607390073
3.12000e-06;0.00234865382394607
3.12025e-06;0.002353426179748805
3.12050e-06;0.0023693871416838454
3.12075e-06;0.0023853481036189127
3.12100e-06;0.00240130906555398
3.12125e-06;0.0024172700274890475
3.12150e-06;0.0024332309894240876
3.12175e-06;0.002449191951359155
3.12200e-06;0.0024651529132942223
3.12225e-06;0.0024811138752292624
3.12250e-06;0.0024970748371643298
3.12275e-06;0.002513035799099397
3.12300e-06;0.0025420637967438773
3.12325e-06;0.002575370375538995
3.12350e-06;0.002608676954334113
3.12375e-06;0.0026419835331292305
3.12400e-06;0.002675290111924292
3.12425e-06;0.00270859669071941
3.12450e-06;0.002741903269514528
3.12475e-06;0.002775209848309589
3.12500e-06;0.002808516427104707
3.12525e-06;0.0028418230058998247
3.12550e-06;0.002876520796766221
3.12575e-06;0.002915318996732705
3.12600e-06;0.002954117196699255
3.12625e-06;0.002992915396665805
3.12650e-06;0.0030317135966322893
3.12675e-06;0.003070511796598839
3.12700e-06;0.003109309996565389
3.12725e-06;0.003148108196531873
3.12750e-06;0.0031847767561372577
3.12775e-06;0.0032151684892993628
3.12800e-06;0.003245560222461468
3.12825e-06;0.0032759519556235213
3.12850e-06;0.0033063436887856264
3.12875e-06;0.0033367354219477315
3.12900e-06;0.0033671271551097854
3.12925e-06;0.0033975188882718905
3.12950e-06;0.003423405144510088
3.12975e-06;0.00343601211791172
3.13000e-06;0.003448619091313331
3.13025e-06;0.0034612260647149634
3.13050e-06;0.0034738330381165953
3.13075e-06;0.0034864400115182065
3.13100e-06;0.003499046984919839
3.13125e-06;0.0035116539583214712
3.13150e-06;0.003524260931723082
3.13175e-06;0.0035368679051247143
3.13200e-06;0.0035494748785263467
3.13225e-06;0.003562081851927979
3.13250e-06;0.0035746888253295897
3.13275e-06;0.0035834306796636655
3.13300e-06;0.003580780619187646
3.13325e-06;0.003578130558711631
3.13350e-06;0.0035754804982356114
3.13375e-06;0.003572830437759592
3.13400e-06;0.0035701803772835725
3.13425e-06;0.0035675303168075574
3.13450e-06;0.003564880256331538
3.13475e-06;0.003562230195855518
3.13500e-06;0.0035595801353795033
3.13525e-06;0.003556930074903484
3.13550e-06;0.003554280014427464
3.13575e-06;0.0035516299539514492
3.13600e-06;0.0035478176856012455
3.13625e-06;0.0035405799669963015
3.13650e-06;0.0035333422483913575
3.13675e-06;0.0035261045297864256
3.13700e-06;0.0035188668111814816
3.13725e-06;0.0035116290925765376
3.13750e-06;0.0035043913739716058
3.13775e-06;0.003497153655366662
3.13800e-06;0.0034899159367617174
3.13825e-06;0.0034817763157626576
3.13850e-06;0.0034733413819880614
3.13875e-06;0.0034649064482134505
3.13900e-06;0.00345647151443884
3.13925e-06;0.0034480365806642435
3.13950e-06;0.003439601646889633
3.13975e-06;0.003431166713115022
3.14000e-06;0.003422731779340426
3.14025e-06;0.003409528697538643
3.14050e-06;0.003382272145408659
3.14075e-06;0.003355015593278675
3.14100e-06;0.0033277590411487376
3.14125e-06;0.0033005024890187537
3.14150e-06;0.00327324593688877
3.14175e-06;0.003245989384758832
3.14200e-06;0.003218732832628848
3.14225e-06;0.003191476280498864
3.14250e-06;0.00316421972836888
3.14275e-06;0.0031309240705051965
3.14300e-06;0.003079828966660196
3.14325e-06;0.003028733862815196
3.14350e-06;0.0029776387589702824
3.14375e-06;0.002926543655125282
3.14400e-06;0.002875448551280282
3.14425e-06;0.002824353447435368
3.14450e-06;0.0027732583435903678
3.14475e-06;0.0027221632397453673
3.14500e-06;0.0026710681359003673
3.14525e-06;0.0026176337022435856
3.14550e-06;0.0025573044108949295
3.14575e-06;0.0024969751195462733
3.14600e-06;0.0024366458281977195
3.14625e-06;0.0023763165368490637
3.14650e-06;0.0023159872455004076
3.14675e-06;0.0022567155733906855
3.14700e-06;0.0022005610907032676
3.14725e-06;0.0021444066080157547
3.14750e-06;0.002088252125328242
3.14775e-06;0.002032097642640824
3.14800e-06;0.001975943159953311
3.14825e-06;0.0019222967774855785
3.14850e-06;0.0018760426806224864
3.14875e-06;0.0018297885837593158
