Time(s);Current(A)
5.25000e-06;6.308681612686463e-05
5.25025e-06;7.423108650140034e-05
5.25050e-06;9.034134253092297e-05
5.25075e-06;0.00011162116150748484
5.25100e-06;0.00013795908072479154
5.25125e-06;0.00016910709411063274
5.25150e-06;0.00020481700386359728
5.25175e-06;0.0002448405864580149
5.25200e-06;0.00028894684678694167
5.25225e-06;0.0003370031803857046
5.25250e-06;0.0003889953909398899
5.25275e-06;0.0004448346603141343
5.25300e-06;0.00050423488446085
5.25325e-06;0.0005670884170236482
5.25350e-06;0.000633229374666219
5.25375e-06;0.0007004524006925944
5.25400e-06;0.0007717652836300853
5.25425e-06;0.0008430781665678178
5.25450e-06;0.0009152229689732084
5.25475e-06;0.000990512148975644
5.25500e-06;0.0010658013289783345
5.25525e-06;0.0011410905089807698
5.25550e-06;0.0011989235534907532
5.25575e-06;0.0012755941252499906
5.25600e-06;0.001351379030541705
5.25625e-06;0.0014253043159632413
5.25650e-06;0.0015031209027309665
5.25675e-06;0.00157081015578981
5.25700e-06;0.001637538093030355
5.25725e-06;0.0017023832875959655
5.25750e-06;0.0017638998322485457
5.25775e-06;0.0018197927183294467
5.25800e-06;0.0018691889818296505
5.25825e-06;0.0019099212870620308
5.25850e-06;0.001966696217621747
5.25875e-06;0.002005302720358355
5.25900e-06;0.002043909223094963
5.25925e-06;0.0020820405564983087
5.25950e-06;0.00211308200357153
5.25975e-06;0.002144123450644751
5.26000e-06;0.002174620048256914
5.26025e-06;0.002196987079259952
5.26050e-06;0.002219354110263066
5.26075e-06;0.0022408566670017722
5.26100e-06;0.002249460612997143
5.26125e-06;0.0022580645589925425
5.26150e-06;0.002266668504987913
5.26175e-06;0.0022752724509832838
5.26200e-06;0.0022838763969786832
5.26225e-06;0.002292480342974054
5.26250e-06;0.0023010842889694245
5.26275e-06;0.0023096882349648244
5.26300e-06;0.002317418439735959
5.26325e-06;0.0023121117637057995
5.26350e-06;0.0023068050876756227
5.26375e-06;0.0023014984116454637
5.26400e-06;0.0022961917356153047
5.26425e-06;0.002290885059585128
5.26450e-06;0.002285578383554969
5.26475e-06;0.0022802717075247917
5.26500e-06;0.0022749650314946327
5.26525e-06;0.0022693936272014255
5.26550e-06;0.0022598722767298834
5.26575e-06;0.0022503509262583737
5.26600e-06;0.002240829575786864
5.26625e-06;0.002231308225315322
5.26650e-06;0.002221786874843812
5.26675e-06;0.0022122655243723022
5.26700e-06;0.00220274417390076
5.26725e-06;0.0021932228234292504
5.26750e-06;0.002183715146720048
5.26775e-06;0.002174411492900323
5.26800e-06;0.00216510783908063
5.26825e-06;0.0021558041852609362
5.26850e-06;0.0021465005314412113
5.26875e-06;0.002137196877621518
5.26900e-06;0.002127893223801793
5.26925e-06;0.0021185895699820994
5.26950e-06;0.002109285916162406
5.26975e-06;0.0020995490806632496
5.27000e-06;0.0020833488464367246
5.27025e-06;0.002067148612210199
5.27050e-06;0.0020509483779836196
5.27075e-06;0.002034748143757094
5.27100e-06;0.0020185479095305692
5.27125e-06;0.002002347675303989
5.27150e-06;0.0019861474410774642
5.27175e-06;0.0019699472068509393
5.27200e-06;0.0019537469726243592
5.27225e-06;0.0019375467383978343
5.27250e-06;0.0019171590941869118
5.27275e-06;0.0018935186902193
5.27300e-06;0.001869878286251768
5.27325e-06;0.001846237882284156
5.27350e-06;0.001822597478316624
5.27375e-06;0.001798957074349092
5.27400e-06;0.00177531667038148
5.27425e-06;0.0017516762664139482
5.27450e-06;0.0017280358624464163
5.27475e-06;0.0017043954584788042
5.27500e-06;0.0016807417721242776
5.27525e-06;0.0016568899024964495
5.27550e-06;0.0016330380328685409
5.27575e-06;0.0016091861632407127
5.27600e-06;0.0015853342936128847
5.27625e-06;0.001561482423984976
5.27650e-06;0.001537630554357148
5.27675e-06;0.00151377868472932
5.27700e-06;0.0014931308834602215
5.27725e-06;0.0014749719869444507
5.27750e-06;0.001456813090428618
5.27775e-06;0.0014386541939128473
5.27800e-06;0.0014204952973970765
5.27825e-06;0.0014023364008812441
5.27850e-06;0.001384177504365473
5.27875e-06;0.0013657448710712777
5.27900e-06;0.0013432278777310966
5.27925e-06;0.0013207108843909918
5.27950e-06;0.001298193891050887
5.27975e-06;0.0012756768977107058
5.28000e-06;0.001253159904370601
5.28025e-06;0.0012306429110304962
5.28050e-06;0.001208125917690315
5.28075e-06;0.0011856089243502102
5.28100e-06;0.0011630919310101054
5.28125e-06;0.0011398722017103911
5.28150e-06;0.0011061671196868747
5.28175e-06;0.0010724620376632442
5.28200e-06;0.001038756955639728
5.28225e-06;0.0010050518736162116
5.28250e-06;0.0009713467915925812
5.28275e-06;0.0009376417095690649
5.28300e-06;0.0009039366275455486
5.28325e-06;0.0008702315455219181
5.28350e-06;0.0008365264634984017
5.28375e-06;0.0008024959321602975
5.28400e-06;0.0007636094505745784
5.28425e-06;0.0007247229689889911
5.28450e-06;0.0006858364874034038
5.28475e-06;0.0006469500058176846
5.28500e-06;0.0006081183825324901
5.28525e-06;0.0005693293729088321
5.28550e-06;0.0005305403632850427
5.28575e-06;0.0004917513536613846
5.28600e-06;0.0004531118079890903
5.28625e-06;0.000416702377666853
5.28650e-06;0.0003804269072564153
5.28675e-06;0.00034615022018184654
5.28700e-06;0.00031200499682635855
5.28725e-06;0.0002799296305845781
5.28750e-06;0.0002495942753777896
5.28775e-06;0.00022124541067717745
5.28800e-06;0.00019510544539234916
5.28825e-06;0.00017104011604366102
5.28850e-06;0.0001483737259867667
5.28875e-06;0.0001265321940409798
5.28900e-06;0.00010546256895761967
5.28925e-06;8.532134869349955e-05
5.28950e-06;6.626319267556215e-05
5.28975e-06;4.844289729090084e-05
5.29000e-06;3.2000247711370335e-05
5.29025e-06;1.6851535600809484e-05
5.29050e-06;2.5739700390206275e-06
5.29075e-06;-1.1191568245365562e-05
5.29100e-06;-2.447774008950578e-05
5.29125e-06;-3.71860230477976e-05
5.29150e-06;-4.9219050658181796e-05
5.29175e-06;-6.0479367488911895e-05
5.29200e-06;-7.087894977420142e-05
5.29225e-06;-8.04697475524777e-05
5.29250e-06;-8.951611891637732e-05
5.29275e-06;-9.824249976736314e-05
5.29300e-06;-0.00010665565530478122
5.29325e-06;-0.00011453612494342936
5.29350e-06;-0.000122356127943655
5.29375e-06;-0.00012927392290630144
5.29400e-06;-0.0001361309681123982
5.29425e-06;-0.00014208158094332766
5.29450e-06;-0.00014800229567247833
5.29475e-06;-0.0001534769080803303
5.29500e-06;-0.00015891354883406248
5.29525e-06;-0.0001637836237516413
5.29550e-06;-0.0001686536986692036
5.29575e-06;-0.00017346492065340086
5.29600e-06;-0.00017739801230133717
5.29625e-06;-0.00018133110394926016
5.29650e-06;-0.0001852351863813351
5.29675e-06;-0.00018870642934375195
5.29700e-06;-0.00019216415027139495
5.29725e-06;-0.000195408996783882
5.29750e-06;-0.0001984753062522478
5.29775e-06;-0.00020133769101340348
5.29800e-06;-0.00020392524177773041
5.29825e-06;-0.00020550764045121602
5.29850e-06;-0.00020443103471676674
5.29875e-06;-0.00019940620483145454
5.29900e-06;-0.0001902317841678738
5.29925e-06;-0.00017712030443436976
5.29950e-06;-0.0001602845227852773
5.29975e-06;-0.00013993686920540688
5.30000e-06;-0.00011626129056338474
5.30025e-06;-8.902872958630153e-05
5.30050e-06;-5.7431621064383874e-05
5.30075e-06;-2.0890928243127113e-05
5.30100e-06;2.0490955125272413e-05
5.30125e-06;6.635235752220854e-05
5.30150e-06;0.00011633151335339328
5.30175e-06;0.00017006685781961452
5.30200e-06;0.00022721469640464605
5.30225e-06;0.00028769008461557855
5.30250e-06;0.0003517703700758706
5.30275e-06;0.00041958976616955466
5.30300e-06;0.0004909361636451134
5.30325e-06;0.0005663148225935796
5.30350e-06;0.0006419585861796265
5.30375e-06;0.0007215579117250284
5.30400e-06;0.000801406799885367
5.30425e-06;0.0008849793512606219
5.30450e-06;0.00096855190263616
5.30475e-06;0.001052124454011415
5.30500e-06;0.001135750075305747
5.30525e-06;0.0012201675399832774
5.30550e-06;0.0013045850046605218
5.30575e-06;0.0013890024693377662
5.30600e-06;0.0014730983068945178
5.30625e-06;0.001552395224238651
5.30650e-06;0.001631692141582784
5.30675e-06;0.0017104639230808168
5.30700e-06;0.0017814002800624123
5.30725e-06;0.0018523366370442479
5.30750e-06;0.001922613124091179
5.30775e-06;0.001983043851990254
5.30800e-06;0.002042723566163507
5.30825e-06;0.0020911975867985953
5.30850e-06;0.0021396716074336833
5.30875e-06;0.0021873586433295393
5.30900e-06;0.0022233032709274674
5.30925e-06;0.0022592478985253954
5.30950e-06;0.0022943192480003494
5.30975e-06;0.0023163606265431303
5.31000e-06;0.002338402005085911
5.31025e-06;0.002359618633956327
5.31050e-06;0.002368529373129819
5.31075e-06;0.0023774401123033105
5.31100e-06;0.0023856331471332334
5.31125e-06;0.002383117489638768
5.31150e-06;0.002380601832144294
5.31175e-06;0.0023773863266311475
5.31200e-06;0.002363728558684626
5.31225e-06;0.0023500707907380585
5.31250e-06;0.0023356007773087206
5.31275e-06;0.0023090114461632436
5.31300e-06;0.0022824221150176765
5.31325e-06;0.0022558327838722
5.31350e-06;0.002229243452726723
5.31375e-06;0.002202654121581156
5.31400e-06;0.002176064790435679
5.31425e-06;0.0021437094014808843
5.31450e-06;0.002106874966802994
5.31475e-06;0.0020700405321252284
5.31500e-06;0.002033206097447463
5.31525e-06;0.0019963716627695726
5.31550e-06;0.001959537228091807
5.31575e-06;0.0019227642842838703
5.31600e-06;0.0018869088308224617
5.31625e-06;0.001851053377361053
5.31650e-06;0.001815197923899523
5.31675e-06;0.0017793424704381144
5.31700e-06;0.0017434870169767058
5.31725e-06;0.0017076315635151755
5.31750e-06;0.0016725718843730785
5.31775e-06;0.001649385760709253
5.31800e-06;0.0016261996370453488
5.31825e-06;0.0016030135133815232
5.31850e-06;0.0015798273897176976
5.31875e-06;0.0015566412660537932
5.31900e-06;0.0015334551423899676
5.31925e-06;0.0015109886628850413
5.31950e-06;0.001499259819210938
5.31975e-06;0.0014875309755368743
5.32000e-06;0.0014762525470574485
5.32025e-06;0.0014716946543772804
5.32050e-06;0.0014671367616971122
5.32075e-06;0.0014629741333700963
5.32100e-06;0.0014647091485214976
5.32125e-06;0.0014664441636728991
5.32150e-06;0.0014685557995752978
5.32175e-06;0.0014762869022927174
5.32200e-06;0.0014840180050101368
5.32225e-06;0.001492260419181458
5.32250e-06;0.0015081319874539728
5.32275e-06;0.0015240035557264875
5.32300e-06;0.001539875123999056
5.32325e-06;0.0015557466922715708
5.32350e-06;0.0015716182605440855
5.32375e-06;0.001587489828816654
5.32400e-06;0.0016033613970891688
5.32425e-06;0.0016226596875873781
5.32450e-06;0.0016446198392796047
5.32475e-06;0.0016665799909718311
5.32500e-06;0.0016885401426641321
5.32525e-06;0.0017105002943563587
5.32550e-06;0.0017324604460485851
5.32575e-06;0.0017544205977408861
5.32600e-06;0.0017763335488728581
5.32625e-06;0.0017975422319016752
5.32650e-06;0.0018187509149305643
5.32675e-06;0.0018399595979593816
5.32700e-06;0.0018611682809881987
5.32725e-06;0.0018819929316479984
5.32750e-06;0.0018970875285405937
5.32775e-06;0.0019121821254331891
5.32800e-06;0.0019272767223258355
5.32825e-06;0.0019423713192184308
5.32850e-06;0.0019566810012027567
5.32875e-06;0.0019592791583552902
5.32900e-06;0.001961247104962007
5.32925e-06;0.0019538118329798784
5.32950e-06;0.0019457881066123675
5.32975e-06;0.0019289841951909195
5.33000e-06;0.001911571848872914
5.33025e-06;0.0018850811931452295
5.33050e-06;0.0018578614955496063
5.33075e-06;0.0018197639411973428
5.33100e-06;0.001780978194428302
5.33125e-06;0.0017319240956471037
5.33150e-06;0.001682274084064396
5.33175e-06;0.0016237326022155898
5.33200e-06;0.0015646488057890814
5.33225e-06;0.001497473265181431
5.33250e-06;0.0014297459846060619
5.33275e-06;0.0013537863258899305
5.33300e-06;0.001277366629160071
5.33325e-06;0.0011940828168867774
5.33350e-06;0.0011104017233187647
5.33375e-06;0.0010207928919876309
5.33400e-06;0.000931184060656497
5.33425e-06;0.000841264724017799
5.33450e-06;0.0007467124130580527
5.33475e-06;0.0006521601020983062
5.33500e-06;0.0005575306635625122
5.33525e-06;0.0004617504231906889
5.33550e-06;0.0003659701828188656
5.33575e-06;0.00027030475634962737
5.33600e-06;0.00017646421229649322
5.33625e-06;8.442523051423218e-05
5.33650e-06;-5.457733953603227e-06
5.33675e-06;-9.277349292420892e-05
5.33700e-06;-0.00017695820243847154
5.33725e-06;-0.00025739086034321814
5.33750e-06;-0.00033345057191792166
5.33775e-06;-0.00040451702873681996
5.33800e-06;-0.0004700316283765227
5.33825e-06;-0.0005303396107032837
5.33850e-06;-0.0005871533376556888
5.33875e-06;-0.0006419237090207224
5.33900e-06;-0.0006947033891680839
5.33925e-06;-0.0007441019899905658
5.33950e-06;-0.0007931165408942253
5.33975e-06;-0.0008364007761835457
5.34000e-06;-0.0008793006526150529
5.34025e-06;-0.0009164656038240318
5.34050e-06;-0.0009534462115107766
5.34075e-06;-0.0009876762742489535
5.34100e-06;-0.0010216737684691092
5.34125e-06;-0.0010522011642863532
5.34150e-06;-0.001082728560103494
5.34175e-06;-0.0011127246601769798
5.34200e-06;-0.0011347934254242952
5.34225e-06;-0.0011568621906715359
5.34250e-06;-0.0011789309559187766
5.34275e-06;-0.001200999721166092
5.34300e-06;-0.0012230684864133327
5.34325e-06;-0.0012451372516605733
5.34350e-06;-0.0012672060169078888
5.34375e-06;-0.0012887986180585658
5.34400e-06;-0.0013032864903080126
5.34425e-06;-0.0013177743625575084
5.34450e-06;-0.0013322622348069552
5.34475e-06;-0.001346750107056402
5.34500e-06;-0.0013612379793058978
5.34525e-06;-0.0013757258515553446
5.34550e-06;-0.0013902137238048407
5.34575e-06;-0.0014043922596932718
5.34600e-06;-0.0014139552628277864
5.34625e-06;-0.0014235182659623335
5.34650e-06;-0.001433081269096848
5.34675e-06;-0.0014426442722313628
5.34700e-06;-0.0014522072753659096
5.34725e-06;-0.0014617702785004244
5.34750e-06;-0.0014710015743352994
5.34775e-06;-0.001475283546071992
5.34800e-06;-0.00147956551780867
5.34825e-06;-0.0014838474895453482
5.34850e-06;-0.0014881294612820407
5.34875e-06;-0.0014924114330187187
5.34900e-06;-0.0014966934047553968
5.34925e-06;-0.0015002026230948287
5.34950e-06;-0.0014921817755764177
5.34975e-06;-0.0014841609280579796
5.35000e-06;-0.0014761400805395686
5.35025e-06;-0.0014681192330211579
5.35050e-06;-0.0014600983855027195
5.35075e-06;-0.0014520775379843088
5.35100e-06;-0.0014440566904658978
5.35125e-06;-0.0014360358429474597
5.35150e-06;-0.0014271657020411225
5.35175e-06;-0.0014056234606581925
5.35200e-06;-0.0013840812192751895
5.35225e-06;-0.0013625389778922595
5.35250e-06;-0.0013409967365093296
5.35275e-06;-0.0013194544951263265
5.35300e-06;-0.0012979122537433965
5.35325e-06;-0.0012763700123604666
5.35350e-06;-0.0012548277709774635
5.35375e-06;-0.0012328760828757732
5.35400e-06;-0.0012048151396769774
5.35425e-06;-0.0011767541964782767
5.35450e-06;-0.001148693253279576
5.35475e-06;-0.0011206323100807802
5.35500e-06;-0.0010925713668820795
5.35525e-06;-0.0010645214102224187
5.35550e-06;-0.0010366353810446684
5.35575e-06;-0.0010087493518670127
5.35600e-06;-0.000980863322689357
5.35625e-06;-0.0009529772935116067
5.35650e-06;-0.0009250912643339508
5.35675e-06;-0.0008974286208046289
5.35700e-06;-0.0008730990603061498
5.35725e-06;-0.0008487694998077533
5.35750e-06;-0.0008247068847874279
5.35775e-06;-0.0008046272984428992
5.35800e-06;-0.0007845477120984386
5.35825e-06;-0.0007644553769813165
5.35850e-06;-0.0007441728205232507
5.35875e-06;-0.0007238902640651847
5.35900e-06;-0.0007033715512495568
5.35925e-06;-0.0006793292067526609
5.35950e-06;-0.0006552868622557651
5.35975e-06;-0.0006311266723508564
5.36000e-06;-0.0006052081397222904
5.36025e-06;-0.0005791041594331781
5.36050e-06;-0.0005502331596200005
5.36075e-06;-0.0005211027659748331
5.36100e-06;-0.00048810201993143413
5.36125e-06;-0.0004549005803478831
5.36150e-06;-0.00041870464117396114
5.36175e-06;-0.00038236699392678406
5.36200e-06;-0.0003439149549195563
5.36225e-06;-0.0003053419561284095
5.36250e-06;-0.00026485865396634037
5.36275e-06;-0.00022270368024312847
5.36300e-06;-0.00017901186272856903
5.36325e-06;-0.00013406791010096042
5.36350e-06;-8.815653283089315e-05
5.36375e-06;-4.156227954803464e-05
5.36400e-06;5.440930018157888e-06
5.36425e-06;5.274766904759819e-05
5.36450e-06;0.00010062949464182967
5.36475e-06;0.00014853169132110695
5.36500e-06;0.00019673778209301055
5.36525e-06;0.00024494387286491415
5.36550e-06;0.00029306483045097925
5.36575e-06;0.0003399155364359591
5.36600e-06;0.0003866278869786889
5.36625e-06;0.0004312758695557022
5.36650e-06;0.0004757588648443592
5.36675e-06;0.0005177801248592368
5.36700e-06;0.0005595728310429309
5.36725e-06;0.0005979553409990671
5.36750e-06;0.000636032898632886
5.36775e-06;0.0006695603366960605
5.36800e-06;0.0007028033531888804
5.36825e-06;0.0007315675164163861
5.36850e-06;0.000756563449989777
5.36875e-06;0.0007773998448415841
5.36900e-06;0.0007939744732386254
5.36925e-06;0.000806282151042894
5.36950e-06;0.0008143176505332232
5.36975e-06;0.0008180758528018194
5.37000e-06;0.0008175459288239118
5.37025e-06;0.0008126381184277117
5.37050e-06;0.0008031807203945768
5.37075e-06;0.0007891139414376566
5.37100e-06;0.0007705590301143837
5.37125e-06;0.0007476980599882344
5.37150e-06;0.0007207130973103118
5.37175e-06;0.0006897860809480836
5.37200e-06;0.0006550955985868951
5.37225e-06;0.0006167705945583631
5.37250e-06;0.0005748888405326961
5.37275e-06;0.0005295981570713572
5.37300e-06;0.00048115969096815855
5.37325e-06;0.0004298727659789505
5.37350e-06;0.00037603657496531364
5.37375e-06;0.000319950368851101
5.37400e-06;0.0002619111245296418
5.37425e-06;0.0002021848449071025
5.37450e-06;0.00014100533271964224
5.37475e-06;7.865030112108223e-05
5.37500e-06;1.5469693680955614e-05
5.37525e-06;-4.814072470850081e-05
5.37550e-06;-0.00011175114309774171
5.37575e-06;-0.00017528121565924042
5.37600e-06;-0.00023761252555075748
5.37625e-06;-0.0002998295964583571
5.37650e-06;-0.0003602367119790106
5.37675e-06;-0.0004189401369014972
5.37700e-06;-0.0004755365126578245
5.37725e-06;-0.0005296075899287412
5.37750e-06;-0.0005807351539829192
5.37775e-06;-0.0006285010991916789
5.37800e-06;-0.0006724883509431639
5.37825e-06;-0.0007123009216640177
5.37850e-06;-0.0007476369986430159
5.37875e-06;-0.0007783353687884189
5.37900e-06;-0.0008043132283016766
5.37925e-06;-0.0008254994437649044
5.37950e-06;-0.0008418228345211064
5.37975e-06;-0.000853212332672297
5.38000e-06;-0.0008595975683433913
5.38025e-06;-0.0008609213483886972
5.38050e-06;-0.0008571855163166572
5.38075e-06;-0.0008484799972511041
5.38100e-06;-0.0008349437644450148
5.38125e-06;-0.0008167231991974341
5.38150e-06;-0.000793964537432963
5.38175e-06;-0.0007668142658974978
5.38200e-06;-0.0007354189754459621
5.38225e-06;-0.00069993390960705
5.38250e-06;-0.0006605509421598991
5.38275e-06;-0.000617517280212575
5.38300e-06;-0.000571110826867169
5.38325e-06;-0.00052161411114132
5.38350e-06;-0.0004693095075386795
5.38375e-06;-0.0004144795232850446
5.38400e-06;-0.0003574068614972827
5.38425e-06;-0.0002983793660116686
5.38450e-06;-0.00023770805776770587
5.38475e-06;-0.00017573849330321088
5.38500e-06;-0.00011282845799087397
5.38525e-06;-4.926265819882708e-05
5.38550e-06;1.4300913235619634e-05
5.38575e-06;7.779905873187446e-05
5.38600e-06;0.00014076032764052086
5.38625e-06;0.0002028138509608145
5.38650e-06;0.0002635742747938318
5.38675e-06;0.0003226346436070332
5.38700e-06;0.0003795759935432679
5.38725e-06;0.0004339776287334843
5.38750e-06;0.00048541886062076654
5.38775e-06;0.0005334790805021544
5.38800e-06;0.0005777359636324313
5.38825e-06;0.0006177500902662957
5.38850e-06;0.0006531221230398108
5.38875e-06;0.0006836153122313899
5.38900e-06;0.0007091348457835844
5.38925e-06;0.0007296216648571886
5.38950e-06;0.0007450170269541182
5.38975e-06;0.000755262018609267
5.39000e-06;0.0007602968056033828
5.39025e-06;0.0007600507082733884
5.39050e-06;0.0007544783492006502
5.39075e-06;0.0007436361023727823
5.39100e-06;0.0007276691488847998
5.39125e-06;0.0007067453995581306
5.39150e-06;0.0006810325107365834
5.39175e-06;0.0006506983932413455
5.39200e-06;0.0006159101805961699
5.39225e-06;0.0005768282679218012
5.39250e-06;0.0005336288588299838
5.39275e-06;0.00048655189441135807
5.39300e-06;0.0004358930960101908
5.39325e-06;0.0003819620520396632
5.39350e-06;0.00032506851091106885
5.39375e-06;0.0002655221591719164
5.39400e-06;0.00020363225618768498
5.39425e-06;0.00013970381073592411
5.39450e-06;7.40517410048986e-05
5.39475e-06;7.030826792873844e-06
5.39500e-06;-6.0963784574656144e-05
5.39525e-06;-0.00012944426818041455
5.39550e-06;-0.00019792475178594097
