Time(s);Current(A)
2.50000e-07;0.0007362824361529461
2.50250e-07;0.0007301247730752583
2.50500e-07;0.0007239671099975692
2.50750e-07;0.0007178094469198813
2.51000e-07;0.0007108191253412825
2.51250e-07;0.0007034534503190778
2.51500e-07;0.0006960877752968746
2.51750e-07;0.0006870985784928034
2.52000e-07;0.0006773775156344884
2.52250e-07;0.0006676564527761754
2.52500e-07;0.0006579353899178603
2.52750e-07;0.0006482143270595452
2.53000e-07;0.0006384932642012321
2.53250e-07;0.000628772201342917
2.53500e-07;0.0006190511384846021
2.53750e-07;0.0006086594064078708
2.54000e-07;0.0005953950788787104
2.54250e-07;0.0005821307513495528
2.54500e-07;0.0005688664238203924
2.54750e-07;0.000555602096291232
2.55000e-07;0.0005423377687620743
2.55250e-07;0.0005290734412329139
2.55500e-07;0.0005158091137037535
2.55750e-07;0.000502544786174596
2.56000e-07;0.0004884796959288712
2.56250e-07;0.0004740536305140377
2.56500e-07;0.00045962756509920717
2.56750e-07;0.0004452014996843737
2.57000e-07;0.00043077543426954014
2.57250e-07;0.0004163493688547097
2.57500e-07;0.0004027946528372036
2.57750e-07;0.00038963273170081197
2.58000e-07;0.0003764708105644231
2.58250e-07;0.0003633088894280314
2.58500e-07;0.0003501469682916426
2.58750e-07;0.0003369850471552509
2.59000e-07;0.00032548878173768985
2.59250e-07;0.0003147433758973151
2.59500e-07;0.00030399797005693807
2.59750e-07;0.0002947421372383365
2.60000e-07;0.000286157787822142
2.60250e-07;0.00027911751966298273
2.60500e-07;0.0002727733066289564
2.60750e-07;0.0002680694059767494
2.61000e-07;0.0002641049403995936
2.61250e-07;0.00026179911264359145
2.61500e-07;0.00026024098087242946
2.61750e-07;0.00026037623203564183
2.62000e-07;0.00026127484190482383
2.62250e-07;0.00026391901256027925
2.62500e-07;0.00026735006313282397
2.62750e-07;0.00027244785604484746
2.63000e-07;0.0002782969983708895
2.63250e-07;0.0002856852970548372
2.63500e-07;0.0002937674307726704
2.63750e-07;0.00030327142600025577
2.64000e-07;0.0003134163810132031
2.64250e-07;0.0003248768157025197
2.64500e-07;0.0003369302543976673
2.64750e-07;0.00035034693726952097
2.65000e-07;0.0003643781558671834
2.65250e-07;0.00037840937446484885
2.65500e-07;0.0003939598382748092
2.65750e-07;0.0004101951613896344
2.66000e-07;0.000426430484504463
2.66250e-07;0.0004426658076192882
2.66500e-07;0.00045890113073411684
2.66750e-07;0.0004752540110796685
2.67000e-07;0.0004921104099364403
2.67250e-07;0.0005089668087932156
2.67500e-07;0.0005258232076499909
2.67750e-07;0.0005426796065067627
2.68000e-07;0.000559536005363538
2.68250e-07;0.0005753881102058728
2.68500e-07;0.0005907874901720292
2.68750e-07;0.0006061868701381888
2.69000e-07;0.0006200291929250278
2.69250e-07;0.0006331696111813476
2.69500e-07;0.0006463100294376701
2.69750e-07;0.000657362263714649
2.70000e-07;0.0006674731672459597
2.70250e-07;0.0006744197779487315
2.70500e-07;0.0006799399596791205
2.70750e-07;0.0006819150164623844
2.71000e-07;0.00068229196927446
2.71250e-07;0.0006792740516994701
2.71500e-07;0.0006747257632833523
2.71750e-07;0.0006667658738656031
2.72000e-07;0.0006572680716266927
2.72250e-07;0.0006468445663373312
2.72500e-07;0.0006412930314405312
2.72750e-07;0.0006227505048186756
2.73000e-07;0.000604499997603687
2.73250e-07;0.000579984199435843
2.73500e-07;0.0005437590161212929
2.73750e-07;0.0005132329795585128
2.74000e-07;0.00048265445801254294
2.74250e-07;0.0004510206894676957
2.74500e-07;0.00041649664799936866
2.74750e-07;0.0003802443638759431
2.75000e-07;0.0003418726064178759
2.75250e-07;0.00030089254511572717
2.75500e-07;0.0002583367896613613
2.75750e-07;0.00021562868063250532
2.76000e-07;0.00017252282489286364
2.76250e-07;0.00012852751472399186
2.76500e-07;8.394666499950579e-05
2.76750e-07;3.910405667952576e-05
2.77000e-07;-6.119090229329666e-06
2.77250e-07;-5.190267240373044e-05
2.77500e-07;-9.747355728830943e-05
2.77750e-07;-0.0001418139687479586
2.78000e-07;-0.00018495144604503049
2.78250e-07;-0.0002270678220691424
2.78500e-07;-0.0002678465065768764
2.78750e-07;-0.0003069585129155514
2.79000e-07;-0.000344352145214192
2.79250e-07;-0.0003800139164236069
2.79500e-07;-0.0004133365319472338
2.79750e-07;-0.000443485464668062
2.80000e-07;-0.00047121702041493023
2.80250e-07;-0.0004983757388037646
2.80500e-07;-0.0005242474142652898
2.80750e-07;-0.0005494560367969688
2.81000e-07;-0.0005731749213221686
2.81250e-07;-0.0005968938058473633
2.81500e-07;-0.0006193867410381262
2.81750e-07;-0.0006391252304896297
2.82000e-07;-0.0006588637199411375
2.82250e-07;-0.0006780718220272869
2.82500e-07;-0.0006960882572332195
2.82750e-07;-0.000714104692439156
2.83000e-07;-0.0007308241455653869
2.83250e-07;-0.0007446295575783392
2.83500e-07;-0.0007584349695912945
2.83750e-07;-0.0007722403816042497
2.84000e-07;-0.000786045793617202
2.84250e-07;-0.0007998512056301573
2.84500e-07;-0.0008136566176431125
2.84750e-07;-0.0008274620296560649
2.85000e-07;-0.0008412674416690201
2.85250e-07;-0.0008550728536819753
2.85500e-07;-0.0008688782656949277
2.85750e-07;-0.0008826836777078829
2.86000e-07;-0.0008964890897208351
2.86250e-07;-0.0009102945017337904
2.86500e-07;-0.0009240999137467456
2.86750e-07;-0.0009334589963257529
2.87000e-07;-0.0009417615042478062
2.87250e-07;-0.0009500640121698596
2.87500e-07;-0.0009583665200919112
2.87750e-07;-0.0009666690280139645
2.88000e-07;-0.0009749715359360178
2.88250e-07;-0.0009832740438580694
2.88500e-07;-0.0009915765517801228
2.88750e-07;-0.000999879059702176
2.89000e-07;-0.0010081815676242277
2.89250e-07;-0.001016484075546281
2.89500e-07;-0.0010247865834683326
2.89750e-07;-0.001033089091390386
2.90000e-07;-0.0010413915993124393
2.90250e-07;-0.0010493589031845057
2.90500e-07;-0.001056573075306885
2.90750e-07;-0.001063787247429264
2.91000e-07;-0.0010710014195516417
2.91250e-07;-0.0010782155916740207
2.91500e-07;-0.0010854297637964
2.91750e-07;-0.0010926439359187775
2.92000e-07;-0.0010998581080411567
2.92250e-07;-0.0011070722801635358
2.92500e-07;-0.0011142864522859135
2.92750e-07;-0.0011215006244082925
2.93000e-07;-0.0011287147965306718
2.93250e-07;-0.0011359289686530493
2.93500e-07;-0.0011431431407754285
2.93750e-07;-0.001150357312897806
2.94000e-07;-0.0011583078840794127
2.94250e-07;-0.0011679129863204519
2.94500e-07;-0.001177518088561489
2.94750e-07;-0.0011871231908025285
2.95000e-07;-0.0011967282930435677
2.95250e-07;-0.001206333395284605
2.95500e-07;-0.0012159384975256441
2.95750e-07;-0.0012255435997666835
2.96000e-07;-0.0012351487020077208
2.96250e-07;-0.00124475380424876
2.96500e-07;-0.0012543589064897994
2.96750e-07;-0.0012639640087308366
2.97000e-07;-0.0012735691109718758
2.97250e-07;-0.001283174213212915
2.97500e-07;-0.0012927793154539524
2.97750e-07;-0.001302086988670516
2.98000e-07;-0.001310726402533935
2.98250e-07;-0.0013193658163973558
2.98500e-07;-0.0013280052302607765
2.98750e-07;-0.0013366446441241955
2.99000e-07;-0.0013452840579876164
2.99250e-07;-0.0013508527695193734
2.99500e-07;-0.0013556917946185418
2.99750e-07;-0.001360530819717711
3.00000e-07;-0.0013653698448168803
3.00250e-07;-0.0013702088699160486
3.00500e-07;-0.0013722645627799574
3.00750e-07;-0.0013680667038850924
3.01000e-07;-0.0013638688449902282
3.01250e-07;-0.00135746749473215
3.01500e-07;-0.0013461153710395198
3.01750e-07;-0.0013347632473468874
3.02000e-07;-0.0013208762432724275
3.02250e-07;-0.001301293905572601
3.02500e-07;-0.0012817115678727706
3.02750e-07;-0.0012595427536431952
3.03000e-07;-0.0012315626802880627
3.03250e-07;-0.0012035826069329244
3.03500e-07;-0.0011734763707012652
3.03750e-07;-0.0011385931015924407
3.04000e-07;-0.0011037098324836088
3.04250e-07;-0.0010667887007856855
3.04500e-07;-0.0010252889280557213
3.04750e-07;-0.0009837891553257482
3.05000e-07;-0.000940800863010347
3.05250e-07;-0.0008944681858049532
3.05500e-07;-0.0008481355085995495
3.05750e-07;-0.0008008073705502667
3.06000e-07;-0.0007512426450637051
3.06250e-07;-0.0007016779195771434
3.06500e-07;-0.0006521131940905923
3.06750e-07;-0.0006023518860255146
3.07000e-07;-0.0005521488989851215
3.07250e-07;-0.0005019459119447391
3.07500e-07;-0.000451742924904346
3.07750e-07;-0.00040225081015626856
3.08000e-07;-0.00035435587328642645
3.08250e-07;-0.0003070524141827936
3.08500e-07;-0.00026158520378537735
3.08750e-07;-0.00021786577006018915
3.09000e-07;-0.000176220808043653
3.09250e-07;-0.00013697697895597024
3.09500e-07;-0.00010045935012726755
3.09750e-07;-6.694007778812897e-05
3.10000e-07;-3.649061643828919e-05
3.10250e-07;-8.978321042631572e-06
3.10500e-07;1.5689962406477183e-05
3.10750e-07;3.7462755919477426e-05
3.11000e-07;5.6238247822233234e-05
3.11250e-07;7.191465261794419e-05
3.11500e-07;8.439120688612524e-05
3.11750e-07;9.360030637566755e-05
3.12000e-07;9.960005033404521e-05
3.12250e-07;0.00010257640794691304
3.12500e-07;0.00010269058352085481
3.12750e-07;0.00010001317412574362
3.13000e-07;9.458326114208826e-05
3.13250e-07;8.643993724168798e-05
3.13500e-07;7.562293130201667e-05
3.13750e-07;6.219274672846436e-05
3.14000e-07;4.628863746464932e-05
3.14250e-07;2.812991520229722e-05
3.14500e-07;7.920385397272927e-06
3.14750e-07;-1.4192918291835946e-05
3.15000e-07;-3.8082716155877946e-05
3.15250e-07;-6.362172535036071e-05
3.15500e-07;-9.06822702917549e-05
3.15750e-07;-0.0001191236684992782
3.16000e-07;-0.00014887635936753233
3.16250e-07;-0.00017960948773685251
3.16500e-07;-0.0002107619548600969
3.16750e-07;-0.000242856586403746
3.17000e-07;-0.0002749512179473951
3.17250e-07;-0.0003070458494910374
3.17500e-07;-0.000338938836368606
3.17750e-07;-0.00037078390672377193
3.18000e-07;-0.0004026289770789446
3.18250e-07;-0.0004338538019854093
3.18500e-07;-0.00046368506813248753
3.18750e-07;-0.0004927098441780463
3.19000e-07;-0.000519922609595108
3.19250e-07;-0.0005460613531467919
3.19500e-07;-0.0005697869994619344
3.19750e-07;-0.0005920975792901304
3.20000e-07;-0.0006112288076178774
3.20250e-07;-0.0006285749311365454
3.20500e-07;-0.0006419103062518208
3.20750e-07;-0.0006533856384418549
3.21000e-07;-0.0006606818523220369
3.21250e-07;-0.0006661115961682124
3.21500e-07;-0.0006673477813668624
3.21750e-07;-0.0006666650308863066
3.22000e-07;-0.0006616708426837621
3.22250e-07;-0.0006546871012805895
3.22500e-07;-0.0006432332597005102
3.22750e-07;-0.0006299041276191672
3.23000e-07;-0.0006123616191883882
3.23250e-07;-0.0005931009841308136
3.23500e-07;-0.0005699800863087364
3.23750e-07;-0.0005452693799379441
3.24000e-07;-0.0005169867140575471
3.24250e-07;-0.0004872311690849311
3.24500e-07;-0.00045416638006261207
3.24750e-07;-0.00041986144589290463
3.25000e-07;-0.0003827701710307348
3.25250e-07;-0.0003446983094053123
3.25500e-07;-0.0003044232792179897
3.25750e-07;-0.0002634091337635335
3.26000e-07;-0.00022073435451185002
3.26250e-07;-0.00017755477158243793
3.26500e-07;-0.00013324100284262585
3.26750e-07;-8.872924195267775e-05
3.27000e-07;-4.377263508170447e-05
3.27250e-07;1.1301925122856599e-06
3.27500e-07;4.576858286532053e-05
3.27750e-07;8.986430723953831e-05
3.28000e-07;0.00013317377622009378
3.28250e-07;0.00017545704943952237
3.28500e-07;0.00021644995030336854
3.28750e-07;0.0002558637877891627
3.29000e-07;0.0002934034311858989
3.29250e-07;0.00032877381800261414
3.29500e-07;0.00036168004156792734
3.29750e-07;0.0003918391232437625
3.30000e-07;0.00041902498392865225
3.30250e-07;0.0004431083395972706
3.30500e-07;0.00046402546479851187
3.30750e-07;0.00048172275751194913
3.31000e-07;0.0004961427264963743
3.31250e-07;0.0005072279387182434
3.31500e-07;0.0005149211269183527
3.31750e-07;0.0005191724589804788
3.32000e-07;0.0005199677157403863
3.32250e-07;0.000517353399361829
3.32500e-07;0.0005114170394658047
3.32750e-07;0.0005022524344485429
3.33000e-07;0.0004899510688252149
3.33250e-07;0.00047460439579501395
3.33500e-07;0.00045630396040817294
3.33750e-07;0.0004351459687069894
3.34000e-07;0.00041124896372939475
3.34250e-07;0.0003847694919629337
3.34500e-07;0.0003558897901648243
3.34750e-07;0.00032479600131890156
3.35000e-07;0.00029167282729711984
3.35250e-07;0.00025670494977389187
3.35500e-07;0.00022007704046890283
3.35750e-07;0.00018197674461285988
3.36000e-07;0.00014260564963556457
3.36250e-07;0.00010218914769925725
3.36500e-07;6.096869665390888e-05
3.36750e-07;1.9188224787368847e-05
3.37000e-07;-2.2894846019089448e-05
3.37250e-07;-6.504847025474184e-05
3.37500e-07;-0.00010699363518027918
3.37750e-07;-0.00014847044256270262
3.38000e-07;-0.00018959527610129225
3.38250e-07;-0.00022958200730040443
3.38500e-07;-0.0002683548454342478
3.38750e-07;-0.0003056338466337801
3.39000e-07;-0.00034113970143810087
3.39250e-07;-0.0003745930914224423
3.39500e-07;-0.0004057177705639478
3.39750e-07;-0.0004341557030953664
3.40000e-07;-0.0004604674721291486
3.40250e-07;-0.00048619765953072426
3.40500e-07;-0.0005106211574925531
3.40750e-07;-0.0005342893252581701
3.41000e-07;-0.0005562604277516701
3.41250e-07;-0.0005782315302451747
3.41500e-07;-0.0005990107939917821
3.41750e-07;-0.0006171122511877557
3.42000e-07;-0.0006352137083837331
3.42250e-07;-0.0006527516895102981
3.42500e-07;-0.000669023660521208
3.42750e-07;-0.0006852956315321215
3.43000e-07;-0.000700310140590192
3.43250e-07;-0.0007124994018005429
3.43500e-07;-0.0007246886630108964
3.43750e-07;-0.0007368779242212499
3.44000e-07;-0.0007490671854316008
3.44250e-07;-0.0007612564466419543
3.44500e-07;-0.0007734457078523078
3.44750e-07;-0.0007856349690626587
3.45000e-07;-0.0007978242302730122
3.45250e-07;-0.0008100134914833631
3.45500e-07;-0.0008222027526937166
3.45750e-07;-0.0008343920139040699
3.46000e-07;-0.0008430521908198604
3.46250e-07;-0.0008508737566782323
3.46500e-07;-0.0008586953225366041
3.46750e-07;-0.0008665168883949743
3.47000e-07;-0.0008743384542533462
3.47250e-07;-0.0008821600201117182
3.47500e-07;-0.0008899815859700884
3.47750e-07;-0.0008978031518284603
3.48000e-07;-0.0009056247176868321
3.48250e-07;-0.0009134462835452023
3.48500e-07;-0.0009212678494035742
3.48750e-07;-0.0009279229828085839
3.49000e-07;-0.0009319573921662847
3.49250e-07;-0.0009359918015239854
3.49500e-07;-0.0009400262108816852
3.49750e-07;-0.0009440606202393859
3.50000e-07;-0.0009480950295970866
3.50250e-07;-0.0009521294389547865
3.50500e-07;-0.0009561638483124872
3.50750e-07;-0.0009579390549868729
3.51000e-07;-0.0009546383168151991
3.51250e-07;-0.0009513375786435246
3.51500e-07;-0.0009480368404718501
3.51750e-07;-0.0009447361023001763
3.52000e-07;-0.0009414353641285019
3.52250e-07;-0.0009381346259568274
3.52500e-07;-0.0009348338877851536
3.52750e-07;-0.0009290304959084554
3.53000e-07;-0.0009176041768507151
3.53250e-07;-0.0009061778577929724
3.53500e-07;-0.0008947515387352295
3.53750e-07;-0.0008833252196774892
3.54000e-07;-0.0008718989006197465
3.54250e-07;-0.0008604725815620038
3.54500e-07;-0.0008490462625042633
3.54750e-07;-0.0008332804058230782
3.55000e-07;-0.0008164833512640858
3.55250e-07;-0.000799686296705097
3.55500e-07;-0.0007828892421461045
3.55750e-07;-0.0007660921875871122
3.56000e-07;-0.0007492951330281233
3.56250e-07;-0.000732498078469131
3.56500e-07;-0.0007152707488482198
3.56750e-07;-0.0006970766832637292
3.57000e-07;-0.0006788826176792385
3.57250e-07;-0.0006606885520947516
3.57500e-07;-0.0006424944865102609
3.57750e-07;-0.0006243004209257702
3.58000e-07;-0.0006068753345532231
3.58250e-07;-0.0005911779798695706
3.58500e-07;-0.0005754806251859181
3.58750e-07;-0.0005597832705022688
3.59000e-07;-0.0005440859158186164
3.59250e-07;-0.0005283885611349639
3.59500e-07;-0.000513689389329605
3.59750e-07;-0.0005012329207902925
3.60000e-07;-0.0004887764522509801
3.60250e-07;-0.00047548565625135257
3.60500e-07;-0.0004603203050365339
3.60750e-07;-0.0004442131179527772
3.61000e-07;-0.00042598982727186954
3.61250e-07;-0.00040720806386587656
3.61500e-07;-0.00038670229458275196
3.61750e-07;-0.0003651422497399798
3.62000e-07;-0.00034285478078297454
3.62250e-07;-0.00031822911887158375
3.62500e-07;-0.00029133443532925097
3.62750e-07;-0.0002622803559095347
3.63000e-07;-0.00023130498801329772
3.63250e-07;-0.00019864643228965527
3.63500e-07;-0.00016454122303448474
3.63750e-07;-0.00012915508017487807
3.64000e-07;-9.240426130665586e-05
3.64250e-07;-5.402095558768372e-05
3.64500e-07;-1.3922252186464155e-05
3.64750e-07;2.770538057214172e-05
3.65000e-07;7.059502314248773e-05
3.65250e-07;0.00011447979726267943
3.65500e-07;0.00015915850220192228
3.65750e-07;0.00020436089092110263
3.66000e-07;0.0002499270422793554
3.66250e-07;0.00029631049042404245
3.66500e-07;0.00034269393856871974
3.66750e-07;0.0003890773867134068
3.67000e-07;0.0004350242068336468
3.67250e-07;0.00048086727168516373
3.67500e-07;0.0005267103365366904
3.67750e-07;0.0005715947040162952
3.68000e-07;0.000614325083710738
3.68250e-07;0.0006570554634051899
3.68500e-07;0.0006986784202880743
3.68750e-07;0.0007378132351576869
3.69000e-07;0.0007756625207074593
3.69250e-07;0.0008106234970436032
3.69500e-07;0.0008439533233727693
3.69750e-07;0.0008736183047845392
3.70000e-07;0.0009015489797490437
3.70250e-07;0.0009255830393555362
3.70500e-07;0.0009478918281153776
3.70750e-07;0.0009663243025776891
3.71000e-07;0.0009829384251648688
3.71250e-07;0.0009954671003075445
3.71500e-07;0.001006089048588581
3.71750e-07;0.0010124269897471446
3.72000e-07;0.0010169217042372317
3.72250e-07;0.0010172750829466374
3.72500e-07;0.0010159190479299045
3.72750e-07;0.0010107223261712115
3.73000e-07;0.0010038859835299642
3.73250e-07;0.0009933657637271067
3.73500e-07;0.0009809190486983204
3.73750e-07;0.0009641439112639174
3.74000e-07;0.0009473687738295142
3.74250e-07;0.0009286562769351204
3.74500e-07;0.0009055909480266571
3.74750e-07;0.0008825256191181938
3.75000e-07;0.000857937450879487
3.75250e-07;0.000829927788630051
3.75500e-07;0.0008019181263806151
3.75750e-07;0.0007726639874332485
3.76000e-07;0.0007406137757263254
3.76250e-07;0.000708563564019409
3.76500e-07;0.0006765133523124859
3.76750e-07;0.0006444631406055629
3.77000e-07;0.0006113942451410959
3.77250e-07;0.0005780832813688586
3.77500e-07;0.0005447723175966213
3.77750e-07;0.0005114613538243911
3.78000e-07;0.00047877551676551257
3.78250e-07;0.0004474942056229438
3.78500e-07;0.0004162128944803816
3.78750e-07;0.00038590850984613863
3.79000e-07;0.00035779906996462015
3.79250e-07;0.0003304819124197497
3.79500e-07;0.00030556113799122526
3.79750e-07;0.0002826738826188934
3.80000e-07;0.0002612444266633851
3.80250e-07;0.00023992189646367782
3.80500e-07;0.00021881139170759652
3.80750e-07;0.00019777001862957417
3.81000e-07;0.00017702639443877428
3.81250e-07;0.00015628277024797878
3.81500e-07;0.0001359377220419824
3.81750e-07;0.00011648818875850474
3.82000e-07;9.709989788852674e-05
3.82250e-07;7.769566987251696e-05
3.82500e-07;5.779414757465092e-05
3.82750e-07;3.744729471622461e-05
3.83000e-07;1.6815042157094592e-05
3.83250e-07;-3.942704155680772e-06
3.83500e-07;-2.466735788803488e-05
3.83750e-07;-4.529297007139468e-05
3.84000e-07;-6.591501119147216e-05
3.84250e-07;-8.676342357556031e-05
3.84500e-07;-0.00010812044373504513
3.84750e-07;-0.00012960690245878955
3.85000e-07;-0.0001513841819300696
3.85250e-07;-0.00017316146140134965
3.85500e-07;-0.0001949387408726251
3.85750e-07;-0.00021661510487600455
3.86000e-07;-0.0002380647334240027
3.86250e-07;-0.0002595143619719963
3.86500e-07;-0.00028096399051999444
3.86750e-07;-0.00030224072095300385
3.87000e-07;-0.00032312898633053087
3.87250e-07;-0.00034401725170806233
3.87500e-07;-0.0003644184163426377
3.87750e-07;-0.0003837251698718693
3.88000e-07;-0.000403031923401105
3.88250e-07;-0.0004217659590908805
3.88500e-07;-0.0004392132203858514
3.88750e-07;-0.00045666048168082235
3.89000e-07;-0.0004734377385496962
3.89250e-07;-0.0004887096388878169
3.89500e-07;-0.000503229294101719
3.89750e-07;-0.0005160588155398232
3.90000e-07;-0.0005276572722506661
3.90250e-07;-0.000536489790029167
3.90500e-07;-0.000543800983374765
3.90750e-07;-0.0005476940863596408
3.91000e-07;-0.0005500942087301878
3.91250e-07;-0.000549139923233342
3.91500e-07;-0.0005467180876766558
3.91750e-07;-0.0005409989812650938
3.92000e-07;-0.0005340858399537598
3.92250e-07;-0.0005236316116040177
3.92500e-07;-0.0005104135002777227
3.92750e-07;-0.0004945261266336149
3.93000e-07;-0.00047610911524985285
3.93250e-07;-0.0004553022249324567
3.93500e-07;-0.00043224463416201915
3.93750e-07;-0.00040705260690666287
