Time(s);Current(A)
9.55000e-06;0.008813170674588023
9.55025e-06;0.008824657928369046
9.55050e-06;0.008836145182150068
9.55075e-06;0.008847632435931013
9.55100e-06;0.008859119689712036
9.55125e-06;0.00887060694349306
9.55150e-06;0.008882094197274003
9.55175e-06;0.008893581451055026
9.55200e-06;0.00890506870483605
9.55225e-06;0.008916555958616994
9.55250e-06;0.008928043212398016
9.55275e-06;0.00893953046617904
9.55300e-06;0.008951017719959984
9.55325e-06;0.008962504973741006
9.55350e-06;0.008973697832946147
9.55375e-06;0.0089838945947844
9.55400e-06;0.00899409135662272
9.55425e-06;0.009004288118461042
9.55450e-06;0.009014484880299363
9.55475e-06;0.009024681642137615
9.55500e-06;0.009034878403975936
9.55525e-06;0.009045075165814256
9.55550e-06;0.009055271927652509
9.55575e-06;0.00906546868949083
9.55600e-06;0.009075665451329151
9.55625e-06;0.009085862213167402
9.55650e-06;0.009096058975005724
9.55675e-06;0.009106255736844045
9.55700e-06;0.009116452498682297
9.55725e-06;0.009121590480425972
9.55750e-06;0.009124839569591406
9.55775e-06;0.009128088658756818
9.55800e-06;0.009131337747922252
9.55825e-06;0.009134586837087686
9.55850e-06;0.009137835926253097
9.55875e-06;0.009141085015418531
9.55900e-06;0.009144334104583965
9.55925e-06;0.009147583193749377
9.55950e-06;0.00915083228291481
9.55975e-06;0.009154081372080245
9.56000e-06;0.009157330461245656
9.56025e-06;0.00916057955041109
9.56050e-06;0.009163828639576524
9.56075e-06;0.009167077728741936
9.56100e-06;0.00917032681790737
9.56125e-06;0.009173575907072804
9.56150e-06;0.009176824996238215
9.56175e-06;0.00918007408540365
9.56200e-06;0.009183323174569083
9.56225e-06;0.009185984789361322
9.56250e-06;0.009186658658032018
9.56275e-06;0.009187332526702716
9.56300e-06;0.009188006395373406
9.56325e-06;0.009188680264044104
9.56350e-06;0.0091893541327148
9.56375e-06;0.009190028001385497
9.56400e-06;0.00919070187005619
9.56425e-06;0.009191375738726885
9.56450e-06;0.009192049607397583
9.56475e-06;0.009192723476068275
9.56500e-06;0.00919339734473897
9.56525e-06;0.009194071213409667
9.56550e-06;0.009194745082080359
9.56575e-06;0.009195418950751056
9.56600e-06;0.009196092819421752
9.56625e-06;0.009196766688092444
9.56650e-06;0.009197440556763142
9.56675e-06;0.009198114425433838
9.56700e-06;0.00919878829410453
9.56725e-06;0.009199462162775226
9.56750e-06;0.009205529453561203
9.56775e-06;0.009213610588558064
9.56800e-06;0.00922169172355498
9.56825e-06;0.009229772858551897
9.56850e-06;0.009237853993548758
9.56875e-06;0.009245935128545674
9.56900e-06;0.00925401626354259
9.56925e-06;0.009262097398539452
9.56950e-06;0.009270178533536368
9.56975e-06;0.009278259668533283
9.57000e-06;0.009286340803530146
9.57025e-06;0.00929442193852706
9.57050e-06;0.009302503073523977
9.57075e-06;0.009310584208520838
9.57100e-06;0.009318665343517754
9.57125e-06;0.009326746478514671
9.57150e-06;0.009334827613511532
9.57175e-06;0.009342908748508448
9.57200e-06;0.009350989883505365
9.57225e-06;0.009360728129747652
9.57250e-06;0.009371085123014994
9.57275e-06;0.009381442116282404
9.57300e-06;0.009391799109549815
9.57325e-06;0.009402156102817154
9.57350e-06;0.009412513096084566
9.57375e-06;0.009422870089351977
9.57400e-06;0.009433227082619317
9.57425e-06;0.009443584075886727
9.57450e-06;0.009453941069154138
9.57475e-06;0.009464298062421479
9.57500e-06;0.00947465505568889
9.57525e-06;0.0094850120489563
9.57550e-06;0.009495369042223641
9.57575e-06;0.009505726035491052
9.57600e-06;0.009516083028758462
9.57625e-06;0.009526440022025802
9.57650e-06;0.009536797015293213
9.57675e-06;0.009547154008560623
9.57700e-06;0.009556876990621722
9.57725e-06;0.009566363239905326
9.57750e-06;0.00957584948918893
9.57775e-06;0.00958533573847247
9.57800e-06;0.009594821987756075
9.57825e-06;0.009604308237039678
9.57850e-06;0.009613794486323218
9.57875e-06;0.009623280735606822
9.57900e-06;0.009632766984890425
9.57925e-06;0.009642253234173965
9.57950e-06;0.00965173948345757
9.57975e-06;0.009661225732741174
9.58000e-06;0.009670711982024714
9.58025e-06;0.009680198231308317
9.58050e-06;0.009689684480591921
9.58075e-06;0.009699170729875525
9.58100e-06;0.009708656979159064
9.58125e-06;0.00971814322844267
9.58150e-06;0.009727629477726273
9.58175e-06;0.009737115727009813
9.58200e-06;0.009746601976293416
9.58225e-06;0.00975608822557702
9.58250e-06;0.00976557447486056
9.58275e-06;0.009773267067143447
9.58300e-06;0.009780289927724907
9.58325e-06;0.00978731278830632
9.58350e-06;0.00979433564888778
9.58375e-06;0.00980135850946924
9.58400e-06;0.009808381370050653
9.58425e-06;0.009815404230632114
9.58450e-06;0.009822427091213573
9.58475e-06;0.009829449951794985
9.58500e-06;0.009836472812376446
9.58525e-06;0.009843495672957907
9.58550e-06;0.00985051853353932
9.58575e-06;0.009857541394120779
9.58600e-06;0.00986456425470224
9.58625e-06;0.009871587115283652
9.58650e-06;0.009878609975865113
9.58675e-06;0.009885632836446572
9.58700e-06;0.009892655697027986
9.58725e-06;0.009899678557609445
9.58750e-06;0.009906701418190906
9.58775e-06;0.009913724278772318
9.58800e-06;0.009920747139353779
9.58825e-06;0.009927769999935238
9.58850e-06;0.009929198074423154
9.58875e-06;0.009928537117614138
9.58900e-06;0.009927876160805123
9.58925e-06;0.009927215203996108
9.58950e-06;0.009926554247187096
9.58975e-06;0.00992589329037808
9.59000e-06;0.009925232333569066
9.59025e-06;0.009924571376760054
9.59050e-06;0.009923910419951039
9.59075e-06;0.009923249463142023
9.59100e-06;0.009922588506333012
9.59125e-06;0.009921927549523996
9.59150e-06;0.009921266592714981
9.59175e-06;0.00992060563590597
9.59200e-06;0.009919944679096954
9.59225e-06;0.009919283722287939
9.59250e-06;0.009918109104586072
9.59275e-06;0.009915196492010597
9.59300e-06;0.009912283879435123
9.59325e-06;0.009909371266859668
9.59350e-06;0.009906458654284194
9.59375e-06;0.009903546041708719
9.59400e-06;0.009900633429133264
9.59425e-06;0.00989772081655779
9.59450e-06;0.009894808203982315
9.59475e-06;0.00989189559140686
9.59500e-06;0.009888982978831387
9.59525e-06;0.009886070366255913
9.59550e-06;0.009883157753680458
9.59575e-06;0.009880245141104983
9.59600e-06;0.00987733252852951
9.59625e-06;0.009874419915954055
9.59650e-06;0.009871507303378579
9.59675e-06;0.00986259773442049
9.59700e-06;0.009851448968223559
9.59725e-06;0.009840300202026551
9.59750e-06;0.009829151435829544
9.59775e-06;0.009818002669632536
9.59800e-06;0.009806853903435605
9.59825e-06;0.009795705137238597
9.59850e-06;0.009784556371041591
9.59875e-06;0.009773407604844658
9.59900e-06;0.009762258838647652
9.59925e-06;0.009751110072450645
9.59950e-06;0.009739961306253713
9.59975e-06;0.009728812540056706
9.60000e-06;0.009717663773859698
9.60025e-06;0.009704288190800981
9.60050e-06;0.009683378072126572
9.60075e-06;0.009662467953452162
9.60100e-06;0.009641557834777895
9.60125e-06;0.009620647716103483
9.60150e-06;0.009599737597429074
9.60175e-06;0.009578827478754806
9.60200e-06;0.009557917360080397
9.60225e-06;0.009537007241405987
9.60250e-06;0.009516097122731718
9.60275e-06;0.009495187004057309
9.60300e-06;0.0094742768853829
9.60325e-06;0.00945336676670863
9.60350e-06;0.00943245664803422
9.60375e-06;0.009411546529359811
9.60400e-06;0.009394941944358307
9.60425e-06;0.009379944998048742
9.60450e-06;0.009364948051739177
9.60475e-06;0.009349951105429716
9.60500e-06;0.00933495415912015
9.60525e-06;0.009319957212810585
9.60550e-06;0.009304960266501124
9.60575e-06;0.009289963320191559
9.60600e-06;0.009274966373881994
9.60625e-06;0.00925996942757243
9.60650e-06;0.009244972481262968
9.60675e-06;0.009229975534953402
9.60700e-06;0.009214978588643839
9.60725e-06;0.009199981642334376
9.60750e-06;0.009184984696024811
9.60775e-06;0.009169987749715247
9.60800e-06;0.009157980033733078
9.60825e-06;0.009156086513829402
9.60850e-06;0.009154192993925727
9.60875e-06;0.009152299474022064
9.60900e-06;0.009150405954118387
9.60925e-06;0.009148512434214712
9.60950e-06;0.00914661891431105
9.60975e-06;0.009144725394407372
9.61000e-06;0.009142831874503697
9.61025e-06;0.009140938354600035
9.61050e-06;0.009139044834696358
9.61075e-06;0.009137151314792683
9.61100e-06;0.00913525779488902
9.61125e-06;0.009133364274985343
9.61150e-06;0.009131470755081668
9.61175e-06;0.009129577235178005
9.61200e-06;0.009127683715274329
9.61225e-06;0.009128867415611744
9.61250e-06;0.009131200115980414
9.61275e-06;0.0091335328163491
9.61300e-06;0.009135865516717787
9.61325e-06;0.009138198217086457
9.61350e-06;0.009140530917455144
9.61375e-06;0.00914286361782383
9.61400e-06;0.0091451963181925
9.61425e-06;0.009147529018561187
9.61450e-06;0.009149861718929873
9.61475e-06;0.00915219441929856
9.61500e-06;0.00915452711966723
9.61525e-06;0.009156859820035917
9.61550e-06;0.009159192520404603
9.61575e-06;0.009161525220773273
9.61600e-06;0.00916385792114196
9.61625e-06;0.009166190621510646
9.61650e-06;0.009168523321879318
9.61675e-06;0.009170856022248004
9.61700e-06;0.009171743382037235
9.61725e-06;0.009167740366571033
9.61750e-06;0.009163737351104805
9.61775e-06;0.009159734335638577
9.61800e-06;0.009155731320172375
9.61825e-06;0.009151728304706147
9.61850e-06;0.009147725289239919
9.61875e-06;0.009143722273773719
9.61900e-06;0.00913971925830749
9.61925e-06;0.009135716242841261
9.61950e-06;0.009131713227375061
9.61975e-06;0.009127710211908831
9.62000e-06;0.009123707196442604
9.62025e-06;0.009119704180976403
9.62050e-06;0.009115701165510175
9.62075e-06;0.009111698150043946
9.62100e-06;0.009107695134577746
9.62125e-06;0.009103692119111518
9.62150e-06;0.00909968910364529
9.62175e-06;0.009095686088179088
9.62200e-06;0.009089305226754519
9.62225e-06;0.009082036503926676
9.62250e-06;0.009074767781098884
9.62275e-06;0.009067499058271042
9.62300e-06;0.009060230335443202
9.62325e-06;0.00905296161261536
9.62350e-06;0.009045692889787568
9.62375e-06;0.009038424166959725
9.62400e-06;0.009031155444131883
9.62425e-06;0.009023886721304091
9.62450e-06;0.00901661799847625
9.62475e-06;0.009009349275648408
9.62500e-06;0.009002080552820617
9.62525e-06;0.008994811829992774
9.62550e-06;0.008987543107164932
9.62575e-06;0.00898027438433714
9.62600e-06;0.0089730056615093
9.62625e-06;0.008965736938681457
9.62650e-06;0.008958468215853665
9.62675e-06;0.008951199493025823
9.62700e-06;0.008942862600116088
9.62725e-06;0.008930911505395748
9.62750e-06;0.008918960410675325
9.62775e-06;0.008907009315954903
9.62800e-06;0.008895058221234563
9.62825e-06;0.00888310712651414
9.62850e-06;0.008871156031793719
9.62875e-06;0.008859204937073378
9.62900e-06;0.008847253842352958
9.62925e-06;0.008835302747632535
9.62950e-06;0.008823351652912195
9.62975e-06;0.008811400558191773
9.63000e-06;0.00879944946347135
9.63025e-06;0.00878749836875101
9.63050e-06;0.008775547274030588
9.63075e-06;0.008763596179310166
9.63100e-06;0.008751645084589825
9.63125e-06;0.008739693989869403
9.63150e-06;0.008727742895148983
9.63175e-06;0.00871579180042856
9.63200e-06;0.00870384070570822
9.63225e-06;0.008689842540791208
9.63250e-06;0.008675080022484622
9.63275e-06;0.008660317504178136
9.63300e-06;0.008645554985871549
9.63325e-06;0.008630792467564962
9.63350e-06;0.008616029949258476
9.63375e-06;0.00860126743095189
9.63400e-06;0.008586504912645303
9.63425e-06;0.008571742394338817
9.63450e-06;0.00855697987603223
9.63475e-06;0.008542217357725644
9.63500e-06;0.008527454839419158
9.63525e-06;0.008512692321112571
9.63550e-06;0.008497929802805984
9.63575e-06;0.008483167284499497
9.63600e-06;0.008478746413319397
9.63625e-06;0.00847818699889291
9.63650e-06;0.008477627584466428
9.63675e-06;0.008477068170039941
9.63700e-06;0.008476508755613454
9.63725e-06;0.008475949341186973
9.63750e-06;0.008475389926760486
9.63775e-06;0.008474830512334
9.63800e-06;0.008474271097907517
9.63825e-06;0.008473711683481032
9.63850e-06;0.008473152269054545
9.63875e-06;0.008472592854628062
9.63900e-06;0.008472033440201577
9.63925e-06;0.00847147402577509
9.63950e-06;0.008470914611348608
9.63975e-06;0.00848346351570303
9.64000e-06;0.008500906921433415
9.64025e-06;0.008518350327163799
9.64050e-06;0.008535793732894065
9.64075e-06;0.008553237138624447
9.64100e-06;0.008570680544354831
9.64125e-06;0.008588123950085097
9.64150e-06;0.008605567355815481
9.64175e-06;0.008623010761545865
9.64200e-06;0.00864045416727613
9.64225e-06;0.008657897573006513
9.64250e-06;0.008675340978736897
9.64275e-06;0.008692784384467163
9.64300e-06;0.008710227790197547
9.64325e-06;0.008727627021250784
9.64350e-06;0.008745009757967617
9.64375e-06;0.00876239249468457
9.64400e-06;0.008779775231401521
9.64425e-06;0.008797157968118354
9.64450e-06;0.008814540704835306
9.64475e-06;0.008831923441552259
9.64500e-06;0.008849306178269092
9.64525e-06;0.008866688914986043
9.64550e-06;0.008884071651702996
9.64575e-06;0.008901454388419829
9.64600e-06;0.00891883712513678
9.64625e-06;0.008936219861853733
9.64650e-06;0.008953602598570566
9.64675e-06;0.008962068708410167
9.64700e-06;0.008967205448308207
9.64725e-06;0.00897234218820621
9.64750e-06;0.00897747892810425
9.64775e-06;0.00898261566800229
9.64800e-06;0.008987752407900295
9.64825e-06;0.008992889147798335
9.64850e-06;0.008998025887696373
9.64875e-06;0.009003162627594413
9.64900e-06;0.009008299367492418
9.64925e-06;0.009013436107390457
9.64950e-06;0.009018572847288497
9.64975e-06;0.0090237095871865
9.65000e-06;0.00902884632708454
9.65025e-06;0.00903398306698258
9.65050e-06;0.009039119806880585
9.65075e-06;0.009044256546778623
9.65100e-06;0.009049393286676663
9.65125e-06;0.009054530026574668
9.65150e-06;0.009059666766472707
9.65175e-06;0.009064803506370747
9.65200e-06;0.00906994024626875
9.65225e-06;0.00907507698616679
9.65250e-06;0.00908021372606483
9.65275e-06;0.009085350465962835
9.65300e-06;0.009090487205860875
9.65325e-06;0.009095623945758913
9.65350e-06;0.009100760685656918
9.65375e-06;0.009105897425554958
9.65400e-06;0.009111034165452997
9.65425e-06;0.009116170905351
9.65450e-06;0.00912130764524904
9.65475e-06;0.00912644438514708
9.65500e-06;0.009131581125045085
9.65525e-06;0.009136717864943125
9.65550e-06;0.009141854604841163
9.65575e-06;0.009146991344739168
9.65600e-06;0.009152128084637208
9.65625e-06;0.009155888378750294
9.65650e-06;0.009154991406255059
9.65675e-06;0.00915409443375982
9.65700e-06;0.009153197461264579
9.65725e-06;0.009152300488769338
9.65750e-06;0.009151403516274104
9.65775e-06;0.009150506543778865
9.65800e-06;0.009149609571283624
9.65825e-06;0.00914871259878839
9.65850e-06;0.00914781562629315
9.65875e-06;0.00914691865379791
9.65900e-06;0.009146021681302675
9.65925e-06;0.009145124708807436
9.65950e-06;0.009144227736312195
9.65975e-06;0.009143330763816961
9.66000e-06;0.00914243379132172
9.66025e-06;0.009141536818826481
9.66050e-06;0.009140639846331247
9.66075e-06;0.009139742873836006
9.66100e-06;0.009138845901340766
9.66125e-06;0.009137948928845532
9.66150e-06;0.00913705195635029
9.66175e-06;0.009136154983855052
9.66200e-06;0.009135258011359818
9.66225e-06;0.009134361038864577
9.66250e-06;0.009133464066369336
9.66275e-06;0.009132567093874102
9.66300e-06;0.009131670121378863
9.66325e-06;0.009130773148883622
9.66350e-06;0.009129876176388389
9.66375e-06;0.009128979203893148
9.66400e-06;0.009128082231397907
9.66425e-06;0.009127185258902673
9.66450e-06;0.009126288286407434
9.66475e-06;0.009125391313912193
9.66500e-06;0.00912449434141696
9.66525e-06;0.009123597368921718
9.66550e-06;0.00912270039642648
9.66575e-06;0.009121803423931239
9.66600e-06;0.009114515313867309
9.66625e-06;0.009104840823659591
9.66650e-06;0.009095166333451874
9.66675e-06;0.009085491843244222
9.66700e-06;0.009075817353036504
9.66725e-06;0.009066142862828787
9.66750e-06;0.009056468372621135
9.66775e-06;0.009046793882413418
9.66800e-06;0.0090371193922057
9.66825e-06;0.009027444901998048
9.66850e-06;0.009013568706018304
9.66875e-06;0.008985475848390663
9.66900e-06;0.008957382990763213
9.66925e-06;0.00892929013313557
9.66950e-06;0.008901197275507929
9.66975e-06;0.008873104417880478
9.67000e-06;0.008845011560252835
9.67025e-06;0.008816918702625194
9.67050e-06;0.008788825844997744
9.67075e-06;0.0087607329873701
9.67100e-06;0.00873264012974246
9.67125e-06;0.008696252123051185
9.67150e-06;0.008656766799362926
9.67175e-06;0.008617281475674669
9.67200e-06;0.008577796151986677
9.67225e-06;0.00853831082829842
9.67250e-06;0.00849882550461016
9.67275e-06;0.00845934018092217
9.67300e-06;0.008419854857233912
9.67325e-06;0.008380369533545654
9.67350e-06;0.008340884209857664
9.67375e-06;0.008301398886169405
9.67400e-06;0.008263946238539458
9.67425e-06;0.008233371242353118
9.67450e-06;0.008202796246166986
9.67475e-06;0.008172221249980648
9.67500e-06;0.008141646253794307
9.67525e-06;0.008111071257608175
9.67550e-06;0.008080496261421837
9.67575e-06;0.008049921265235497
9.67600e-06;0.008019346269049364
9.67625e-06;0.007988771272863026
9.67650e-06;0.007958196276676686
9.67675e-06;0.007927621280490554
9.67700e-06;0.007913115746798304
9.67725e-06;0.00790461037283088
9.67750e-06;0.007896104998863514
9.67775e-06;0.00788759962489609
9.67800e-06;0.007879094250928668
9.67825e-06;0.007870588876961302
9.67850e-06;0.007862083502993878
9.67875e-06;0.007853578129026454
9.67900e-06;0.00784507275505909
9.67925e-06;0.007836567381091666
9.67950e-06;0.007828062007124242
9.67975e-06;0.007819556633156878
9.68000e-06;0.007811051259189453
9.68025e-06;0.00780254588522203
9.68050e-06;0.007794040511254665
9.68075e-06;0.007785535137287241
9.68100e-06;0.007780095015245911
9.68125e-06;0.007785026311834678
9.68150e-06;0.007789957608423479
9.68175e-06;0.007794888905012279
9.68200e-06;0.0077998202016010465
9.68225e-06;0.007804751498189847
9.68250e-06;0.0078096827947786475
9.68275e-06;0.00781461409136745
9.68300e-06;0.007819545387956216
9.68325e-06;0.007824476684545017
9.68350e-06;0.007829407981133817
9.68375e-06;0.007834339277722584
9.68400e-06;0.007839270574311386
9.68425e-06;0.007844201870900186
9.68450e-06;0.007849133167488953
9.68475e-06;0.007854064464077753
9.68500e-06;0.007858995760666553
9.68525e-06;0.007864029654037746
9.68550e-06;0.007869101855913826
9.68575e-06;0.007874174057789904
9.68600e-06;0.00787924625966595
9.68625e-06;0.007884318461542028
9.68650e-06;0.007889390663418108
9.68675e-06;0.007894462865294154
9.68700e-06;0.007899535067170232
9.68725e-06;0.007904607269046312
9.68750e-06;0.007909679470922356
9.68775e-06;0.007914751672798436
9.68800e-06;0.007919823874674516
9.68825e-06;0.00792489607655056
9.68850e-06;0.00792996827842664
9.68875e-06;0.007935040480302719
9.68900e-06;0.007940112682178764
9.68925e-06;0.007945184884054844
9.68950e-06;0.0079527232888612
9.68975e-06;0.007961182546590057
9.69000e-06;0.00796964180431897
9.69025e-06;0.007978101062047884
9.69050e-06;0.007986560319776738
9.69075e-06;0.007995019577505652
9.69100e-06;0.008003478835234565
9.69125e-06;0.008011938092963479
9.69150e-06;0.008020397350692335
9.69175e-06;0.008028856608421248
9.69200e-06;0.008037315866150162
9.69225e-06;0.008045775123879018
9.69250e-06;0.00805423438160793
9.69275e-06;0.008062693639336843
9.69300e-06;0.0080711528970657
9.69325e-06;0.008079612154794613
9.69350e-06;0.008088071412523526
9.69375e-06;0.008095775531136698
9.69400e-06;0.008103197689148382
9.69425e-06;0.008110619847160066
9.69450e-06;0.008118042005171699
9.69475e-06;0.008125464163183384
9.69500e-06;0.008132886321195068
9.69525e-06;0.008140308479206701
9.69550e-06;0.008147730637218385
9.69575e-06;0.008155152795230068
9.69600e-06;0.008162574953241701
9.69625e-06;0.008169997111253385
9.69650e-06;0.008177419269265069
9.69675e-06;0.008184841427276702
9.69700e-06;0.008194241072702805
9.69725e-06;0.008210331636304722
9.69750e-06;0.008226422199906531
9.69775e-06;0.00824251276350845
9.69800e-06;0.008258603327110366
9.69825e-06;0.008274693890712176
9.69850e-06;0.008290784454314092
9.69875e-06;0.00830687501791601
9.69900e-06;0.00832296558151782
9.69925e-06;0.008339056145119737
9.69950e-06;0.008355146708721655
9.69975e-06;0.008371237272323572
9.70000e-06;0.008387327835925381
9.70025e-06;0.0084034183995273
9.70050e-06;0.008428361171156518
9.70075e-06;0.008456609259447386
9.70100e-06;0.008484857347738444
9.70125e-06;0.008513105436029502
9.70150e-06;0.008541353524320368
9.70175e-06;0.008569601612611426
9.70200e-06;0.008597849700902485
