Time(s);Current(A)
1.20000e-05;0.0008384934914497852
1.20003e-05;0.0008434280732955648
1.20005e-05;0.0008483626551413445
1.20008e-05;0.0008532972369870907
1.20010e-05;0.0008582318188328703
1.20013e-05;0.0008631664006786499
1.20015e-05;0.0008665296524277773
1.20018e-05;0.0008684704978574554
1.20020e-05;0.0008704113432871336
1.20023e-05;0.0008723521887167987
1.20025e-05;0.0008742930341464768
1.20028e-05;0.000876233879576155
1.20030e-05;0.00087817472500582
1.20033e-05;0.0008801155704354982
1.20035e-05;0.0008820564158651764
1.20038e-05;0.0008839972612948414
1.20040e-05;0.0008859381067245196
1.20043e-05;0.0008878789521541978
1.20045e-05;0.0008898197975838627
1.20048e-05;0.000891760643013541
1.20050e-05;0.0008937014884432191
1.20052e-05;0.0008956423338728841
1.20055e-05;0.0008975831793025622
1.20058e-05;0.0008989192960252848
1.20060e-05;0.000899707997576413
1.20063e-05;0.0009004966991275466
1.20065e-05;0.0009012854006786803
1.20068e-05;0.0009020741022298139
1.20070e-05;0.0009028628037809422
1.20073e-05;0.0009036515053320759
1.20075e-05;0.0009044402068832095
1.20078e-05;0.0009052289084343378
1.20080e-05;0.0009060069584869824
1.20083e-05;0.0009063674170860921
1.20085e-05;0.0009067278756851992
1.20088e-05;0.0009070883342843089
1.20090e-05;0.0009074487928834186
1.20093e-05;0.0009078092514825258
1.20095e-05;0.0009081697100816354
1.20098e-05;0.0009085301686807451
1.20100e-05;0.0009088906272798523
1.20103e-05;0.000909251085878962
1.20105e-05;0.0009064046978920375
1.20108e-05;0.0009006553941775675
1.20110e-05;0.0008949060904630585
1.20113e-05;0.0008891567867485496
1.20115e-05;0.0008834074830340795
1.20118e-05;0.0008776581793195706
1.20120e-05;0.0008719088756050616
1.20123e-05;0.0008661595718905915
1.20125e-05;0.0008604102681760826
1.20128e-05;0.0008546609644615736
1.20130e-05;0.0008486356279696264
1.20133e-05;0.000831788440538175
1.20135e-05;0.0008149412531067237
1.20137e-05;0.0007980940656753865
1.20140e-05;0.0007812468782439352
1.20143e-05;0.0007643996908124838
1.20145e-05;0.0007475525033811467
1.20148e-05;0.0007307053159496953
1.20150e-05;0.0007138581285182441
1.20153e-05;0.0006970109410867927
1.20155e-05;0.0006801637536554554
1.20158e-05;0.0006603509549041946
1.20160e-05;0.0006378536124704142
1.20163e-05;0.0006153562700367862
1.20165e-05;0.0005928589276030058
1.20168e-05;0.0005703615851692254
1.20170e-05;0.0005474978098525295
1.20173e-05;0.0005243023305545191
1.20175e-05;0.0005011068512565086
1.20178e-05;0.0004779113719586553
1.20180e-05;0.00045471589266064485
1.20183e-05;0.00043228454360350754
1.20185e-05;0.0004105449038737726
1.20188e-05;0.0003888052641438903
1.20190e-05;0.00036801230150707975
1.20193e-05;0.0003480762940596741
1.20195e-05;0.00032924889739018926
1.20198e-05;0.00031142504223038504
1.20200e-05;0.0002946307455734292
1.20203e-05;0.0002796273276216091
1.20205e-05;0.00026648566554785284
1.20208e-05;0.0002555651955414308
1.20210e-05;0.00024703745199813464
1.20213e-05;0.00024092225825632824
1.20215e-05;0.0002372041503725309
1.20218e-05;0.00023586764655665932
1.20220e-05;0.00023689827032610304
1.20222e-05;0.0002403235068235678
1.20225e-05;0.0002462578620643744
1.20228e-05;0.00025481714500653744
1.20230e-05;0.0002659994846636773
1.20233e-05;0.0002797079573868443
1.20235e-05;0.00029582352850943534
1.20238e-05;0.00031422717864068453
1.20240e-05;0.0003348005132497876
1.20243e-05;0.0003574514153780603
1.20245e-05;0.0003821422782056138
1.20248e-05;0.00040931376925358565
1.20250e-05;0.00043785531370589526
1.20253e-05;0.0004681135222345355
1.20255e-05;0.0004999256969456964
1.20258e-05;0.0005333267180061764
1.20260e-05;0.0005681660015259113
1.20263e-05;0.0006030052850454102
1.20265e-05;0.0006391311067928014
1.20268e-05;0.0006764215343161561
1.20270e-05;0.0007137119618392581
1.20273e-05;0.0007510023893626128
1.20275e-05;0.0007882928168859674
1.20278e-05;0.0008255832444090694
1.20280e-05;0.0008628736719324241
1.20283e-05;0.0009001640994557789
1.20285e-05;0.0009374545269788808
1.20288e-05;0.0009727857819774639
1.20290e-05;0.0010063435462319744
1.20293e-05;0.0010399013104862573
1.20295e-05;0.0010706894292655618
1.20298e-05;0.0010989703974225156
1.20300e-05;0.0011272513655792775
1.20303e-05;0.0011517766046909204
1.20305e-05;0.001172902066286674
1.20307e-05;0.0011940275278822848
1.20310e-05;0.0012110751039526523
1.20313e-05;0.0012244312786054276
1.20315e-05;0.0012377874532581122
1.20318e-05;0.001246824425449582
1.20320e-05;0.0012519515502483996
1.20323e-05;0.0012570786750472174
1.20325e-05;0.00125788183133439
1.20328e-05;0.0012547708258840945
1.20330e-05;0.001251659820433799
1.20333e-05;0.0012445528688600094
1.20335e-05;0.001233828689413288
1.20338e-05;0.0012231045099665666
1.20340e-05;0.0012087199428468284
1.20343e-05;0.0011910219035460886
1.20345e-05;0.0011733238642453489
1.20348e-05;0.0011525356524083898
1.20350e-05;0.0011289501410368964
1.20353e-05;0.001105364629665403
1.20355e-05;0.001078645773563926
1.20358e-05;0.001049090537405203
1.20360e-05;0.0010195353012464796
1.20363e-05;0.0009899800650879568
1.20365e-05;0.0009604248289292336
1.20368e-05;0.0009307866106038059
1.20370e-05;0.0008978950806531228
1.20373e-05;0.0008650035507022168
1.20375e-05;0.0008321120207513109
1.20378e-05;0.0007992204908006279
1.20380e-05;0.000766328960849722
1.20383e-05;0.0007340777980730778
1.20385e-05;0.0007024063112783437
1.20388e-05;0.0006707348244833952
1.20390e-05;0.0006407976198560953
1.20392e-05;0.0006124303297381993
1.20395e-05;0.0005840630396201109
1.20398e-05;0.0005579061376821959
1.20400e-05;0.0005337501330262533
1.20403e-05;0.0005113443151935891
1.20405e-05;0.000490522809152487
1.20408e-05;0.00047037810515643063
1.20410e-05;0.0004508460588757617
1.20413e-05;0.0004321945454651618
1.20415e-05;0.0004143401118808244
1.20418e-05;0.0003964856782966079
1.20420e-05;0.00038008088776943265
1.20423e-05;0.00036498834948777835
1.20425e-05;0.0003498958112062263
1.20428e-05;0.00033536958254783876
1.20430e-05;0.00032135599117015333
1.20433e-05;0.0003073423997925628
1.20435e-05;0.0002939374982047875
1.20438e-05;0.0002810835974580347
1.20440e-05;0.00026822969671136897
1.20443e-05;0.00025607539969005317
1.20445e-05;0.00024455440102119625
1.20448e-05;0.0002330334023524174
1.20450e-05;0.0002217394835720508
1.20453e-05;0.00021065112304421003
1.20455e-05;0.00019956276251644443
1.20458e-05;0.00018896724264217936
1.20460e-05;0.0001788178541457258
1.20463e-05;0.00016866846564934102
1.20465e-05;0.00015887717759502232
1.20468e-05;0.00014941005079341233
1.20470e-05;0.0001400940054924756
1.20473e-05;0.0001309147228500403
1.20475e-05;0.00012200382268220263
1.20477e-05;0.00011333586887509924
1.20480e-05;0.00010504927546455576
1.20483e-05;9.7107898784746e-05
1.20485e-05;8.948467505193068e-05
1.20488e-05;8.214945112500092e-05
1.20490e-05;7.50123600782726e-05
1.20493e-05;6.821733013222065e-05
1.20495e-05;6.175904028964341e-05
1.20498e-05;5.5688458995483615e-05
1.20500e-05;5.005590856829633e-05
1.20503e-05;4.488269954881102e-05
1.20505e-05;4.011993611425017e-05
1.20508e-05;3.5686083214713003e-05
1.20510e-05;3.154473636420908e-05
1.20513e-05;2.7707998516707636e-05
1.20515e-05;2.4200546494308837e-05
1.20518e-05;2.1047042838646235e-05
1.20520e-05;1.827173905180338e-05
1.20523e-05;1.5880718336406678e-05
1.20525e-05;1.383608485786149e-05
1.20528e-05;1.2079499668238521e-05
1.20530e-05;1.0580901063252057e-05
1.20533e-05;9.340611527900386e-06
1.20535e-05;8.366828543821904e-06
1.20538e-05;7.667739826932174e-06
1.20540e-05;7.251275072972692e-06
1.20543e-05;7.113982706011745e-06
1.20545e-05;7.224863653447862e-06
1.20548e-05;7.540117002863228e-06
1.20550e-05;8.033656781777246e-06
1.20553e-05;8.698430899347804e-06
1.20555e-05;9.532321006676686e-06
1.20558e-05;1.0533201865813159e-05
1.20560e-05;1.1698786817947336e-05
1.20562e-05;1.3019659832787852e-05
1.20565e-05;1.4469150926596802e-05
1.20568e-05;1.6012572652796512e-05
1.20570e-05;1.7640667732676057e-05
1.20573e-05;1.9311753288830197e-05
1.20575e-05;2.104322722722985e-05
1.20578e-05;2.2829366201858924e-05
1.20580e-05;2.4615505176475895e-05
1.20583e-05;2.640100954802318e-05
1.20585e-05;2.8161634337855606e-05
1.20588e-05;2.9922259127676103e-05
1.20590e-05;3.168288391750853e-05
1.20593e-05;3.336876066205731e-05
1.20595e-05;3.494059440890482e-05
1.20598e-05;3.641744895678294e-05
1.20600e-05;3.7789235397491206e-05
1.20603e-05;3.915609517367654e-05
1.20605e-05;4.086929791815218e-05
1.20608e-05;4.33545708205606e-05
1.20610e-05;4.680945872302499e-05
1.20613e-05;5.122026067207699e-05
1.20615e-05;5.6521247214142044e-05
1.20618e-05;6.264669325748699e-05
1.20620e-05;6.953246148905389e-05
1.20623e-05;7.718345285821555e-05
1.20625e-05;8.5761865691171e-05
1.20628e-05;9.54765244966113e-05
1.20630e-05;0.00010639329780030276
1.20633e-05;0.00011844573519710448
1.20635e-05;0.00013153479562824907
1.20638e-05;0.00014556144712040225
1.20640e-05;0.00016042766373147488
1.20643e-05;0.00017630834672820417
1.20645e-05;0.00019276610446615738
1.20647e-05;0.00021016181935951833
1.20650e-05;0.00022840659594326068
1.20653e-05;0.00024755475926964903
1.20655e-05;0.0002675206903054024
1.20658e-05;0.0002874866213412911
1.20660e-05;0.00030822953211299503
1.20663e-05;0.0003296757838890644
1.20665e-05;0.00035112203566498853
1.20668e-05;0.0003725682874410579
1.20670e-05;0.0003940145392171273
1.20673e-05;0.0004154937989459771
1.20675e-05;0.0004370029382788974
1.20678e-05;0.00045851207761181775
1.20680e-05;0.0004800212169445923
1.20683e-05;0.0005015303562775126
1.20685e-05;0.0005220828678605848
1.20688e-05;0.0005417694166758708
1.20690e-05;0.00056145596549129
1.20693e-05;0.0005797960236489845
1.20695e-05;0.0005969172056274021
1.20698e-05;0.0006140383876059358
1.20700e-05;0.0006293462096826958
1.20703e-05;0.0006430125341552789
1.20705e-05;0.0006566788586279546
1.20708e-05;0.0006692290413529699
1.20710e-05;0.0006807688653494157
1.20713e-05;0.0006923086893459397
1.20715e-05;0.0007016180650873817
1.20718e-05;0.0007089083846759559
1.20720e-05;0.0007161987042645794
1.20723e-05;0.000723489023853203
1.20725e-05;0.0007307793434417771
1.20728e-05;0.0007380696630304006
1.20730e-05;0.0007453599826190241
1.20732e-05;0.0007526503022075984
1.20735e-05;0.0007599406217962219
1.20738e-05;0.0007671194481946831
1.20740e-05;0.0007699271896892193
1.20743e-05;0.0007727349311837745
1.20745e-05;0.0007755426726783298
1.20748e-05;0.0007783504141728849
1.20750e-05;0.0007811581556674211
1.20753e-05;0.0007839658971619764
1.20755e-05;0.0007867736386565316
1.20758e-05;0.0007895813801510678
1.20760e-05;0.000792389121645623
1.20763e-05;0.0007939703726170598
1.20765e-05;0.000794441374457254
1.20768e-05;0.0007949123762974514
1.20770e-05;0.0007953833781376487
1.20773e-05;0.0007958543799778428
1.20775e-05;0.0007963253818180401
1.20778e-05;0.0007967963836582376
1.20780e-05;0.0007972673854984317
1.20783e-05;0.0007973680560712024
1.20785e-05;0.0007971334937496358
1.20788e-05;0.0007968989314280707
1.20790e-05;0.0007966643691065041
1.20793e-05;0.0007964298067849374
1.20795e-05;0.0007961952444633724
1.20798e-05;0.0007959606821418058
1.20800e-05;0.0007957261198202391
1.20803e-05;0.0007973470480621024
1.20805e-05;0.0008006476116107968
1.20808e-05;0.0008039481751594912
1.20810e-05;0.0008072487387081631
1.20813e-05;0.0008105493022568575
1.20815e-05;0.0008138498658055519
1.20817e-05;0.0008171504293542239
1.20820e-05;0.0008204509929029182
1.20823e-05;0.0008282364249825773
1.20825e-05;0.0008400816694264925
1.20828e-05;0.000851926913870488
1.20830e-05;0.0008637721583144834
1.20833e-05;0.0008756174027584789
1.20835e-05;0.0008874626472023941
1.20838e-05;0.0008993078916463895
1.20840e-05;0.000911153136090385
1.20843e-05;0.0009268567676945165
1.20845e-05;0.0009460531054486895
1.20848e-05;0.0009652494432028624
1.20850e-05;0.0009844457809569053
1.20853e-05;0.0010036421187110782
1.20855e-05;0.001022838456465251
1.20858e-05;0.001042034794219294
1.20860e-05;0.001063082995624956
1.20863e-05;0.0010858075491684983
1.20865e-05;0.0011085321027118863
1.20868e-05;0.0011312566562554284
1.20870e-05;0.0011539812097989706
1.20873e-05;0.0011767057633423586
1.20875e-05;0.0011994303168859008
1.20878e-05;0.0012213908010015005
1.20880e-05;0.0012426596308377335
1.20883e-05;0.0012639284606741105
1.20885e-05;0.0012851972905104877
1.20888e-05;0.0013064661203467205
1.20890e-05;0.0013277349501830977
1.20893e-05;0.0013490037800194747
1.20895e-05;0.0013664145183917107
1.20898e-05;0.0013803328182848942
1.20900e-05;0.0013942511181780776
1.20902e-05;0.0014081694180711666
1.20905e-05;0.00142208771796435
1.20908e-05;0.0014360060178575332
1.20910e-05;0.0014499243177506223
1.20913e-05;0.0014567424620972682
1.20915e-05;0.0014571333724937192
1.20918e-05;0.0014575242828901702
1.20920e-05;0.0014579151932866184
1.20923e-05;0.0014583061036830694
1.20925e-05;0.0014586970140795204
1.20928e-05;0.0014590879244759688
1.20930e-05;0.0014594788348724198
1.20933e-05;0.0014598697452688708
1.20935e-05;0.0014599103152042007
1.20938e-05;0.001446215804948192
1.20940e-05;0.001432521294692183
1.20943e-05;0.001418826784436267
1.20945e-05;0.0014051322741802583
1.20948e-05;0.0013914377639242495
1.20950e-05;0.0013777432536683334
1.20953e-05;0.0013640487434123246
1.20955e-05;0.0013503542331563157
1.20958e-05;0.0013366597229003997
1.20960e-05;0.0013193779763989784
1.20963e-05;0.0012988489761671254
1.20965e-05;0.0012783199759354117
1.20968e-05;0.0012577909757035587
1.20970e-05;0.001237261975471706
1.20973e-05;0.0012167329752399922
1.20975e-05;0.0011962023192007246
1.20978e-05;0.0011756067473148364
1.20980e-05;0.0011550111754290873
1.20983e-05;0.001134415603543199
1.20985e-05;0.0011138200316573106
1.20987e-05;0.0010932244597715618
1.20990e-05;0.0010726288878856734
1.20993e-05;0.0010554281738662347
1.20995e-05;0.001041300567977534
1.20998e-05;0.0010271729620887375
1.21000e-05;0.001013045356199941
1.21003e-05;0.0009989177503111446
1.21005e-05;0.0009847901444224438
1.21008e-05;0.0009706625385336473
1.21010e-05;0.0009565349326448509
1.21013e-05;0.0009424073267561501
1.21015e-05;0.0009284548952122556
1.21018e-05;0.0009213701650819784
1.21020e-05;0.0009142854349517491
1.21023e-05;0.000907200704821472
1.21025e-05;0.0009001159746911948
1.21028e-05;0.0008930312445609656
1.21030e-05;0.0008859465144306885
1.21033e-05;0.0008788617843004113
1.21035e-05;0.0008717770541701821
1.21038e-05;0.000864692324039905
1.21040e-05;0.0008600811004644557
1.21043e-05;0.000857708955343882
1.21045e-05;0.0008553368102232923
1.21048e-05;0.0008529646651027026
1.21050e-05;0.0008505925199821289
1.21053e-05;0.0008482203748615392
1.21055e-05;0.0008458482297409495
1.21058e-05;0.0008434760846203758
1.21060e-05;0.0008411039394997861
1.21063e-05;0.0008387317943791963
1.21065e-05;0.0008364182391352684
1.21068e-05;0.0008364016970723954
1.21070e-05;0.0008363851550095225
1.21072e-05;0.0008363686129466496
1.21075e-05;0.0008363520708837767
1.21078e-05;0.0008363355288209037
1.21080e-05;0.0008363189867580308
1.21083e-05;0.0008363024446951579
1.21085e-05;0.000836285902632285
1.21088e-05;0.0008362693605694121
1.21090e-05;0.0008362528185065391
1.21093e-05;0.0008365541542440783
1.21095e-05;0.0008371432407186629
1.21098e-05;0.0008377323271932436
1.21100e-05;0.0008383214136678283
1.21103e-05;0.0008389105001424131
1.21105e-05;0.0008394995866169938
1.21108e-05;0.0008400886730915784
1.21110e-05;0.0008423807277929659
1.21113e-05;0.0008462143508637419
1.21115e-05;0.0008500479739345438
1.21118e-05;0.0008538815970053459
1.21120e-05;0.0008577152200761219
1.21123e-05;0.0008615488431469239
1.21125e-05;0.0008653824662177259
1.21128e-05;0.0008721308810665549
1.21130e-05;0.0008815178365165334
1.21133e-05;0.000890904791966512
1.21135e-05;0.0009002917474164268
1.21138e-05;0.0009096787028664054
1.21140e-05;0.0009190656583163839
1.21143e-05;0.0009284526137662988
1.21145e-05;0.0009378395692162773
1.21148e-05;0.0009472265246662558
1.21150e-05;0.0009589101392344237
1.21153e-05;0.0009726727456457682
1.21155e-05;0.0009864353520571125
1.21158e-05;0.001000197958468364
1.21160e-05;0.0010139605648797083
1.21163e-05;0.0010277231712910529
1.21165e-05;0.001041485777702304
1.21168e-05;0.0010552483841136484
1.21170e-05;0.001069010990524993
1.21173e-05;0.0010829938284158684
1.21175e-05;0.0010971760252127772
1.21178e-05;0.0011113582220097819
1.21180e-05;0.0011255404188067867
1.21183e-05;0.0011397226156036953
1.21185e-05;0.0011539048124007002
1.21188e-05;0.0011680870091977048
1.21190e-05;0.0011802762375788761
1.21193e-05;0.0011906613823468928
1.21195e-05;0.0012010465271149095
1.21198e-05;0.0012114316718828558
1.21200e-05;0.0012218168166508725
1.21203e-05;0.0012322019614188892
1.21205e-05;0.0012425871061868354
1.21208e-05;0.0012492293303103031
1.21210e-05;0.0012524833713860241
1.21213e-05;0.0012557374124617232
1.21215e-05;0.001255986153360448
1.21218e-05;0.0012535144232474129
1.21220e-05;0.0012510426931343945
1.21223e-05;0.0012454705862528857
1.21225e-05;0.0012370919427103387
1.21228e-05;0.0012287132991678482
1.21230e-05;0.0012170034105696906
1.21233e-05;0.0012022779977066942
1.21235e-05;0.0011875525848437979
1.21238e-05;0.0011699592929184028
1.21240e-05;0.0011497699269254595
1.21243e-05;0.0011295805609326528
1.21245e-05;0.0011067918033728205
1.21248e-05;0.0010816500131740374
1.21250e-05;0.0010565082229754249
1.21253e-05;0.0010286368617511827
1.21255e-05;0.0009982946262672762
1.21258e-05;0.0009679523907833696
1.21260e-05;0.0009376101552996688
1.21263e-05;0.0009072679198157623
1.21265e-05;0.0008768511324206357
1.21268e-05;0.0008435115410626659
1.21270e-05;0.0008101719497044703
1.21273e-05;0.0007768323583462746
1.21275e-05;0.0007434927669883049
1.21278e-05;0.0007101531756301092
1.21280e-05;0.0006775542641651914
1.21283e-05;0.0006456258342032718
1.21285e-05;0.0006136974042411361
1.21288e-05;0.0005817689742790002
1.21290e-05;0.0005521979977321427
1.21293e-05;0.0005247610455090727
1.21295e-05;0.0004973240932860028
1.21298e-05;0.0004698871410631187
1.21300e-05;0.000445311224342868
1.21303e-05;0.0004233251867337006
1.21305e-05;0.00040308576140836157
1.21308e-05;0.00038562941914757604
1.21310e-05;0.000370482509159235
1.21313e-05;0.00035768587915289214
1.21315e-05;0.000347283969229707
1.21318e-05;0.0003393212071108294
1.21320e-05;0.0003338418204842118
1.21323e-05;0.0003308785546275998
1.21325e-05;0.00033042630198004946
1.21328e-05;0.0003324352037408691
1.21330e-05;0.0003368368937129279
1.21333e-05;0.0003435649607049985
1.21335e-05;0.00035255525842690737
1.21338e-05;0.00036374361293258086
1.21340e-05;0.00037706574334522033
1.21343e-05;0.0003929526051465723
1.21345e-05;0.0004102565494789802
1.21348e-05;0.0004294288924263756
1.21350e-05;0.00045029255536589436
1.21353e-05;0.00047274423721284543
1.21355e-05;0.0004966334325032396
1.21358e-05;0.000522101516863563
1.21360e-05;0.000548998850115314
1.21363e-05;0.0005758961833672473
1.21365e-05;0.0006042438297730966
1.21368e-05;0.0006339043350155413
1.21370e-05;0.000663564840258187
1.21373e-05;0.0006932253455008328
1.21375e-05;0.0007228858507432775
1.21378e-05;0.0007523685028787449
1.21380e-05;0.000781690158044149
1.21383e-05;0.0008110118132093544
1.21385e-05;0.0008403334683747584
1.21388e-05;0.0008696551235401626
1.21390e-05;0.0008971265674604675
1.21393e-05;0.0009229231550394199
1.21395e-05;0.0009487197426183722
1.21398e-05;0.0009720492779951944
1.21400e-05;0.0009931455775528304
1.21403e-05;0.0010142418771104666
1.21405e-05;0.0010337582941618519
1.21408e-05;0.0010518445630388416
1.21410e-05;0.0010699308319158313
1.21413e-05;0.0010880171007926983
1.21415e-05;0.001106103369669688
1.21418e-05;0.0011241896385466778
1.21420e-05;0.0011422759074235448
1.21423e-05;0.0011603408311004729
1.21425e-05;0.0011775689172690402
1.21427e-05;0.0011947970034374908
1.21430e-05;0.0012120250896060583
1.21433e-05;0.0012292531757746256
1.21435e-05;0.0012464812619431929
1.21438e-05;0.0012637093481116435
1.21440e-05;0.0012809374342802108
1.21443e-05;0.0012984445153681914
1.21445e-05;0.0013162041494612308
1.21448e-05;0.0013339637835543905
1.21450e-05;0.0013517234176475502
1.21453e-05;0.0013694830517405896
1.21455e-05;0.0013872426858337493
1.21458e-05;0.001405002319926909
1.21460e-05;0.0014227619540199484
1.21463e-05;0.001440521588113108
1.21465e-05;0.0014582812222062678
