Time(s);Current(A)
1.17500e-05;-0.001216243441809617
1.17503e-05;-0.0012043501380800208
1.17505e-05;-0.0011931353280230316
1.17508e-05;-0.0011826902438307146
1.17510e-05;-0.0011731902668459114
1.17513e-05;-0.0011651064600788725
1.17515e-05;-0.0011590727163164473
1.17518e-05;-0.001155425765828937
1.17520e-05;-0.0011541813239448458
1.17523e-05;-0.0011561560296498808
1.17525e-05;-0.0011589136175856657
1.17528e-05;-0.0011651069481584848
1.17530e-05;-0.0011723045582611032
1.17533e-05;-0.0011843561718446309
1.17535e-05;-0.0011978266275382416
1.17538e-05;-0.0012112970832319435
1.17540e-05;-0.0012298553843620363
1.17543e-05;-0.0012499008804196196
1.17545e-05;-0.0012742786609140871
1.17548e-05;-0.0012999227832265535
1.17550e-05;-0.001325566905538846
1.17553e-05;-0.0013551794497010845
1.17555e-05;-0.0013859519773808855
1.17558e-05;-0.00141976689775251
1.17560e-05;-0.001454471120096372
1.17563e-05;-0.0014915892220060318
1.17565e-05;-0.001529412909313312
1.17568e-05;-0.001568980434530772
1.17570e-05;-0.0016090576896382344
1.17572e-05;-0.0016504144018088833
1.17575e-05;-0.0016921451037322536
1.17578e-05;-0.0017347099345494557
1.17580e-05;-0.0017775185841449924
1.17583e-05;-0.0018203965080125781
1.17585e-05;-0.00186329468099089
1.17588e-05;-0.0019054713295483274
1.17590e-05;-0.001947437074006182
1.17593e-05;-0.001988019495035037
1.17595e-05;-0.0020281975658112015
1.17598e-05;-0.002066342360139966
1.17600e-05;-0.002103892820687175
1.17603e-05;-0.0021393895558149685
1.17605e-05;-0.0021726268205087395
1.17608e-05;-0.00220350266621434
1.17610e-05;-0.002231716660955205
1.17613e-05;-0.002255611649010146
1.17615e-05;-0.0022784247447213174
1.17618e-05;-0.0022958352579876946
1.17620e-05;-0.002311666577602832
1.17623e-05;-0.0023205668666993868
1.17625e-05;-0.002327441191453298
1.17628e-05;-0.0023343155162071634
1.17630e-05;-0.002332636225028905
1.17633e-05;-0.002328456682144665
1.17635e-05;-0.0023242771392604535
1.17638e-05;-0.0023142992767716435
1.17640e-05;-0.0022998487280604467
1.17643e-05;-0.002281909650427613
1.17645e-05;-0.0022606130748617846
1.17648e-05;-0.0022360897246811273
1.17650e-05;-0.0022084631913578115
1.17653e-05;-0.0021778386172762
1.17655e-05;-0.002144334188992393
1.17657e-05;-0.0021081262758918503
1.17660e-05;-0.0020694355571695333
1.17663e-05;-0.0020284918588476565
1.17665e-05;-0.001985525397769601
1.17668e-05;-0.001940766263274206
1.17670e-05;-0.0018944398977751875
1.17673e-05;-0.0018467605816570212
1.17675e-05;-0.001797950355006723
1.17678e-05;-0.0017482680563143515
1.17680e-05;-0.001697999848357209
1.17683e-05;-0.0016474379031066332
1.17685e-05;-0.0015968743855996315
1.17688e-05;-0.0015466016521297444
1.17690e-05;-0.0014969088949769163
1.17693e-05;-0.001448078322877563
1.17695e-05;-0.0014003971366106825
1.17698e-05;-0.0013541753211426027
1.17700e-05;-0.0013097402045187437
1.17703e-05;-0.0012674227665877284
1.17705e-05;-0.0012286583370285198
1.17708e-05;-0.0011907875015156433
1.17710e-05;-0.001156298763868359
1.17713e-05;-0.0011244941783100787
1.17715e-05;-0.0010939820881613808
1.17718e-05;-0.0010641913617772947
1.17720e-05;-0.0010351874136081594
1.17723e-05;-0.0010071911113016094
1.17725e-05;-0.00098042925061481
1.17728e-05;-0.0009551284866353537
1.17730e-05;-0.0009313982230513954
1.17733e-05;-0.000908905842635961
1.17735e-05;-0.0008870011284438759
1.17738e-05;-0.0008653458411207851
1.17740e-05;-0.0008440004053234185
1.17742e-05;-0.0008231226871986082
1.17745e-05;-0.0008028741229215245
1.17748e-05;-0.0007834162124196032
1.17750e-05;-0.0007648368386267053
1.17753e-05;-0.0007469471064567737
1.17755e-05;-0.0007293591944908666
1.17758e-05;-0.0007118806384674129
1.17760e-05;-0.0006945688934063964
1.17763e-05;-0.0006775422372992195
1.17765e-05;-0.000660921340171248
1.17768e-05;-0.000644826744544168
1.17770e-05;-0.0006293330426926831
1.17773e-05;-0.0006143413323498074
1.17775e-05;-0.0005996916865349952
1.17778e-05;-0.000585111016722137
1.17780e-05;-0.0005707896524895405
1.17783e-05;-0.000556813389038113
1.17785e-05;-0.0005434669081033519
1.17788e-05;-0.0005302815050264201
1.17790e-05;-0.0005179680434252428
1.17793e-05;-0.0005059094533521044
1.17795e-05;-0.0004944988231975315
1.17798e-05;-0.000483277593982455
1.17800e-05;-0.0004725463180894522
1.17803e-05;-0.0004623653899901135
1.17805e-05;-0.00045277174516663476
1.17808e-05;-0.00044384433295588936
1.17810e-05;-0.00043594057632858317
1.17813e-05;-0.0004282908091160653
1.17815e-05;-0.0004220274431880699
1.17818e-05;-0.00041616932718097034
1.17820e-05;-0.0004103112111739105
1.17823e-05;-0.00040618431386835906
1.17825e-05;-0.00040256345781485275
1.17827e-05;-0.00039894260176137093
1.17830e-05;-0.000397147439562175
1.17833e-05;-0.0003958859340310222
1.17835e-05;-0.00039462442849987794
1.17838e-05;-0.00039501495820491945
1.17840e-05;-0.00039588838355948165
1.17843e-05;-0.00039676180891404385
1.17845e-05;-0.00039918288515839205
1.17848e-05;-0.0004020563451444991
1.17850e-05;-0.0004049298051306062
1.17853e-05;-0.0004091739017750417
1.17855e-05;-0.00041381864028529276
1.17858e-05;-0.0004184633787955438
1.17860e-05;-0.00042418695823993814
1.17863e-05;-0.00043022588664438856
1.17865e-05;-0.000436264815048839
1.17868e-05;-0.0004431459648549816
1.17870e-05;-0.00045027329890829927
1.17873e-05;-0.000457400632961617
1.17875e-05;-0.0004650394315448206
1.17878e-05;-0.00047282773299036436
1.17880e-05;-0.0004806160344359081
1.17883e-05;-0.0004885693239551207
1.17885e-05;-0.0004965708400625905
1.17888e-05;-0.0005045723561700602
1.17890e-05;-0.0005124676186968299
1.17893e-05;-0.0005203318229322049
1.17895e-05;-0.0005279028952036786
1.17898e-05;-0.0005353882839817779
1.17900e-05;-0.0005422494536177926
1.17903e-05;-0.0005489281618258965
1.17905e-05;-0.0005556068700339553
1.17908e-05;-0.0005614399486783161
1.17910e-05;-0.000567025846857877
1.17912e-05;-0.0005722695400442099
1.17915e-05;-0.0005774132055199807
1.17918e-05;-0.000582802146058656
1.17920e-05;-0.0005882627813518941
1.17923e-05;-0.0005937234166451692
1.17925e-05;-0.0005992472155407846
1.17928e-05;-0.0006047894773772139
1.17930e-05;-0.0006103317392136059
1.17933e-05;-0.000616382072431821
1.17935e-05;-0.0006225809166833544
1.17938e-05;-0.0006287797609348457
1.17940e-05;-0.0006349786051863791
1.17943e-05;-0.0006411774494379124
1.17945e-05;-0.0006473762936894038
1.17948e-05;-0.0006541956073540918
1.17950e-05;-0.0006611962863879002
1.17953e-05;-0.0006681969654216611
1.17955e-05;-0.0006751976444554696
1.17958e-05;-0.0006827072731859391
1.17960e-05;-0.0006903656696841873
1.17963e-05;-0.0006980240661824874
1.17965e-05;-0.0007056824626807876
1.17968e-05;-0.0007135159884115716
1.17970e-05;-0.0007214007050266525
1.17973e-05;-0.0007292854216417333
1.17975e-05;-0.0007371701382567607
1.17978e-05;-0.0007450548548718415
1.17980e-05;-0.0007529395714869223
1.17983e-05;-0.0007608242881019497
1.17985e-05;-0.0007684616900991381
1.17988e-05;-0.000775443179037271
1.17990e-05;-0.0007824246679753567
1.17993e-05;-0.0007894061569134896
1.17995e-05;-0.0007963876458516226
1.17997e-05;-0.0008033691347897081
1.18000e-05;-0.0008103506237278411
1.18003e-05;-0.000817332112665974
1.18005e-05;-0.0008231887700005445
1.18008e-05;-0.0008287166351421747
1.18010e-05;-0.0008337573282922346
1.18013e-05;-0.000838528196151887
1.18015e-05;-0.0008435252446642292
1.18018e-05;-0.0008485992937775475
1.18020e-05;-0.0008541365001018443
1.18023e-05;-0.0008598090888910205
1.18025e-05;-0.0008654816776802353
1.18028e-05;-0.0008713811494684171
1.18030e-05;-0.0008773469399468893
1.18033e-05;-0.0008838286315714788
1.18035e-05;-0.0008904611228968174
1.18038e-05;-0.0008970936142221113
1.18040e-05;-0.0009046070028319794
1.18043e-05;-0.0009123778807843564
1.18045e-05;-0.0009201487587366808
1.18048e-05;-0.0009285898397443388
1.18050e-05;-0.0009372268234379161
1.18053e-05;-0.000945863807131435
1.18055e-05;-0.0009545007908250123
1.18058e-05;-0.000963969110821099
1.18060e-05;-0.0009736804333120904
1.18063e-05;-0.0009833917558031476
1.18065e-05;-0.0009931030782942048
1.18068e-05;-0.0010031573827491893
1.18070e-05;-0.0010133119420261873
1.18073e-05;-0.0010234665013031854
1.18075e-05;-0.0010337616510180062
1.18078e-05;-0.0010440978958072688
1.18080e-05;-0.0010544341405965315
1.18082e-05;-0.0010646263417439983
1.18085e-05;-0.0010747764384336598
1.18088e-05;-0.001084926535123321
1.18090e-05;-0.0010945478111803496
1.18093e-05;-0.0011040145111257795
1.18095e-05;-0.0011134812110712095
1.18098e-05;-0.0011221979652271735
1.18100e-05;-0.0011306955076183366
1.18103e-05;-0.0011391930500095574
1.18105e-05;-0.0011465324478901208
1.18108e-05;-0.0011535333160987797
1.18110e-05;-0.0011605341843074861
1.18113e-05;-0.0011666671422809393
1.18115e-05;-0.0011725464070714642
1.18118e-05;-0.0011780634136209305
1.18120e-05;-0.0011834745308255284
1.18123e-05;-0.0011888856480300899
1.18125e-05;-0.0011940510929856019
1.18128e-05;-0.0011985649806741194
1.18130e-05;-0.0012030788683626064
1.18133e-05;-0.001207592756051124
1.18135e-05;-0.001211664063119403
1.18138e-05;-0.0012156060023317582
1.18140e-05;-0.00121954794154414
1.18143e-05;-0.0012234898807565219
1.18145e-05;-0.001227431819968877
1.18148e-05;-0.001230934439586563
1.18150e-05;-0.0012343086445574592
1.18153e-05;-0.0012376828495283326
1.18155e-05;-0.0012410570544992288
1.18158e-05;-0.0012444312594701251
1.18160e-05;-0.0012474041477891294
1.18163e-05;-0.0012502597298538333
1.18165e-05;-0.0012531153119185372
1.18167e-05;-0.0012559708939832216
1.18170e-05;-0.0012588264760479255
1.18173e-05;-0.0012616820581126294
1.18175e-05;-0.001264537640177314
1.18178e-05;-0.0012673932222420179
1.18180e-05;-0.0012702488043067218
1.18183e-05;-0.0012728863718732624
1.18185e-05;-0.001274945734407878
1.18188e-05;-0.0012770050969425077
1.18190e-05;-0.0012790644594771374
1.18193e-05;-0.001281123822011753
1.18195e-05;-0.0012831831845463828
1.18198e-05;-0.0012852425470810125
1.18200e-05;-0.0012873019096156283
1.18203e-05;-0.0012893612721502578
1.18205e-05;-0.0012914206346848875
1.18208e-05;-0.0012929991500434889
1.18210e-05;-0.0012944371120986952
1.18213e-05;-0.0012959967170124691
1.18215e-05;-0.0012975918785572383
1.18218e-05;-0.001299187040102018
1.18220e-05;-0.0013014447772844281
1.18223e-05;-0.0013038961876321766
1.18225e-05;-0.0013063475979799418
1.18228e-05;-0.001308799008327707
1.18230e-05;-0.0013112504186754555
1.18233e-05;-0.0013140525278663078
1.18235e-05;-0.0013177847395848127
1.18238e-05;-0.0013215169513032924
1.18240e-05;-0.0013252491630217976
1.18243e-05;-0.0013289813747403027
1.18245e-05;-0.0013327135864587825
1.18248e-05;-0.0013376088713514072
1.18250e-05;-0.0013428441265816253
1.18252e-05;-0.001348079381811808
1.18255e-05;-0.0013533146370420261
1.18258e-05;-0.0013585498922722443
1.18260e-05;-0.001363785147502427
1.18263e-05;-0.001369020402732645
1.18265e-05;-0.0013742556579628632
1.18268e-05;-0.001380203947236196
1.18270e-05;-0.001386360658842463
1.18273e-05;-0.0013925173704487717
1.18275e-05;-0.0013986740820550805
1.18278e-05;-0.0014048307936613477
1.18280e-05;-0.0014109875052676565
1.18283e-05;-0.0014171442168739654
1.18285e-05;-0.0014233009284802325
1.18288e-05;-0.001429276744754361
1.18290e-05;-0.0014351996846931646
1.18293e-05;-0.001441122624631928
1.18295e-05;-0.0014466438218394008
1.18298e-05;-0.0014520475882479635
1.18300e-05;-0.0014574513546564895
1.18303e-05;-0.0014624731666930903
1.18305e-05;-0.001467138935389198
1.18308e-05;-0.0014714571598976013
1.18310e-05;-0.0014752865089188794
1.18313e-05;-0.0014781271521960826
1.18315e-05;-0.0014792669255490477
1.18318e-05;-0.0014783273542632086
1.18320e-05;-0.0014753023592730897
1.18323e-05;-0.0014702742933675793
1.18325e-05;-0.0014626278265272349
1.18328e-05;-0.0014543471464779961
1.18330e-05;-0.0014439668434277724
1.18333e-05;-0.0014313716677445017
1.18335e-05;-0.0014154715145622673
1.18337e-05;-0.001398742108946902
1.18340e-05;-0.0013792517767821362
1.18343e-05;-0.0013572821046282293
1.18345e-05;-0.0013332792171212675
1.18348e-05;-0.0013067445981294974
1.18350e-05;-0.0012796019001842603
1.18352e-05;-0.0012497001674451125
1.18355e-05;-0.001218991959230621
1.18358e-05;-0.0011861607963683444
1.18360e-05;-0.0011514753017837509
1.18363e-05;-0.0011153620375714997
1.18365e-05;-0.0010780361919093288
1.18368e-05;-0.00103971299039579
1.18370e-05;-0.0010005830020607563
1.18373e-05;-0.000960748731024062
1.18375e-05;-0.0009202605822557666
1.18378e-05;-0.0008792507685150674
1.18380e-05;-0.0008379432031057856
1.18383e-05;-0.0007965834703944917
1.18385e-05;-0.000755417950244239
1.18388e-05;-0.0007146929455995355
1.18390e-05;-0.0006746393738238883
1.18393e-05;-0.0006354329907057285
1.18395e-05;-0.0005972167237112887
1.18398e-05;-0.0005601849866132203
1.18400e-05;-0.0005245894549181699
1.18403e-05;-0.0004906954720649349
1.18405e-05;-0.00045876872137783016
1.18408e-05;-0.0004290749686429994
1.18410e-05;-0.0004018079072391741
1.18413e-05;-0.00037687843666919373
1.18415e-05;-0.0003539654944026863
1.18418e-05;-0.0003328964357628627
1.18420e-05;-0.0003137223870232356
1.18422e-05;-0.00029655079677853467
1.18425e-05;-0.0002814912315951657
1.18428e-05;-0.0002686532382910949
1.18430e-05;-0.00025810123181150933
1.18433e-05;-0.00024972250530628105
1.18435e-05;-0.0002432590206057375
1.18437e-05;-0.0002385457652771627
1.18440e-05;-0.00023555789642398952
1.18443e-05;-0.00023430581261747732
1.18445e-05;-0.00023480128306559085
1.18448e-05;-0.00023705601270504841
1.18450e-05;-0.00024105350182423388
1.18453e-05;-0.00024666623806490393
1.18455e-05;-0.0002536757263000824
1.18458e-05;-0.0002623674783661241
1.18460e-05;-0.00027146214889746406
1.18463e-05;-0.0002822632163499148
1.18465e-05;-0.00029356306956304624
1.18468e-05;-0.0003064072931213614
1.18470e-05;-0.00031970294150797325
1.18473e-05;-0.00033418005854473677
1.18475e-05;-0.0003490025229810294
1.18478e-05;-0.0003645073817831483
1.18480e-05;-0.0003802117068341952
1.18483e-05;-0.0003963025129569626
1.18485e-05;-0.00041250628884236776
1.18488e-05;-0.00042881927980610026
1.18490e-05;-0.0004451641947174151
1.18493e-05;-0.0004612153132985078
1.18495e-05;-0.00047718055418959933
1.18498e-05;-0.0004920923764837022
1.18500e-05;-0.0005066962808544426
1.18503e-05;-0.000521300185225282
1.18505e-05;-0.0005347034481578576
1.18507e-05;-0.0005470113988107116
1.18510e-05;-0.0005584160991106462
1.18513e-05;-0.0005694864210636585
1.18515e-05;-0.0005811458305888434
1.18518e-05;-0.0005938862903004164
1.18520e-05;-0.0006080231064872688
1.18522e-05;-0.0006224914064106355
1.18525e-05;-0.0006380785443762927
1.18528e-05;-0.0006539927225968479
1.18530e-05;-0.0006705421927323025
1.18533e-05;-0.0006885286443292408
1.18535e-05;-0.0007068808504271565
1.18538e-05;-0.000727546155085349
1.18540e-05;-0.0007488875865055009
1.18543e-05;-0.0007721273716916766
1.18545e-05;-0.0007959220522926625
1.18548e-05;-0.0008214268420086166
1.18550e-05;-0.0008474315025727809
1.18553e-05;-0.0008734361631369453
1.18555e-05;-0.0009018648076390387
1.18558e-05;-0.0009310019910854758
1.18560e-05;-0.000960139174531913
1.18563e-05;-0.0009909213066383018
1.18565e-05;-0.0010221842629651293
1.18568e-05;-0.0010541816631986468
1.18570e-05;-0.0010863937439428342
1.18573e-05;-0.0011186058246872397
1.18575e-05;-0.0011514217356568001
1.18578e-05;-0.001184414148303188
1.18580e-05;-0.0012174065609497995
1.18583e-05;-0.0012502418528219771
1.18585e-05;-0.0012830312177445466
1.18588e-05;-0.0013149708693153059
1.18590e-05;-0.001346662146714965
1.18592e-05;-0.00137711878363244
1.18595e-05;-0.0014072145308388002
1.18598e-05;-0.0014357706596089602
1.18600e-05;-0.0014638767525497855
1.18603e-05;-0.0014898262896688432
1.18605e-05;-0.0015151454580129833
1.18607e-05;-0.0015377099606171038
1.18610e-05;-0.001559469264835098
1.18613e-05;-0.0015793414081719623
1.18615e-05;-0.001597461474049009
1.18618e-05;-0.0016152306431112644
1.18620e-05;-0.0016329998121736404
1.18623e-05;-0.00164889290063503
1.18625e-05;-0.0016642376042049342
1.18628e-05;-0.0016788253567407525
1.18630e-05;-0.001691405568946401
1.18633e-05;-0.0017039857811519642
1.18635e-05;-0.0017151968250627017
1.18638e-05;-0.0017260076563139454
1.18640e-05;-0.0017368184875651159
1.18643e-05;-0.0017462820288198352
1.18645e-05;-0.0017553517525178354
1.18648e-05;-0.001764421476215774
1.18650e-05;-0.0017719871044353636
1.18653e-05;-0.0017791130803099268
1.18655e-05;-0.0017862390561844414
1.18658e-05;-0.0017924749848572956
1.18660e-05;-0.0017984507496342746
1.18663e-05;-0.0018044265144112133
1.18665e-05;-0.0018100106061306215
1.18668e-05;-0.0018145559259560324
1.18670e-05;-0.0018191012457814124
1.18673e-05;-0.0018236465656068233
1.18675e-05;-0.0018272664322645062
1.18678e-05;-0.0018306157857391331
1.18680e-05;-0.0018339651392137825
1.18683e-05;-0.0018373144926884322
1.18685e-05;-0.001840663846163059
1.18688e-05;-0.001843700966333869
1.18690e-05;-0.0018459099999815905
1.18692e-05;-0.0018481190336292971
1.18695e-05;-0.0018503280672770186
1.18698e-05;-0.00185253710092474
1.18700e-05;-0.0018547461345724615
1.18703e-05;-0.0018566438885102047
1.18705e-05;-0.001858348499527214
1.18708e-05;-0.0018599078532832755
1.18710e-05;-0.0018611781792150256
1.18713e-05;-0.0018615575435993348
1.18715e-05;-0.0018601648870542988
1.18718e-05;-0.0018565317987807926
1.18720e-05;-0.0018506572168823254
1.18723e-05;-0.0018426515862835528
1.18725e-05;-0.0018326293695777012
1.18728e-05;-0.0018207051831931498
1.18730e-05;-0.0018069142425059179
1.18733e-05;-0.0017910046834935444
1.18735e-05;-0.0017714927350666488
1.18738e-05;-0.0017510727891262734
1.18740e-05;-0.0017276251341208039
1.18743e-05;-0.0017014744024374338
1.18745e-05;-0.0016731265981433639
1.18748e-05;-0.0016420736117963193
1.18750e-05;-0.0016103722062636612
1.18753e-05;-0.00157569461947256
1.18755e-05;-0.0015401470845376245
1.18758e-05;-0.001502260979910926
1.18760e-05;-0.0014623380677085628
1.18763e-05;-0.001420858692981575
1.18765e-05;-0.001378071762775818
1.18768e-05;-0.0013342258390470615
1.18770e-05;-0.0012895385435086246
1.18773e-05;-0.0012441147161344687
1.18775e-05;-0.0011979908474608382
1.18777e-05;-0.0011513047403338694
1.18780e-05;-0.0011043088555037837
1.18783e-05;-0.0010572833464551977
1.18785e-05;-0.001010509202354911
1.18788e-05;-0.0009642673784165934
1.18790e-05;-0.0009188192948823625
1.18793e-05;-0.0008743557978305858
1.18795e-05;-0.0008310248122524173
1.18798e-05;-0.0007890377943361073
1.18800e-05;-0.0007486780755820428
1.18803e-05;-0.0007102461322585408
1.18805e-05;-0.0006740430725949764
1.18808e-05;-0.0006403699597797366
1.18810e-05;-0.0006095100072867769
1.18813e-05;-0.0005816575272599946
1.18815e-05;-0.0005568866558522687
1.18818e-05;-0.0005352347685899656
1.18820e-05;-0.000516758744130678
1.18823e-05;-0.0005015233087051052
1.18825e-05;-0.0004895935291232017
1.18828e-05;-0.00048103447496671757
1.18830e-05;-0.00047590007455793705
1.18833e-05;-0.0004741884789395273
1.18835e-05;-0.00047582258216813633
1.18838e-05;-0.0004807022951136042
1.18840e-05;-0.0004887397343005922
1.18843e-05;-0.0004998518623459089
1.18845e-05;-0.0005139559464144736
1.18848e-05;-0.0005309691833364353
1.18850e-05;-0.0005518327236445152
1.18853e-05;-0.0005736306195416951
1.18855e-05;-0.0005992673820840091
1.18858e-05;-0.0006260262587131828
1.18860e-05;-0.0006560638848189822
1.18862e-05;-0.0006870599008126503
1.18865e-05;-0.0007207917775988141
1.18868e-05;-0.0007553233560204069
1.18870e-05;-0.0007920291466448035
1.18873e-05;-0.0008293704670660971
1.18875e-05;-0.000868205846153768
1.18878e-05;-0.0009074779437916448
1.18880e-05;-0.0009475112927072268
1.18883e-05;-0.0009877671580222022
1.18885e-05;-0.0010280623222981874
1.18888e-05;-0.0010683689737970368
1.18890e-05;-0.0011079814412421984
1.18893e-05;-0.0011473909962713225
1.18895e-05;-0.001185298677883682
1.18898e-05;-0.0012227673566673073
1.18900e-05;-0.0012578935921658326
1.18903e-05;-0.0012923351233357588
1.18905e-05;-0.0013226737829208643
1.18908e-05;-0.0013518131588558626
1.18910e-05;-0.0013809525347906633
1.18913e-05;-0.001406699783559053
1.18915e-05;-0.0014296612470619612
1.18918e-05;-0.0014520982436732651
1.18920e-05;-0.0014745352402847213
1.18923e-05;-0.0014942204057870302
1.18925e-05;-0.0015131012014743394
1.18928e-05;-0.001530909857057626
