Time(s);Current(A)
7.30000e-06;0.0009149199140052972
7.30025e-06;0.0009233692740350691
7.30050e-06;0.0009361939194543479
7.30075e-06;0.00094918309092455
7.30100e-06;0.000962172262394752
7.30125e-06;0.0009751614338649982
7.30150e-06;0.0009881506053352
7.30175e-06;0.0010011397768054462
7.30200e-06;0.0010141289482756483
7.30225e-06;0.0010268817788765157
7.30250e-06;0.0010393613306339362
7.30275e-06;0.0010518408823913144
7.30300e-06;0.0010643204341486926
7.30325e-06;0.001076799985906113
7.30350e-06;0.0010892795376634913
7.30375e-06;0.0011017590894208695
7.30400e-06;0.00111423864117829
7.30425e-06;0.0011190696094345162
7.30450e-06;0.0011236129641692938
7.30475e-06;0.0011281563189040871
7.30500e-06;0.001132699673638865
7.30525e-06;0.0011372430283736426
7.30550e-06;0.001141786383108436
7.30575e-06;0.0011463297378432136
7.30600e-06;0.0011508730925780068
7.30625e-06;0.0011554164473127847
7.30650e-06;0.0011599598020475624
7.30675e-06;0.0011645031567823557
7.30700e-06;0.0011690465115171333
7.30725e-06;0.0011676515470829107
7.30750e-06;0.0011593901570524975
7.30775e-06;0.0011511287670221125
7.30800e-06;0.0011428673769917272
7.30825e-06;0.001134605986961314
7.30850e-06;0.0011263445969309288
7.30875e-06;0.0011180832069005438
7.30900e-06;0.0011098218168701306
7.30925e-06;0.0011015604268397453
7.30950e-06;0.00109329903680936
7.30975e-06;0.0010850376467789469
7.31000e-06;0.0010767762567485619
7.31025e-06;0.0010685148667181486
7.31050e-06;0.0010542991140075504
7.31075e-06;0.0010398594564109455
7.31100e-06;0.0010254197988142913
7.31125e-06;0.001010980141217686
7.31150e-06;0.0009965404836210809
7.31175e-06;0.0009821008260244269
7.31200e-06;0.0009676611684278217
7.31225e-06;0.000953397578954737
7.31250e-06;0.0009391406102595506
7.31275e-06;0.0009248836415644123
7.31300e-06;0.0009106266728692742
7.31325e-06;0.0008963697041740877
7.31350e-06;0.0008821127354789494
7.31375e-06;0.0008678557667838113
7.31400e-06;0.000860366702753981
7.31425e-06;0.0008531321356373455
7.31450e-06;0.0008458975685206855
7.31475e-06;0.0008386630014040499
7.31500e-06;0.0008314284342874143
7.31525e-06;0.0008241938671707542
7.31550e-06;0.0008169593000541187
7.31575e-06;0.0008097247329374832
7.31600e-06;0.0008024901658208231
7.31625e-06;0.0007952555987041876
7.31650e-06;0.0007880210315875521
7.31675e-06;0.000780786464470892
7.31700e-06;0.0007847191549950731
7.31725e-06;0.0007890717735083915
7.31750e-06;0.0007934243920217247
7.31775e-06;0.0007977770105350431
7.31800e-06;0.0008021296290483614
7.31825e-06;0.0008064822475616946
7.31850e-06;0.000810834866075013
7.31875e-06;0.0008151874845883461
7.31900e-06;0.0008195401031016646
7.31925e-06;0.0008238927216149829
7.31950e-06;0.0008282453401283162
7.31975e-06;0.0008325979586416345
7.32000e-06;0.0008431929527985075
7.32025e-06;0.0008540226821370287
7.32050e-06;0.0008648524114755132
7.32075e-06;0.0008756821408139977
7.32100e-06;0.000886511870152519
7.32125e-06;0.0008973415994910036
7.32150e-06;0.0009081713288294881
7.32175e-06;0.0009193804690538156
7.32200e-06;0.0009310283187079761
7.32225e-06;0.0009426761683621368
7.32250e-06;0.0009543240180163368
7.32275e-06;0.0009659718676704973
7.32300e-06;0.0009776197173246974
7.32325e-06;0.000989267566978858
7.32350e-06;0.0010009154166330187
7.32375e-06;0.001010829989810906
7.32400e-06;0.0010206793857242885
7.32425e-06;0.0010305287816376708
7.32450e-06;0.0010393931310288625
7.32475e-06;0.0010482204392217116
7.32500e-06;0.0010570477474145608
7.32525e-06;0.0010717600344647017
7.32550e-06;0.0010866936173256781
7.32575e-06;0.0011085605978024442
7.32600e-06;0.0011306882983064346
7.32625e-06;0.0011586813994051933
7.32650e-06;0.0011868950601035774
7.32675e-06;0.0012208992303357274
7.32700e-06;0.0012551211440012605
7.32725e-06;0.0012978112452027716
7.32750e-06;0.0013408197799061753
7.32775e-06;0.0013921617543334655
7.32800e-06;0.0014438170952734007
7.32825e-06;0.0015022593614988776
7.32850e-06;0.0015609568398789319
7.32875e-06;0.0016271860028920528
7.32900e-06;0.0016936983836186882
7.32925e-06;0.0017602107643453237
7.32950e-06;0.0018360682031531032
7.32975e-06;0.0019122770488653477
7.33000e-06;0.001988485894577592
7.33025e-06;0.002072249069885589
7.33050e-06;0.0021562963144368705
7.33075e-06;0.0022403435589881514
7.33100e-06;0.0023243908035397174
7.33125e-06;0.0024084380480909984
7.33150e-06;0.0024924852926425643
7.33175e-06;0.0025769772461120342
7.33200e-06;0.00266148592219393
7.33225e-06;0.0027459945982761125
7.33250e-06;0.0028305032743580084
7.33275e-06;0.002915011950439904
7.33300e-06;0.0029995206265220863
7.33325e-06;0.0030601880277876994
7.33350e-06;0.003119958913642659
7.33375e-06;0.003179729799497821
7.33400e-06;0.0032395006853527804
7.33425e-06;0.00329927157120774
7.33450e-06;0.003359042457062902
7.33475e-06;0.0034188133429178614
7.33500e-06;0.003478584228772821
7.33525e-06;0.003538355114627983
7.33550e-06;0.0035981260004829423
7.33575e-06;0.0036578968863381044
7.33600e-06;0.0036794205477015253
7.33625e-06;0.0036995059795062366
7.33650e-06;0.0037195914113110156
7.33675e-06;0.003739676843115727
7.33700e-06;0.0037597622749204382
7.33725e-06;0.0037798477067252172
7.33750e-06;0.0037999331385299285
7.33775e-06;0.0038200185703346394
7.33800e-06;0.003840104002139419
7.33825e-06;0.00386018943394413
7.33850e-06;0.003880274865748841
7.33875e-06;0.0038750257817003974
7.33900e-06;0.0038688240311505655
7.33925e-06;0.0038626222806007336
7.33950e-06;0.0038564205300508805
7.33975e-06;0.0038502187795010486
7.34000e-06;0.0038440170289511955
7.34025e-06;0.0038378152784013637
7.34050e-06;0.0038316135278515314
7.34075e-06;0.0038254117773016787
7.34100e-06;0.0038143168560157413
7.34125e-06;0.003797564004967162
7.34150e-06;0.0037808111539185257
7.34175e-06;0.003764058302869946
7.34200e-06;0.0037473054518213666
7.34225e-06;0.0037305526007727304
7.34250e-06;0.0037137997497241506
7.34275e-06;0.0036970468986755713
7.34300e-06;0.003680294047626935
7.34325e-06;0.0036635411965783553
7.34350e-06;0.003648633206292019
7.34375e-06;0.003633794589229773
7.34400e-06;0.003618955972167577
7.34425e-06;0.0036041173551053306
7.34450e-06;0.0035892787380431344
7.34475e-06;0.0035744401209809383
7.34500e-06;0.003559601503918692
7.34525e-06;0.0035447628868564957
7.34550e-06;0.003525635536405315
7.34575e-06;0.003506346914562389
7.34600e-06;0.0034870582927195278
7.34625e-06;0.0034677696708766666
7.34650e-06;0.00344848104903374
7.34675e-06;0.0034291924271908788
7.34700e-06;0.0034099038053480176
7.34725e-06;0.003390615183505091
7.34750e-06;0.003358774105291358
7.34775e-06;0.0033264610107679713
7.34800e-06;0.0032941479162444756
7.34825e-06;0.003261834821721089
7.34850e-06;0.0032295217271975933
7.34875e-06;0.003197208632674207
7.34900e-06;0.0031648955381508204
7.34925e-06;0.003132582443627324
7.34950e-06;0.0031002693491039377
7.34975e-06;0.0030638238469353376
7.35000e-06;0.0030226000785942768
7.35025e-06;0.0029813763102533556
7.35050e-06;0.0029401525419124343
7.35075e-06;0.002898928773571373
7.35100e-06;0.002857705005230452
7.35125e-06;0.0028164812368895306
7.35150e-06;0.0027752574685484697
7.35175e-06;0.0027340337002075485
7.35200e-06;0.0026928099318666273
7.35225e-06;0.0026537536417184644
7.35250e-06;0.002614778856339463
7.35275e-06;0.00257580407096033
7.35300e-06;0.002536829285581329
7.35325e-06;0.002497854500202328
7.35350e-06;0.0024588797148231947
7.35375e-06;0.002419904929444194
7.35400e-06;0.0023935590609811476
7.35425e-06;0.0023676880840114603
7.35450e-06;0.0023418171070418606
7.35475e-06;0.002315946130072261
7.35500e-06;0.0022900751531025735
7.35525e-06;0.002264204176132974
7.35550e-06;0.002238333199163374
7.35575e-06;0.0022276758223692284
7.35600e-06;0.0022175905302087174
7.35625e-06;0.0022075052380482064
7.35650e-06;0.0022074799938864866
7.35675e-06;0.0022078330427524806
7.35700e-06;0.0022081860916184754
7.35725e-06;0.002218856791294605
7.35750e-06;0.0022299154707660185
7.35775e-06;0.002240974150237469
7.35800e-06;0.0022615657044749464
7.35825e-06;0.002282515728180707
7.35850e-06;0.0023034657518865385
7.35875e-06;0.002337597799125461
7.35900e-06;0.0023722255366028827
7.35925e-06;0.0024068532740804216
7.35950e-06;0.0024414810115578433
7.35975e-06;0.002476108749035265
7.36000e-06;0.0025107364865128044
7.36025e-06;0.002545364223990226
7.36050e-06;0.002590990665471162
7.36075e-06;0.002637030696731996
7.36100e-06;0.002683070727992674
7.36125e-06;0.0027291107592533515
7.36150e-06;0.0027751507905141855
7.36175e-06;0.002821190821774863
7.36200e-06;0.002867230853035697
7.36225e-06;0.002910543444542782
7.36250e-06;0.0029537534747657145
7.36275e-06;0.0029969635049887935
7.36300e-06;0.0030401735352117262
7.36325e-06;0.0030833835654346586
7.36350e-06;0.0031265935956577375
7.36375e-06;0.00316980362588067
7.36400e-06;0.0032130136561036027
7.36425e-06;0.003256223686326681
7.36450e-06;0.0032849231885448784
7.36475e-06;0.0033130770441054326
7.36500e-06;0.0033412308996660827
7.36525e-06;0.003369384755226637
7.36550e-06;0.0033975386107871915
7.36575e-06;0.003425692466347841
7.36600e-06;0.0034538463219083958
7.36625e-06;0.0034820001774690454
7.36650e-06;0.0035101540330295996
7.36675e-06;0.0035280898696934144
7.36700e-06;0.0035456414730712705
7.36725e-06;0.0035631930764490672
7.36750e-06;0.003580744679826864
7.36775e-06;0.00359829628320472
7.36800e-06;0.0036158478865825168
7.36825e-06;0.0036333994899603135
7.36850e-06;0.0036509510933381696
7.36875e-06;0.0036685026967159663
7.36900e-06;0.003686054300093763
7.36925e-06;0.003703605903471619
7.36950e-06;0.003721157506849416
7.36975e-06;0.0037387091102272126
7.37000e-06;0.0037562607136050687
7.37025e-06;0.0037738123169828654
7.37050e-06;0.0037913639203607215
7.37075e-06;0.00380248158218163
7.37100e-06;0.0038133573052735155
7.37125e-06;0.003824233028365438
7.37150e-06;0.0038351087514573233
7.37175e-06;0.0038459844745492087
7.37200e-06;0.003856860197641131
7.37225e-06;0.0038677359207330165
7.37250e-06;0.003878611643824902
7.37275e-06;0.0038894873669168242
7.37300e-06;0.0039003630900087097
7.37325e-06;0.003911238813100596
7.37350e-06;0.0039221145361925175
7.37375e-06;0.003932990259284403
7.37400e-06;0.003943865982376288
7.37425e-06;0.003954741705468211
7.37450e-06;0.0039656174285600965
7.37475e-06;0.003958657161174445
7.37500e-06;0.0039510261980999105
7.37525e-06;0.003943395235025376
7.37550e-06;0.003935764271950815
7.37575e-06;0.00392813330887628
7.37600e-06;0.003920502345801745
7.37625e-06;0.003912871382727184
7.37650e-06;0.0039052404196526494
7.37675e-06;0.0038976094565781145
7.37700e-06;0.0038739809526698297
7.37725e-06;0.0038318546347201657
7.37750e-06;0.0037897283167705018
7.37775e-06;0.003747601998820695
7.37800e-06;0.003705475680871031
7.37825e-06;0.003663349362921367
7.37850e-06;0.00362122304497156
7.37875e-06;0.003579096727021896
7.37900e-06;0.0035369704090720895
7.37925e-06;0.0034948440911224256
7.37950e-06;0.003429686608663319
7.37975e-06;0.0033636630737828434
7.38000e-06;0.0032976395389025916
7.38025e-06;0.00323161600402234
7.38050e-06;0.0031655924691418643
7.38075e-06;0.003099568934261612
7.38100e-06;0.0030304001016251813
7.38125e-06;0.002957594389195577
7.38150e-06;0.002884788676766219
7.38175e-06;0.0028119829643368614
7.38200e-06;0.002739177251907257
7.38225e-06;0.002666371539477899
7.38250e-06;0.002593565827048541
7.38275e-06;0.002527031802507949
7.38300e-06;0.0024607336153902436
7.38325e-06;0.0023944354282723133
7.38350e-06;0.002328137241154608
7.38375e-06;0.002261839054036903
7.38400e-06;0.002204266302310865
7.38425e-06;0.002156782693845577
7.38450e-06;0.002109299085380288
7.38475e-06;0.0020618154769148386
7.38500e-06;0.0020143318684495504
7.38525e-06;0.0019668482599842618
7.38550e-06;0.001937748818448889
7.38575e-06;0.001909340685955393
7.38600e-06;0.00189159866742598
7.38625e-06;0.0018742577321248855
7.38650e-06;0.0018678724895580037
7.38675e-06;0.0018618992193950637
7.38700e-06;0.0018670552097141625
7.38725e-06;0.0018726296991921844
7.38750e-06;0.0018889720647205972
7.38775e-06;0.0019057193400879764
7.38800e-06;0.0019325810038861723
7.38825e-06;0.00195982300410102
7.38850e-06;0.0019987294974683737
7.38875e-06;0.0020380746166168665
7.38900e-06;0.002077419735765493
7.38925e-06;0.0021290353205334874
7.38950e-06;0.0021811123177689047
7.38975e-06;0.0022331893150044986
7.39000e-06;0.0022981989606958688
7.39025e-06;0.0023636949192476333
7.39050e-06;0.00242919087779962
7.39075e-06;0.0024946868363513843
7.39100e-06;0.0025601827949031488
7.39125e-06;0.0026256787534551353
7.39150e-06;0.0026977702116284022
7.39175e-06;0.0027701096836791153
7.39200e-06;0.0028424491557295837
7.39225e-06;0.0029147886277800517
7.39250e-06;0.0029871280998307647
7.39275e-06;0.003059467571881233
7.39300e-06;0.0031236950236947277
7.39325e-06;0.0031876174351466815
7.39350e-06;0.0032515398465984184
7.39375e-06;0.0033154622580501554
7.39400e-06;0.003379384669502109
7.39425e-06;0.0034433070809538465
7.39450e-06;0.003481583240160077
7.39475e-06;0.0035188950104925597
7.39500e-06;0.0035562067808249157
7.39525e-06;0.003593518551157272
7.39550e-06;0.0036308303214897548
7.39575e-06;0.003668142091822111
7.39600e-06;0.0036769432371853298
7.39625e-06;0.0036846722832320636
7.39650e-06;0.0036924013292787975
7.39675e-06;0.003680034812924954
7.39700e-06;0.0036669126330690508
7.39725e-06;0.003653790453213148
7.39750e-06;0.003620216300562806
7.39775e-06;0.003585873082131929
7.39800e-06;0.0035515298637010524
7.39825e-06;0.003498891535038731
7.39850e-06;0.003445565246179681
7.39875e-06;0.0033922389573206317
7.39900e-06;0.0033226217589644885
7.39925e-06;0.003252391965376168
7.39950e-06;0.003182162171787848
7.39975e-06;0.0030945230411231705
7.40000e-06;0.0030062292584337887
7.40025e-06;0.0029179354757441077
7.40050e-06;0.002829641693054726
7.40075e-06;0.0027413479103653438
7.40100e-06;0.002647698783823777
7.40125e-06;0.0025478573208675744
7.40150e-06;0.0024480158579113717
7.40175e-06;0.0023481743949548307
7.40200e-06;0.002248332931998628
7.40225e-06;0.0021484914690424253
7.40250e-06;0.002051772464405009
7.40275e-06;0.0019551708751325532
7.40300e-06;0.0018585692858600971
7.40325e-06;0.001761967696587314
7.40350e-06;0.0016726882567978335
7.40375e-06;0.0015918753532628291
7.40400e-06;0.0015110624497275509
7.40425e-06;0.0014302495461925462
7.40450e-06;0.001349436642657268
7.40475e-06;0.001286376573246336
7.40500e-06;0.0012239840725514948
7.40525e-06;0.0011700048953821888
7.40550e-06;0.0011217528696343807
7.40575e-06;0.0010793162572460952
7.40600e-06;0.001042906932386945
7.40625e-06;0.001012736887358243
7.40650e-06;0.0009890182266572396
7.40675e-06;0.0009718394186265116
7.40700e-06;0.0009609303589231872
7.40725e-06;0.0009558309252006163
7.40750e-06;0.0009562912257635307
7.40775e-06;0.0009622345650217279
7.40800e-06;0.000973592304737541
7.40825e-06;0.0009902959884828173
7.40850e-06;0.0010122768274591868
7.40875e-06;0.0010416767370211063
7.40900e-06;0.0010713484414177118
7.40925e-06;0.0011092867165191167
7.40950e-06;0.0011475358436203993
7.40975e-06;0.001192831350061071
7.41000e-06;0.0012383918250342429
7.41025e-06;0.001291370628934832
7.41050e-06;0.0013446283879744326
7.41075e-06;0.0013978861470140334
7.41100e-06;0.001458369500357372
7.41125e-06;0.0015191245613430564
7.41150e-06;0.0015798796223287408
7.41175e-06;0.0016406346833146312
7.41200e-06;0.0017013897443003156
7.41225e-06;0.0017629352509856895
7.41250e-06;0.0018245104811969175
7.41275e-06;0.0018860857114079371
7.41300e-06;0.0019476609416191652
7.41325e-06;0.002009236171830185
7.41350e-06;0.0020656999384523994
7.41375e-06;0.002121971496148754
7.41400e-06;0.002171032531250459
7.41425e-06;0.002219822425458771
7.41450e-06;0.002268612319667248
7.41475e-06;0.0023067285266565574
7.41500e-06;0.002344443365638186
7.41525e-06;0.002382158204619942
7.41550e-06;0.002410208749512368
7.41575e-06;0.0024378958831126826
7.41600e-06;0.002465583016713091
7.41625e-06;0.0024827045455746996
7.41650e-06;0.002499428770708357
7.41675e-06;0.002516152995842071
7.41700e-06;0.0025225939022445465
7.41725e-06;0.002528648119861284
7.41750e-06;0.002534702337478001
7.41775e-06;0.002524919750958706
7.41800e-06;0.0025145416451599345
7.41825e-06;0.0025041635393611983
7.41850e-06;0.002493785433562462
7.41875e-06;0.0024834073277636907
7.41900e-06;0.0024730292219649545
7.41925e-06;0.0024626511161662183
7.41950e-06;0.002452273010367447
7.41975e-06;0.0024255937852026136
7.42000e-06;0.0023983015808803202
7.42025e-06;0.0023710093765579345
7.42050e-06;0.002343717172235641
7.42075e-06;0.0023164249679133476
7.42100e-06;0.0022891327635909614
7.42125e-06;0.002261840559268668
7.42150e-06;0.0022345483549462823
7.42175e-06;0.002202360378901125
7.42200e-06;0.002169988304699422
7.42225e-06;0.002137616230497609
7.42250e-06;0.002105244156295906
7.42275e-06;0.002072872082094203
7.42300e-06;0.00204050000789239
7.42325e-06;0.0020124269049979393
7.42350e-06;0.001984515458475018
7.42375e-06;0.001956604011952002
7.42400e-06;0.001928692565429081
7.42425e-06;0.0019007811189061597
7.42450e-06;0.0018728696723831438
7.42475e-06;0.0018541113346962242
7.42500e-06;0.0018356971859458196
7.42525e-06;0.0018172830371953528
7.42550e-06;0.0018095727564816984
7.42575e-06;0.0018022649786795244
7.42600e-06;0.0017949572008773749
7.42625e-06;0.0017985076358858947
7.42650e-06;0.0018024663777097404
7.42675e-06;0.0018064251195335727
7.42700e-06;0.001821951005482313
7.42725e-06;0.001837911856545698
7.42750e-06;0.001853872707609029
7.42775e-06;0.0018814013011778231
7.42800e-06;0.0019093648823624641
7.42825e-06;0.0019373284635470101
7.42850e-06;0.001975257473815145
7.42875e-06;0.002013561219104918
7.42900e-06;0.0020518649643945616
7.42925e-06;0.002099218541783526
7.42950e-06;0.0021469124245421063
7.42975e-06;0.002194606307300525
7.43000e-06;0.0022518776211622755
7.43025e-06;0.002309509079962863
7.43050e-06;0.0023671405387634507
7.43075e-06;0.002424771997564234
7.43100e-06;0.0024824034563648216
7.43125e-06;0.002540034915165409
7.43150e-06;0.002599315886121355
7.43175e-06;0.0026605041732946652
7.43200e-06;0.0027216924604679753
7.43225e-06;0.002782880747641493
7.43250e-06;0.0028440690348148032
7.43275e-06;0.0029052573219881138
7.43300e-06;0.002966445609161631
7.43325e-06;0.003010290790736677
7.43350e-06;0.0030534838108252004
7.43375e-06;0.0030966768309138703
7.43400e-06;0.003139869851002394
7.43425e-06;0.003183062871091064
7.43450e-06;0.003226255891179587
7.43475e-06;0.0032694489112681108
7.43500e-06;0.0033126419313567806
7.43525e-06;0.0033558349514453043
7.43550e-06;0.0033990279715338276
7.43575e-06;0.0034422209916224974
7.43600e-06;0.00347233176450895
7.43625e-06;0.003487315651442793
7.43650e-06;0.0035022995383766865
7.43675e-06;0.0035172834253105294
7.43700e-06;0.003532267312244372
7.43725e-06;0.0035472511991782654
7.43750e-06;0.0035622350861121083
7.43775e-06;0.003577218973045951
7.43800e-06;0.003592202859979845
7.43825e-06;0.0036071867469136877
7.43850e-06;0.0036221706338475813
7.43875e-06;0.003637154520781424
7.43900e-06;0.0036351669080823467
7.43925e-06;0.003632541107582476
7.43950e-06;0.0036299153070826137
7.43975e-06;0.003627289506582752
7.44000e-06;0.003624663706082881
7.44025e-06;0.0036220379055830194
7.44050e-06;0.0036194121050831577
7.44075e-06;0.003616786304583287
7.44100e-06;0.0036141605040834247
7.44125e-06;0.003611534703583563
7.44150e-06;0.003608908903083692
7.44175e-06;0.0036007858895959087
7.44200e-06;0.00359245616165497
7.44225e-06;0.003584126433714003
7.44250e-06;0.0035757967057730646
7.44275e-06;0.0035674669778320975
7.44300e-06;0.003559137249891159
7.44325e-06;0.00355080752195022
7.44350e-06;0.0035424777940092534
7.44375e-06;0.0035341480660683144
7.44400e-06;0.003525818338127376
7.44425e-06;0.003517488610186409
7.44450e-06;0.003507191218420746
7.44475e-06;0.0034968198356068454
7.44500e-06;0.0034864484527929096
7.44525e-06;0.003476077069979009
7.44550e-06;0.003465705687165108
7.44575e-06;0.0034553343043511723
7.44600e-06;0.0034449629215372716
7.44625e-06;0.003434591538723371
7.44650e-06;0.003424220155909435
7.44675e-06;0.0034138487730955343
7.44700e-06;0.0034034773902815985
7.44725e-06;0.003393106007467698
7.44750e-06;0.003382734624653797
7.44775e-06;0.0033723632418398613
7.44800e-06;0.0033619918590259605
7.44825e-06;0.00335162047621206
