Time(s);Current(A)
7.50000e-07;0.0021485138582806144
7.50250e-07;0.0020772621216594914
7.50500e-07;0.0020021984534680615
7.50750e-07;0.0019271347852766315
7.51000e-07;0.0018520711170852014
7.51250e-07;0.0017770074488938031
7.51500e-07;0.001701943780702373
7.51750e-07;0.0016301263242765609
7.52000e-07;0.0015597722249945975
7.52250e-07;0.001489418125712634
7.52500e-07;0.0014190640264307006
7.52750e-07;0.001351078366862567
7.53000e-07;0.0012932371555121418
7.53250e-07;0.001235395944161717
7.53500e-07;0.0011775547328112918
7.53750e-07;0.001119713521460867
7.54000e-07;0.001069702870751466
7.54250e-07;0.0010232221520618057
7.54500e-07;0.0009767414333721454
7.54750e-07;0.0009307195293857338
7.55000e-07;0.0008849044541037264
7.55250e-07;0.0008390893788217189
7.55500e-07;0.0007932743035397308
7.55750e-07;0.0007488589427666187
7.56000e-07;0.0007050745581508994
7.56250e-07;0.0006612901735351801
7.56500e-07;0.0006175057889194608
7.56750e-07;0.0005717809790008145
7.57000e-07;0.0005251814463486338
7.57250e-07;0.00047858191369645325
7.57500e-07;0.0004319823810442726
7.57750e-07;0.0003845952406691245
7.58000e-07;0.0003368530552534244
7.58250e-07;0.00028911086983774456
7.58500e-07;0.00024136868442204448
7.58750e-07;0.00019205896178909557
7.59000e-07;0.00014204261033746394
7.59250e-07;9.161702584698113e-05
7.59500e-07;4.103912081433285e-05
7.59750e-07;-9.272140248173286e-06
7.60000e-07;-5.917985953763787e-05
7.60250e-07;-0.00010895690838131782
7.60500e-07;-0.0001587850511110872
7.60750e-07;-0.00020863622377296164
7.61000e-07;-0.0002579596247851201
7.61250e-07;-0.00030704511204746596
7.61500e-07;-0.00035474130632881523
7.61750e-07;-0.0004018112223647952
7.62000e-07;-0.0004469778705088904
7.62250e-07;-0.0004912865460783725
7.62500e-07;-0.0005336935184896883
7.62750e-07;-0.0005752432236914482
7.63000e-07;-0.0006142376785809929
7.63250e-07;-0.000652080254274496
7.63500e-07;-0.0006874862787521393
7.63750e-07;-0.0007190095287404189
7.64000e-07;-0.0007492775997269005
7.64250e-07;-0.0007768960147991112
7.64500e-07;-0.0008033199936512193
7.64750e-07;-0.00082725930238164
7.65000e-07;-0.0008500785487023149
7.65250e-07;-0.00087289779502298
7.65500e-07;-0.0008919494433570911
7.65750e-07;-0.0009093026992796867
7.66000e-07;-0.0009266559552022824
7.66250e-07;-0.0009409533396337049
7.66500e-07;-0.000953873170257719
7.66750e-07;-0.0009667930008817276
7.67000e-07;-0.0009773291937003681
7.67250e-07;-0.000986790868384406
7.67500e-07;-0.0009962525430684437
7.67750e-07;-0.0010016148928704471
7.68000e-07;-0.0010051293113653348
7.68250e-07;-0.001008643729860221
7.68500e-07;-0.0010121581483551086
7.68750e-07;-0.0010156725668499962
7.69000e-07;-0.0010191869853448839
7.69250e-07;-0.0010227014038397715
7.69500e-07;-0.0010262158223346576
7.69750e-07;-0.0010262070522464772
7.70000e-07;-0.0010246100668616553
7.70250e-07;-0.0010230130814768334
7.70500e-07;-0.0010214160960920116
7.70750e-07;-0.0010198191107071897
7.71000e-07;-0.0010182221253223684
7.71250e-07;-0.0010166251399375465
7.71500e-07;-0.0010150281545527246
7.71750e-07;-0.0010122600528961862
7.72000e-07;-0.0010089640246944075
7.72250e-07;-0.0010056679964926302
7.72500e-07;-0.0010023719682908515
7.72750e-07;-0.0009990759400890727
7.73000e-07;-0.000995779911887294
7.73250e-07;-0.0009935165410822873
7.73500e-07;-0.000991718681059653
7.73750e-07;-0.0009899208210370194
7.74000e-07;-0.0009881229610143852
7.74250e-07;-0.000986325100991751
7.74500e-07;-0.0009845272409691166
7.74750e-07;-0.0009860189995849703
7.75000e-07;-0.0009889936826933995
7.75250e-07;-0.0009919683658018272
7.75500e-07;-0.0009974703212483067
7.75750e-07;-0.0010041115437227825
7.76000e-07;-0.0010107527661972582
7.76250e-07;-0.0010203737499091218
7.76500e-07;-0.0010313379777494214
7.76750e-07;-0.0010423022055897257
7.77000e-07;-0.0010563030600336154
7.77250e-07;-0.0010716727928978165
7.77500e-07;-0.0010870425257620176
7.77750e-07;-0.0011064334294523703
7.78000e-07;-0.0011276370334469949
7.78250e-07;-0.0011488406374416283
7.78500e-07;-0.0011700442414362617
7.78750e-07;-0.0011912478454308953
7.79000e-07;-0.0012124514494255287
7.79250e-07;-0.0012336550534201621
7.79500e-07;-0.0012583699772345293
7.79750e-07;-0.001284667766035467
7.80000e-07;-0.0013109655548364048
7.80250e-07;-0.0013372633436373425
7.80500e-07;-0.0013635611324382805
7.80750e-07;-0.001389858921239207
7.81000e-07;-0.0014161567100401447
7.81250e-07;-0.0014414799134862392
7.81500e-07;-0.0014663637843981886
7.81750e-07;-0.001491247655310138
7.82000e-07;-0.0015161315262220874
7.82250e-07;-0.0015410153971340264
7.82500e-07;-0.0015658992680459758
7.82750e-07;-0.0015907831389579252
7.83000e-07;-0.0016156670098698748
7.83250e-07;-0.0016387649259807255
7.83500e-07;-0.0016542132802749199
7.83750e-07;-0.001669661634569108
7.84000e-07;-0.0016851099888633024
7.84250e-07;-0.001700558343157497
7.84500e-07;-0.0017160066974516914
7.84750e-07;-0.001731455051745886
7.85000e-07;-0.001746903406040074
7.85250e-07;-0.0017623517603342683
7.85500e-07;-0.0017695784719178682
7.85750e-07;-0.0017730989559156035
7.86000e-07;-0.0017766194399133385
7.86250e-07;-0.0017801399239110738
7.86500e-07;-0.0017836604079088073
7.86750e-07;-0.0017871808919065423
7.87000e-07;-0.0017907013759042776
7.87250e-07;-0.0017942218599020126
7.87500e-07;-0.0017977423438997476
7.87750e-07;-0.0018012628278974813
7.88000e-07;-0.0018047833118952164
7.88250e-07;-0.0018020568317093347
7.88500e-07;-0.0017965142876539431
7.88750e-07;-0.0017909717435985516
7.89000e-07;-0.0017854291995431603
7.89250e-07;-0.001779886655487771
7.89500e-07;-0.0017743441114323798
7.89750e-07;-0.0017688015673769882
7.90000e-07;-0.001763259023321597
7.90250e-07;-0.0017577164792662054
7.90500e-07;-0.0017521739352108138
7.90750e-07;-0.001746631391155425
7.91000e-07;-0.0017393612599619316
7.91250e-07;-0.0017313123511769459
7.91500e-07;-0.0017232634423919601
7.91750e-07;-0.0017152145336069742
7.92000e-07;-0.001707165624821992
7.92250e-07;-0.0016991167160370062
7.92500e-07;-0.0016910678072520203
7.92750e-07;-0.001683182046308758
7.93000e-07;-0.0016759950765665793
7.93250e-07;-0.0016688081068244006
7.93500e-07;-0.0016616211370822248
7.93750e-07;-0.001654434167340046
7.94000e-07;-0.0016472471975978674
7.94250e-07;-0.0016400602278556888
7.94500e-07;-0.00163287325811351
7.94750e-07;-0.001618299935952816
7.95000e-07;-0.0016003969260330803
7.95250e-07;-0.0015824939161133368
7.95500e-07;-0.0015645909061935935
7.95750e-07;-0.00154668789627385
7.96000e-07;-0.0015287848863541067
7.96250e-07;-0.0015108818764343708
7.96500e-07;-0.0014929788665146275
7.96750e-07;-0.0014750758565948842
7.97000e-07;-0.0014540101843141902
7.97250e-07;-0.0014193982670662917
7.97500e-07;-0.0013847863498183933
7.97750e-07;-0.0013501744325705094
7.98000e-07;-0.001315562515322611
7.98250e-07;-0.0012809505980747125
7.98500e-07;-0.001246338680826814
7.98750e-07;-0.0012117267635789156
7.99000e-07;-0.001177114846331017
7.99250e-07;-0.0011425029290831332
7.99500e-07;-0.0011019989953384552
7.99750e-07;-0.0010588390043013546
8.00000e-07;-0.001015679013264254
8.00250e-07;-0.0009725190222271534
8.00500e-07;-0.0009293590311900712
8.00750e-07;-0.0008856162691155008
8.01000e-07;-0.0008416108001621
8.01250e-07;-0.0007976053312086992
8.01500e-07;-0.0007535998622552983
8.01750e-07;-0.0007095943933018975
8.02000e-07;-0.0006676775041916655
8.02250e-07;-0.000626702124278862
8.02500e-07;-0.0005857267443660583
8.02750e-07;-0.0005471419833783368
8.03000e-07;-0.0005096348875385085
8.03250e-07;-0.0004749085040936496
8.03500e-07;-0.00044143563571259563
8.03750e-07;-0.0004105336449203677
8.04000e-07;-0.00038270424729053824
8.04250e-07;-0.00035768111101117057
8.04500e-07;-0.0003354756421377861
8.04750e-07;-0.000316118154737014
8.05000e-07;-0.00029966895785062505
8.05250e-07;-0.00028619518694675635
8.05500e-07;-0.00027576395348403516
8.05750e-07;-0.00026844099772550654
8.06000e-07;-0.00026425548522849494
8.06250e-07;-0.0002631542872882436
8.06500e-07;-0.00026503440634216866
8.06750e-07;-0.00026980467582018113
8.07000e-07;-0.0002773927916470105
8.07250e-07;-0.0002877306288242932
8.07500e-07;-0.00030075012648453836
8.07750e-07;-0.0003163823261235998
8.08000e-07;-0.00033453537623807103
8.08250e-07;-0.00035506587168340715
8.08500e-07;-0.00037779919529721813
8.08750e-07;-0.00040319978837423934
8.09000e-07;-0.00042950205500736624
8.09250e-07;-0.0004581203482372696
8.09500e-07;-0.000487782681200468
8.09750e-07;-0.0005196967863738137
8.10000e-07;-0.0005526259660981195
8.10250e-07;-0.0005855551458224254
8.10500e-07;-0.000620206580270001
8.10750e-07;-0.0006556343885141945
8.11000e-07;-0.0006910621967583881
8.11250e-07;-0.0007264900050025817
8.11500e-07;-0.00076176524225055
8.11750e-07;-0.0007963869908064026
8.12000e-07;-0.0008310087393622697
8.12250e-07;-0.0008656304879181369
8.12500e-07;-0.000900252236474004
8.12750e-07;-0.0009320391644989586
8.13000e-07;-0.0009625481860978043
8.13250e-07;-0.0009930572076966371
8.13500e-07;-0.0010196594903706332
8.13750e-07;-0.0010445006574033519
8.14000e-07;-0.0010693418244360705
8.14250e-07;-0.001091215159654463
8.14500e-07;-0.001111750628399198
8.14750e-07;-0.0011322860971439243
8.15000e-07;-0.0011483225061468326
8.15250e-07;-0.0011623307876923391
8.15500e-07;-0.0011763390692378457
8.15750e-07;-0.0011903473507833523
8.16000e-07;-0.001204355632328853
8.16250e-07;-0.0012183639138743595
8.16500e-07;-0.001232372195419866
8.16750e-07;-0.0012463804769653726
8.17000e-07;-0.0012603887585108794
8.17250e-07;-0.0012693661759091651
8.17500e-07;-0.0012760757341775503
8.17750e-07;-0.0012827852924459386
8.18000e-07;-0.0012894948507143266
8.18250e-07;-0.0012962044089827147
8.18500e-07;-0.001302913967251103
8.18750e-07;-0.001309623525519491
8.19000e-07;-0.0013163330837878762
8.19250e-07;-0.0013230426420562645
8.19500e-07;-0.0013268781439707612
8.19750e-07;-0.0013294180523746207
8.20000e-07;-0.00133195796077848
8.20250e-07;-0.0013344978691823383
8.20500e-07;-0.0013370377775861976
8.20750e-07;-0.001339577685990057
8.21000e-07;-0.0013421175943939163
8.21250e-07;-0.0013446575027977756
8.21500e-07;-0.0013468557790922403
8.21750e-07;-0.0013475907843464947
8.22000e-07;-0.0013483257896007492
8.22250e-07;-0.0013490607948550039
8.22500e-07;-0.0013497958001092586
8.22750e-07;-0.0013505308053635133
8.23000e-07;-0.001351265810617768
8.23250e-07;-0.0013520008158720222
8.23500e-07;-0.0013527358211262769
8.23750e-07;-0.001352191678185487
8.24000e-07;-0.0013510709090771517
8.24250e-07;-0.0013499501399688164
8.24500e-07;-0.0013433374229232314
8.24750e-07;-0.0013342489951635244
8.25000e-07;-0.0013199770458718486
8.25250e-07;-0.0013033684211527653
8.25500e-07;-0.001282173321125414
8.25750e-07;-0.0012589106876490076
8.26000e-07;-0.0012307381604375431
8.26250e-07;-0.0012003523062491903
8.26500e-07;-0.001163547713669181
8.26750e-07;-0.001123849623264909
8.27000e-07;-0.0010782179020484952
8.27250e-07;-0.001029911364256429
8.27500e-07;-0.000976660849618799
8.27750e-07;-0.0009211816437068198
8.28000e-07;-0.0008611715105342035
8.28250e-07;-0.0007991188843714361
8.28500e-07;-0.0007322058541931747
8.28750e-07;-0.0006631018064682269
8.29000e-07;-0.00059005689658657
8.29250e-07;-0.0005152354886798589
8.29500e-07;-0.00043770870629545786
8.29750e-07;-0.0003589623703652669
8.30000e-07;-0.00027838475432544413
8.30250e-07;-0.00019698161702438378
8.30500e-07;-0.00011438778756266289
8.30750e-07;-3.079392039158494e-05
8.31000e-07;5.3008206849465295e-05
8.31250e-07;0.0001368100673048889
8.31500e-07;0.00021991595725137983
8.31750e-07;0.00030178423902757994
8.32000e-07;0.00038205040558775223
8.32250e-07;0.00046043662494779804
8.32500e-07;0.0005366500624568344
8.32750e-07;0.0006102529259625266
8.33000e-07;0.0006807211659320735
8.33250e-07;0.0007475158817033271
8.33500e-07;0.0008100982850805584
8.33750e-07;0.0008679407596973933
8.34000e-07;0.0009192093900606929
8.34250e-07;0.0009682012648523746
8.34500e-07;0.0010127031562495023
8.34750e-07;0.0010506894234587109
8.35000e-07;0.0010866509312783038
8.35250e-07;0.0011161782940971718
8.35500e-07;0.0011428052139590547
8.35750e-07;0.0011625620299285514
8.36000e-07;0.0011792218773892386
8.36250e-07;0.0011895786162692435
8.36500e-07;0.001197093981992764
8.36750e-07;0.0011989559246070314
8.37000e-07;0.001198269365246557
8.37250e-07;0.0011920198966052496
8.37500e-07;0.0011832627286438011
8.37750e-07;0.0011690658240315003
8.38000e-07;0.0011524167449880821
8.38250e-07;0.0011310791619725637
8.38500e-07;0.0011076280520901196
8.38750e-07;0.0010802914676131363
8.39000e-07;0.0010512033532248492
8.39250e-07;0.0010179156807224574
8.39500e-07;0.000982734892856143
8.39750e-07;0.0009475541049898289
8.40000e-07;0.0009085649023220285
8.40250e-07;0.0008678589074639323
8.40500e-07;0.0008271529126058363
8.40750e-07;0.0007845052403235316
8.41000e-07;0.0007409822808648899
8.41250e-07;0.0006974593214062482
8.41500e-07;0.0006539363619476249
8.41750e-07;0.0006109117501231833
8.42000e-07;0.0005681117880207478
8.42250e-07;0.0005253118259183122
8.42500e-07;0.0004825118638158767
8.42750e-07;0.000442330393347395
8.43000e-07;0.0004033293105787478
8.43250e-07;0.000366396424655873
8.43500e-07;0.00033204575085619514
8.43750e-07;0.00030028914793545075
8.44000e-07;0.0002713417634664973
8.44250e-07;0.0002452552007530032
8.44500e-07;0.00022200085158569956
8.44750e-07;0.00020159743824642166
8.45000e-07;0.00018411157740147438
8.45250e-07;0.00016961983572001566
8.45500e-07;0.00015819873070668406
8.45750e-07;0.00014992296634817976
8.46000e-07;0.00014481907398348004
8.46250e-07;0.00014281109863806585
8.46500e-07;0.00014377285905266485
8.46750e-07;0.0001476078284399159
8.47000e-07;0.000154249473925795
8.47250e-07;0.00016363750692551616
8.47500e-07;0.0001757116187935974
8.47750e-07;0.0001904103483821485
8.48000e-07;0.00020764205935564086
8.48250e-07;0.00022725093136874726
8.48500e-07;0.0002490496919451426
8.48750e-07;0.00027286966414113946
8.49000e-07;0.0002985609464756707
8.49250e-07;0.0003265062691308208
8.49500e-07;0.00035521193008307596
8.49750e-07;0.00038582038750095373
8.50000e-07;0.00041728660497967763
8.50250e-07;0.00045050494308954386
8.50500e-07;0.00048451311822420267
8.50750e-07;0.0005185212933588615
8.51000e-07;0.0005525294684935203
8.51250e-07;0.0005869723587571023
8.51500e-07;0.0006216112138977585
8.51750e-07;0.0006562500690384148
8.52000e-07;0.000690888924179071
8.52250e-07;0.0007240027924954695
8.52500e-07;0.0007564292132499121
8.52750e-07;0.000788855634004341
8.53000e-07;0.0008183348453327204
8.53250e-07;0.0008464854865368887
8.53500e-07;0.0008746361277410571
8.53750e-07;0.0008997804005475316
8.54000e-07;0.0009235694350054089
8.54250e-07;0.0009473584694632761
8.54500e-07;0.0009711475039211534
8.54750e-07;0.0009973388459988035
8.55000e-07;0.0010246131223615356
8.55250e-07;0.0010518873987242676
8.55500e-07;0.001079161675086988
8.55750e-07;0.0011083748370947074
8.56000e-07;0.0011384620277749133
8.56250e-07;0.001168549218455119
8.56500e-07;0.0012024732432461061
8.56750e-07;0.0012381268713445742
8.57000e-07;0.001273780499443027
8.57250e-07;0.0013126338341721158
8.57500e-07;0.00135292956203354
8.57750e-07;0.0013932252898949645
8.58000e-07;0.0014376705949211985
8.58250e-07;0.0014839864844401914
8.58500e-07;0.001530302373959165
8.58750e-07;0.001576618263478158
8.59000e-07;0.001622934152997151
8.59250e-07;0.001669250042516144
8.59500e-07;0.0017164480612892128
8.59750e-07;0.0017674243964318603
8.60000e-07;0.0018184007315745294
8.60250e-07;0.0018693770667171986
8.60500e-07;0.0019203534018598677
8.60750e-07;0.001971329737002537
8.61000e-07;0.0020223060721452062
8.61250e-07;0.002068583624306977
8.61500e-07;0.0021127430159358224
8.61750e-07;0.002156902407564668
8.62000e-07;0.002201061799193513
8.62250e-07;0.0022452211908223583
8.62500e-07;0.0022893805824512037
8.62750e-07;0.00233353997408003
8.63000e-07;0.0023776993657088756
8.63250e-07;0.0024218587573377206
8.63500e-07;0.002466018148966566
8.63750e-07;0.0025066625106714203
8.64000e-07;0.002532251374511115
8.64250e-07;0.00255784023835082
8.64500e-07;0.0025834291021905255
8.64750e-07;0.0026090179660302306
8.65000e-07;0.002634606829869936
8.65250e-07;0.002660195693709641
8.65500e-07;0.0026857845575493358
8.65750e-07;0.002711373421389041
8.66000e-07;0.0027369622852287463
8.66250e-07;0.0027625511490684514
8.66500e-07;0.0027794483422918445
8.66750e-07;0.002792427424434152
8.67000e-07;0.0028054065065764655
8.67250e-07;0.0028183855887187787
8.67500e-07;0.002831364670861092
8.67750e-07;0.0028443437530034053
8.68000e-07;0.002857322835145719
8.68250e-07;0.002870301917288027
8.68500e-07;0.00288328099943034
8.68750e-07;0.0028962600815726535
8.69000e-07;0.0029092391637149666
8.69250e-07;0.0029222182458572797
8.69500e-07;0.0029351973279995933
8.69750e-07;0.002948176410141901
8.70000e-07;0.0029611554922842143
8.70250e-07;0.00296920723056695
8.70500e-07;0.00297503777554533
8.70750e-07;0.0029808683205237102
8.71000e-07;0.0029866988655020883
8.71250e-07;0.0029925294104804685
8.71500e-07;0.0029983599554588487
8.71750e-07;0.003004190500437229
8.72000e-07;0.003010021045415609
8.72250e-07;0.0030158515903939893
8.72500e-07;0.003021682135372367
8.72750e-07;0.003027512680350747
8.73000e-07;0.0030333432253291273
8.73250e-07;0.0030391737703075075
8.73500e-07;0.0030450043152858877
8.73750e-07;0.003050834860264268
8.74000e-07;0.003044377077782419
8.74250e-07;0.0030323798502254157
8.74500e-07;0.003020382622668412
8.74750e-07;0.0030083853951114086
8.75000e-07;0.0029963881675544052
8.75250e-07;0.0029843909399974067
8.75500e-07;0.0029723937124404034
8.75750e-07;0.0029603964848833996
8.76000e-07;0.0029483992573263963
8.76250e-07;0.0029364020297693925
8.76500e-07;0.0029007863902318115
8.76750e-07;0.002854523826094253
8.77000e-07;0.002808261261956675
8.77250e-07;0.002761998697819097
8.77500e-07;0.0027157361336815193
8.77750e-07;0.002669473569543941
8.78000e-07;0.002623211005406363
8.78250e-07;0.0025769484412688044
8.78500e-07;0.0025306858771312266
8.78750e-07;0.0024844233129936487
8.79000e-07;0.002423561948935244
8.79250e-07;0.0023561196038127475
8.79500e-07;0.00228867725869028
8.79750e-07;0.002221234913567784
8.80000e-07;0.0021537925684452872
8.80250e-07;0.002086350223322791
8.80500e-07;0.002015939324201253
8.80750e-07;0.0019441902330528768
8.81000e-07;0.0018724411419045307
8.81250e-07;0.0018006920507561543
8.81500e-07;0.0017289429596077778
8.81750e-07;0.0016571938684594013
8.82000e-07;0.0015885396334075152
8.82250e-07;0.001521280526001603
8.82500e-07;0.0014540214185956623
8.82750e-07;0.001391749023989446
8.83000e-07;0.0013317245855635476
8.83250e-07;0.001271700147137649
8.83500e-07;0.0012179061975984085
8.83750e-07;0.0011669208850434449
8.84000e-07;0.0011220692484903783
8.84250e-07;0.001079982606720522
8.84500e-07;0.0010441079578821344
8.84750e-07;0.0010110336082515103
8.85000e-07;0.0009843903543967569
8.85250e-07;0.0009606461689416234
8.85500e-07;0.0009419292723729904
8.85750e-07;0.0009289362033453987
8.86000e-07;0.0009209665759680196
8.86250e-07;0.0009179068925622819
8.86500e-07;0.0009211238157856528
8.86750e-07;0.0009264898054222826
8.87000e-07;0.0009379592596633076
8.87250e-07;0.0009521800897163987
8.87500e-07;0.00097223288301002
8.87750e-07;0.000994914662238171
8.88000e-07;0.0010230230584264892
8.88250e-07;0.001053577714831491
8.88500e-07;0.0010888168630707052
8.88750e-07;0.0011261677295486417
8.89000e-07;0.0011683817483563261
8.89250e-07;0.001212788023621245
8.89500e-07;0.0012571942988861449
8.89750e-07;0.0013070106049336372
8.90000e-07;0.0013592656943283855
8.90250e-07;0.0014115207837231336
8.90500e-07;0.0014637758731178819
8.90750e-07;0.001516030962512608
8.91000e-07;0.0015702671492539423
8.91250e-07;0.0016253963932462115
8.91500e-07;0.0016805256372384805
8.91750e-07;0.0017356548812307495
8.92000e-07;0.0017907841252230185
8.92250e-07;0.0018376202069296257
8.92500e-07;0.0018807178207991538
8.92750e-07;0.0019238154346686819
8.93000e-07;0.0019669130485382097
8.93250e-07;0.002010010662407738
8.93500e-07;0.002053108276277266
8.93750e-07;0.002096205890146776
8.94000e-07;0.002139303504016304
8.94250e-07;0.002182401117885832
8.94500e-07;0.002220305203725436
8.94750e-07;0.0022359644860035096
8.95000e-07;0.002251623768281577
