Time(s);Current(A)
7.50000e-06;0.0022862652057458028
7.50025e-06;0.0022839882151831177
7.50050e-06;0.0022833721806779198
7.50075e-06;0.00228346204072093
7.50100e-06;0.0022835519007639404
7.50125e-06;0.0022836417608069507
7.50150e-06;0.0022837316208499606
7.50175e-06;0.0022838214808929714
7.50200e-06;0.0022839113409359817
7.50225e-06;0.002284001200978992
7.50250e-06;0.0022840910610220024
7.50275e-06;0.0022841809210650123
7.50300e-06;0.002284270781108023
7.50325e-06;0.002284360641151033
7.50350e-06;0.0022844505011940432
7.50375e-06;0.0022845403612370536
7.50400e-06;0.002284630221280064
7.50425e-06;0.002284720081323074
7.50450e-06;0.0022848099413660845
7.50475e-06;0.002284899801409095
7.50500e-06;0.0022854935527791506
7.50525e-06;0.0022880809179167236
7.50550e-06;0.002290668283054288
7.50575e-06;0.0022932556481918523
7.50600e-06;0.0022958430133294258
7.50625e-06;0.00229843037846699
7.50650e-06;0.002301017743604563
7.50675e-06;0.0023036051087421275
7.50700e-06;0.002306192473879692
7.50725e-06;0.0023087798390172653
7.50750e-06;0.0023113672041548297
7.50775e-06;0.002313954569292394
7.50800e-06;0.002316541934429967
7.50825e-06;0.0023191292995675314
7.50850e-06;0.002321716664705096
7.50875e-06;0.0023243040298426693
7.50900e-06;0.0023268913949802336
7.50925e-06;0.002329478760117798
7.50950e-06;0.002332066125255371
7.50975e-06;0.002332479225550234
7.51000e-06;0.0023319682787027356
7.51025e-06;0.0023314573318552355
7.51050e-06;0.002330946385007737
7.51075e-06;0.0023304354381602386
7.51100e-06;0.0023299244913127385
7.51125e-06;0.002317999802744077
7.51150e-06;0.002301224354868759
7.51175e-06;0.002284448906993498
7.51200e-06;0.0022676734591182365
7.51225e-06;0.0022508980112429184
7.51250e-06;0.002234122563367657
7.51275e-06;0.002206014551736282
7.51300e-06;0.002173090280857935
7.51325e-06;0.0021401660099796996
7.51350e-06;0.002099302528662488
7.51375e-06;0.0020550649391987462
7.51400e-06;0.0020108273497351547
7.51425e-06;0.001960180513474477
7.51450e-06;0.0019068097927674164
7.51475e-06;0.0018534390720605363
7.51500e-06;0.001793731650044358
7.51525e-06;0.0017313311748997603
7.51550e-06;0.001668930699755374
7.51575e-06;0.0016012047159028057
7.51600e-06;0.0015312154286083583
7.51625e-06;0.0014612261413139108
7.51650e-06;0.0013912368540192261
7.51675e-06;0.0013212475667247789
7.51700e-06;0.0012488453168370964
7.51725e-06;0.0011754175749553878
7.51750e-06;0.0011019898330739278
7.51775e-06;0.0010285620911924679
7.51800e-06;0.000955134349310759
7.51825e-06;0.0008841463307023176
7.51850e-06;0.00081419517718679
7.51875e-06;0.0007442440236710253
7.51900e-06;0.0006777931763269561
7.51925e-06;0.0006128299342878716
7.51950e-06;0.0005508381979113131
7.51975e-06;0.0004925334566385182
7.52000e-06;0.00043801529232500414
7.52025e-06;0.00038772003860359654
7.52050e-06;0.00034169854211101795
7.52075e-06;0.00029943179065326217
7.52100e-06;0.0002604300341595305
7.52125e-06;0.00022464487880759226
7.52150e-06;0.0001922480395852255
7.52175e-06;0.0001634407592683424
7.52200e-06;0.00013842422523291224
7.52225e-06;0.00011737629955092929
7.52250e-06;0.00010023336469227584
7.52275e-06;8.657488561486903e-05
7.52300e-06;7.599867750646534e-05
7.52325e-06;6.83790258165468e-05
7.52350e-06;6.372812067144794e-05
7.52375e-06;6.207664108249523e-05
7.52400e-06;6.345519904548153e-05
7.52425e-06;6.78798051687859e-05
7.52450e-06;7.521521437932032e-05
7.52475e-06;8.510260666043817e-05
7.52500e-06;9.719470248686709e-05
7.52525e-06;0.00011131742437093278
7.52550e-06;0.0001273830766077974
7.52575e-06;0.00014531553442703396
7.52600e-06;0.0001650386571020878
7.52625e-06;0.00018646715696119624
7.52650e-06;0.00020942100440547924
7.52675e-06;0.00023386279297902358
7.52700e-06;0.00025875187219263164
7.52725e-06;0.0002847512622273916
7.52750e-06;0.00031122252648859897
7.52775e-06;0.0003376937907498063
7.52800e-06;0.0003642294482409941
7.52825e-06;0.000391019873422396
7.52850e-06;0.00041781029860388854
7.52875e-06;0.00044460072378529035
7.52900e-06;0.0004702958387283373
7.52925e-06;0.0004955254545862475
7.52950e-06;0.0005078172719573378
7.52975e-06;0.0005283711621629929
7.53000e-06;0.0005541596691319834
7.53025e-06;0.0005720114674180883
7.53050e-06;0.0005937779132209792
7.53075e-06;0.0006126778724106031
7.53100e-06;0.0006330295137202328
7.53125e-06;0.0006519000621499113
7.53150e-06;0.0006684624699862854
7.53175e-06;0.0006850248778226035
7.53200e-06;0.0007015872856589215
7.53225e-06;0.0007181496934952957
7.53250e-06;0.0007347121013316137
7.53275e-06;0.0007512745091679877
7.53300e-06;0.0007678587779980237
7.53325e-06;0.0007844771150810995
7.53350e-06;0.0008010954521642316
7.53375e-06;0.0008177137892473072
7.53400e-06;0.0008343321263303829
7.53425e-06;0.000850950463413515
7.53450e-06;0.0008675688004965908
7.53475e-06;0.0008845533827155816
7.53500e-06;0.0009021087227018926
7.53525e-06;0.000919664062688144
7.53550e-06;0.0009372194026743954
7.53575e-06;0.0009547747426607064
7.53600e-06;0.0009723300826469578
7.53625e-06;0.0009898854226332093
7.53650e-06;0.0010074407626195203
7.53675e-06;0.0010249961026057718
7.53700e-06;0.001041993261008178
7.53725e-06;0.001058120547176614
7.53750e-06;0.0010742478333450503
7.53775e-06;0.0010903751195135412
7.53800e-06;0.0011065024056819773
7.53825e-06;0.0011226296918504135
7.53850e-06;0.0011387569780189045
7.53875e-06;0.0011548842641873405
7.53900e-06;0.0011710115503557768
7.53925e-06;0.001185510553266802
7.53950e-06;0.001197472033558983
7.53975e-06;0.0012094335138511643
7.54000e-06;0.001221394994143386
7.54025e-06;0.0012333564744355671
7.54050e-06;0.0012453179547277484
7.54075e-06;0.001257057046157896
7.54100e-06;0.0012684495659672018
7.54125e-06;0.001279842085776546
7.54150e-06;0.0012912346055858517
7.54175e-06;0.0013026271253951574
7.54200e-06;0.0013140196452045016
7.54225e-06;0.0013269368211452288
7.54250e-06;0.0013422300268101453
7.54275e-06;0.0013575232324751136
7.54300e-06;0.0013728164381400301
7.54325e-06;0.0013881096438049466
7.54350e-06;0.0014034028494699148
7.54375e-06;0.0014186960551348313
7.54400e-06;0.0014339892607997478
7.54425e-06;0.0014492824664647161
7.54450e-06;0.0014645756721296326
7.54475e-06;0.001479868877794549
7.54500e-06;0.0014968906514330011
7.54525e-06;0.001516606231760268
7.54550e-06;0.0015363218120876018
7.54575e-06;0.001556037392414869
7.54600e-06;0.001575752972742136
7.54625e-06;0.0015954685530694696
7.54650e-06;0.0016151841333967368
7.54675e-06;0.0016348997137240037
7.54700e-06;0.0016546152940513374
7.54725e-06;0.0016743308743786046
7.54750e-06;0.0016940464547058715
7.54775e-06;0.001713299497110648
7.54800e-06;0.001731831718715319
7.54825e-06;0.0017503639403199896
7.54850e-06;0.0017688961619247232
7.54875e-06;0.001787428383529394
7.54900e-06;0.0018059606051340647
7.54925e-06;0.0018244928267387983
7.54950e-06;0.0018403191214523566
7.54975e-06;0.0018519284897447448
7.55000e-06;0.0018635378580370936
7.55025e-06;0.0018751472263294421
7.55050e-06;0.0018867565946218304
7.55075e-06;0.001898365962914179
7.55100e-06;0.0019099753312065277
7.55125e-06;0.001917413745838387
7.55150e-06;0.0019183521309425265
7.55175e-06;0.001919290516046666
7.55200e-06;0.0019174013682838145
7.55225e-06;0.0019111057828998428
7.55250e-06;0.0019048101975158713
7.55275e-06;0.0018953878811545117
7.55300e-06;0.0018810928557363095
7.55325e-06;0.0018667978303181074
7.55350e-06;0.0018495671111423688
7.55375e-06;0.001827761396016073
7.55400e-06;0.001805955680889703
7.55425e-06;0.0017803037057884852
7.55450e-06;0.0017486577049939836
7.55475e-06;0.0017170117041993749
7.55500e-06;0.0016853657034048735
7.55525e-06;0.001653719702610372
7.55550e-06;0.0016220737018157632
7.55575e-06;0.0015904277010212618
7.55600e-06;0.0015511385515387182
7.55625e-06;0.0015109131176364939
7.55650e-06;0.0014706876837344057
7.55675e-06;0.0014304622498323176
7.55700e-06;0.0013902368159300932
7.55725e-06;0.001350011382028005
7.55750e-06;0.0013093811090639502
7.55775e-06;0.0012681199334164325
7.55800e-06;0.0012268587577690545
7.55825e-06;0.0011855975821215368
7.55850e-06;0.0011443364064741587
7.55875e-06;0.001105159933020963
7.55900e-06;0.0010692322671353035
7.55925e-06;0.0010333046012497655
7.55950e-06;0.0009973769353642278
7.55975e-06;0.0009614492694785682
7.56000e-06;0.0009283423891075925
7.56025e-06;0.0008996314312581942
7.56050e-06;0.0008730452865936526
7.56075e-06;0.0008497704586122849
7.56100e-06;0.0008287032480987501
7.56125e-06;0.0008110763967672477
7.56150e-06;0.0007957427656277499
7.56175e-06;0.0007839828972704193
7.56200e-06;0.0007746062883822492
7.56225e-06;0.0007689437598170958
7.56250e-06;0.0007656781871569991
7.56275e-06;0.0007661480393958926
7.56300e-06;0.0007688927285706727
7.56325e-06;0.0007751825319936815
7.56350e-06;0.0007836268621319737
7.56375e-06;0.0007954288146281447
7.56400e-06;0.0008092677593087348
7.56425e-06;0.0008262811601018104
7.56450e-06;0.0008451661947806002
7.56475e-06;0.0008669679905911351
7.56500e-06;0.0008907442952332728
7.56525e-06;0.0009175976817012163
7.56550e-06;0.0009444510681692509
7.56575e-06;0.0009737196762487494
7.56600e-06;0.0010067521745711666
7.56625e-06;0.0010397846728936956
7.56650e-06;0.0010728171712161127
7.56675e-06;0.0011058496695386417
7.56700e-06;0.0011388821678610587
7.56725e-06;0.0011746223752532026
7.56750e-06;0.0012106942765476541
7.56775e-06;0.0012467661778419834
7.56800e-06;0.0012828380791363126
7.56825e-06;0.001318909980430764
7.56850e-06;0.0013536077291950394
7.56875e-06;0.0013861639936023048
7.56900e-06;0.0014187202580096805
7.56925e-06;0.0014512765224169461
7.56950e-06;0.0014838327868242115
7.56975e-06;0.0015163890512315873
7.57000e-06;0.0015389066410781038
7.57025e-06;0.0015601944949923255
7.57050e-06;0.0015814823489066195
7.57075e-06;0.0016027702028208414
7.57100e-06;0.0016240580567351353
7.57125e-06;0.0016399289957774398
7.57150e-06;0.0016473581947602548
7.57175e-06;0.0016547873937430948
7.57200e-06;0.0016581323853249055
7.57225e-06;0.0016551125330716075
7.57250e-06;0.0016520926808182993
7.57275e-06;0.0016447801865886096
7.57300e-06;0.0016307780233150166
7.57325e-06;0.0016167758600413764
7.57350e-06;0.0015987736094478404
7.57375e-06;0.0015745376080630855
7.57400e-06;0.0015503016066782485
7.57425e-06;0.0015225372638738733
7.57450e-06;0.0014892743408244432
7.57475e-06;0.0014560114177749005
7.57500e-06;0.0014196745776892947
7.57525e-06;0.0013785473339890286
7.57550e-06;0.0013374200902889018
7.57575e-06;0.0012935014917262945
7.57600e-06;0.0012452328354797667
7.57625e-06;0.0011969641792334027
7.57650e-06;0.0011486955229870386
7.57675e-06;0.001100426866740511
7.57700e-06;0.0010507224736423474
7.57725e-06;0.000998780622954039
7.57750e-06;0.0009468387722655544
7.57775e-06;0.000894896921577246
7.57800e-06;0.0008429550708889376
7.57825e-06;0.0007917908349670796
7.57850e-06;0.0007418384367575575
7.57875e-06;0.0006918860385480353
7.57900e-06;0.000643377742178415
7.57925e-06;0.0005971199394274997
7.57950e-06;0.0005526238236749849
7.57975e-06;0.0005108731274200908
7.58000e-06;0.00047077725411188585
7.58025e-06;0.000434520824226937
7.58050e-06;0.0004015158334537255
7.58075e-06;0.0003717578294646398
7.58100e-06;0.0003451660533557036
7.58125e-06;0.00032176021203308156
7.58150e-06;0.00030163185820783077
7.58175e-06;0.00028487653473178954
7.58200e-06;0.0002715897312727978
7.58225e-06;0.000261854048742852
7.58250e-06;0.00025567783071830035
7.58275e-06;0.0002529399175809636
7.58300e-06;0.0002534713833496066
7.58325e-06;0.00025716620968273295
7.58350e-06;0.00026396338684982353
7.58375e-06;0.00027380440979943223
7.58400e-06;0.0002866307748087706
7.58425e-06;0.0003023758481691123
7.58450e-06;0.0003209264980619173
7.58475e-06;0.0003420885106627257
7.58500e-06;0.00036563774295581767
7.58525e-06;0.00039177087884588316
7.58550e-06;0.0004197815839825772
7.58575e-06;0.00044919680515044367
7.58600e-06;0.0004808008292665006
7.58625e-06;0.000513756144047651
7.58650e-06;0.0005488173151707881
7.58675e-06;0.000583878486294044
7.58700e-06;0.0006198861802306989
7.58725e-06;0.0006573689388007333
7.58750e-06;0.0006948516973708948
7.58775e-06;0.0007323344559409292
7.58800e-06;0.0007698172145110906
7.58825e-06;0.0008062397033083603
7.58850e-06;0.0008425323092382784
7.58875e-06;0.0008788249151683197
7.58900e-06;0.0009151175210982377
7.58925e-06;0.0009495381695642034
7.58950e-06;0.0009810415526345405
7.58975e-06;0.001012544935704771
7.59000e-06;0.0010415878291529601
7.59025e-06;0.0010667962865261282
7.59050e-06;0.0010920047438992108
7.59075e-06;0.00111496924577906
7.59100e-06;0.001134436759166528
7.59125e-06;0.0011539042725539298
7.59150e-06;0.001171166128898296
7.59175e-06;0.001184990681195935
7.59200e-06;0.0011988152334935272
7.59225e-06;0.001210254816162558
7.59250e-06;0.0012179776533921276
7.59275e-06;0.0012257004906216975
7.59300e-06;0.0012314805574375782
7.59325e-06;0.0012342330036966397
7.59350e-06;0.0012369854499557013
7.59375e-06;0.0012378458010969529
7.59400e-06;0.001235757504248914
7.59425e-06;0.001233669207400875
7.59450e-06;0.0012289761578733228
7.59475e-06;0.001220223852191814
7.59500e-06;0.0012114715465103053
7.59525e-06;0.0012027192408287667
7.59550e-06;0.001193966935147258
7.59575e-06;0.0011852146294657492
7.59600e-06;0.001176462323784211
7.59625e-06;0.001167710018102702
7.59650e-06;0.00115424195604917
7.59675e-06;0.00114019621464011
7.59700e-06;0.0011261504732310499
7.59725e-06;0.001112104731821942
7.59750e-06;0.0010980589904128818
7.59775e-06;0.0010840132490038217
7.59800e-06;0.0010699675075947139
7.59825e-06;0.0010561172735444352
7.59850e-06;0.0010425717188809816
7.59875e-06;0.0010290261642174818
7.59900e-06;0.001015480609554028
7.59925e-06;0.0010019350548905743
7.59950e-06;0.0009883895002270745
7.59975e-06;0.0009748439455636208
7.60000e-06;0.000962612699455313
7.60025e-06;0.0009524296766320937
7.60050e-06;0.000942246653808909
7.60075e-06;0.0009320636309856898
7.60100e-06;0.0009218806081625051
7.60125e-06;0.0009116975853393204
7.60150e-06;0.0009015145625161012
7.60175e-06;0.0008913388296701987
7.60200e-06;0.0008811744575516984
7.60225e-06;0.0008710100854331636
7.60250e-06;0.0008608457133146633
7.60275e-06;0.0008506813411961628
7.60300e-06;0.0008405169690776281
7.60325e-06;0.0008303525969591277
7.60350e-06;0.0008201882248406273
7.60375e-06;0.0008100238527220925
7.60400e-06;0.0007998594806035921
7.60425e-06;0.0007896951084850918
7.60450e-06;0.0007795307363665569
7.60475e-06;0.0007688524312774279
7.60500e-06;0.0007573732111571527
7.60525e-06;0.0007458939910369165
7.60550e-06;0.0007344147709166802
7.60575e-06;0.000722935550796405
7.60600e-06;0.0007114563306761687
7.60625e-06;0.0006999771105559324
7.60650e-06;0.0006884978904356572
7.60675e-06;0.0006770186703154209
7.60700e-06;0.0006655394501951847
7.60725e-06;0.0006540602300749096
7.60750e-06;0.0006425810099546733
7.60775e-06;0.0006318301142250483
7.60800e-06;0.0006222142419036299
7.60825e-06;0.000612598369582244
7.60850e-06;0.0006029824972608582
7.60875e-06;0.0005933666249394397
7.60900e-06;0.0005837507526180539
7.60925e-06;0.0005741348802966355
7.60950e-06;0.0005645190079752497
7.60975e-06;0.0005549031356538638
7.61000e-06;0.0005452872633324454
7.61025e-06;0.0005356713910110595
7.61050e-06;0.0005294911626556785
7.61075e-06;0.0005237318001029902
7.61100e-06;0.0005179724375503213
7.61125e-06;0.0005122130749976525
7.61150e-06;0.000506453712444964
7.61175e-06;0.0005006943498922952
7.61200e-06;0.0004949349873396263
7.61225e-06;0.000489175624786938
7.61250e-06;0.00048341626223426915
7.61275e-06;0.0004776568996816003
7.61300e-06;0.0004727142672894167
7.61325e-06;0.00046904443018220003
7.61350e-06;0.0004653745930749709
7.61375e-06;0.0004617047559677542
7.61400e-06;0.0004580349188605376
7.61425e-06;0.0004543650817533085
7.61450e-06;0.0004506952446460918
7.61475e-06;0.00044702540753887513
7.61500e-06;0.000443355570431646
7.61525e-06;0.00043968573332442933
7.61550e-06;0.00043601589621721263
7.61575e-06;0.0004323460591099836
7.61600e-06;0.0004286762220027669
7.61625e-06;0.0004250063848955502
7.61650e-06;0.00042184844314063037
7.61675e-06;0.0004194882409847561
7.61700e-06;0.00041712803882888185
7.61725e-06;0.0004147678366729996
7.61750e-06;0.0004124076345171254
7.61775e-06;0.00041004743236124313
7.61800e-06;0.00040768723020536893
7.61825e-06;0.00040532702804949467
7.61850e-06;0.00040296682589361244
7.61875e-06;0.0004006066237377382
7.61900e-06;0.0003982464215818639
7.61925e-06;0.0003958862194259817
7.61950e-06;0.00039352601727010744
7.61975e-06;0.00039116581511423323
7.62000e-06;0.00038886935441791236
7.62025e-06;0.0003866722286465198
7.62050e-06;0.00038447510287512726
7.62075e-06;0.0003822779771037273
7.62100e-06;0.00038008085133233474
7.62125e-06;0.0003748878555919383
7.62150e-06;0.00036932786628898084
7.62175e-06;0.00036376787698604225
7.62200e-06;0.0003582078876830848
7.62225e-06;0.00035163632760765656
7.62250e-06;0.000343488331921498
7.62275e-06;0.000334490730620024
7.62300e-06;0.0003241691008042891
7.62325e-06;0.00031298730865193504
7.62350e-06;0.00030046503635191744
7.62375e-06;0.00028723376873192335
7.62400e-06;0.00027289760019873227
7.62425e-06;0.00025795704230560055
7.62450e-06;0.00024207460181215846
7.62475e-06;0.00022551631785767856
7.62500e-06;0.00020790479696886936
7.62525e-06;0.00018969923867756278
7.62550e-06;0.00017056793031427787
7.62575e-06;0.00015102565777635132
7.62600e-06;0.00013084293715802882
7.62625e-06;0.00011040316378794338
7.62650e-06;8.95627984647053e-05
7.62675e-06;6.850897734527784e-05
7.62700e-06;4.712250592828775e-05
7.62725e-06;2.5655338302154e-05
7.62750e-06;4.076104154900531e-06
7.62775e-06;-1.7417211661264734e-05
7.62800e-06;-3.869442220495806e-05
7.62825e-06;-5.963033460252143e-05
7.62850e-06;-8.012522316511961e-05
7.62875e-06;-0.00010011459823897713
7.62900e-06;-0.00011952738012898792
7.62925e-06;-0.00013824943625512226
7.62950e-06;-0.0001561438433523359
7.62975e-06;-0.00017307260560863008
7.63000e-06;-0.00018889773289965632
7.63025e-06;-0.00020345093320682425
7.63050e-06;-0.000216415001416093
7.63075e-06;-0.0002272859761404137
7.63100e-06;-0.0002356471503850438
7.63125e-06;-0.00024137938663101822
7.63150e-06;-0.0002445126663949582
7.63175e-06;-0.0002450838951812935
7.63200e-06;-0.00024313001527925907
7.63225e-06;-0.00023866892962168365
7.63250e-06;-0.0002316252998587213
7.63275e-06;-0.0002218068384186502
7.63300e-06;-0.0002090759082273851
7.63325e-06;-0.0001934812996891715
7.63350e-06;-0.00017516520152923
7.63375e-06;-0.00015427412560631607
7.63400e-06;-0.00013095458595881155
7.63425e-06;-0.00010534120867804021
7.63450e-06;-7.751017034472951e-05
7.63475e-06;-4.746439925677151e-05
7.63500e-06;-1.5241070928213078e-05
7.63525e-06;1.9005870068908765e-05
7.63550e-06;5.506399004418425e-05
7.63575e-06;9.27181521768579e-05
7.63600e-06;0.00013175323260928795
7.63625e-06;0.0001721417241295639
7.63650e-06;0.00021345289433690042
7.63675e-06;0.00025549554652573434
7.63700e-06;0.00029867814292342703
7.63725e-06;0.0003418607393214123
7.63750e-06;0.0003850433357193976
7.63775e-06;0.000428129862608375
7.63800e-06;0.000471204620999138
7.63825e-06;0.000514279379389901
7.63850e-06;0.0005563008610609883
7.63875e-06;0.0005966809124205225
7.63900e-06;0.0006370609637800568
7.63925e-06;0.0006759694900914536
7.63950e-06;0.0007125847863584267
7.63975e-06;0.0007475080040073267
7.64000e-06;0.0007797942801166246
7.64025e-06;0.0008101345930104163
7.64050e-06;0.0008374423096743431
7.64075e-06;0.0008633452429756638
7.64100e-06;0.0008870589567203191
7.64125e-06;0.0009091393249851357
7.64150e-06;0.0009286742816489828
7.64175e-06;0.0009482092383126974
7.64200e-06;0.0009654229297002179
7.64225e-06;0.0009790191527466001
7.64250e-06;0.0009926153757928904
7.64275e-06;0.0010043565280842353
7.64300e-06;0.0010132067312903772
7.64325e-06;0.0010220569344964589
7.64350e-06;0.0010292618817840237
7.64375e-06;0.0010339028561988793
7.64400e-06;0.0010385438306137037
7.64425e-06;0.0010406705610662805
7.64450e-06;0.00103887908448379
7.64475e-06;0.0010370876079013114
7.64500e-06;0.0010352961313188208
7.64525e-06;0.00103350465473633
7.64550e-06;0.0010317131781538516
7.64575e-06;0.001029921701571361
7.64600e-06;0.0010281302249888703
7.64625e-06;0.001021481862418179
7.64650e-06;0.0010142385321381866
