Time(s);Current(A)
2.50000e-06;-0.004562777475283138
2.50025e-06;-0.0045981984667634885
2.50050e-06;-0.004637882471954588
2.50075e-06;-0.004688185066854719
2.50100e-06;-0.00473848766175485
2.50125e-06;-0.00479263868101049
2.50150e-06;-0.00485637560404945
2.50175e-06;-0.004920112527088409
2.50200e-06;-0.004986497059368612
2.50225e-06;-0.005059476427637931
2.50250e-06;-0.005134014374422817
2.50275e-06;-0.005212434529173164
2.50300e-06;-0.005292008544258751
2.50325e-06;-0.00537445666914431
2.50350e-06;-0.0054576752792665295
2.50375e-06;-0.005542813063747434
2.50400e-06;-0.005628161411065404
2.50425e-06;-0.005714034241888468
2.50450e-06;-0.005799532168148232
2.50475e-06;-0.005884096257923174
2.50500e-06;-0.0059677475974850005
2.50525e-06;-0.006049125399901683
2.50550e-06;-0.006129066479457891
2.50575e-06;-0.006205428876979625
2.50600e-06;-0.0062790658964075345
2.50625e-06;-0.006345914368168284
2.50650e-06;-0.006412762839928921
2.50675e-06;-0.006472715011946391
2.50700e-06;-0.00651548943543761
2.50725e-06;-0.006558263858928756
2.50750e-06;-0.0066010382824199755
2.50775e-06;-0.006643812705911194
2.50800e-06;-0.00668658712940234
2.50825e-06;-0.006729361552893559
2.50850e-06;-0.006772135976384778
2.50875e-06;-0.006806281358738717
2.50900e-06;-0.0068189329684612224
2.50925e-06;-0.00683158457818375
2.50950e-06;-0.006844236187906277
2.50975e-06;-0.006856887797628784
2.51000e-06;-0.0068695394073513116
2.51025e-06;-0.006882191017073839
2.51050e-06;-0.0068948426267963665
2.51075e-06;-0.006901072105723585
2.51100e-06;-0.006891304926745344
2.51125e-06;-0.006881537747767102
2.51150e-06;-0.006871770568788877
2.51175e-06;-0.006862003389810636
2.51200e-06;-0.006852236210832395
2.51225e-06;-0.006842469031854171
2.51250e-06;-0.006829187447743641
2.51275e-06;-0.006807151956489987
2.51300e-06;-0.006785116465236334
2.51325e-06;-0.006763080973982717
2.51350e-06;-0.006741045482729063
2.51375e-06;-0.006719009991475409
2.51400e-06;-0.0066969745002217924
2.51425e-06;-0.006673932841485327
2.51450e-06;-0.006648384955838905
2.51475e-06;-0.006622837070192482
2.51500e-06;-0.006597383360892545
2.51525e-06;-0.006572164232114962
2.51550e-06;-0.006546945103337378
2.51575e-06;-0.0065224803190911795
2.51600e-06;-0.006499894504893321
2.51625e-06;-0.006477308690695463
2.51650e-06;-0.006457117533606678
2.51675e-06;-0.0064428911430099755
2.51700e-06;-0.006428664752413273
2.51725e-06;-0.00641443836181657
2.51750e-06;-0.006400211971219892
2.51775e-06;-0.0063859855806231896
2.51800e-06;-0.006371759190026487
2.51825e-06;-0.006357532799429809
2.51850e-06;-0.006343306408833106
2.51875e-06;-0.00633936490604497
2.51900e-06;-0.006338215927906299
2.51925e-06;-0.006337066949767629
2.51950e-06;-0.006335917971628958
2.51975e-06;-0.006334768993490286
2.52000e-06;-0.0063336200153516166
2.52025e-06;-0.006332471037212945
2.52050e-06;-0.006331322059074274
2.52075e-06;-0.006333315430300178
2.52100e-06;-0.006343135968148785
2.52125e-06;-0.006352956505997392
2.52150e-06;-0.006362777043845999
2.52175e-06;-0.006372597581694589
2.52200e-06;-0.006382418119543196
2.52225e-06;-0.006392238657391803
2.52250e-06;-0.006402059195240393
2.52275e-06;-0.006411879733089
2.52300e-06;-0.006423142366622138
2.52325e-06;-0.006437997065167541
2.52350e-06;-0.006452851763712919
2.52375e-06;-0.006467706462258322
2.52400e-06;-0.006482561160803725
2.52425e-06;-0.006497415859349103
2.52450e-06;-0.0065122705578945055
2.52475e-06;-0.006527125256439908
2.52500e-06;-0.006541979954985286
2.52525e-06;-0.00655645104128667
2.52550e-06;-0.006569966601450064
2.52575e-06;-0.0065834821616134595
2.52600e-06;-0.00659699772177683
2.52625e-06;-0.006610513281940226
2.52650e-06;-0.006621578878892121
2.52675e-06;-0.00663197926852369
2.52700e-06;-0.006642379658155277
2.52725e-06;-0.006652780047786865
2.52750e-06;-0.006663869667242635
2.52775e-06;-0.006676676064831426
2.52800e-06;-0.0066894824624202385
2.52825e-06;-0.006702288860009052
2.52850e-06;-0.006715095257597842
2.52875e-06;-0.006727901655186655
2.52900e-06;-0.006740708052775468
2.52925e-06;-0.006753514450364258
2.52950e-06;-0.006766320847953072
2.52975e-06;-0.006783814278009014
2.53000e-06;-0.006802580318320157
2.53025e-06;-0.006821346358631267
2.53050e-06;-0.006840112398942409
2.53075e-06;-0.006858878439253551
2.53100e-06;-0.006877644479564661
2.53125e-06;-0.006896410519875803
2.53150e-06;-0.006915176560186946
2.53175e-06;-0.006935360051191779
2.53200e-06;-0.006959074219875215
2.53225e-06;-0.0069827883885586915
2.53250e-06;-0.007006502557242169
2.53275e-06;-0.007030216725925605
2.53300e-06;-0.007053930894609081
2.53325e-06;-0.007077645063292558
2.53350e-06;-0.007101359231975995
2.53375e-06;-0.007125073400659471
2.53400e-06;-0.007148787569342948
2.53425e-06;-0.007170851181667856
2.53450e-06;-0.007192466639437893
2.53475e-06;-0.007214082097207967
2.53500e-06;-0.007235697554978039
2.53525e-06;-0.0072573130127480765
2.53550e-06;-0.00727892847051815
2.53575e-06;-0.007300543928288224
2.53600e-06;-0.007322159386058297
2.53625e-06;-0.0073437748438283336
2.53650e-06;-0.007363607286073376
2.53675e-06;-0.007378998478161901
2.53700e-06;-0.007394389670250399
2.53725e-06;-0.007410043889137635
2.53750e-06;-0.007426353272152471
2.53775e-06;-0.00744266265516728
2.53800e-06;-0.007458972038182116
2.53825e-06;-0.007475281421196952
2.53850e-06;-0.007491590804211788
2.53875e-06;-0.007507900187226596
2.53900e-06;-0.007524209570241433
2.53925e-06;-0.007544325104248297
2.53950e-06;-0.007565474073978004
2.53975e-06;-0.007586623043707748
2.54000e-06;-0.007607772013437492
2.54025e-06;-0.007628920983167236
2.54050e-06;-0.007650069952896944
2.54075e-06;-0.007671218922626688
2.54100e-06;-0.0076940013382820445
2.54125e-06;-0.007720852446481674
2.54150e-06;-0.007747703554681348
2.54175e-06;-0.007774554662881022
2.54200e-06;-0.007801405771080651
2.54225e-06;-0.007828256879280324
2.54250e-06;-0.007855107987479999
2.54275e-06;-0.007881959095679673
2.54300e-06;-0.007908810203879301
2.54325e-06;-0.007935661312078976
2.54350e-06;-0.007962755285213688
2.54375e-06;-0.007989915200372262
2.54400e-06;-0.008017075115530884
2.54425e-06;-0.008044235030689503
2.54450e-06;-0.00807139494584808
2.54475e-06;-0.008098554861006699
2.54500e-06;-0.00812571477616532
2.54525e-06;-0.008152874691323942
2.54550e-06;-0.008180034606482516
2.54575e-06;-0.008204815219405394
2.54600e-06;-0.008223669312744165
2.54625e-06;-0.008242523406082903
2.54650e-06;-0.008261377499421674
2.54675e-06;-0.008280231592760446
2.54700e-06;-0.008299085686099217
2.54725e-06;-0.008317939779437957
2.54750e-06;-0.008332326651513776
2.54775e-06;-0.008335586280524932
2.54800e-06;-0.008338845909536081
2.54825e-06;-0.008342105538547235
2.54850e-06;-0.008345365167558391
2.54875e-06;-0.00834862479656954
2.54900e-06;-0.008351884425580696
2.54925e-06;-0.008349647077294959
2.54950e-06;-0.008333717503148092
2.54975e-06;-0.008317787929001253
2.55000e-06;-0.008301858354854386
2.55025e-06;-0.00828592878070752
2.55050e-06;-0.008269999206560678
2.55075e-06;-0.008254069632413812
2.55100e-06;-0.008238140058266945
2.55125e-06;-0.008217728370341074
2.55150e-06;-0.00818615234411007
2.55175e-06;-0.008154576317879013
2.55200e-06;-0.008123000291647956
2.55225e-06;-0.008091424265416952
2.55250e-06;-0.008059848239185895
2.55275e-06;-0.008028272212954837
2.55300e-06;-0.007996696186723834
2.55325e-06;-0.007963388169441876
2.55350e-06;-0.007925765997056421
2.55375e-06;-0.007888143824670967
2.55400e-06;-0.007850521652285577
2.55425e-06;-0.007812995710518123
2.55450e-06;-0.007775709466185332
2.55475e-06;-0.007738423221852605
2.55500e-06;-0.007701136977519815
2.55525e-06;-0.007663850733187025
2.55550e-06;-0.007628107246810171
2.55575e-06;-0.007596206561529663
2.55600e-06;-0.007564305876249102
2.55625e-06;-0.00753240519096854
2.55650e-06;-0.007500504505688033
2.55675e-06;-0.007470579994094782
2.55700e-06;-0.007445577863477083
2.55725e-06;-0.007420575732859428
2.55750e-06;-0.007395948241186525
2.55775e-06;-0.007372253924378977
2.55800e-06;-0.007348559607571428
2.55825e-06;-0.00732486529076392
2.55850e-06;-0.007301170973956372
2.55875e-06;-0.007277476657148824
2.55900e-06;-0.007253782340341315
2.55925e-06;-0.007230088023533768
2.55950e-06;-0.007206393706726219
2.55975e-06;-0.007182699389918671
2.56000e-06;-0.00715826714920856
2.56025e-06;-0.00713363454941558
2.56050e-06;-0.0071090019496225995
2.56075e-06;-0.007084369349829661
2.56100e-06;-0.007059736750036681
2.56125e-06;-0.007035104150243701
2.56150e-06;-0.007010471550450762
2.56175e-06;-0.006985838950657782
2.56200e-06;-0.006961206350864802
2.56225e-06;-0.006936312076965264
2.56250e-06;-0.006910766008310964
2.56275e-06;-0.0068852199396566205
2.56300e-06;-0.006859673871002277
2.56325e-06;-0.006834127802347977
2.56350e-06;-0.006808581733693634
2.56375e-06;-0.006783035665039291
2.56400e-06;-0.006757489596384947
2.56425e-06;-0.006731943527730647
2.56450e-06;-0.006709186627930179
2.56475e-06;-0.006687187035639976
2.56500e-06;-0.00666518744334981
2.56525e-06;-0.006643187851059607
2.56550e-06;-0.006621188258769404
2.56575e-06;-0.006599188666479239
2.56600e-06;-0.006577189074189036
2.56625e-06;-0.006555189481898834
2.56650e-06;-0.00653461104065048
2.56675e-06;-0.006517572494147919
2.56700e-06;-0.006500499665320926
2.56725e-06;-0.0064833414438674975
2.56750e-06;-0.006464385823712013
2.56775e-06;-0.006440953126852971
2.56800e-06;-0.00641752042999393
2.56825e-06;-0.006392244180019405
2.56850e-06;-0.0063623758889493915
2.56875e-06;-0.006332507597879328
2.56900e-06;-0.006300560134968752
2.56925e-06;-0.006263433736633914
2.56950e-06;-0.006226307338299014
2.56975e-06;-0.0061858463651148984
2.57000e-06;-0.006137079417660096
2.57025e-06;-0.00608831247020521
2.57050e-06;-0.006039545522750325
2.57075e-06;-0.005990778575295439
2.57100e-06;-0.005933378811683491
2.57125e-06;-0.005873635089403636
2.57150e-06;-0.005813891367123781
2.57175e-06;-0.0057541476448440265
2.57200e-06;-0.005692351073857357
2.57225e-06;-0.005625441134806682
2.57250e-06;-0.00555784194762301
2.57275e-06;-0.005488525936700933
2.57300e-06;-0.0054188845771825775
2.57325e-06;-0.005348192975504092
2.57350e-06;-0.005276699064126842
2.57375e-06;-0.005204602081583455
2.57400e-06;-0.005132305921288447
2.57425e-06;-0.005060244378251705
2.57450e-06;-0.004988849986330382
2.57475e-06;-0.004918549606470166
2.57500e-06;-0.004849706798274745
2.57525e-06;-0.004782529476581574
2.57550e-06;-0.004717169556645616
2.57575e-06;-0.004653932573529113
2.57600e-06;-0.004593253074189605
2.57625e-06;-0.004535583349131124
2.57650e-06;-0.0044813757543365204
2.57675e-06;-0.004431067307886062
2.57700e-06;-0.0043849420252993505
2.57725e-06;-0.004342870863473288
2.57750e-06;-0.004304477656155036
2.57775e-06;-0.004269630341095635
2.57800e-06;-0.004238453424685918
2.57825e-06;-0.004211110618389073
2.57850e-06;-0.004187764372515893
2.57875e-06;-0.004168568796580061
2.57900e-06;-0.004154115418474609
2.57925e-06;-0.0041439311732905364
2.57950e-06;-0.004136248448401204
2.57975e-06;-0.004134796671727807
2.58000e-06;-0.00413334489505441
2.58025e-06;-0.004135470618996075
2.58050e-06;-0.004146507412386987
2.58075e-06;-0.004157544205777899
2.58100e-06;-0.004168580999168811
2.58125e-06;-0.004179617792559704
2.58150e-06;-0.004200169678588215
2.58175e-06;-0.004223305076585396
2.58200e-06;-0.004246440474582537
2.58225e-06;-0.004269575872579717
2.58250e-06;-0.004294828919250004
2.58275e-06;-0.0043253567419232735
2.58300e-06;-0.004355884564596594
2.58325e-06;-0.004387448905122149
2.58350e-06;-0.00442159507121828
2.58375e-06;-0.004455741237314352
2.58400e-06;-0.004490292254984613
2.58425e-06;-0.0045258517030877235
2.58450e-06;-0.004561411151190773
2.58475e-06;-0.004596907259253538
2.58500e-06;-0.004632245595855391
2.58525e-06;-0.004667154936522354
2.58550e-06;-0.004700995706424168
2.58575e-06;-0.004733834663213375
2.58600e-06;-0.00476417823923735
2.58625e-06;-0.0047945218152612755
2.58650e-06;-0.004821931028854604
2.58675e-06;-0.004842031143100816
2.58700e-06;-0.004862131257346993
2.58725e-06;-0.004882231371593205
2.58750e-06;-0.004902331485839417
2.58775e-06;-0.0049224316000856284
2.58800e-06;-0.004942531714331806
2.58825e-06;-0.004962631828578018
2.58850e-06;-0.004971933728343409
2.58875e-06;-0.004978303726401083
2.58900e-06;-0.004984673724458768
2.58925e-06;-0.004991043722516454
2.58950e-06;-0.0049974137205741394
2.58975e-06;-0.005003783718631814
2.59000e-06;-0.005010153716689499
2.59025e-06;-0.005013321523324639
2.59050e-06;-0.005008513104871906
2.59075e-06;-0.005003704686419165
2.59100e-06;-0.004998896267966424
2.59125e-06;-0.0049940878495136915
2.59150e-06;-0.004989279431060951
2.59175e-06;-0.0049844710126082095
2.59200e-06;-0.004977614210980453
2.59225e-06;-0.004965655164322874
2.59250e-06;-0.004953696117665275
2.59275e-06;-0.004941737071007675
2.59300e-06;-0.004929778024350097
2.59325e-06;-0.004917818977692497
2.59350e-06;-0.004905859931034898
2.59375e-06;-0.004893193475568911
2.59400e-06;-0.004878764960581706
2.59425e-06;-0.004864336445594476
2.59450e-06;-0.004849822513817144
2.59475e-06;-0.004835095820385633
2.59500e-06;-0.004820369126954096
2.59525e-06;-0.004805857731855545
2.59550e-06;-0.004791882615741747
2.59575e-06;-0.0047779074996279255
2.59600e-06;-0.004764444750860444
2.59625e-06;-0.004752258239751171
2.59650e-06;-0.004740071728641919
2.59675e-06;-0.004728361568429227
2.59700e-06;-0.00471783793377693
2.59725e-06;-0.004707314299124651
2.59750e-06;-0.004696250684514542
2.59775e-06;-0.0046838420529712235
2.59800e-06;-0.004671433421427906
2.59825e-06;-0.00465851086627193
2.59850e-06;-0.004644308197009044
2.59875e-06;-0.004630105527746158
2.59900e-06;-0.004614970539332828
2.59925e-06;-0.004597513270200691
2.59950e-06;-0.004580056001068554
2.59975e-06;-0.004562598731936446
2.60000e-06;-0.004545141462804309
2.60025e-06;-0.004526396165392391
2.60050e-06;-0.004504442564002268
2.60075e-06;-0.0044824889626121816
2.60100e-06;-0.004460535361222058
2.60125e-06;-0.004438581759831935
2.60150e-06;-0.004415589358065751
2.60175e-06;-0.0043900094452707945
2.60200e-06;-0.004364429532475838
2.60225e-06;-0.004338849619680883
2.60250e-06;-0.00431326970688597
2.60275e-06;-0.004286368698794519
2.60300e-06;-0.004259108990515805
2.60325e-06;-0.004231849282237137
2.60350e-06;-0.004204589573958423
2.60375e-06;-0.004177198175903553
2.60400e-06;-0.004149501833660726
2.60425e-06;-0.004121933005599494
2.60450e-06;-0.004094655871281554
2.60475e-06;-0.00406783220673467
2.60500e-06;-0.004041595603129199
2.60525e-06;-0.004016010741076546
2.60550e-06;-0.003991116384686791
2.60575e-06;-0.003967017761551538
2.60600e-06;-0.00394387573343653
2.60625e-06;-0.0039218596676561315
2.60650e-06;-0.0039011387326518938
2.60675e-06;-0.0038819064400989287
2.60700e-06;-0.003864586787691019
2.60725e-06;-0.0038501580344276753
2.60750e-06;-0.0038397365899900814
2.60775e-06;-0.0038337876087208983
2.60800e-06;-0.0038322644513743933
2.60825e-06;-0.0038350507026287304
2.60850e-06;-0.0038420300805563586
2.60875e-06;-0.0038531015756536587
2.60900e-06;-0.003869017064865506
2.60925e-06;-0.0038898061637913594
2.60950e-06;-0.003913478512914244
2.60975e-06;-0.0039443326477346455
2.61000e-06;-0.003979261728885869
2.61025e-06;-0.004024340949386118
2.61050e-06;-0.004069420169886366
2.61075e-06;-0.004114499390386615
2.61100e-06;-0.004159578610886788
2.61125e-06;-0.004217938122933195
2.61150e-06;-0.004279903463474675
2.61175e-06;-0.00434186880401605
2.61200e-06;-0.0044038341445575314
2.61225e-06;-0.004468521320832566
2.61250e-06;-0.004539988221240713
2.61275e-06;-0.004612505134553518
2.61300e-06;-0.004687637487784829
2.61325e-06;-0.004763564737401599
2.61350e-06;-0.0048414719662438445
2.61375e-06;-0.004919769173200482
2.61400e-06;-0.004999037762816304
2.61425e-06;-0.00507815288233777
2.61450e-06;-0.005156885728642545
2.61475e-06;-0.0052349388645039465
2.61500e-06;-0.005311298933719244
2.61525e-06;-0.005386565103318901
2.61550e-06;-0.005459106517147631
2.61575e-06;-0.005530045865933706
2.61600e-06;-0.005596994687701757
2.61625e-06;-0.005661746772823602
2.61650e-06;-0.005721027084512382
2.61675e-06;-0.005777529127285533
2.61700e-06;-0.005827110878512912
2.61725e-06;-0.005873526983898546
2.61750e-06;-0.005912057894286182
2.61775e-06;-0.005946429460536926
2.61800e-06;-0.005970440663935247
2.61825e-06;-0.005994451867333567
2.61850e-06;-0.006013257937842028
2.61875e-06;-0.006019098727368733
2.61900e-06;-0.006024939516895437
2.61925e-06;-0.006025558410320512
2.61950e-06;-0.006013170267873822
2.61975e-06;-0.006000782125427131
2.62000e-06;-0.00598242767280932
2.62025e-06;-0.005949211949705435
2.62050e-06;-0.005915996226601494
2.62075e-06;-0.005882780503497553
2.62100e-06;-0.005849564780393669
2.62125e-06;-0.005799710808925795
2.62150e-06;-0.005745339265697158
2.62175e-06;-0.0056909677224685215
2.62200e-06;-0.005636596179239978
2.62225e-06;-0.005578878174252463
2.62250e-06;-0.0055128245863091474
2.62275e-06;-0.0054455913929394835
2.62300e-06;-0.005374768331280537
2.62325e-06;-0.0053017856334780355
2.62350e-06;-0.0052270542360326215
2.62375e-06;-0.005151010070699172
2.62400e-06;-0.0050740945164624365
2.62425e-06;-0.004996747756633178
2.62450e-06;-0.0049194103067893204
2.62475e-06;-0.004842523216085428
2.62500e-06;-0.004766531664023998
2.62525e-06;-0.004691896611736183
2.62550e-06;-0.004619106152352741
2.62575e-06;-0.004548662671361527
2.62600e-06;-0.004481071876920558
2.62625e-06;-0.004416839477187954
2.62650e-06;-0.004356471046927256
2.62675e-06;-0.004300440614378855
2.62700e-06;-0.004248909016432375
2.62725e-06;-0.004201227069894083
2.62750e-06;-0.004156355988429888
2.62775e-06;-0.004113895349817364
2.62800e-06;-0.00407403044159487
2.62825e-06;-0.004037030483902291
2.62850e-06;-0.00400367119000385
2.62875e-06;-0.003973945236067323
2.62900e-06;-0.003945991191412707
2.62925e-06;-0.003922450732770761
2.62950e-06;-0.0039004133717478956
2.62975e-06;-0.00388212002329644
2.63000e-06;-0.0038638266748449845
2.63025e-06;-0.0038476409943012015
2.63050e-06;-0.003836705229027613
2.63075e-06;-0.003825769463754006
2.63100e-06;-0.0038148336984803986
2.63125e-06;-0.0038095910175379544
2.63150e-06;-0.003805745045496389
2.63175e-06;-0.003801899073454824
2.63200e-06;-0.003797564483168825
2.63225e-06;-0.0037970130688792744
2.63250e-06;-0.0037993445470287236
2.63275e-06;-0.0038025077065431926
2.63300e-06;-0.003805670866057656
2.63325e-06;-0.003810314881960699
2.63350e-06;-0.003815351862495295
2.63375e-06;-0.0038203888430298825
2.63400e-06;-0.0038269006691873907
2.63425e-06;-0.0038338038649410842
2.63450e-06;-0.003840707060694778
2.63475e-06;-0.00384908632875824
2.63500e-06;-0.003857857291935325
2.63525e-06;-0.00386606787388336
2.63550e-06;-0.0038741297513351833
2.63575e-06;-0.00388159223891553
2.63600e-06;-0.0038888956705456644
2.63625e-06;-0.0038961991021757864
2.63650e-06;-0.003903099383166341
2.63675e-06;-0.003909777128953146
2.63700e-06;-0.003915931634886471
2.63725e-06;-0.003922389676450789
2.63750e-06;-0.003930616034407429
2.63775e-06;-0.003941110049763706
2.63800e-06;-0.003954560204287871
2.63825e-06;-0.003968666016002997
2.63850e-06;-0.00398588626301046
2.63875e-06;-0.004003932966200071
2.63900e-06;-0.004025653473894359
2.63925e-06;-0.004048348873715164
2.63950e-06;-0.004071044273535968
2.63975e-06;-0.00410173828508764
2.64000e-06;-0.004134554832988078
2.64025e-06;-0.0041673713808885165
2.64050e-06;-0.004200187928788899
2.64075e-06;-0.004233004476689338
2.64100e-06;-0.004273812717806721
2.64125e-06;-0.0043167416593545916
2.64150e-06;-0.00435967060090239
2.64175e-06;-0.00440259954245026
2.64200e-06;-0.004445528483998131
2.64225e-06;-0.00449355754794094
2.64250e-06;-0.004542939996137351
2.64275e-06;-0.004592322444333762
2.64300e-06;-0.0046434936473228935
2.64325e-06;-0.0046951395198163905
2.64350e-06;-0.004746785392309976
2.64375e-06;-0.004799317178060521
2.64400e-06;-0.004852084052492996
2.64425e-06;-0.004904850926925559
2.64450e-06;-0.004956459686284882
2.64475e-06;-0.005007761124646202
2.64500e-06;-0.005059062563007608
2.64525e-06;-0.0051073324901090905
2.64550e-06;-0.005154797966006085
2.64575e-06;-0.005202263441902999
2.64600e-06;-0.005239366372235136
2.64625e-06;-0.005273719465424491
