Time(s);Current(A)
1.17500e-05;-0.0012060938517878764
1.17503e-05;-0.0011808418259785921
1.17505e-05;-0.0011567880905762272
1.17508e-05;-0.0011341203857860762
1.17510e-05;-0.0011130276519059434
1.17513e-05;-0.0010937204345426394
1.17515e-05;-0.001076492825004379
1.17518e-05;-0.0010618713455526996
1.17520e-05;-0.0010504771377213046
1.17523e-05;-0.001039923819817566
1.17525e-05;-0.0010337216771318931
1.17528e-05;-0.0010283643366299693
1.17530e-05;-0.0010273784152694137
1.17533e-05;-0.0010272646724572485
1.17535e-05;-0.0010316640074690734
1.17538e-05;-0.0010369599467045265
1.17540e-05;-0.0010468953541382191
1.17543e-05;-0.0010578660324872607
1.17545e-05;-0.0010741937082296683
1.17548e-05;-0.001090521383972076
1.17550e-05;-0.0011079609322873502
1.17553e-05;-0.0011311538523885358
1.17555e-05;-0.0011543467724897216
1.17558e-05;-0.0011785154123712823
1.17560e-05;-0.0012077329029872264
1.17563e-05;-0.0012369503936031704
1.17565e-05;-0.001266903495181398
1.17568e-05;-0.0013006630071886345
1.17570e-05;-0.001334422519195871
1.17572e-05;-0.0013686099188801538
1.17575e-05;-0.0014050114184085917
1.17578e-05;-0.0014416290630088434
1.17580e-05;-0.0014793651477864496
1.17583e-05;-0.0015171770549130782
1.17585e-05;-0.001555381303907667
1.17588e-05;-0.0015935157450578425
1.17590e-05;-0.001631288966323111
1.17593e-05;-0.0016688525283773334
1.17595e-05;-0.0017053312112641425
1.17598e-05;-0.0017414597142468055
1.17600e-05;-0.001775776215361323
1.17603e-05;-0.0018094203269414199
1.17605e-05;-0.0018395851666410798
1.17608e-05;-0.0018697500063409441
1.17610e-05;-0.0018988722879598014
1.17613e-05;-0.00192259986482887
1.17615e-05;-0.0019463274416980996
1.17618e-05;-0.001969195686045285
1.17620e-05;-0.0019876173241812683
1.17623e-05;-0.002006038962317377
1.17625e-05;-0.002023547527046719
1.17628e-05;-0.002036331403977306
1.17630e-05;-0.0020491152809079803
1.17633e-05;-0.0020612404910527807
1.17635e-05;-0.0020694360547817135
1.17638e-05;-0.002074933729549896
1.17640e-05;-0.002080431404318078
1.17643e-05;-0.0020851909102313614
1.17645e-05;-0.0020861307699295796
1.17648e-05;-0.0020870706296277977
1.17650e-05;-0.0020872775996599196
1.17653e-05;-0.002083692240578277
1.17655e-05;-0.002080106881496635
1.17657e-05;-0.0020760522025331275
1.17660e-05;-0.0020695690332605855
1.17663e-05;-0.0020627689241192256
1.17665e-05;-0.00205432881328683
1.17668e-05;-0.002045593482676522
1.17670e-05;-0.002035330540734903
1.17673e-05;-0.002024826151323926
1.17675e-05;-0.002013072394771071
1.17678e-05;-0.0020011773633557416
1.17680e-05;-0.0019885513067963577
1.17683e-05;-0.0019758388695107773
1.17685e-05;-0.0019626794561544434
1.17688e-05;-0.0019494776961624593
1.17690e-05;-0.0019360568139933929
1.17693e-05;-0.001922657680196551
1.17695e-05;-0.001909371083101121
1.17698e-05;-0.0018961993649243
1.17700e-05;-0.0018836220863847617
1.17703e-05;-0.0018711723568167941
1.17705e-05;-0.0018594868919077294
1.17708e-05;-0.0018484596837889178
1.17710e-05;-0.0018381700146977086
1.17713e-05;-0.0018285241659643289
1.17715e-05;-0.0018186769225766726
1.17718e-05;-0.001807222438181137
1.17720e-05;-0.0017934118878650046
1.17723e-05;-0.0017772879340891415
1.17725e-05;-0.0017590561851662315
1.17728e-05;-0.001738922271553106
1.17730e-05;-0.0017170852304150583
1.17733e-05;-0.0016936363580903368
1.17735e-05;-0.0016681957824205302
1.17738e-05;-0.0016400326955486584
1.17740e-05;-0.001608827829715693
1.17742e-05;-0.0015747577966081184
1.17745e-05;-0.0015381011182380056
1.17748e-05;-0.0014991365338843758
1.17750e-05;-0.00145813850860741
1.17753e-05;-0.001415313991457032
1.17755e-05;-0.0013705746770434379
1.17758e-05;-0.0013236127645723655
1.17760e-05;-0.0012743780720307245
1.17763e-05;-0.0012231309512926915
1.17765e-05;-0.001170195814152038
1.17768e-05;-0.0011158968772804264
1.17770e-05;-0.001060555887442227
1.17773e-05;-0.0010044521720278432
1.17775e-05;-0.0009476803472325612
1.17778e-05;-0.0008901971088025043
1.17780e-05;-0.000832120849396676
1.17783e-05;-0.0007737644049604325
1.17785e-05;-0.0007154805516266075
1.17788e-05;-0.0006576222229428843
1.17790e-05;-0.0006005405924323942
1.17793e-05;-0.0005445601740429936
1.17795e-05;-0.0004898898150016057
1.17798e-05;-0.00043665205147082407
1.17800e-05;-0.0003850706561889898
1.17803e-05;-0.0003354911003932274
1.17805e-05;-0.00028828401747360864
1.17808e-05;-0.00024381987008738736
1.17810e-05;-0.00020246346697587025
1.17813e-05;-0.00016447917183471603
1.17815e-05;-0.00012967800250519387
1.17818e-05;-9.746915251330015e-05
1.17820e-05;-6.753229338033689e-05
1.17823e-05;-3.994882154502182e-05
1.17825e-05;-1.4887942118486066e-05
1.17827e-05;7.481201204803515e-06
1.17830e-05;2.6993058301307505e-05
1.17833e-05;4.354502742243594e-05
1.17835e-05;5.731844845334005e-05
1.17838e-05;6.874636986442985e-05
1.17840e-05;7.809235769750758e-05
1.17843e-05;8.536834208101361e-05
1.17845e-05;9.053124539945173e-05
1.17848e-05;9.353804845063977e-05
1.17850e-05;9.434797630443184e-05
1.17853e-05;9.295969900818575e-05
1.17855e-05;8.954973776751962e-05
1.17858e-05;8.445227004372918e-05
1.17860e-05;7.789526932092395e-05
1.17863e-05;6.994909252656154e-05
1.17865e-05;6.064964041390766e-05
1.17868e-05;5.003282631501448e-05
1.17870e-05;3.813598995571842e-05
1.17873e-05;2.502117129672976e-05
1.17875e-05;1.0861809415825848e-05
1.17878e-05;-4.069926290086288e-06
1.17880e-05;-1.9568397509368046e-05
1.17883e-05;-3.552671936637524e-05
1.17885e-05;-5.187722775460212e-05
1.17888e-05;-6.857295296228481e-05
1.17890e-05;-8.530435217010803e-05
1.17893e-05;-0.0001022203460806237
1.17895e-05;-0.00011905167323370386
1.17898e-05;-0.00013544489322750818
1.17900e-05;-0.0001516432157063129
1.17903e-05;-0.00016683304324254566
1.17905e-05;-0.0001817514108857743
1.17908e-05;-0.00019526511244621572
1.17910e-05;-0.00020844067489582003
1.17912e-05;-0.00021986654041879406
1.17915e-05;-0.00023096138077356325
1.17918e-05;-0.0002403433352153416
1.17920e-05;-0.0002494052081999644
1.17923e-05;-0.00025681082337883257
1.17925e-05;-0.0002638728670673804
1.17928e-05;-0.00026915710404425727
1.17930e-05;-0.0002740782200348955
1.17933e-05;-0.00027712037067297203
1.17935e-05;-0.0002798260696552192
1.17938e-05;-0.00028079080342719576
1.17940e-05;-0.00028144815407649273
1.17943e-05;-0.00028051495430480965
1.17945e-05;-0.0002792818683298507
1.17948e-05;-0.00027649702465684303
1.17950e-05;-0.00027342225689255893
1.17953e-05;-0.0002688472802639437
1.17955e-05;-0.0002640212970637164
1.17958e-05;-0.0002578964832555882
1.17960e-05;-0.0002515610745945774
1.17963e-05;-0.00024413594529738798
1.17965e-05;-0.00023648675764473447
1.17968e-05;-0.00022767818261748232
1.17970e-05;-0.00021886960759017049
1.17973e-05;-0.0002098848848094359
1.17975e-05;-0.00019998868751142695
1.17978e-05;-0.00019000942783440095
1.17980e-05;-0.0001796003628360164
1.17983e-05;-0.0001691497949295975
1.17985e-05;-0.0001584844707040414
1.17988e-05;-0.00014781638904506775
1.17990e-05;-0.00013713403907876683
1.17993e-05;-0.00012649350193715854
1.17995e-05;-0.00011606932477480933
1.17997e-05;-0.00010574144095831194
1.18000e-05;-9.591182594836333e-05
1.18003e-05;-8.618477567763475e-05
1.18005e-05;-7.707228086957694e-05
1.18008e-05;-6.848901979421594e-05
1.18010e-05;-6.0504104594840766e-05
1.18013e-05;-5.314377810012924e-05
1.18015e-05;-4.6245254289570475e-05
1.18018e-05;-3.949487334156554e-05
1.18020e-05;-3.272470645352182e-05
1.18023e-05;-2.595411503390972e-05
1.18025e-05;-1.9241823189242592e-05
1.18028e-05;-1.2646551538948058e-05
1.18030e-05;-6.2254620266756765e-06
1.18033e-05;-8.86978315771733e-09
1.18035e-05;6.0913295942114135e-06
1.18038e-05;1.2257721668258977e-05
1.18040e-05;1.8588802802862615e-05
1.18043e-05;2.5074214889339183e-05
1.18045e-05;3.157203351126222e-05
1.18048e-05;3.813404960798502e-05
1.18050e-05;4.470021722300687e-05
1.18053e-05;5.12878668215247e-05
1.18055e-05;5.7875516420087165e-05
1.18058e-05;6.446316601864963e-05
1.18060e-05;7.105081561716747e-05
1.18063e-05;7.779867638418201e-05
1.18065e-05;8.462835262838293e-05
1.18068e-05;9.14580288725376e-05
1.18070e-05;9.828770511673852e-05
1.18073e-05;0.00010509535635498046
1.18075e-05;0.00011178903945393675
1.18078e-05;0.00011848272255293839
1.18080e-05;0.00012517640565194003
1.18082e-05;0.00013187008875089633
1.18085e-05;0.00013848135004399022
1.18088e-05;0.00014466612065324236
1.18090e-05;0.0001508508912624526
1.18093e-05;0.00015703566187170477
1.18095e-05;0.00016322043248095692
1.18098e-05;0.00016929921936928286
1.18100e-05;0.00017482959471625247
1.18103e-05;0.00018030175404486605
1.18105e-05;0.0001854251177801695
1.18108e-05;0.0001902482842109299
1.18110e-05;0.0001947230612906211
1.18113e-05;0.00019866979150619626
1.18115e-05;0.00020134212821305947
1.18118e-05;0.00020159304095455013
1.18120e-05;0.00019881348821182917
1.18123e-05;0.00019301658369713995
1.18125e-05;0.00018434188970461565
1.18128e-05;0.00017292900788178425
1.18130e-05;0.0001589126596954969
1.18133e-05;0.00014234524967975337
1.18135e-05;0.0001229242192392427
1.18138e-05;0.00010009607725914191
1.18140e-05;7.364433119994924e-05
1.18143e-05;4.3742268376952086e-05
1.18145e-05;1.064235237587323e-05
1.18148e-05;-2.5402962748200343e-05
1.18150e-05;-6.414426851700383e-05
1.18153e-05;-0.00010538374131114813
1.18155e-05;-0.0001491459101766222
1.18158e-05;-0.000195612492195153
1.18160e-05;-0.00024475405009467816
1.18163e-05;-0.0002962970149114055
1.18165e-05;-0.0003500384445765335
1.18167e-05;-0.0004059166203479501
1.18170e-05;-0.0004621860099315059
1.18173e-05;-0.0005204797308716338
1.18175e-05;-0.0005790774623805533
1.18178e-05;-0.0006392482930736493
1.18180e-05;-0.0006995730074055538
1.18183e-05;-0.0007606939908515707
1.18185e-05;-0.0008217339246090182
1.18188e-05;-0.0008823544676903316
1.18190e-05;-0.0009426655041898866
1.18193e-05;-0.0010013750024515217
1.18195e-05;-0.00105961362064396
1.18198e-05;-0.0011154156753471957
1.18200e-05;-0.001170546085260077
1.18203e-05;-0.0012222010769538717
1.18205e-05;-0.0012726184898880339
1.18208e-05;-0.0013138599369779136
1.18210e-05;-0.0013468322738970741
1.18213e-05;-0.0013924854794776338
1.18215e-05;-0.0014262284118791125
1.18218e-05;-0.0014638118179222197
1.18220e-05;-0.0014928998665464175
1.18223e-05;-0.001527438640874248
1.18225e-05;-0.0015520050250073896
1.18228e-05;-0.0015812305119681813
1.18230e-05;-0.0016001328567938852
1.18233e-05;-0.001622291168650677
1.18235e-05;-0.0016365171548389304
1.18238e-05;-0.0016520008846686923
1.18240e-05;-0.0016624089944687359
1.18243e-05;-0.001675291216446082
1.18245e-05;-0.0016831133199001818
1.18248e-05;-0.0016870304484932553
1.18250e-05;-0.0016914174941912287
1.18252e-05;-0.0016932730040490926
1.18255e-05;-0.0016930805251407315
1.18258e-05;-0.0016910451313177045
1.18260e-05;-0.0016875878417342682
1.18263e-05;-0.0016828851155130653
1.18265e-05;-0.00167690092211711
1.18268e-05;-0.001669674641322953
1.18270e-05;-0.001661218501126065
1.18273e-05;-0.001651581090354468
1.18275e-05;-0.001640854184937945
1.18278e-05;-0.0016292211295952138
1.18280e-05;-0.0016168926403007811
1.18283e-05;-0.0016042488304048187
1.18285e-05;-0.0015912560540478314
1.18288e-05;-0.001577911889575758
1.18290e-05;-0.0015643630495455019
1.18293e-05;-0.0015506081136104554
1.18295e-05;-0.0015368874884568557
1.18298e-05;-0.0015232014121845767
1.18300e-05;-0.0015099664226286057
1.18303e-05;-0.0014971856501065138
1.18305e-05;-0.0014852656731230833
1.18308e-05;-0.0014742124651718706
1.18310e-05;-0.0014631592572205833
1.18313e-05;-0.0014539319551769105
1.18315e-05;-0.0014465432299210258
1.18318e-05;-0.001439154504665091
1.18320e-05;-0.0014317657794091561
1.18323e-05;-0.0014243770541532714
1.18325e-05;-0.0014169883288973366
1.18328e-05;-0.0014120704246278575
1.18330e-05;-0.0014096404876153777
1.18333e-05;-0.0014072105506028813
1.18335e-05;-0.0014047806135903849
1.18337e-05;-0.0014023506765779052
1.18340e-05;-0.0013999207395654087
1.18343e-05;-0.0014002075061946694
1.18345e-05;-0.0014032298290397789
1.18348e-05;-0.0014062521518849091
1.18350e-05;-0.0014092744747300392
1.18352e-05;-0.0014122967975751489
1.18355e-05;-0.001415319120420279
1.18358e-05;-0.001418341443265409
1.18360e-05;-0.0014213637661105393
1.18363e-05;-0.0014243860889556488
1.18365e-05;-0.0014294272985330926
1.18368e-05;-0.0014365014049142694
1.18370e-05;-0.001443575511295398
1.18373e-05;-0.0014506496176765746
1.18375e-05;-0.0014577237240577512
1.18378e-05;-0.0014647978304388799
1.18380e-05;-0.0014718719368200565
1.18383e-05;-0.001478946043201233
1.18385e-05;-0.0014860201495823617
1.18388e-05;-0.0014933095941095608
1.18390e-05;-0.0015008158711225987
1.18393e-05;-0.0015083221481355857
1.18395e-05;-0.0015158284251486237
1.18398e-05;-0.0015233347021616616
1.18400e-05;-0.0015308409791746486
1.18403e-05;-0.0015383472561876863
1.18405e-05;-0.001544604912442133
1.18408e-05;-0.001549605283129771
1.18410e-05;-0.001554605653817443
1.18413e-05;-0.0015596060245051152
1.18415e-05;-0.0015646063951927534
1.18418e-05;-0.0015696067658804254
1.18420e-05;-0.0015746071365680975
1.18422e-05;-0.0015774706384988515
1.18425e-05;-0.0015781824428642633
1.18428e-05;-0.0015788942472296748
1.18430e-05;-0.0015796060515950818
1.18433e-05;-0.0015803178559604934
1.18435e-05;-0.0015810296603259051
1.18437e-05;-0.001581741464691312
1.18440e-05;-0.0015824532690567237
1.18443e-05;-0.0015831650734221352
1.18445e-05;-0.001579512260740596
1.18448e-05;-0.0015758518891039717
1.18450e-05;-0.0015721915174673228
1.18453e-05;-0.0015685311458306739
1.18455e-05;-0.0015648707741940497
1.18458e-05;-0.0015612104025574008
1.18460e-05;-0.0015575500309207518
1.18463e-05;-0.0015538896592841276
1.18465e-05;-0.0015488988009796224
1.18468e-05;-0.001542568223090165
1.18470e-05;-0.0015362376452007504
1.18473e-05;-0.001529907067311293
1.18475e-05;-0.0015235764894218358
1.18478e-05;-0.0015172459115324213
1.18480e-05;-0.001510915333642964
1.18483e-05;-0.0015045847557535067
1.18485e-05;-0.0014981137806403383
1.18488e-05;-0.001491501434016314
1.18490e-05;-0.0014848890873922899
1.18493e-05;-0.0014782767407683106
1.18495e-05;-0.0014716643941442864
1.18498e-05;-0.0014650520475202621
1.18500e-05;-0.0014584397008962826
1.18503e-05;-0.0014518273542722584
1.18505e-05;-0.00144566111306533
1.18507e-05;-0.0014401170480900542
1.18510e-05;-0.0014349418860018475
1.18513e-05;-0.0014299912838263314
1.18515e-05;-0.0014245831508477172
1.18518e-05;-0.0014177258924736624
1.18520e-05;-0.0014088456731310784
1.18522e-05;-0.0013979207038433044
1.18525e-05;-0.0013846899909135102
1.18528e-05;-0.0013701318474654257
1.18530e-05;-0.0013540113018186922
1.18533e-05;-0.001336317511677319
1.18535e-05;-0.0013165305028337774
1.18538e-05;-0.0012946357493888376
1.18540e-05;-0.0012702248236266134
1.18543e-05;-0.0012432802645591257
1.18545e-05;-0.001214683799428452
1.18548e-05;-0.0011834699336785996
1.18550e-05;-0.001150451829302948
1.18553e-05;-0.0011157771829232372
1.18555e-05;-0.0010793826727277538
1.18558e-05;-0.0010410837240759265
1.18560e-05;-0.0010008595690792557
1.18563e-05;-0.0009589060728579855
1.18565e-05;-0.000915487760025933
1.18568e-05;-0.0008708691553990323
1.18570e-05;-0.000825314667579196
1.18573e-05;-0.000779042444465094
1.18575e-05;-0.000732138494009634
1.18578e-05;-0.0006846127925076841
1.18580e-05;-0.0006365780004088272
1.18583e-05;-0.0005882824002795964
1.18585e-05;-0.0005400172918561902
1.18588e-05;-0.0004920739468769668
1.18590e-05;-0.00044474351986087537
1.18592e-05;-0.00039828824954241766
1.18595e-05;-0.00035288752898003374
1.18598e-05;-0.00030867308907506116
1.18600e-05;-0.00026584100509448495
1.18603e-05;-0.0002246723130557813
1.18605e-05;-0.00018547493128421005
1.18607e-05;-0.0001485567785075131
1.18610e-05;-0.00011422570779296031
1.18613e-05;-8.283280142273041e-05
1.18615e-05;-5.482990879158833e-05
1.18618e-05;-3.066097428112861e-05
1.18620e-05;-1.0573760342264089e-05
1.18623e-05;5.365705248327975e-06
1.18625e-05;1.714238615105355e-05
1.18628e-05;2.4741268918860896e-05
1.18630e-05;2.8147364275300523e-05
1.18633e-05;2.7318624677961094e-05
1.18635e-05;2.2149906861921814e-05
1.18638e-05;1.254103121977797e-05
1.18640e-05;-1.4852818298577573e-06
1.18643e-05;-1.9792475751033122e-05
1.18645e-05;-4.221205437190081e-05
1.18648e-05;-6.857551880788222e-05
1.18650e-05;-9.871435790614988e-05
1.18653e-05;-0.00013247701283142132
1.18655e-05;-0.00016975146503458077
1.18658e-05;-0.00021042258173878587
1.18660e-05;-0.00025429824025091337
1.18663e-05;-0.0003011150397282172
1.18665e-05;-0.0003505895889233774
1.18668e-05;-0.0004029240172989221
1.18670e-05;-0.00045686728311009674
1.18673e-05;-0.0005124985494626415
1.18675e-05;-0.000569829530243176
1.18678e-05;-0.0006283273168714473
1.18680e-05;-0.0006880000064024458
1.18683e-05;-0.0007481723340004623
1.18685e-05;-0.000808847766905606
1.18688e-05;-0.0008693148988535201
1.18690e-05;-0.0009295722843383943
1.18692e-05;-0.0009889313103112545
1.18695e-05;-0.0010473857426031646
1.18698e-05;-0.0011042613423859614
1.18700e-05;-0.0011595471533445555
1.18703e-05;-0.0012124824292414314
1.18705e-05;-0.0012630508585289545
1.18708e-05;-0.0013104715418915146
1.18710e-05;-0.0013547226355321382
1.18713e-05;-0.0013952352751439793
1.18715e-05;-0.0014319835177084787
1.18718e-05;-0.0014650499494865618
1.18720e-05;-0.001494409020536401
1.18723e-05;-0.0015199935285775028
1.18725e-05;-0.001541777280012933
1.18728e-05;-0.001559558648330943
1.18730e-05;-0.0015733098589758307
1.18733e-05;-0.0015819991803975567
1.18735e-05;-0.001585591485593393
1.18738e-05;-0.0015891837907892295
1.18740e-05;-0.0015881366769906668
1.18743e-05;-0.0015824179489288821
1.18745e-05;-0.0015731830473364207
1.18748e-05;-0.0015604075717115151
1.18750e-05;-0.001545075377300984
1.18753e-05;-0.001525533115477233
1.18755e-05;-0.0015028247096550479
1.18758e-05;-0.0014772052097440803
1.18760e-05;-0.001448920069116039
1.18763e-05;-0.0014181648135021883
1.18765e-05;-0.0013851160457503927
1.18768e-05;-0.0013499502510862062
1.18770e-05;-0.0013128441475658847
1.18773e-05;-0.0012739905798272743
1.18775e-05;-0.001233635231420132
1.18777e-05;-0.0011920739261973721
1.18780e-05;-0.001149596430708978
1.18783e-05;-0.0011064613440411038
1.18785e-05;-0.0010629153506632363
1.18788e-05;-0.0010192050182273016
1.18790e-05;-0.0009755769723907281
1.18793e-05;-0.0009322879613299656
1.18795e-05;-0.0008896278667054521
1.18798e-05;-0.0008479179662248198
1.18800e-05;-0.0008074757373314918
1.18803e-05;-0.0007685990253857036
1.18805e-05;-0.0007315781411963665
1.18808e-05;-0.0006967034823815113
1.18810e-05;-0.0006642654183609853
1.18813e-05;-0.0006346131070270469
1.18815e-05;-0.0006082421173402518
1.18818e-05;-0.0005856692147366047
1.18820e-05;-0.0005671847684447181
1.18823e-05;-0.000552853991429843
1.18825e-05;-0.0005426770583150861
1.18828e-05;-0.0005366541147200964
1.18830e-05;-0.0005347853640698681
1.18833e-05;-0.0005371077864463088
1.18835e-05;-0.0005437500636138931
1.18838e-05;-0.0005548541927563634
1.18840e-05;-0.0005704202292172093
1.18843e-05;-0.0005903072471146452
1.18845e-05;-0.0006143335803389152
1.18848e-05;-0.000642317591783302
1.18850e-05;-0.0006740776445429397
1.18853e-05;-0.0007103228766866992
1.18855e-05;-0.0007492227654366014
1.18858e-05;-0.0007914434766866107
1.18860e-05;-0.0008370080552998771
1.18862e-05;-0.000885386451533801
1.18865e-05;-0.0009365981918897396
1.18868e-05;-0.0009900348399607645
1.18870e-05;-0.0010457118355045275
1.18873e-05;-0.0011030645052299724
1.18875e-05;-0.0011621044774868415
1.18878e-05;-0.001222311886411091
1.18880e-05;-0.001283694833434633
1.18883e-05;-0.0013455656432276894
1.18885e-05;-0.0014079277013158728
1.18888e-05;-0.0014700469446421547
1.18890e-05;-0.0015319216881931705
1.18893e-05;-0.001592847911204363
1.18895e-05;-0.0016528190314124584
1.18898e-05;-0.0017111615351253638
1.18900e-05;-0.0017678641205505917
1.18903e-05;-0.0018221509717288346
1.18905e-05;-0.0018740053246612581
1.18908e-05;-0.0019217158072164294
1.18910e-05;-0.0019652536629853317
1.18913e-05;-0.0020087915187545287
1.18915e-05;-0.0020486393945047163
1.18918e-05;-0.0020847716836011844
1.18920e-05;-0.002118502546694991
1.18923e-05;-0.0021498153190782836
1.18925e-05;-0.0021811280914613637
1.18928e-05;-0.002208801310716804
1.18930e-05;-0.0022328097201473876
