Time(s);Current(A)
1.27500e-05;0.005530877431145072
1.27503e-05;0.00561613130979856
1.27505e-05;0.005702736522842575
1.27508e-05;0.005790486794221463
1.27510e-05;0.005878974024177952
1.27513e-05;0.005967709268361571
1.27515e-05;0.0060562039062455695
1.27518e-05;0.006143970174577867
1.27520e-05;0.0062305360018290075
1.27523e-05;0.006315512834120584
1.27525e-05;0.006398602657081843
1.27528e-05;0.00647945396208415
1.27530e-05;0.006557588911785466
1.27533e-05;0.006632478838788444
1.27535e-05;0.006703595932971887
1.27538e-05;0.00677041210054155
1.27540e-05;0.006832562267516153
1.27543e-05;0.006890527630486148
1.27545e-05;0.006945816669724252
1.27548e-05;0.006999639024627725
1.27550e-05;0.007052103829679087
1.27553e-05;0.007102860691706233
1.27555e-05;0.007151558933865578
1.27558e-05;0.007197849202250454
1.27560e-05;0.007241482926738196
1.27563e-05;0.007282741771233539
1.27565e-05;0.007322551747787669
1.27568e-05;0.0073616506215477715
1.27570e-05;0.007399961808048794
1.27573e-05;0.007437206096299598
1.27575e-05;0.007473658397277271
1.27577e-05;0.007507486051052655
1.27580e-05;0.007541313704828268
1.27583e-05;0.00757451331699599
1.27585e-05;0.007605631598181617
1.27588e-05;0.007636490639047083
1.27590e-05;0.007666490557041026
1.27593e-05;0.007696490475034969
1.27595e-05;0.007725911285055153
1.27598e-05;0.0077534129302426905
1.27600e-05;0.007780914575430227
1.27603e-05;0.007807864014149365
1.27605e-05;0.007832983439671322
1.27608e-05;0.007858102865193279
1.27610e-05;0.007883222290715065
1.27613e-05;0.00790834171623702
1.27615e-05;0.007931414992310532
1.27618e-05;0.00795373838050277
1.27620e-05;0.00797606176869516
1.27623e-05;0.007998385156887547
1.27625e-05;0.008020163750617992
1.27628e-05;0.008040136894553195
1.27630e-05;0.008060110038488399
1.27633e-05;0.00807979605712814
1.27635e-05;0.008098348767979957
1.27638e-05;0.008116094853321156
1.27640e-05;0.008132811811301705
1.27643e-05;0.008147638610328233
1.27645e-05;0.00815902164068865
1.27648e-05;0.008165807633489088
1.27650e-05;0.008167290758639327
1.27653e-05;0.008163500741421916
1.27655e-05;0.008157735928235346
1.27658e-05;0.008145426637766611
1.27660e-05;0.008131092790140248
1.27662e-05;0.008110049556566955
1.27665e-05;0.008085879607684752
1.27668e-05;0.0080513477188223
1.27670e-05;0.008016815829959851
1.27673e-05;0.007978951920408622
1.27675e-05;0.007930045688488697
1.27678e-05;0.007881139456568773
1.27680e-05;0.007829401766254547
1.27683e-05;0.007768280617886824
1.27685e-05;0.007707159469519101
1.27688e-05;0.007643744575034891
1.27690e-05;0.0075727282019220936
1.27693e-05;0.007500326395288543
1.27695e-05;0.007423333259553672
1.27698e-05;0.007345388724437557
1.27700e-05;0.007264291250115834
1.27703e-05;0.0071824802262591405
1.27705e-05;0.00709830449799767
1.27708e-05;0.0070137004565137585
1.27710e-05;0.0069276769842648335
1.27713e-05;0.0068417263187866275
1.27715e-05;0.006756016935075409
1.27718e-05;0.00667088574183248
1.27720e-05;0.006587670672806726
1.27723e-05;0.006505416124247116
1.27725e-05;0.006426344742187005
1.27728e-05;0.006348646110480671
1.27730e-05;0.00627549677584136
1.27733e-05;0.006204577454858457
1.27735e-05;0.0061410484030181515
1.27738e-05;0.006077519351177846
1.27740e-05;0.0060232552216321735
1.27743e-05;0.005972386568871191
1.27745e-05;0.005923876618028082
1.27747e-05;0.005883183409453109
1.27750e-05;0.00584249020087786
1.27753e-05;0.00580420111614682
1.27755e-05;0.005773879302027003
1.27758e-05;0.005743557487907393
1.27760e-05;0.005720905371929673
1.27763e-05;0.005701064103271035
1.27765e-05;0.005683221572081134
1.27768e-05;0.005672002860347291
1.27770e-05;0.005660784148613447
1.27773e-05;0.005651641734158615
1.27775e-05;0.005649380172506585
1.27778e-05;0.005647118610854556
1.27780e-05;0.005646614306382141
1.27783e-05;0.005651933555267076
1.27785e-05;0.005658248783512561
1.27788e-05;0.005667864689095433
1.27790e-05;0.005678348878841823
1.27793e-05;0.005691710563819831
1.27795e-05;0.005705935297781928
1.27798e-05;0.005723020177582605
1.27800e-05;0.005740871552391308
1.27803e-05;0.005761263092993019
1.27805e-05;0.005781476151761925
1.27808e-05;0.005801097721425211
1.27810e-05;0.005817557280895299
1.27813e-05;0.0058420139123118225
1.27815e-05;0.005869696366425003
1.27818e-05;0.0058980555036420345
1.27820e-05;0.005922238552248471
1.27823e-05;0.005947327913204769
1.27825e-05;0.005972504279970828
1.27828e-05;0.0059966557788414
1.27830e-05;0.006020179808472364
1.27832e-05;0.006043363514958992
1.27835e-05;0.006065493537546918
1.27838e-05;0.006086748266268139
1.27840e-05;0.006107038480112226
1.27843e-05;0.006127243880456132
1.27845e-05;0.006149580778305983
1.27848e-05;0.006175598170060408
1.27850e-05;0.006205577853934267
1.27853e-05;0.006239255029818955
1.27855e-05;0.006276321160850358
1.27858e-05;0.006316610013604597
1.27860e-05;0.006341691644163464
1.27863e-05;0.00639357587978104
1.27865e-05;0.006446518110949386
1.27868e-05;0.0065050202893131995
1.27870e-05;0.006567811717050316
1.27873e-05;0.006632073777636208
1.27875e-05;0.006700381330223625
1.27878e-05;0.006772324634424894
1.27880e-05;0.006847470669844292
1.27883e-05;0.00692569130142792
1.27885e-05;0.007007844429105306
1.27888e-05;0.007095817237929133
1.27890e-05;0.007186900297097838
1.27893e-05;0.007279080937596952
1.27895e-05;0.007373723482070526
1.27898e-05;0.007470324084497589
1.27900e-05;0.007568363237647828
1.27903e-05;0.007667513543350164
1.27905e-05;0.00776806474313369
1.27908e-05;0.007870949987476379
1.27910e-05;0.00797422441976104
1.27913e-05;0.008076381019554772
1.27915e-05;0.008178025640390961
1.27917e-05;0.008278595424446948
1.27920e-05;0.008377517270576347
1.27923e-05;0.00847433838921357
1.27925e-05;0.008568992920196321
1.27928e-05;0.008661818319174957
1.27930e-05;0.008751347837103815
1.27933e-05;0.00883639066912335
1.27935e-05;0.008917079223515725
1.27938e-05;0.008992814067021482
1.27940e-05;0.009063075865520584
1.27943e-05;0.009127960724766425
1.27945e-05;0.009188517489534179
1.27948e-05;0.009245931966943071
1.27950e-05;0.009299260872419824
1.27953e-05;0.00934728638362502
1.27955e-05;0.009394132775960904
1.27958e-05;0.009434817132467412
1.27960e-05;0.009470798733680568
1.27963e-05;0.009502231762163358
1.27965e-05;0.009529864327876354
1.27968e-05;0.009554532999615103
1.27970e-05;0.00957597471887137
1.27973e-05;0.009593563626992601
1.27975e-05;0.009607037070679563
1.27978e-05;0.009619564577557211
1.27980e-05;0.00962695999289821
1.27983e-05;0.009630415199650046
1.27985e-05;0.00963322775867697
1.27988e-05;0.009632545574242736
1.27990e-05;0.009629149972135676
1.27993e-05;0.009624979805945915
1.27995e-05;0.009617324334382601
1.27998e-05;0.009608953652630503
1.28000e-05;0.009597364740173276
1.28002e-05;0.00958527466409508
1.28005e-05;0.009570929502478278
1.28008e-05;0.009556291804907647
1.28010e-05;0.009540337783543197
1.28013e-05;0.009524170816325351
1.28015e-05;0.009507045656823322
1.28018e-05;0.009489812034642033
1.28020e-05;0.009472090363031083
1.28023e-05;0.009454461659430802
1.28025e-05;0.009437251283913196
1.28028e-05;0.009420331750943112
1.28030e-05;0.009404720921947407
1.28033e-05;0.009389833817211347
1.28035e-05;0.009378203253939055
1.28038e-05;0.009366572690666685
1.28040e-05;0.009354942127394315
1.28043e-05;0.009343311564122023
1.28045e-05;0.009334887478354143
1.28048e-05;0.009327959680162437
1.28050e-05;0.009321031881970778
1.28053e-05;0.00931410408377907
1.28055e-05;0.009307886570785665
1.28058e-05;0.009304865127522984
1.28060e-05;0.009301843684260283
1.28063e-05;0.009298822240997581
1.28065e-05;0.009296339258631542
1.28068e-05;0.00929627918832548
1.28070e-05;0.009296219118019417
1.28073e-05;0.009296159047713354
1.28075e-05;0.00929678162438707
1.28078e-05;0.009300475907122168
1.28080e-05;0.009304170189857242
1.28083e-05;0.00930786447259234
1.28085e-05;0.009311558755327439
1.28087e-05;0.009315253038062512
1.28090e-05;0.00931894732079761
1.28093e-05;0.009322641603532708
1.28095e-05;0.009326335886267806
1.28098e-05;0.009332165344303289
1.28100e-05;0.009338991171803692
1.28103e-05;0.009345816999304098
1.28105e-05;0.009352642826804456
1.28108e-05;0.009359468654304861
1.28110e-05;0.009366294481805267
1.28113e-05;0.009373120309305625
1.28115e-05;0.00937994613680603
1.28118e-05;0.00938695579602149
1.28120e-05;0.009394792642656183
1.28123e-05;0.009402629489290928
1.28125e-05;0.009410466335925674
1.28128e-05;0.009418280787260872
1.28130e-05;0.009425994466485125
1.28133e-05;0.009433708145709378
1.28135e-05;0.009441421824933578
1.28138e-05;0.00944909257630587
1.28140e-05;0.009456570165257458
1.28143e-05;0.009464047754208995
1.28145e-05;0.00947170910380618
1.28148e-05;0.009480197321031622
1.28150e-05;0.009488685538257007
1.28153e-05;0.009497173755482449
1.28155e-05;0.00950566197270789
1.28158e-05;0.009514150189933273
1.28160e-05;0.009522638407158715
1.28163e-05;0.009532326973409848
1.28165e-05;0.009542575676862036
1.28168e-05;0.009552824380314294
1.28170e-05;0.00956307308376655
1.28172e-05;0.009573321787218737
1.28175e-05;0.009583570490670995
1.28178e-05;0.009594150526885661
1.28180e-05;0.009606221460863424
1.28183e-05;0.009618292394841105
1.28185e-05;0.009630363328818867
1.28188e-05;0.00964243426279663
1.28190e-05;0.009654505196774311
1.28193e-05;0.009666576130752074
1.28195e-05;0.009678647064729838
1.28198e-05;0.009691437159555614
1.28200e-05;0.009704562847393215
1.28203e-05;0.009717688535230815
1.28205e-05;0.009730814223068327
1.28208e-05;0.009743939910905929
1.28210e-05;0.00975706559874353
1.28213e-05;0.009770191286581041
1.28215e-05;0.00978329474563745
1.28218e-05;0.00979629818186509
1.28220e-05;0.009809301618092642
1.28223e-05;0.009822212481437725
1.28225e-05;0.009834706794657908
1.28228e-05;0.009847201107878007
1.28230e-05;0.009859607759094162
1.28233e-05;0.009871562720525631
1.28235e-05;0.009883194766576143
1.28238e-05;0.009894458855080989
1.28240e-05;0.009905221886844931
1.28243e-05;0.009914821853217185
1.28245e-05;0.009922008328800882
1.28248e-05;0.009925867610190419
1.28250e-05;0.009926266606442762
1.28253e-05;0.009923088717970365
1.28255e-05;0.009916083775225373
1.28257e-05;0.009908285725598546
1.28260e-05;0.009896045559230602
1.28263e-05;0.00987987547102884
1.28265e-05;0.009861914069326232
1.28268e-05;0.009835892295709935
1.28270e-05;0.009809870522093462
1.28273e-05;0.009781958624713464
1.28275e-05;0.009745541738960237
1.28278e-05;0.009709124853206765
1.28280e-05;0.009671105327647646
1.28283e-05;0.009625874405048319
1.28285e-05;0.009580643482448687
1.28288e-05;0.009534100565026524
1.28290e-05;0.009481654065559984
1.28293e-05;0.00942842504300123
1.28295e-05;0.009371674901917036
1.28298e-05;0.009314398280787242
1.28300e-05;0.009254752657818568
1.28303e-05;0.009194708830337791
1.28305e-05;0.009132873202335327
1.28308e-05;0.009070803291558694
1.28310e-05;0.009007679178773832
1.28313e-05;0.008944615943949037
1.28315e-05;0.008881826641629748
1.28318e-05;0.00881939456338795
1.28320e-05;0.008758569886040226
1.28323e-05;0.008698318511424634
1.28325e-05;0.008640646826652857
1.28328e-05;0.008583787214914648
1.28330e-05;0.00853058168754944
1.28333e-05;0.00847850879504658
1.28335e-05;0.008431532418722005
1.28338e-05;0.00838560857913729
1.28340e-05;0.008345120892475529
1.28342e-05;0.008308263150507084
1.28345e-05;0.008273966795350703
1.28348e-05;0.008241479004319104
1.28350e-05;0.00820959491266464
1.28353e-05;0.008180427286611742
1.28355e-05;0.00815206775408672
1.28358e-05;0.008127344399359691
1.28360e-05;0.008103285621969545
1.28363e-05;0.0080825162982546
1.28365e-05;0.008063431485256529
1.28368e-05;0.008045871398112272
1.28370e-05;0.008028311310967897
1.28373e-05;0.008011348014102531
1.28375e-05;0.007997070093975713
1.28378e-05;0.007982792173848797
1.28380e-05;0.007970915323004589
1.28383e-05;0.007960158919796881
1.28385e-05;0.007949772063020286
1.28388e-05;0.007941048054023004
1.28390e-05;0.007932324045025781
1.28393e-05;0.007924019323449945
1.28395e-05;0.007917601269147412
1.28398e-05;0.007911183214844922
1.28400e-05;0.007905200253090097
1.28403e-05;0.007901175076922609
1.28405e-05;0.007897149900755148
1.28408e-05;0.007893355535878204
1.28410e-05;0.007890599752379917
1.28413e-05;0.007887843968881649
1.28415e-05;0.007885384192819792
1.28418e-05;0.007884256361181927
1.28420e-05;0.007883128529544071
1.28423e-05;0.007882252973122707
1.28425e-05;0.00788251257929038
1.28427e-05;0.007882772185458053
1.28430e-05;0.007883031791625727
1.28433e-05;0.007883416921541831
1.28435e-05;0.00788443257473576
1.28438e-05;0.007885817709439281
1.28440e-05;0.007887693063082785
1.28443e-05;0.00789064359758633
1.28445e-05;0.007895769457036739
1.28448e-05;0.007903875973758504
1.28450e-05;0.007915078628694557
1.28453e-05;0.007929240771386337
1.28455e-05;0.007946222872788497
1.28458e-05;0.0079658865045186
1.28460e-05;0.00798814217753685
1.28463e-05;0.008013190130374022
1.28465e-05;0.008041880169277317
1.28468e-05;0.008075040375207565
1.28470e-05;0.008109137627562126
1.28473e-05;0.008148014533923456
1.28475e-05;0.008190178511342322
1.28478e-05;0.008235729498466765
1.28480e-05;0.008282214399213448
1.28483e-05;0.008332901630336552
1.28485e-05;0.008384337008401598
1.28488e-05;0.008439606541503672
1.28490e-05;0.00849738945701418
1.28493e-05;0.008557361315996668
1.28495e-05;0.00861919649423091
1.28498e-05;0.008682665891558786
1.28500e-05;0.008747605152041574
1.28503e-05;0.008812901213249992
1.28505e-05;0.00887980277039704
1.28508e-05;0.008946893142356627
1.28510e-05;0.009014873935268739
1.28512e-05;0.009083011779346693
1.28515e-05;0.009150936346887996
1.28518e-05;0.009218278495471358
1.28520e-05;0.009284679243216153
1.28523e-05;0.009349851151146421
1.28525e-05;0.009413586872704553
1.28528e-05;0.009475633594949219
1.28530e-05;0.009535631572896825
1.28533e-05;0.009593182539167518
1.28535e-05;0.009647889411662825
1.28538e-05;0.009699353245639206
1.28540e-05;0.00974713174525252
1.28543e-05;0.009790536151939718
1.28545e-05;0.009828659613917932
1.28548e-05;0.009860889918872382
1.28550e-05;0.009887084915065798
1.28553e-05;0.009907263059608947
1.28555e-05;0.009921442555652919
1.28558e-05;0.009929643045590911
1.28560e-05;0.009931271074289046
1.28563e-05;0.009925289189392271
1.28565e-05;0.009916939075664453
1.28568e-05;0.009897932644561767
1.28570e-05;0.009876686683513275
1.28573e-05;0.009845363511361232
1.28575e-05;0.00981200427204109
1.28578e-05;0.009769483342913159
1.28580e-05;0.009725085188135928
1.28583e-05;0.009672240082607454
1.28585e-05;0.009617628669547679
1.28588e-05;0.00955506940390432
1.28590e-05;0.009491019347949504
1.28593e-05;0.009420261184020519
1.28595e-05;0.009348334739025858
1.28597e-05;0.009271151380655124
1.28600e-05;0.009193094309259062
1.28603e-05;0.009111105792064075
1.28605e-05;0.009028507733240484
1.28608e-05;0.008943166920438748
1.28610e-05;0.008857584373874855
1.28613e-05;0.008770914098097276
1.28615e-05;0.008684310457861565
1.28618e-05;0.008598183449143773
1.28620e-05;0.008513121370523182
1.28623e-05;0.008429624511054177
1.28625e-05;0.008348159294412376
1.28628e-05;0.008269239472793257
1.28630e-05;0.008193449747739162
1.28633e-05;0.008121399373553512
1.28635e-05;0.008054697814972004
1.28638e-05;0.007996460351736545
1.28640e-05;0.00793822288850069
1.28643e-05;0.007881872049319012
1.28645e-05;0.007835496160979609
1.28648e-05;0.007795805521155934
1.28650e-05;0.007756114881332259
1.28653e-05;0.0077184478198043145
1.28655e-05;0.007689886251916651
1.28658e-05;0.007663139084300685
1.28660e-05;0.007644556172138864
1.28663e-05;0.007627237514849094
1.28665e-05;0.007616306154332549
1.28668e-05;0.0076091882195496756
1.28670e-05;0.0076057650958896855
1.28673e-05;0.00760608411146328
1.28675e-05;0.007610191747728809
1.28678e-05;0.0076181340204835146
1.28680e-05;0.007629922273054145
1.28682e-05;0.0076453513147408175
1.28685e-05;0.007663934402416465
1.28688e-05;0.007685228652637766
1.28690e-05;0.007709042087196839
1.28693e-05;0.0077352849181353605
1.28695e-05;0.0077638679078271735
1.28698e-05;0.007794702241946236
1.28700e-05;0.007827676245282121
1.28703e-05;0.007862543115213646
1.28705e-05;0.007898879353929158
1.28708e-05;0.007936289743707354
1.28710e-05;0.007974534766121429
1.28713e-05;0.008013440856490976
1.28715e-05;0.008052833264852973
1.28718e-05;0.008092538426527804
1.28720e-05;0.008132368044301367
1.28723e-05;0.008172049493294687
1.28725e-05;0.008211198137284988
1.28728e-05;0.008249449152903387
1.28730e-05;0.008286535335699481
1.28733e-05;0.008322228088342331
1.28735e-05;0.008356300930105412
1.28738e-05;0.008388526956961585
1.28740e-05;0.008418751573235121
1.28743e-05;0.008447262310365035
1.28745e-05;0.008474887028583723
1.28748e-05;0.008502263592715834
1.28750e-05;0.00852944677870184
1.28753e-05;0.00855626429186526
1.28755e-05;0.008582466194847404
1.28758e-05;0.008607763244280397
1.28760e-05;0.008632841590278618
1.28763e-05;0.008656884526393035
1.28765e-05;0.008680744251370536
1.28767e-05;0.008704818474262896
1.28770e-05;0.008728921739074916
1.28773e-05;0.008753141289834716
1.28775e-05;0.00877722427169923
1.28778e-05;0.008800984173222658
1.28780e-05;0.00882464992135126
1.28783e-05;0.008847881508403778
1.28785e-05;0.008871116570097318
1.28788e-05;0.008894579845380893
1.28790e-05;0.008918071146540134
1.28793e-05;0.008941678733952617
1.28795e-05;0.008965157625434374
1.28798e-05;0.008988256287929987
1.28800e-05;0.009011354950425442
1.28803e-05;0.00903436013688863
1.28805e-05;0.009056944709323056
1.28808e-05;0.009079529281757329
1.28810e-05;0.009102044847881588
1.28813e-05;0.009124249906366858
1.28815e-05;0.009146268041010581
1.28818e-05;0.009167445074593904
1.28820e-05;0.009188622108177226
1.28823e-05;0.009209539260327292
1.28825e-05;0.009229287024199439
1.28828e-05;0.009249034788071585
1.28830e-05;0.009268595261197499
1.28833e-05;0.00928719173440501
1.28835e-05;0.009305104107903974
1.28838e-05;0.009322237048110395
1.28840e-05;0.009338477610116093
1.28843e-05;0.009353615398314115
1.28845e-05;0.009367340621681422
1.28848e-05;0.009379438739280347
1.28850e-05;0.009389717552593334
1.28853e-05;0.009397971398910809
1.28855e-05;0.009405635177773812
1.28858e-05;0.009410643830580111
1.28860e-05;0.009415207456188658
1.28863e-05;0.009417112567635643
1.28865e-05;0.009416065761061772
1.28868e-05;0.0094150189544879
1.28870e-05;0.009413327806784872
1.28873e-05;0.009408440294334807
1.28875e-05;0.00940180239704832
1.28878e-05;0.009393302215909864
1.28880e-05;0.009384285291813229
1.28883e-05;0.009372943179838274
1.28885e-05;0.00936110540781478
1.28888e-05;0.009347037314663926
1.28890e-05;0.00933264417215765
1.28893e-05;0.009316603824029072
1.28895e-05;0.009299571872642794
1.28898e-05;0.009281678449199348
1.28900e-05;0.009263052160629797
1.28903e-05;0.009243795282770834
1.28905e-05;0.009223987232205196
1.28908e-05;0.009203729946903678
1.28910e-05;0.009183168205369475
1.28913e-05;0.009162461263762986
1.28915e-05;0.009141768208903965
1.28918e-05;0.00912124753497046
1.28920e-05;0.00910105612735393
1.28923e-05;0.009081335970182762
1.28925e-05;0.009062212199464837
1.28928e-05;0.009043825445214678
1.28930e-05;0.009026343514938336
1.28933e-05;0.00900994285190284
1.28935e-05;0.008994798629473597
1.28938e-05;0.008981241221405409
1.28940e-05;0.008969656965561054
1.28943e-05;0.008958653294095327
1.28945e-05;0.008950262077698041
1.28948e-05;0.008942282867073935
1.28950e-05;0.008936443066816952
1.28953e-05;0.008932183467518425
1.28955e-05;0.008929875853544664
1.28958e-05;0.008930368523186637
1.28960e-05;0.008930861192828612
1.28963e-05;0.008932109206388001
1.28965e-05;0.008936756040374062
1.28968e-05;0.00894194467973258
1.28970e-05;0.008949571280296054
1.28973e-05;0.008957723260190101
1.28975e-05;0.008968239289041372
1.28978e-05;0.008979264101840512
1.28980e-05;0.008992578289367215
1.28983e-05;0.009006343092332584
1.28985e-05;0.009022135529230233
1.28988e-05;0.009038304495037359
1.28990e-05;0.009056167727679771
1.28993e-05;0.009074358041765023
1.28995e-05;0.009094020123960305
1.28998e-05;0.009113959670791514
1.29000e-05;0.00913514772502516
1.29003e-05;0.009156537463959209
1.29005e-05;0.009178834723379365
1.29008e-05;0.009201248065806947
1.29010e-05;0.009224183746852002
1.29013e-05;0.009247165403880365
1.29015e-05;0.00927035393900427
