Time(s);Current(A)
5.50000e-06;-0.008335240539354615
5.50025e-06;-0.008331938726909198
5.50050e-06;-0.008328636914463783
5.50075e-06;-0.008325335102018355
5.50100e-06;-0.00832203328957294
5.50125e-06;-0.008318731477127523
5.50150e-06;-0.008315429664682095
5.50175e-06;-0.00831212785223668
5.50200e-06;-0.008308826039791264
5.50225e-06;-0.008306043444633964
5.50250e-06;-0.008304906573688762
5.50275e-06;-0.008303769702743562
5.50300e-06;-0.008302632831798357
5.50325e-06;-0.008301495960853155
5.50350e-06;-0.008300359089907951
5.50375e-06;-0.00829922221896275
5.50400e-06;-0.008298085348017547
5.50425e-06;-0.008296948477072344
5.50450e-06;-0.008295811606127142
5.50475e-06;-0.00829467473518194
5.50500e-06;-0.008293537864236736
5.50525e-06;-0.008292400993291534
5.50550e-06;-0.008291264122346332
5.50575e-06;-0.008290127251401129
5.50600e-06;-0.008288990380455927
5.50625e-06;-0.008287853509510725
5.50650e-06;-0.008287121417304677
5.50675e-06;-0.008287672321999402
5.50700e-06;-0.008288223226694128
5.50725e-06;-0.008288774131388855
5.50750e-06;-0.00828932503608358
5.50775e-06;-0.008289875940778308
5.50800e-06;-0.008290426845473034
5.50825e-06;-0.00829097775016776
5.50850e-06;-0.008291528654862487
5.50875e-06;-0.008292079559557212
5.50900e-06;-0.008292630464251938
5.50925e-06;-0.008293181368946665
5.50950e-06;-0.00829373227364139
5.50975e-06;-0.008294283178336116
5.51000e-06;-0.008294834083030844
5.51025e-06;-0.00829538498772557
5.51050e-06;-0.008295935892420295
5.51075e-06;-0.008296464920636229
5.51100e-06;-0.008296924608613232
5.51125e-06;-0.008297384296590233
5.51150e-06;-0.008297843984567236
5.51175e-06;-0.008298303672544237
5.51200e-06;-0.00829876336052124
5.51225e-06;-0.008299223048498242
5.51250e-06;-0.008299682736475245
5.51275e-06;-0.008300142424452248
5.51300e-06;-0.008300602112429249
5.51325e-06;-0.00830106180040625
5.51350e-06;-0.008301521488383253
5.51375e-06;-0.008301981176360254
5.51400e-06;-0.008302440864337257
5.51425e-06;-0.00830290055231426
5.51450e-06;-0.008304719985836638
5.51475e-06;-0.008307017590742786
5.51500e-06;-0.008309315195648941
5.51525e-06;-0.008311612800555089
5.51550e-06;-0.008313910405461237
5.51575e-06;-0.008316208010367393
5.51600e-06;-0.00831850561527354
5.51625e-06;-0.008320803220179696
5.51650e-06;-0.008323100825085843
5.51675e-06;-0.008325398429991991
5.51700e-06;-0.008327696034898146
5.51725e-06;-0.008329993639804294
5.51750e-06;-0.008332291244710441
5.51775e-06;-0.008334588849616596
5.51800e-06;-0.008337062470753364
5.51825e-06;-0.008340093997373935
5.51850e-06;-0.008343125523994516
5.51875e-06;-0.008346157050615087
5.51900e-06;-0.008349188577235657
5.51925e-06;-0.008352220103856238
5.51950e-06;-0.008355251630476809
5.51975e-06;-0.008357810913315233
5.52000e-06;-0.00836020412577121
5.52025e-06;-0.008362597338227182
5.52050e-06;-0.00836499055068316
5.52075e-06;-0.00836738376313913
5.52100e-06;-0.0083697769755951
5.52125e-06;-0.008371933273067433
5.52150e-06;-0.008373338638832528
5.52175e-06;-0.00837382227719491
5.52200e-06;-0.008371384385135417
5.52225e-06;-0.008368946493075931
5.52250e-06;-0.008364708701181158
5.52275e-06;-0.00835476590137453
5.52300e-06;-0.008344823101567936
5.52325e-06;-0.008333237720989192
5.52350e-06;-0.008316445974968818
5.52375e-06;-0.0082996542289485
5.52400e-06;-0.00828016957963452
5.52425e-06;-0.008252149436125513
5.52450e-06;-0.008224129292616603
5.52475e-06;-0.008196109149107596
5.52500e-06;-0.008168089005598685
5.52525e-06;-0.008137142102110079
5.52550e-06;-0.008096918466376814
5.52575e-06;-0.008056694830643687
5.52600e-06;-0.008016471194910559
5.52625e-06;-0.007976247559177295
5.52650e-06;-0.007934067627762012
5.52675e-06;-0.00788568697221503
5.52700e-06;-0.007837306316667882
5.52725e-06;-0.007788159391457751
5.52750e-06;-0.00773658367859812
5.52775e-06;-0.0076845982139805225
5.52800e-06;-0.00763131398985776
5.52825e-06;-0.007577748780337721
5.52850e-06;-0.007523292952415907
5.52875e-06;-0.0074688037323504845
5.52900e-06;-0.007414288299123584
5.52925e-06;-0.007360181159432217
5.52950e-06;-0.007306794664285484
5.52975e-06;-0.007254401222452296
5.53000e-06;-0.007203194146145542
5.53025e-06;-0.007153359738868791
5.53050e-06;-0.007105177682650472
5.53075e-06;-0.007061055567899663
5.53100e-06;-0.007025204031471429
5.53125e-06;-0.006989352495043073
5.53150e-06;-0.006953500958614839
5.53175e-06;-0.006917649422186605
5.53200e-06;-0.006881797885758249
5.53225e-06;-0.006845946349330015
5.53250e-06;-0.006810094812901781
5.53275e-06;-0.006774243276473425
5.53300e-06;-0.006747056856932152
5.53325e-06;-0.006722917633202213
5.53350e-06;-0.006698778409472354
5.53375e-06;-0.0066746391857424965
5.53400e-06;-0.006650499962012557
5.53425e-06;-0.006626360738282698
5.53450e-06;-0.006602221514552841
5.53475e-06;-0.0065780822908229
5.53500e-06;-0.006555302366940213
5.53525e-06;-0.006536830914133537
5.53550e-06;-0.006518359461326797
5.53575e-06;-0.006499888008520119
5.53600e-06;-0.0064814165557134425
5.53625e-06;-0.006462945102906703
5.53650e-06;-0.006444473650100026
5.53675e-06;-0.0064268025238588345
5.53700e-06;-0.006411668132883035
5.53725e-06;-0.006396533741907288
5.53750e-06;-0.006381399350931539
5.53775e-06;-0.006366264959955741
5.53800e-06;-0.006351130568979992
5.53825e-06;-0.006335996178004194
5.53850e-06;-0.006321293635355443
5.53875e-06;-0.006307959890054673
5.53900e-06;-0.006294626144753858
5.53925e-06;-0.006281648731226185
5.53950e-06;-0.006269800755872785
5.53975e-06;-0.006257952780519345
5.54000e-06;-0.00624639710741024
5.54025e-06;-0.006235767922866154
5.54050e-06;-0.006225138738322032
5.54075e-06;-0.006214833014577832
5.54100e-06;-0.0062055525403422185
5.54125e-06;-0.006196272066106573
5.54150e-06;-0.006187418356125759
5.54175e-06;-0.006179917328889378
5.54200e-06;-0.00617241630165297
5.54225e-06;-0.006165299414362972
5.54250e-06;-0.0061594001067344795
5.54275e-06;-0.006153500799106006
5.54300e-06;-0.006148286240489166
5.54325e-06;-0.006145242079607943
5.54350e-06;-0.00614219791872673
5.54375e-06;-0.006139153757845517
5.54400e-06;-0.006136109596964294
5.54425e-06;-0.006133065436083081
5.54450e-06;-0.0061300212752018685
5.54475e-06;-0.006127806222265829
5.54500e-06;-0.006128219130781589
5.54525e-06;-0.006128632039297349
5.54550e-06;-0.006129044947813111
5.54575e-06;-0.006129457856328871
5.54600e-06;-0.00612987076484463
5.54625e-06;-0.006130283673360392
5.54650e-06;-0.006131279349504414
5.54675e-06;-0.006134122180619352
5.54700e-06;-0.0061369650117342805
5.54725e-06;-0.0061398078428492086
5.54750e-06;-0.006142650673964147
5.54775e-06;-0.006145493505079076
5.54800e-06;-0.006148336336194004
5.54825e-06;-0.006151179167308942
5.54850e-06;-0.006154676751265892
5.54875e-06;-0.00615840458717939
5.54900e-06;-0.006162132423092902
5.54925e-06;-0.0061658602590064
5.54950e-06;-0.0061695880949198985
5.54975e-06;-0.006173315930833409
5.55000e-06;-0.006177043766746907
5.55025e-06;-0.006180656818562057
5.55050e-06;-0.0061839060478044725
5.55075e-06;-0.0061871552770468765
5.55100e-06;-0.006190292194028564
5.55125e-06;-0.006193003435284067
5.55150e-06;-0.006195445099625509
5.55175e-06;-0.006197814958953306
5.55200e-06;-0.006200880732116233
5.55225e-06;-0.006205323140797149
5.55250e-06;-0.006210396091431102
5.55275e-06;-0.006217467623740158
5.55300e-06;-0.006225071922678135
5.55325e-06;-0.006234364892158323
5.55350e-06;-0.006244341544377788
5.55375e-06;-0.006256485214648628
5.55400e-06;-0.006268628884919509
5.55425e-06;-0.006281881975856558
5.55450e-06;-0.006298651514514127
5.55475e-06;-0.006315421053171753
5.55500e-06;-0.006332190591829323
5.55525e-06;-0.006351205906217107
5.55550e-06;-0.006372754460148804
5.55575e-06;-0.0063943030140805
5.55600e-06;-0.006415851568012269
5.55625e-06;-0.006439792026489432
5.55650e-06;-0.006464757494039554
5.55675e-06;-0.006493015238615434
5.55700e-06;-0.00652150788987849
5.55725e-06;-0.006548928480471134
5.55750e-06;-0.006576349071063872
5.55775e-06;-0.0066044422053276606
5.55800e-06;-0.00663493603806525
5.55825e-06;-0.006665429870802942
5.55850e-06;-0.006696299976712529
5.55875e-06;-0.006727919775104586
5.55900e-06;-0.00675953957349675
5.55925e-06;-0.006790318538389845
5.55950e-06;-0.006819422213626248
5.55975e-06;-0.006848525888862553
5.56000e-06;-0.006877093837487052
5.56025e-06;-0.006904594396131678
5.56050e-06;-0.006932094954776211
5.56075e-06;-0.006957068829657387
5.56100e-06;-0.006977008500763658
5.56125e-06;-0.00699694817186986
5.56150e-06;-0.007016887842976062
5.56175e-06;-0.007036827514082331
5.56200e-06;-0.007056767185188534
5.56225e-06;-0.007076706856294736
5.56250e-06;-0.0070966465274010055
5.56275e-06;-0.007116586198507208
5.56300e-06;-0.007133129493764491
5.56325e-06;-0.007148997641709245
5.56350e-06;-0.007164865789653944
5.56375e-06;-0.007180733937598698
5.56400e-06;-0.007196602085543398
5.56425e-06;-0.007212470233488097
5.56450e-06;-0.0072283383814328505
5.56475e-06;-0.00724420652937755
5.56500e-06;-0.007259981954593349
5.56525e-06;-0.007275572637611311
5.56550e-06;-0.00729116332062922
5.56575e-06;-0.00730675400364713
5.56600e-06;-0.007322344686665092
5.56625e-06;-0.007337935369683001
5.56650e-06;-0.00735352605270091
5.56675e-06;-0.0073691167357188714
5.56700e-06;-0.007384707418736781
5.56725e-06;-0.00740029810175469
5.56750e-06;-0.007415300761588099
5.56775e-06;-0.007430186531450974
5.56800e-06;-0.007445072301313899
5.56825e-06;-0.007459958071176774
5.56850e-06;-0.007474843841039649
5.56875e-06;-0.007489729610902575
5.56900e-06;-0.00750461538076545
5.56925e-06;-0.0075195011506283245
5.56950e-06;-0.00753438692049125
5.56975e-06;-0.007547837570294598
5.57000e-06;-0.007558428864714989
5.57025e-06;-0.007569020159135416
5.57050e-06;-0.007579611453555807
5.57075e-06;-0.007590202747976197
5.57100e-06;-0.0076007940423966245
5.57125e-06;-0.007611385336817015
5.57150e-06;-0.007621976631237407
5.57175e-06;-0.007632567925657833
5.57200e-06;-0.007643159220078225
5.57225e-06;-0.007648615278301634
5.57250e-06;-0.0076530505305038195
5.57275e-06;-0.0076574857827060045
5.57300e-06;-0.007661921034908205
5.57325e-06;-0.00766635628711039
5.57350e-06;-0.007670791539312575
5.57375e-06;-0.007675226791514776
5.57400e-06;-0.007679662043716962
5.57425e-06;-0.007684097295919147
5.57450e-06;-0.007686747939376644
5.57475e-06;-0.00768584290079469
5.57500e-06;-0.007684937862212735
5.57525e-06;-0.007684032823630778
5.57550e-06;-0.007683127785048823
5.57575e-06;-0.007682222746466869
5.57600e-06;-0.007681317707884912
5.57625e-06;-0.007680412669302958
5.57650e-06;-0.007679507630721001
5.57675e-06;-0.007678602592139047
5.57700e-06;-0.007677697553557092
5.57725e-06;-0.007676792514975135
5.57750e-06;-0.00767588747639318
5.57775e-06;-0.007674982437811227
5.57800e-06;-0.00767189454259438
5.57825e-06;-0.007668372729031757
5.57850e-06;-0.007664850915469135
5.57875e-06;-0.007661329101906501
5.57900e-06;-0.007657807288343879
5.57925e-06;-0.007654285474781256
5.57950e-06;-0.007650763661218622
5.57975e-06;-0.007647241847656
5.58000e-06;-0.007643720034093377
5.58025e-06;-0.007640198220530743
5.58050e-06;-0.007636676406968121
5.58075e-06;-0.007633154593405487
5.58100e-06;-0.007629632779842865
5.58125e-06;-0.007626162998940678
5.58150e-06;-0.007622796888715148
5.58175e-06;-0.0076194307784896295
5.58200e-06;-0.007614994459950957
5.58225e-06;-0.007608425841832172
5.58250e-06;-0.007601857223713409
5.58275e-06;-0.007593815201797852
5.58300e-06;-0.007582837547390393
5.58325e-06;-0.007571859892982972
5.58350e-06;-0.007558582369624911
5.58375e-06;-0.0075407225518318785
5.58400e-06;-0.007522862734038907
5.58425e-06;-0.007505002916245934
5.58450e-06;-0.007487143098452902
5.58475e-06;-0.00746928328065993
5.58500e-06;-0.007448241833974534
5.58525e-06;-0.007420861260721697
5.58550e-06;-0.0073934806874688605
5.58575e-06;-0.0073661001142159305
5.58600e-06;-0.007338719540963093
5.58625e-06;-0.007311338967710257
5.58650e-06;-0.007281738147926153
5.58675e-06;-0.007247713674646439
5.58700e-06;-0.007213689201366724
5.58725e-06;-0.007179664728086894
5.58750e-06;-0.00714564025480718
5.58775e-06;-0.0071107252345904235
5.58800e-06;-0.00707403587489558
5.58825e-06;-0.007037346515200861
5.58850e-06;-0.007000657155506141
5.58875e-06;-0.006963967795811298
5.58900e-06;-0.006927319020208489
5.58925e-06;-0.006890751104977375
5.58950e-06;-0.006854609338272835
5.58975e-06;-0.006819316636477138
5.59000e-06;-0.006784447282158486
5.59025e-06;-0.006750765940957377
5.59050e-06;-0.0067181904241079065
5.59075e-06;-0.006686945648372263
5.59100e-06;-0.006657258702025274
5.59125e-06;-0.006629357760277874
5.59150e-06;-0.006603482665838942
5.59175e-06;-0.006579939782707145
5.59200e-06;-0.006559135192310398
5.59225e-06;-0.006541416546526724
5.59250e-06;-0.006527457399297035
5.59275e-06;-0.00651672507077781
5.59300e-06;-0.006508154529853849
5.59325e-06;-0.006503891167937903
5.59350e-06;-0.006501820716387136
5.59375e-06;-0.006504119453331931
5.59400e-06;-0.006509294271376256
5.59425e-06;-0.006520199437843324
5.59450e-06;-0.0065311046043103555
5.59475e-06;-0.00654641659466191
5.59500e-06;-0.006570508809013335
5.59525e-06;-0.006594601023364678
5.59550e-06;-0.006618693237716021
5.59575e-06;-0.006642785452067446
5.59600e-06;-0.006666877666418789
5.59625e-06;-0.006702336331646049
5.59650e-06;-0.006740054472589672
5.59675e-06;-0.0067777726135331675
5.59700e-06;-0.006815490754476663
5.59725e-06;-0.006853208895420286
5.59750e-06;-0.006893185238527822
5.59775e-06;-0.006937660858519593
5.59800e-06;-0.006982136478511213
5.59825e-06;-0.007027368433682057
5.59850e-06;-0.00707410732275058
5.59875e-06;-0.007120846211818945
5.59900e-06;-0.0071675189650013274
5.59925e-06;-0.007214059948022745
5.59950e-06;-0.007260600931044004
5.59975e-06;-0.007306254707638701
5.60000e-06;-0.007350140800440739
5.60025e-06;-0.007394026893242628
5.60050e-06;-0.007433293272982545
5.60075e-06;-0.0074633552650372826
5.60100e-06;-0.0074934172570919185
5.60125e-06;-0.0075234792491465545
5.60150e-06;-0.007553541241201292
5.60175e-06;-0.007583603233255928
5.60200e-06;-0.0076136652253106655
5.60225e-06;-0.0076437272173653014
5.60250e-06;-0.007673789209419937
5.60275e-06;-0.007703851201474675
5.60300e-06;-0.007733913193529311
5.60325e-06;-0.007758482667449606
5.60350e-06;-0.007772108763373162
5.60375e-06;-0.007785734859296673
5.60400e-06;-0.007799360955220183
5.60425e-06;-0.00781298705114374
5.60450e-06;-0.00782661314706725
5.60475e-06;-0.00784023924299076
5.60500e-06;-0.007853865338914318
5.60525e-06;-0.007867491434837828
5.60550e-06;-0.007881117530761338
5.60575e-06;-0.007894743626684896
5.60600e-06;-0.007905309189583357
5.60625e-06;-0.007909776899194232
5.60650e-06;-0.00791424460880509
5.60675e-06;-0.007918712318415951
5.60700e-06;-0.007923180028026826
5.60725e-06;-0.007927647737637685
5.60750e-06;-0.007932115447248545
5.60775e-06;-0.00793658315685942
5.60800e-06;-0.007941050866470279
5.60825e-06;-0.007945518576081138
5.60850e-06;-0.007949986285692013
5.60875e-06;-0.007954453995302873
5.60900e-06;-0.007957556141514017
5.60925e-06;-0.007957937518108322
5.60950e-06;-0.007958318894702627
5.60975e-06;-0.007958700271296932
5.61000e-06;-0.007959081647891239
5.61025e-06;-0.007959463024485544
5.61050e-06;-0.00795984440107985
5.61075e-06;-0.007960225777674156
5.61100e-06;-0.00796060715426846
5.61125e-06;-0.007960988530862767
5.61150e-06;-0.007961369907457072
5.61175e-06;-0.007961751284051377
5.61200e-06;-0.007962474622079744
5.61225e-06;-0.007963879289352908
5.61250e-06;-0.007965283956626072
5.61275e-06;-0.007966688623899239
5.61300e-06;-0.007968093291172403
5.61325e-06;-0.007969497958445567
5.61350e-06;-0.007970902625718736
5.61375e-06;-0.0079723072929919
5.61400e-06;-0.007974718392836092
5.61425e-06;-0.007979134724484933
5.61450e-06;-0.00798355105613376
5.61475e-06;-0.007987967387782601
5.61500e-06;-0.007992383719431428
5.61525e-06;-0.007996800051080255
5.61550e-06;-0.008001216382729095
5.61575e-06;-0.008005632714377922
5.61600e-06;-0.008010595250638177
5.61625e-06;-0.008017109742081804
5.61650e-06;-0.0080245480940084
5.61675e-06;-0.008031986445934993
5.61700e-06;-0.008039424797861613
5.61725e-06;-0.00804686314978821
5.61750e-06;-0.008054301501714805
5.61775e-06;-0.008061739853641425
5.61800e-06;-0.00806917820556802
5.61825e-06;-0.008076616557494615
5.61850e-06;-0.008084054909421235
5.61875e-06;-0.00809149326134783
5.61900e-06;-0.00809893161327445
5.61925e-06;-0.008105363252186136
5.61950e-06;-0.008111594772025176
5.61975e-06;-0.008117826291864236
5.62000e-06;-0.008124057811703275
5.62025e-06;-0.008130289331542313
5.62050e-06;-0.008136520851381373
5.62075e-06;-0.008142752371220412
5.62100e-06;-0.00814898389105945
5.62125e-06;-0.008155215410898512
5.62150e-06;-0.00816144693073755
5.62175e-06;-0.00816767845057659
5.62200e-06;-0.008171667590954543
5.62225e-06;-0.008171188979848578
5.62250e-06;-0.008170710368742614
5.62275e-06;-0.008170231757636648
5.62300e-06;-0.008169753146530684
5.62325e-06;-0.008169274535424717
5.62350e-06;-0.008168795924318753
5.62375e-06;-0.00816831731321279
5.62400e-06;-0.008167838702106824
5.62425e-06;-0.00816736009100086
5.62450e-06;-0.008166881479894895
5.62475e-06;-0.008160227785179738
5.62500e-06;-0.008152346578763788
5.62525e-06;-0.008144465372347838
5.62550e-06;-0.008136584165931863
5.62575e-06;-0.008128702959515913
5.62600e-06;-0.008120821753099963
5.62625e-06;-0.008112940546683985
5.62650e-06;-0.008105059340268035
5.62675e-06;-0.008097178133852087
5.62700e-06;-0.00808929692743611
5.62725e-06;-0.008080211238140612
5.62750e-06;-0.00806872571854641
5.62775e-06;-0.00805724019895225
5.62800e-06;-0.00804575467935809
5.62825e-06;-0.00803426915976389
5.62850e-06;-0.008022783640169728
5.62875e-06;-0.008011298120575567
5.62900e-06;-0.007999812600981367
5.62925e-06;-0.007988327081387206
5.62950e-06;-0.007976841561793046
5.62975e-06;-0.007965356042198845
5.63000e-06;-0.007953870522604685
5.63025e-06;-0.007942385003010524
5.63050e-06;-0.007930899483416324
5.63075e-06;-0.007919413963822163
5.63100e-06;-0.007913271886675056
5.63125e-06;-0.007908192003749084
5.63150e-06;-0.00790311212082313
5.63175e-06;-0.00789803223789716
5.63200e-06;-0.007892952354971205
5.63225e-06;-0.007887872472045252
5.63250e-06;-0.00788279258911928
5.63275e-06;-0.007877712706193326
5.63300e-06;-0.007872632823267374
5.63325e-06;-0.007867552940341402
5.63350e-06;-0.00786247305741545
5.63375e-06;-0.007857393174489495
5.63400e-06;-0.007852313291563523
5.63425e-06;-0.00784723340863757
5.63450e-06;-0.007845476342872946
5.63475e-06;-0.007850339709357603
5.63500e-06;-0.007855203075842244
5.63525e-06;-0.007860066442326886
5.63550e-06;-0.007864929808811543
5.63575e-06;-0.007869793175296185
5.63600e-06;-0.007874656541780843
5.63625e-06;-0.007879519908265483
5.63650e-06;-0.007884383274750125
5.63675e-06;-0.007889246641234783
5.63700e-06;-0.007894110007719423
5.63725e-06;-0.007902665076677159
5.63750e-06;-0.007911953999339019
5.63775e-06;-0.007921242922000847
5.63800e-06;-0.007930531844662676
5.63825e-06;-0.007939820767324536
5.63850e-06;-0.007949109689986364
5.63875e-06;-0.007958398612648193
5.63900e-06;-0.007967687535310053
5.63925e-06;-0.00797697645797188
5.63950e-06;-0.007986265380633708
5.63975e-06;-0.007994772161142043
5.64000e-06;-0.008001720589539872
5.64025e-06;-0.008008669017937724
5.64050e-06;-0.008015617446335553
5.64075e-06;-0.008022565874733382
5.64100e-06;-0.008029514303131235
5.64125e-06;-0.008036462731529062
5.64150e-06;-0.008043411159926891
5.64175e-06;-0.008050359588324745
5.64200e-06;-0.008057308016722574
5.64225e-06;-0.008064256445120403
5.64250e-06;-0.008068587505157026
5.64275e-06;-0.008067703680033716
5.64300e-06;-0.008066819854910406
5.64325e-06;-0.008065936029787094
5.64350e-06;-0.008065052204663784
5.64375e-06;-0.008064168379540474
5.64400e-06;-0.00806328455441716
5.64425e-06;-0.00806240072929385
5.64450e-06;-0.008061516904170537
5.64475e-06;-0.008060633079047226
5.64500e-06;-0.008059749253923916
5.64525e-06;-0.008056373402679451
5.64550e-06;-0.008048032400090981
5.64575e-06;-0.00803969139750251
5.64600e-06;-0.00803135039491401
5.64625e-06;-0.00802300939232554
5.64650e-06;-0.00801466838973707
5.64675e-06;-0.00800632738714857
5.64700e-06;-0.0079979863845601
