Time(s);Current(A)
1.10000e-05;0.002937706374596228
1.10003e-05;0.0029395962221256487
1.10005e-05;0.002941486069655082
1.10008e-05;0.002943375917184515
1.10010e-05;0.002945296993366796
1.10013e-05;0.0029472719537470076
1.10015e-05;0.0029492469141272192
1.10018e-05;0.002951221874507418
1.10020e-05;0.0029531968348876295
1.10023e-05;0.002955171795267841
1.10025e-05;0.0029571467556480397
1.10028e-05;0.0029591217160282513
1.10030e-05;0.002961096676408463
1.10033e-05;0.0029630716367886616
1.10035e-05;0.002965046597168873
1.10038e-05;0.0029670215575490853
1.10040e-05;0.0029689965179292835
1.10043e-05;0.002970971478309495
1.10045e-05;0.002972946438689707
1.10047e-05;0.0029749213990699053
1.10050e-05;0.002976896359450117
1.10053e-05;0.002978871319830329
1.10055e-05;0.002980846280210527
1.10058e-05;0.002982821240590739
1.10060e-05;0.002984796200970951
1.10062e-05;0.0029793169542223527
1.10065e-05;0.0029726933085685364
1.10068e-05;0.00296606966291472
1.10070e-05;0.0029594460172609038
1.10073e-05;0.002952822371607132
1.10075e-05;0.002946198725953316
1.10078e-05;0.0029395750802994995
1.10080e-05;0.0029329514346457283
1.10083e-05;0.002926327788991912
1.10085e-05;0.0029197041433380957
1.10088e-05;0.0029130804976843245
1.10090e-05;0.002906456852030508
1.10093e-05;0.002899833206376692
1.10095e-05;0.0028932095607229202
1.10098e-05;0.0028865859150691044
1.10100e-05;0.002879962269415288
1.10103e-05;0.0028733386237615164
1.10105e-05;0.0028667149781077
1.10108e-05;0.002860091332453884
1.10110e-05;0.0028534676868001126
1.10113e-05;0.0028471433848186747
1.10115e-05;0.002841335592267379
1.10118e-05;0.0028355277997161228
1.10120e-05;0.0028297200071648273
1.10123e-05;0.0028239122146135314
1.10125e-05;0.002818104422062275
1.10128e-05;0.0028122966295109795
1.10130e-05;0.0028064888369596836
1.10132e-05;0.002800681044408427
1.10135e-05;0.0027948732518571317
1.10138e-05;0.002789065459305836
1.10140e-05;0.0027832576667545794
1.10143e-05;0.002777449874203284
1.10145e-05;0.002771642081651988
1.10147e-05;0.0027658342891007316
1.10150e-05;0.002760026496549436
1.10153e-05;0.0027542187039981403
1.10155e-05;0.002748410911446845
1.10158e-05;0.0027426031188955884
1.10160e-05;0.0027367953263442925
1.10163e-05;0.002730987533792997
1.10165e-05;0.0027251797412417406
1.10168e-05;0.002722051183591105
1.10170e-05;0.002719333952515674
1.10173e-05;0.0027166167214402615
1.10175e-05;0.0027138994903648304
1.10178e-05;0.0027111822592893993
1.10180e-05;0.0027084650282139864
1.10183e-05;0.002705747797138556
1.10185e-05;0.0027030305660631247
1.10188e-05;0.002700313334987712
1.10190e-05;0.002697596103912281
1.10193e-05;0.00269487887283685
1.10195e-05;0.002692161641761437
1.10198e-05;0.0026894444106860065
1.10200e-05;0.0026867271796105754
1.10203e-05;0.0026840099485351625
1.10205e-05;0.0026812927174597314
1.10208e-05;0.0026785754863843008
1.10210e-05;0.002675858255308888
1.10213e-05;0.002673141024233457
1.10215e-05;0.002670423793158026
1.10217e-05;0.0026677065620826132
1.10220e-05;0.0026651901954272664
1.10223e-05;0.0026630204149094227
1.10225e-05;0.0026608506343915937
1.10228e-05;0.00265868085387375
1.10230e-05;0.0026565110733559063
1.10232e-05;0.0026543412928380777
1.10235e-05;0.002652171512320234
1.10238e-05;0.0026500017318023903
1.10240e-05;0.0026478319512845466
1.10243e-05;0.0026456621707667176
1.10245e-05;0.002643492390248874
1.10248e-05;0.0026413226097310306
1.10250e-05;0.0026391528292132017
1.10253e-05;0.002636983048695358
1.10255e-05;0.0026348132681775142
1.10258e-05;0.0026326434876596853
1.10260e-05;0.0026304737071418415
1.10263e-05;0.002628303926623998
1.10265e-05;0.0026261341461061693
1.10268e-05;0.0026239643655883256
1.10270e-05;0.002621794585070482
1.10273e-05;0.002619624804552653
1.10275e-05;0.0026170713997071384
1.10278e-05;0.002613856061434334
1.10280e-05;0.002610640723161551
1.10283e-05;0.0026074253848887468
1.10285e-05;0.002604210046615942
1.10288e-05;0.0026009947083431594
1.10290e-05;0.0025977793700703547
1.10293e-05;0.00259456403179755
1.10295e-05;0.0025913486935247674
1.10298e-05;0.0025881333552519627
1.10300e-05;0.0025849180169791584
1.10302e-05;0.0025817026787063753
1.10305e-05;0.002578487340433571
1.10308e-05;0.0025752720021607663
1.10310e-05;0.0025720566638879837
1.10313e-05;0.002568841325615179
1.10315e-05;0.0025656259873423743
1.10317e-05;0.0025624106490695917
1.10320e-05;0.002559195310796787
1.10323e-05;0.0025559799725239827
1.10325e-05;0.002552764634251178
1.10328e-05;0.0025495492959783954
1.10330e-05;0.002549395817567978
1.10333e-05;0.0025545254957428385
1.10335e-05;0.0025596551739176638
1.10338e-05;0.0025647848520925242
1.10340e-05;0.0025699145302673842
1.10343e-05;0.00257504420844221
1.10345e-05;0.00258017388661707
1.10348e-05;0.0025853035647919304
1.10350e-05;0.0025904332429667557
1.10353e-05;0.002595562921141616
1.10355e-05;0.0026093203777770163
1.10358e-05;0.0026379648333736657
1.10360e-05;0.002666609288970509
1.10363e-05;0.0026952537445673525
1.10365e-05;0.002723898200164002
1.10368e-05;0.002752542655760845
1.10370e-05;0.0027811871113576888
1.10373e-05;0.002809831566954338
1.10375e-05;0.0028384760225511813
1.10378e-05;0.002867120478148025
1.10380e-05;0.002902250790034866
1.10383e-05;0.0029485722719668206
1.10385e-05;0.002994893753898775
1.10387e-05;0.0030412152358304163
1.10390e-05;0.003087536717762371
1.10393e-05;0.0031338581996943255
1.10395e-05;0.003180179681625966
1.10398e-05;0.003226501163557921
1.10400e-05;0.0032738977626280167
1.10402e-05;0.0033231494473138523
1.10405e-05;0.0033724011320000213
1.10408e-05;0.0034216528166861903
1.10410e-05;0.0034709045013723593
1.10413e-05;0.0035201561860581944
1.10415e-05;0.0035694078707443635
1.10418e-05;0.0036186595554305325
1.10420e-05;0.0036615767303688827
1.10423e-05;0.0036935638796372714
1.10425e-05;0.0037255510289056605
1.10428e-05;0.0037575381781738324
1.10430e-05;0.003789525327442221
1.10433e-05;0.00382151247671061
1.10435e-05;0.0038534996259787816
1.10438e-05;0.0038854867752471708
1.10440e-05;0.003917473924515559
1.10443e-05;0.003949461073783731
1.10445e-05;0.0039814482230521205
1.10448e-05;0.004013435372320509
1.10450e-05;0.004045422521588681
1.10453e-05;0.004058261962327772
1.10455e-05;0.004068161772284322
1.10458e-05;0.004078061582240806
1.10460e-05;0.004087961392197356
1.10463e-05;0.004097861202153907
1.10465e-05;0.0041077610121103905
1.10468e-05;0.004117660822066941
1.10470e-05;0.004127560632023492
1.10472e-05;0.004137460441979975
1.10475e-05;0.0041473602519365264
1.10478e-05;0.004157260061893077
1.10480e-05;0.004167159871849561
1.10483e-05;0.004172688142872226
1.10485e-05;0.004170673441402636
1.10487e-05;0.004168658739933061
1.10490e-05;0.004166644038463471
1.10493e-05;0.004164629336993881
1.10495e-05;0.004162614635524291
1.10498e-05;0.004160599934054716
1.10500e-05;0.004158585232585126
1.10503e-05;0.004156570531115537
1.10505e-05;0.00415455582964596
1.10508e-05;0.0041525411281763715
1.10510e-05;0.004150526426706782
1.10513e-05;0.004148511725237206
1.10515e-05;0.004145991581461847
1.10518e-05;0.004142599310624005
1.10520e-05;0.004139207039786185
1.10523e-05;0.004135814768948343
1.10525e-05;0.004132422498110501
1.10528e-05;0.004129030227272682
1.10530e-05;0.004125637956434839
1.10533e-05;0.004122245685596997
1.10535e-05;0.004118853414759178
1.10538e-05;0.004115461143921335
1.10540e-05;0.004112068873083493
1.10543e-05;0.004108676602245674
1.10545e-05;0.004105284331407831
1.10548e-05;0.004104673342287107
1.10550e-05;0.004108861379734471
1.10553e-05;0.004113049417181864
1.10555e-05;0.004117237454629257
1.10557e-05;0.004121425492076621
1.10560e-05;0.004125613529524014
1.10563e-05;0.004129801566971407
1.10565e-05;0.004133989604418771
1.10568e-05;0.004138177641866164
1.10570e-05;0.004142365679313557
1.10572e-05;0.004146553716760921
1.10575e-05;0.004150741754208314
1.10578e-05;0.004154929791655707
1.10580e-05;0.0041591178291031
1.10583e-05;0.004163305866550465
1.10585e-05;0.004167493903997858
1.10588e-05;0.004175964631729531
1.10590e-05;0.004185092854752585
1.10593e-05;0.0041942210777757
1.10595e-05;0.004203349300798815
1.10598e-05;0.004212477523821868
1.10600e-05;0.004221605746844983
1.10603e-05;0.004230733969868098
1.10605e-05;0.004239862192891151
1.10608e-05;0.004248990415914266
1.10610e-05;0.00425811863893738
1.10613e-05;0.004267246861960434
1.10615e-05;0.004276375084983549
1.10618e-05;0.004285503308006664
1.10620e-05;0.004294631531029717
1.10623e-05;0.004303759754052832
1.10625e-05;0.0043101239846596
1.10628e-05;0.004311719020919311
1.10630e-05;0.004313314057179031
1.10633e-05;0.004314909093438751
1.10635e-05;0.004316504129698461
1.10638e-05;0.004318099165958182
1.10640e-05;0.004319694202217902
1.10642e-05;0.004321289238477612
1.10645e-05;0.004322884274737333
1.10648e-05;0.004324479310997053
1.10650e-05;0.0043260743472567625
1.10653e-05;0.0043276693835164835
1.10655e-05;0.004329264419776204
1.10657e-05;0.004330859456035913
1.10660e-05;0.004332454492295634
1.10663e-05;0.004334049528555354
1.10665e-05;0.004335644564815075
1.10668e-05;0.004337239601074785
1.10670e-05;0.004328929847168763
1.10673e-05;0.004319099471301525
1.10675e-05;0.004309269095434352
1.10678e-05;0.004299438719567114
1.10680e-05;0.004289608343699876
1.10683e-05;0.004279777967832705
1.10685e-05;0.004269947591965467
1.10688e-05;0.004260117216098229
1.10690e-05;0.004250286840231057
1.10693e-05;0.004240456464363818
1.10695e-05;0.00423062608849658
1.10698e-05;0.004220795712629409
1.10700e-05;0.004210965336762171
1.10703e-05;0.004201134960894933
1.10705e-05;0.004191304585027761
1.10708e-05;0.004181474209160523
1.10710e-05;0.004171643833293285
1.10713e-05;0.004161663510005242
1.10715e-05;0.004151424456487663
1.10718e-05;0.004141185402970082
1.10720e-05;0.004130946349452572
1.10723e-05;0.004120707295934992
1.10725e-05;0.004110468242417412
1.10727e-05;0.004100229188899901
1.10730e-05;0.004089990135382321
1.10733e-05;0.004079751081864741
1.10735e-05;0.004069512028347231
1.10738e-05;0.004058112526189221
1.10740e-05;0.004044710701208247
1.10742e-05;0.004031308876227363
1.10745e-05;0.004017907051246389
1.10748e-05;0.0040045052262654155
1.10750e-05;0.003991103401284532
1.10753e-05;0.003977701576303557
1.10755e-05;0.003964299751322583
1.10758e-05;0.003950897926341609
1.10760e-05;0.003937496101360726
1.10763e-05;0.003919949114446474
1.10765e-05;0.0038952497624421623
1.10768e-05;0.003870550410438018
1.10770e-05;0.003845851058433707
1.10773e-05;0.003821151706429396
1.10775e-05;0.003796452354425252
1.10778e-05;0.0037717530024209407
1.10780e-05;0.003747053650416629
1.10783e-05;0.0037223542984124855
1.10785e-05;0.003697654946408174
1.10788e-05;0.003672955594403863
1.10790e-05;0.003646294389593524
1.10793e-05;0.0036162480606912796
1.10795e-05;0.003586201731789035
1.10798e-05;0.0035561554028869942
1.10800e-05;0.0035261090739847497
1.10803e-05;0.003496062745082505
1.10805e-05;0.003466016416180464
1.10808e-05;0.0034359700872782194
1.10810e-05;0.003405923758375975
1.10812e-05;0.003375877429473934
1.10815e-05;0.0033458311005716895
1.10818e-05;0.0033202636705088957
1.10820e-05;0.0033024244595660987
1.10823e-05;0.0032845852486231807
1.10825e-05;0.0032667460376802626
1.10827e-05;0.003248906826737465
1.10830e-05;0.003231067615794547
1.10833e-05;0.003213228404851629
1.10835e-05;0.003195389193908832
1.10838e-05;0.003177549982965914
1.10840e-05;0.003159710772022996
1.10843e-05;0.003141871561080078
1.10845e-05;0.0031240323501372804
1.10848e-05;0.0031061931391943623
1.10850e-05;0.0030883539282514443
1.10853e-05;0.0030705147173086473
1.10855e-05;0.003074099463044825
1.10858e-05;0.003080973298051496
1.10860e-05;0.0030878471330581204
1.10863e-05;0.0030947209680647915
1.10865e-05;0.0031015948030714622
1.10868e-05;0.003108468638078087
1.10870e-05;0.0031153424730847577
1.10873e-05;0.003122216308091429
1.10875e-05;0.003129090143098053
1.10878e-05;0.0031359639781047242
1.10880e-05;0.003142837813111395
1.10883e-05;0.0031497116481180192
1.10885e-05;0.0031565854831246904
1.10888e-05;0.0031634593181313615
1.10890e-05;0.0031748593190264684
1.10893e-05;0.003194069097060842
1.10895e-05;0.003213278875095215
1.10897e-05;0.003232488653129458
1.10900e-05;0.0032516984311638315
1.10903e-05;0.003270908209198205
1.10905e-05;0.003290117987232448
1.10908e-05;0.003309327765266821
1.10910e-05;0.0033285375433011947
1.10912e-05;0.0033477473213354377
1.10915e-05;0.0033645478809013938
1.10918e-05;0.0033809785678646257
1.10920e-05;0.0033974092548277462
1.10923e-05;0.003413839941790978
1.10925e-05;0.00343027062875421
1.10928e-05;0.003446701315717442
1.10930e-05;0.0034631320026805626
1.10933e-05;0.0034795626896437946
1.10935e-05;0.0034959933766070266
1.10938e-05;0.0035061106845050683
1.10940e-05;0.0035053344271391254
1.10943e-05;0.0035045581697731826
1.10945e-05;0.003503781912407245
1.10948e-05;0.003503005655041302
1.10950e-05;0.003502229397675359
1.10953e-05;0.0035014531403094215
1.10955e-05;0.0035006768829434786
1.10958e-05;0.0034999006255775358
1.10960e-05;0.003499124368211598
1.10963e-05;0.0034983481108456552
1.10965e-05;0.0034975718534797124
1.10968e-05;0.0034894188864864895
1.10970e-05;0.0034685376060282444
1.10973e-05;0.003447656325569999
1.10975e-05;0.003426775045111895
1.10978e-05;0.0034058937646536495
1.10980e-05;0.003385012484195404
1.10983e-05;0.0033641312037373003
1.10985e-05;0.0033432499232790547
1.10988e-05;0.003322368642820809
1.10990e-05;0.0033014873623627055
1.10993e-05;0.00328060608190446
1.10995e-05;0.0032597248014462144
1.10997e-05;0.0032361298562870906
1.11000e-05;0.0032078525558907707
1.11003e-05;0.0031795752554944503
1.11005e-05;0.003151297955098322
1.11008e-05;0.0031230206547020016
1.11010e-05;0.0030947433543056816
1.11013e-05;0.003068979672480289
1.11015e-05;0.00304444764247711
1.11018e-05;0.003019915612473766
1.11020e-05;0.002995383582470421
1.11023e-05;0.002970851552467243
1.11025e-05;0.0029463195224638983
1.11028e-05;0.0029324171428475737
1.11030e-05;0.0029187830629334006
1.11033e-05;0.0029051489830191346
1.11035e-05;0.002891514903104869
1.11038e-05;0.0028778808231906955
1.11040e-05;0.00286424674327643
1.11043e-05;0.002850612663362164
1.11045e-05;0.002836978583447991
1.11048e-05;0.002823344503533725
1.11050e-05;0.0028097104236194594
1.11053e-05;0.002796076343705286
1.11055e-05;0.0027824422637910203
1.11058e-05;0.0027688081838767543
1.11060e-05;0.002773714185151562
1.11063e-05;0.0027806169919055474
1.11065e-05;0.0027875197986595326
1.11068e-05;0.002794422605413471
1.11070e-05;0.002801325412167456
1.11073e-05;0.002808228218921441
1.11075e-05;0.0028151310256753796
1.11078e-05;0.002822033832429365
1.11080e-05;0.00282893663918335
1.11082e-05;0.0028358394459372886
1.11085e-05;0.0028427422526912734
1.11088e-05;0.0028496450594452587
1.11090e-05;0.002856547866199197
1.11093e-05;0.0028712922906187974
1.11095e-05;0.002887641021195463
1.11098e-05;0.002903989751772129
1.11100e-05;0.0029203384823486838
1.11103e-05;0.0029366872129253496
1.11105e-05;0.0029530359435020154
1.11108e-05;0.0029693846740785706
1.11110e-05;0.0029857334046552364
1.11113e-05;0.003002082135231902
1.11115e-05;0.0030174955386296537
1.11118e-05;0.0030310113084767833
1.11120e-05;0.003044527078323913
1.11123e-05;0.0030580428481709505
1.11125e-05;0.00307155861801808
1.11128e-05;0.0030850743878652097
1.11130e-05;0.003098590157712248
1.11133e-05;0.003112105927559377
1.11135e-05;0.0031256216974065065
1.11138e-05;0.0031391374672535446
1.11140e-05;0.0031409266674340595
1.11143e-05;0.0031403167442799434
1.11145e-05;0.0031397068211258317
1.11148e-05;0.0031390968979717157
1.11150e-05;0.0031384869748175997
1.11153e-05;0.003137877051663488
1.11155e-05;0.003137267128509372
1.11158e-05;0.003136657205355256
1.11160e-05;0.003136047282201144
1.11163e-05;0.003135437359047028
1.11165e-05;0.003134827435892912
1.11167e-05;0.0031342175127388
1.11170e-05;0.003128623814290772
1.11173e-05;0.0031129188099563053
1.11175e-05;0.0030972138056219447
1.11178e-05;0.003081508801287478
1.11180e-05;0.003065803796953011
1.11183e-05;0.0030500987926185444
1.11185e-05;0.0030343937882841843
1.11188e-05;0.0030186887839497175
1.11190e-05;0.0030029837796152507
1.11193e-05;0.00298727877528089
1.11195e-05;0.0029715737709464234
1.11198e-05;0.0029558687666119566
1.11200e-05;0.002940163762277596
1.11203e-05;0.002921093529328301
1.11205e-05;0.0029013348087199827
1.11208e-05;0.0028815760881117976
1.11210e-05;0.002861817367503479
1.11213e-05;0.002842058646895161
1.11215e-05;0.002822299926286976
1.11218e-05;0.0028025412056786577
1.11220e-05;0.002782782485070339
1.11223e-05;0.002765235726061025
1.11225e-05;0.0027521766935279263
1.11228e-05;0.0027391176609948276
1.11230e-05;0.0027260586284618173
1.11233e-05;0.002712999595928719
1.11235e-05;0.00269994056339562
1.11238e-05;0.00268688153086261
1.11240e-05;0.002673822498329511
1.11243e-05;0.0026607634657964127
1.11245e-05;0.0026629873930772803
1.11248e-05;0.002668338040837576
1.11250e-05;0.002673688688597872
1.11252e-05;0.0026790393363581317
1.11255e-05;0.0026843899841184275
1.11258e-05;0.0026897406318787237
1.11260e-05;0.0026950912796389836
1.11263e-05;0.0027004419273992794
1.11265e-05;0.002705792575159575
1.11268e-05;0.0027111432229198714
1.11270e-05;0.002722820340870526
1.11273e-05;0.002747332884080519
1.11275e-05;0.0027718454272905126
1.11278e-05;0.0027963579705003396
1.11280e-05;0.0028208705137103326
1.11283e-05;0.0028453830569203256
1.11285e-05;0.002869895600130153
1.11288e-05;0.002894408143340146
1.11290e-05;0.002918920686550139
1.11293e-05;0.002943433229759966
1.11295e-05;0.0029679457729699594
1.11298e-05;0.0029981993925430666
1.11300e-05;0.003029627571315184
1.11303e-05;0.0030610557500875143
1.11305e-05;0.0030924839288598445
1.11308e-05;0.003123912107631962
1.11310e-05;0.003155340286404292
1.11313e-05;0.0031867684651766225
1.11315e-05;0.0032181966439487394
1.11318e-05;0.0032496248227210697
1.11320e-05;0.003274681271395778
1.11323e-05;0.0032984341362597546
1.11325e-05;0.003322187001123892
1.11328e-05;0.0033459398659880296
1.11330e-05;0.003369692730852006
1.11333e-05;0.0033934455957161432
1.11335e-05;0.0034171984605802807
1.11337e-05;0.0034409513254442573
1.11340e-05;0.003464704190308395
1.11343e-05;0.0034795752916783585
1.11345e-05;0.003492629284833572
1.11348e-05;0.003505683277988874
1.11350e-05;0.003518737271144176
1.11353e-05;0.0035317912642994784
1.11355e-05;0.003544845257454692
1.11358e-05;0.0035578992506099943
1.11360e-05;0.003570953243765296
1.11363e-05;0.00358400723692051
1.11365e-05;0.003597061230075812
1.11368e-05;0.0036101152232311143
1.11370e-05;0.003623169216386328
1.11373e-05;0.00363622320954163
1.11375e-05;0.0036492772026969324
1.11378e-05;0.0036623311958521457
1.11380e-05;0.003675385189007448
1.11383e-05;0.00368843918216275
1.11385e-05;0.003701493175317964
1.11388e-05;0.003714547168473266
1.11390e-05;0.0037225461619868065
1.11393e-05;0.003729510959827066
1.11395e-05;0.003736475757667373
1.11398e-05;0.003743440555507679
1.11400e-05;0.0037504053533479386
1.11403e-05;0.0037573701511882454
1.11405e-05;0.003764334949028552
1.11408e-05;0.0037712997468688117
1.11410e-05;0.003778264544709118
1.11413e-05;0.003785229342549425
1.11415e-05;0.0037921941403896843
1.11418e-05;0.0037991589382299906
1.11420e-05;0.0038061237360702974
1.11422e-05;0.003813088533910557
1.11425e-05;0.0038200533317508637
1.11428e-05;0.00382701812959117
1.11430e-05;0.0038339829274314295
1.11433e-05;0.0038409477252717363
1.11435e-05;0.003847912523112043
1.11438e-05;0.0038429342029391825
1.11440e-05;0.003835512456089215
1.11443e-05;0.0038280907092391975
1.11445e-05;0.00382066896238918
1.11448e-05;0.003813247215539212
1.11450e-05;0.0038058254686891943
1.11453e-05;0.0037984037218391766
1.11455e-05;0.0037909819749892093
1.11458e-05;0.0037835602281391916
1.11460e-05;0.0037761384812891735
1.11463e-05;0.003768716734439206
1.11465e-05;0.0037612949875891885
1.11468e-05;0.003747529996836573
1.11470e-05;0.003720895549560132
1.11473e-05;0.003694261102283511
1.11475e-05;0.0036676266550068897
1.11478e-05;0.003640992207730449
1.11480e-05;0.003614357760453828
1.11483e-05;0.003587723313177207
1.11485e-05;0.0035610888659007665
1.11488e-05;0.003534454418624145
1.11490e-05;0.003507819971347524
1.11493e-05;0.0034811855240710833
