Time(s);Current(A)
3.00000e-06;0.003121513472849836
3.00025e-06;0.003117473752889118
3.00050e-06;0.0031134340329284005
3.00075e-06;0.003111256275111256
3.00100e-06;0.003113621228008173
3.00125e-06;0.0031159861809050902
3.00150e-06;0.003118351133802003
3.00175e-06;0.00312071608669892
3.00200e-06;0.0031230810395958372
3.00225e-06;0.0031254459924927543
3.00250e-06;0.003127810945389667
3.00275e-06;0.0031301758982865842
3.00300e-06;0.0031325408511835014
3.00325e-06;0.0031349058040804146
3.00350e-06;0.0031372707569773317
3.00375e-06;0.003139635709874249
3.00400e-06;0.0031420006627711655
3.00425e-06;0.0031443656156680787
3.00450e-06;0.003146730568564996
3.00475e-06;0.003149095521461913
3.00500e-06;0.0031514604743588257
3.00525e-06;0.003153825427255743
3.00550e-06;0.00315619038015266
3.00575e-06;0.003158555333049573
3.00600e-06;0.0031609202859464902
3.00625e-06;0.0031628524899015398
3.00650e-06;0.0031646701576487856
3.00675e-06;0.0031664878253960284
3.00700e-06;0.0031683054931432738
3.00725e-06;0.0031701231608905196
3.00750e-06;0.003171940828637762
3.00775e-06;0.003173758496385008
3.00800e-06;0.003175576164132253
3.00825e-06;0.0031741408325041244
3.00850e-06;0.003164769015611303
3.00875e-06;0.003155397198718466
3.00900e-06;0.003146025381825629
3.00925e-06;0.0031366535649328077
3.00950e-06;0.0031272817480399707
3.00975e-06;0.0031179099311471337
3.01000e-06;0.0031085381142543123
3.01025e-06;0.0030991662973614753
3.01050e-06;0.003076542816101685
3.01075e-06;0.0030504120001337677
3.01100e-06;0.0030242811841658945
3.01125e-06;0.002998150368197977
3.01150e-06;0.0029720195522300596
3.01175e-06;0.0029458887362621864
3.01200e-06;0.002919757920294269
3.01225e-06;0.0028936271043263516
3.01250e-06;0.002867496288358434
3.01275e-06;0.002832739559996987
3.01300e-06;0.002795699800531597
3.01325e-06;0.0027586600410662073
3.01350e-06;0.0027216202816008803
3.01375e-06;0.002684580522135491
3.01400e-06;0.002647540762670101
3.01425e-06;0.002610501003204774
3.01450e-06;0.002573461243739384
3.01475e-06;0.0025364214842739942
3.01500e-06;0.0025022777460892995
3.01525e-06;0.002468900501506711
3.01550e-06;0.002435523256924066
3.01575e-06;0.002402146012341421
3.01600e-06;0.002368768767758832
3.01625e-06;0.002335391523176187
3.01650e-06;0.0023020142785935417
3.01675e-06;0.002268637034010897
3.01700e-06;0.002235259789428308
3.01725e-06;0.002201882544845663
3.01750e-06;0.002168505300263018
3.01775e-06;0.0021397562506893543
3.01800e-06;0.0021222988114896176
3.01825e-06;0.002104841372289881
3.01850e-06;0.002087383933090174
3.01875e-06;0.0020699264938904374
3.01900e-06;0.0020524690546907007
3.01925e-06;0.002035011615490964
3.01950e-06;0.002017554176291257
3.01975e-06;0.0020000967370915205
3.02000e-06;0.0019826392978917837
3.02025e-06;0.001965181858692077
3.02050e-06;0.0019477244194923402
3.02075e-06;0.0019388913784109379
3.02100e-06;0.0019323409676485083
3.02125e-06;0.0019257905568860897
3.02150e-06;0.00191924014612366
3.02175e-06;0.0019126897353612302
3.02200e-06;0.0019061393245988116
3.02225e-06;0.001899588913836382
3.02250e-06;0.0018930385030739524
3.02275e-06;0.0018864880923115338
3.02300e-06;0.0018799376815491042
3.02325e-06;0.0018733872707866743
3.02350e-06;0.0018668368600242447
3.02375e-06;0.0018618106152877363
3.02400e-06;0.0018605029452607189
3.02425e-06;0.0018591952752337014
3.02450e-06;0.001857887605206686
3.02475e-06;0.0018565799351796686
3.02500e-06;0.0018552722651526512
3.02525e-06;0.0018539645951256335
3.02550e-06;0.0018526569250986182
3.02575e-06;0.0018513492550716007
3.02600e-06;0.0018500415850445833
3.02625e-06;0.001848733915017568
3.02650e-06;0.0018474262449905505
3.02675e-06;0.001846118574963533
3.02700e-06;0.001847104976286995
3.02725e-06;0.0018486985523659641
3.02750e-06;0.0018502921284449332
3.02775e-06;0.0018518857045239025
3.02800e-06;0.001853479280602869
3.02825e-06;0.001855072856681838
3.02850e-06;0.0018566664327608073
3.02875e-06;0.0018678352548246444
3.02900e-06;0.0018815383693108175
3.02925e-06;0.0018952414837969905
3.02950e-06;0.0019089445982831638
3.02975e-06;0.0019226477127693136
3.03000e-06;0.0019363508272554866
3.03025e-06;0.0019500539417416597
3.03050e-06;0.001976793336490117
3.03075e-06;0.002006983059965022
3.03100e-06;0.002037172783439927
3.03125e-06;0.0020673625069147807
3.03150e-06;0.0020975522303896856
3.03175e-06;0.0021277419538645904
3.03200e-06;0.0021579316773394953
3.03225e-06;0.002188121400814349
3.03250e-06;0.002227930588034958
3.03275e-06;0.0022702857708484384
3.03300e-06;0.0023126409536618473
3.03325e-06;0.002354996136475328
3.03350e-06;0.0023973513192888083
3.03375e-06;0.002439706502102289
3.03400e-06;0.0024820616849156973
3.03425e-06;0.002524416867729178
3.03450e-06;0.0025679689776599347
3.03475e-06;0.0026118378797992258
3.03500e-06;0.0026557067819385914
3.03525e-06;0.002699575684077957
3.03550e-06;0.0027434445862172486
3.03575e-06;0.0027873134883566143
3.03600e-06;0.00283118239049598
3.03625e-06;0.0028750512926353456
3.03650e-06;0.0029092201856653547
3.03675e-06;0.0029408217650595462
3.03700e-06;0.0029724233444537377
3.03725e-06;0.0030040249238478755
3.03750e-06;0.003035626503242067
3.03775e-06;0.0030672280826362585
3.03800e-06;0.00309882966203045
3.03825e-06;0.003130431241424588
3.03850e-06;0.0031483008028555066
3.03875e-06;0.0031625358937855254
3.03900e-06;0.0031767709847155203
3.03925e-06;0.003191006075645539
3.03950e-06;0.0032052411665755578
3.03975e-06;0.0032194762575055527
3.04000e-06;0.0032337113484355714
3.04025e-06;0.0032479464393655906
3.04050e-06;0.0032621815302956094
3.04075e-06;0.003276416621225604
3.04100e-06;0.003290651712155623
3.04125e-06;0.0033048868030856418
3.04150e-06;0.0033083596066242893
3.04175e-06;0.003308983941995247
3.04200e-06;0.003309608277366205
3.04225e-06;0.0033102326127371633
3.04250e-06;0.00331085694810812
3.04275e-06;0.003311481283479078
3.04300e-06;0.003312105618850036
3.04325e-06;0.003312729954220993
3.04350e-06;0.003313354289591951
3.04375e-06;0.0033139786249629087
3.04400e-06;0.0033146029603338656
3.04425e-06;0.0033152272957048235
3.04450e-06;0.0033122069119459097
3.04475e-06;0.003308221875781387
3.04500e-06;0.003304236839616872
3.04525e-06;0.00330025180345235
3.04550e-06;0.0032962667672878274
3.04575e-06;0.0032922817311233123
3.04600e-06;0.00328829669495879
3.04625e-06;0.0032843116587942677
3.04650e-06;0.0032803266226297456
3.04675e-06;0.00327634158646523
3.04700e-06;0.003270380013101924
3.04725e-06;0.0032638953071471334
3.04750e-06;0.0032574106011923547
3.04775e-06;0.003250925895237564
3.04800e-06;0.003244441189282774
3.04825e-06;0.003237956483327995
3.04850e-06;0.003231471777373205
3.04875e-06;0.003224987071418415
3.04900e-06;0.003218502365463625
3.04925e-06;0.0032120176595088457
3.04950e-06;0.0031959154538603236
3.04975e-06;0.003177267772446597
3.05000e-06;0.003158620091032902
3.05025e-06;0.003139972409619176
3.05050e-06;0.0031213247282054495
3.05075e-06;0.003102677046791723
3.05100e-06;0.0030840293653780285
3.05125e-06;0.003065381683964302
3.05150e-06;0.003046734002550576
3.05175e-06;0.0030280863211368807
3.05200e-06;0.0030094386397231544
3.05225e-06;0.002982152880196074
3.05250e-06;0.002952580869647847
3.05275e-06;0.0029230088590995696
3.05300e-06;0.0028934368485512923
3.05325e-06;0.002863864838003015
3.05350e-06;0.002834292827454788
3.05375e-06;0.0028047208169065104
3.05400e-06;0.002775148806358233
3.05425e-06;0.002745576795810006
3.05450e-06;0.0027160047852617286
3.05475e-06;0.0026864327747134513
3.05500e-06;0.0026531770271987047
3.05525e-06;0.002619495457072717
3.05550e-06;0.002600814119382477
3.05575e-06;0.0025870071402294284
3.05600e-06;0.00254690776938985
3.05625e-06;0.0025190796272984255
3.05650e-06;0.00248622403025914
3.05675e-06;0.0024625335099937177
3.05700e-06;0.0024433328373957303
3.05725e-06;0.002424132164797743
3.05750e-06;0.0024049314921997557
3.05775e-06;0.002385730819601801
3.05800e-06;0.0023665301470038136
3.05825e-06;0.002347329474405826
3.05850e-06;0.002328128801807871
3.05875e-06;0.0023089281292098837
3.05900e-06;0.0022897274566118964
3.05925e-06;0.002270526784013909
3.05950e-06;0.0022513261114159543
3.05975e-06;0.002240245197252667
3.06000e-06;0.0022293034932463675
3.06025e-06;0.0022183617892400863
3.06050e-06;0.002207420085233787
3.06075e-06;0.0021964783812274875
3.06100e-06;0.0021855366772212063
3.06125e-06;0.002174594973214907
3.06150e-06;0.0021636532692086074
3.06175e-06;0.0021527115652023076
3.06200e-06;0.0021417698611960268
3.06225e-06;0.0021308281571897274
3.06250e-06;0.002121959308081514
3.06275e-06;0.0021153079467691937
3.06300e-06;0.0021086565854568622
3.06325e-06;0.002102005224144531
3.06350e-06;0.0020953538628321997
3.06375e-06;0.0020887025015198795
3.06400e-06;0.002082051140207548
3.06425e-06;0.0020753997788952165
3.06450e-06;0.0020687484175828962
3.06475e-06;0.0020620970562705647
3.06500e-06;0.0020554456949582337
3.06525e-06;0.0020487943336459135
3.06550e-06;0.002042142972333582
3.06575e-06;0.0020354916110212505
3.06600e-06;0.002028840249708919
3.06625e-06;0.0020246040375645337
3.06650e-06;0.0020204092322301795
3.06675e-06;0.002016214426895825
3.06700e-06;0.0020120196215614775
3.06725e-06;0.002007824816227123
3.06750e-06;0.002003630010892768
3.06775e-06;0.001999435205558414
3.06800e-06;0.0019952404002240662
3.06825e-06;0.001991045594889712
3.06850e-06;0.0019868507895553574
3.06875e-06;0.00198265598422101
3.06900e-06;0.0019784611788866554
3.06925e-06;0.0019742663735523008
3.06950e-06;0.0019700715682179535
3.06975e-06;0.001964915986602947
3.07000e-06;0.0019587325907984305
3.07025e-06;0.0019525491949939138
3.07050e-06;0.0019463657991894078
3.07075e-06;0.0019401824033848912
3.07100e-06;0.0019339990075803747
3.07125e-06;0.0019278156117758687
3.07150e-06;0.001921632215971352
3.07175e-06;0.0019154488201668354
3.07200e-06;0.001909265424362319
3.07225e-06;0.0019030820285578127
3.07250e-06;0.0018968986327532963
3.07275e-06;0.0018907152369487797
3.07300e-06;0.0018845318411442736
3.07325e-06;0.001878348445339757
3.07350e-06;0.001871223834866415
3.07375e-06;0.0018640830876270637
3.07400e-06;0.0018569423403877005
3.07425e-06;0.0018498015931483374
3.07450e-06;0.0018426608459089742
3.07475e-06;0.001835520098669623
3.07500e-06;0.0018283793514302599
3.07525e-06;0.0018212386041908967
3.07550e-06;0.0018140978569515457
3.07575e-06;0.0018069571097121824
3.07600e-06;0.0017998163624728192
3.07625e-06;0.0017926756152334682
3.07650e-06;0.001785534867994105
3.07675e-06;0.0017783941207547417
3.07700e-06;0.001775194003575909
3.07725e-06;0.001776209472869811
3.07750e-06;0.0017772249421637147
3.07775e-06;0.0017782404114576186
3.07800e-06;0.0017792558807515205
3.07825e-06;0.0017802713500454242
3.07850e-06;0.001781286819339328
3.07875e-06;0.0017823022886332316
3.07900e-06;0.0017833177579271338
3.07925e-06;0.0017843332272210375
3.07950e-06;0.0017853486965149412
3.07975e-06;0.0017863641658088431
3.08000e-06;0.001787379635102747
3.08025e-06;0.0017883951043966507
3.08050e-06;0.0018069412059429693
3.08075e-06;0.001825787863484036
3.08100e-06;0.0018446345210251026
3.08125e-06;0.0018634811785661692
3.08150e-06;0.001882327836107204
3.08175e-06;0.0019011744936482705
3.08200e-06;0.0019200211511893371
3.08225e-06;0.0019388678087303719
3.08250e-06;0.0019577144662714387
3.08275e-06;0.0019765611238125053
3.08300e-06;0.001995407781353572
3.08325e-06;0.0020142544388946065
3.08350e-06;0.002033101096435673
3.08375e-06;0.002055497412535167
3.08400e-06;0.0020816910636729962
3.08425e-06;0.0021078847148108698
3.08450e-06;0.0021340783659487433
3.08475e-06;0.002160272017086572
3.08500e-06;0.0021864656682244457
3.08525e-06;0.002212659319362319
3.08550e-06;0.0022388529705001927
3.08575e-06;0.0022628901164967316
3.08600e-06;0.0022846202877804386
3.08625e-06;0.0023063504590641456
3.08650e-06;0.0023280806303478158
3.08675e-06;0.002349810801631523
3.08700e-06;0.00237154097291523
3.08725e-06;0.002393271144198937
3.08750e-06;0.002415001315482607
3.08775e-06;0.002431842631322053
3.08800e-06;0.002443453973131286
3.08825e-06;0.0024550653149404992
3.08850e-06;0.0024666766567497324
3.08875e-06;0.0024782879985589656
3.08900e-06;0.002489899340368179
3.08925e-06;0.002501510682177412
3.08950e-06;0.0025131220239866447
3.08975e-06;0.002524733365795878
3.09000e-06;0.002536344707605091
3.09025e-06;0.0025479560494143243
3.09050e-06;0.0025595673912235575
3.09075e-06;0.0025711787330327707
3.09100e-06;0.002582790074842004
3.09125e-06;0.0025944014166512366
3.09150e-06;0.0026030627168725554
3.09175e-06;0.0026085681371401277
3.09200e-06;0.00261407355740771
3.09225e-06;0.002619578977675292
3.09250e-06;0.002625084397942864
3.09275e-06;0.0026305898182104465
3.09300e-06;0.0026360952384780283
3.09325e-06;0.002641600658745601
3.09350e-06;0.002647106079013183
3.09375e-06;0.0026526114992807648
3.09400e-06;0.0026581169195483466
3.09425e-06;0.0026636223398159194
3.09450e-06;0.0026691277600835012
3.09475e-06;0.002674633180351083
3.09500e-06;0.002680138600618656
3.09525e-06;0.0026843724877246965
3.09550e-06;0.0026872461207815756
3.09575e-06;0.002690119753838455
3.09600e-06;0.0026929933868953294
3.09625e-06;0.0026958670199522085
3.09650e-06;0.002698740653009088
3.09675e-06;0.0027016142860659623
3.09700e-06;0.0027044879191228414
3.09725e-06;0.0027073615521797205
3.09750e-06;0.0027102351852365952
3.09775e-06;0.0027131088182934743
3.09800e-06;0.0027159824513503534
3.09825e-06;0.002718856084407233
3.09850e-06;0.0027244827807105434
3.09875e-06;0.0027301566772318727
3.09900e-06;0.0027358305737532024
3.09925e-06;0.002741504470274522
3.09950e-06;0.002747178366795852
3.09975e-06;0.002752852263317181
3.10000e-06;0.0027585261598385108
3.10025e-06;0.0027642000563598305
3.10050e-06;0.0027698739528811598
3.10075e-06;0.0027755478494024895
3.10100e-06;0.0027812217459238092
3.10125e-06;0.002786895642445139
3.10150e-06;0.002795112137327704
3.10175e-06;0.002806048639694943
3.10200e-06;0.0028169851420622003
3.10225e-06;0.0028279216444294574
3.10250e-06;0.002838858146796715
3.10275e-06;0.0028497946491639536
3.10300e-06;0.0028607311515312112
3.10325e-06;0.0028716676538984684
3.10350e-06;0.002882604156265707
3.10375e-06;0.0028935406586329646
3.10400e-06;0.0029044771610002218
3.10425e-06;0.0029154136633674794
3.10450e-06;0.002926350165734718
3.10475e-06;0.0029367520166197042
3.10500e-06;0.0029471447011091938
3.10525e-06;0.0029575373855986655
3.10550e-06;0.0029679300700881546
3.10575e-06;0.002978322754577644
3.10600e-06;0.002988715439067116
3.10625e-06;0.002999108123556605
3.10650e-06;0.0030095008080460945
3.10675e-06;0.0030198934925355836
3.10700e-06;0.0030302861770250553
3.10725e-06;0.0030406788615145444
3.10750e-06;0.003051071546004034
3.10775e-06;0.0030560167816874755
3.10800e-06;0.0030551344742750274
3.10825e-06;0.0030542521668625797
3.10850e-06;0.0030533698594501315
3.10875e-06;0.003052487552037685
3.10900e-06;0.0030516052446252374
3.10925e-06;0.003050722937212789
3.10950e-06;0.003049840629800343
3.10975e-06;0.003048958322387895
3.11000e-06;0.003048076014975447
3.11025e-06;0.0030471937075630005
3.11050e-06;0.0030463114001505528
3.11075e-06;0.0030454290927381046
3.11100e-06;0.003044546785325657
3.11125e-06;0.0030303108739520366
3.11150e-06;0.0030158460201376775
3.11175e-06;0.0030013811663233184
3.11200e-06;0.0029869163125089836
3.11225e-06;0.0029724514586946245
3.11250e-06;0.0029579866048802654
3.11275e-06;0.002943521751065906
3.11300e-06;0.0029290568972515714
3.11325e-06;0.0029145920434372123
3.11350e-06;0.0029001271896228527
3.11375e-06;0.0028856623358085184
3.11400e-06;0.0028711974819941592
3.11425e-06;0.0028567326281797997
3.11450e-06;0.0028409568621216197
3.11475e-06;0.002823778715266791
3.11500e-06;0.002806600568411962
3.11525e-06;0.002789422421557133
3.11550e-06;0.0027722442747023335
3.11575e-06;0.0027550661278475047
3.11600e-06;0.002737887980992676
3.11625e-06;0.0027207098341378764
3.11650e-06;0.0027035316872830472
3.11675e-06;0.0026863535404282185
3.11700e-06;0.002672360682685541
3.11725e-06;0.002658422435508404
3.11750e-06;0.0026444841883312437
3.11775e-06;0.0026305459411540832
3.11800e-06;0.002616607693976946
3.11825e-06;0.002602669446799786
3.11850e-06;0.0025887311996226257
3.11875e-06;0.0025747929524454886
3.11900e-06;0.002560854705268328
3.11925e-06;0.002544102065497675
3.11950e-06;0.0025243386596395592
3.11975e-06;0.002504575253781477
3.12000e-06;0.0024848118479233613
3.12025e-06;0.0024650484420652456
3.12050e-06;0.0024452850362071633
3.12075e-06;0.0024255216303490476
3.12100e-06;0.002405758224490932
3.12125e-06;0.0023859948186328163
3.12150e-06;0.002366231412774734
3.12175e-06;0.0023464680069166183
3.12200e-06;0.0023231363208678934
3.12225e-06;0.002295987378828168
3.12250e-06;0.0022688384367883963
3.12275e-06;0.0022416894947486247
3.12300e-06;0.002214540552708899
3.12325e-06;0.0021873916106691276
3.12350e-06;0.002160242668629356
3.12375e-06;0.0021330937265895845
3.12400e-06;0.0021059447845498593
3.12425e-06;0.0020787958425100878
3.12450e-06;0.0020516469004703162
3.12475e-06;0.0020251088505880937
3.12500e-06;0.001999224317701019
3.12525e-06;0.0019733397848139445
3.12550e-06;0.0019474552519268698
3.12575e-06;0.001921570719039839
3.12600e-06;0.0018956861861527642
3.12625e-06;0.0018698016532656895
3.12650e-06;0.0018439171203786587
3.12675e-06;0.001818032587491584
3.12700e-06;0.0017973187948406837
3.12725e-06;0.0017821365294497572
3.12750e-06;0.0017669542640588046
3.12775e-06;0.0017517719986678522
3.12800e-06;0.0017365897332769
3.12825e-06;0.0017214074678859731
3.12850e-06;0.0017062252024950208
3.12875e-06;0.0016910429371040682
3.12900e-06;0.0016758606717131416
3.12925e-06;0.0016676923472849691
3.12950e-06;0.0016670273596836292
3.12975e-06;0.001666362372082289
3.13000e-06;0.0016656973844809502
3.13025e-06;0.00166503239687961
3.13050e-06;0.00166436740927827
3.13075e-06;0.0016637024216769312
3.13100e-06;0.001663037434075591
3.13125e-06;0.001662372446474251
3.13150e-06;0.0016617074588729122
3.13175e-06;0.001666519204644019
3.13200e-06;0.0016771898214011471
3.13225e-06;0.0016878604381582753
3.13250e-06;0.0016985310549153857
3.13275e-06;0.0017092016716725139
3.13300e-06;0.0017198722884296423
3.13325e-06;0.0017305429051867524
3.13350e-06;0.0017412135219438806
3.13375e-06;0.001751884138701009
3.13400e-06;0.0017625547554581372
3.13425e-06;0.0017746747877358815
3.13450e-06;0.0017883453681165173
3.13475e-06;0.001802015948497153
3.13500e-06;0.0018156865288777655
3.13525e-06;0.0018293571092584011
3.13550e-06;0.001843027689639037
3.13575e-06;0.0018566982700196494
3.13600e-06;0.0018703688504002852
3.13625e-06;0.0018840394307809208
3.13650e-06;0.0018977100111615566
3.13675e-06;0.001911380591542169
3.13700e-06;0.0019250511719228049
3.13725e-06;0.0019357269932393693
3.13750e-06;0.001946351470555208
3.13775e-06;0.0019569759478710647
3.13800e-06;0.0019676004251869216
3.13825e-06;0.0019782249025027785
3.13850e-06;0.0019888493798186175
3.13875e-06;0.0019994738571344744
3.13900e-06;0.0020100983344503312
3.13925e-06;0.00202072281176617
3.13950e-06;0.0020313472890820267
3.13975e-06;0.0020419717663978836
3.14000e-06;0.0020542213464576293
3.14025e-06;0.002068209420372871
3.14050e-06;0.0020821974942881135
3.14075e-06;0.0020961855682033554
3.14100e-06;0.0021101736421185744
3.14125e-06;0.0021241617160338163
3.14150e-06;0.0021381497899490586
3.14175e-06;0.002152137863864277
3.14200e-06;0.002166125937779519
3.14225e-06;0.0021801140116947614
3.14250e-06;0.0021941020856100038
3.14275e-06;0.0022080901595252223
3.14300e-06;0.002222078233440464
3.14325e-06;0.002237982910958344
3.14350e-06;0.0022539204479131974
3.14375e-06;0.0022698579848680783
3.14400e-06;0.002285795521822959
3.14425e-06;0.002301733058777813
3.14450e-06;0.002317670595732694
3.14475e-06;0.002333608132687575
3.14500e-06;0.002349545669642456
3.14525e-06;0.0023654832065973094
3.14550e-06;0.0023814207435521903
3.14575e-06;0.002397358280507071
3.14600e-06;0.002413295817461925
3.14625e-06;0.0024258778025360492
3.14650e-06;0.002434870102989563
3.14675e-06;0.002443862403443077
3.14700e-06;0.002452854703896576
3.14725e-06;0.00246184700435009
3.14750e-06;0.0024708393048036036
3.14775e-06;0.0024798316052571023
3.14800e-06;0.002488823905710616
3.14825e-06;0.00249781620616413
3.14850e-06;0.002506808506617629
