Time(s);Current(A)
6.80000e-06;0.0001323266931627913
6.80025e-06;0.0001449261794441501
6.80050e-06;0.00015688469821989042
6.80075e-06;0.00016810706533194308
6.80100e-06;0.00017849334572155317
6.80125e-06;0.00018789290229154361
6.80150e-06;0.00019605595458287305
6.80175e-06;0.0002027365780398745
6.80200e-06;0.00020783099355577262
6.80225e-06;0.00021133631683397565
6.80250e-06;0.0002132655310448654
6.80275e-06;0.00021363163399137938
6.80300e-06;0.0002124446340034958
6.80325e-06;0.00020968279638999308
6.80350e-06;0.00020526226449822768
6.80375e-06;0.00019910163610234628
6.80400e-06;0.00019120855718649944
6.80425e-06;0.00018165386861407714
6.80450e-06;0.00017051832762930678
6.80475e-06;0.00015788272066096767
6.80500e-06;0.00014382595049002193
6.80525e-06;0.00012840702306737373
6.80550e-06;0.0001116460449807261
6.80575e-06;9.35646610065103e-05
6.80600e-06;7.424028454519843e-05
6.80625e-06;5.378991029687347e-05
6.80650e-06;3.233674275710761e-05
6.80675e-06;1.0003994095770083e-05
6.80700e-06;-1.3086310142932635e-05
6.80725e-06;-3.68246159153122e-05
6.80750e-06;-6.112573892034349e-05
6.80775e-06;-8.59911282700065e-05
6.80800e-06;-0.00011123661784211166
6.80825e-06;-0.0001364821074141313
6.80850e-06;-0.0001617474759614545
6.80875e-06;-0.00018704280099257858
6.80900e-06;-0.00021208015887908837
6.80925e-06;-0.00023672877496950528
6.80950e-06;-0.000260913129723491
6.80975e-06;-0.0002843978690820279
6.81000e-06;-0.00030718130860818345
6.81025e-06;-0.00032890792922464837
6.81050e-06;-0.00034966878456369507
6.81075e-06;-0.0003689742866282866
6.81100e-06;-0.0003874114718009207
6.81125e-06;-0.00040411554306202404
6.81150e-06;-0.00042013987361535945
6.81175e-06;-0.00043636122138365443
6.81200e-06;-0.0004529700207257205
6.81225e-06;-0.0004697664649018939
6.81250e-06;-0.00048684567915690895
6.81275e-06;-0.000503924893411924
6.81300e-06;-0.0005209179976887057
6.81325e-06;-0.0005377813391319464
6.81350e-06;-0.0005551993647414778
6.81375e-06;-0.0005734532678014494
6.81400e-06;-0.0005917071708613593
6.81425e-06;-0.0006107619988811445
6.81450e-06;-0.0006310237752043406
6.81475e-06;-0.0006512855515274679
6.81500e-06;-0.000671547327850664
6.81525e-06;-0.0006918091041737915
6.81550e-06;-0.000713768521839629
6.81575e-06;-0.000735918890993778
6.81600e-06;-0.0007580692601478521
6.81625e-06;-0.0007802196293019262
6.81650e-06;-0.0008028638473596999
6.81675e-06;-0.0008262522675913402
6.81700e-06;-0.0008496406878229806
6.81725e-06;-0.0008730715748397899
6.81750e-06;-0.000896566456883241
6.81775e-06;-0.0009200613389266921
6.81800e-06;-0.0009435288927001019
6.81825e-06;-0.0009669552643266578
6.81850e-06;-0.0009903816359532137
6.81875e-06;-0.0010132988240932263
6.81900e-06;-0.00103544870171595
6.81925e-06;-0.0010575985793387485
6.81950e-06;-0.0010789844263271382
6.81975e-06;-0.0010992189226598432
6.82000e-06;-0.0011194534189926167
6.82025e-06;-0.0011385804509163075
6.82050e-06;-0.0011560385970438693
6.82075e-06;-0.00117349674317149
6.82100e-06;-0.0011886433557039841
6.82125e-06;-0.001200306618746752
6.82150e-06;-0.0012119698817895591
6.82175e-06;-0.0012236331448323271
6.82200e-06;-0.001235296407875095
6.82225e-06;-0.0012469596709179024
6.82250e-06;-0.0012554197526691681
6.82275e-06;-0.0012590528226301895
6.82300e-06;-0.001262685892591223
6.82325e-06;-0.0012663189625522445
6.82350e-06;-0.001269952032513278
6.82375e-06;-0.0012735851024742995
6.82400e-06;-0.0012749293388731027
6.82425e-06;-0.0012728244334391427
6.82450e-06;-0.00127071952800519
6.82475e-06;-0.0012672252226696608
6.82500e-06;-0.0012616371708066272
6.82525e-06;-0.0012560491189436125
6.82550e-06;-0.0012494498978674602
6.82575e-06;-0.0012413269023716365
6.82600e-06;-0.0012325430131793305
6.82625e-06;-0.0012227631948232933
6.82650e-06;-0.0012124078807125213
6.82675e-06;-0.001201185327273083
6.82700e-06;-0.0011894782949174176
6.82725e-06;-0.0011770411804253166
6.82750e-06;-0.0011642666767292056
6.82775e-06;-0.0011509837467163682
6.82800e-06;-0.0011375117245779256
6.82825e-06;-0.001123754751374654
6.82850e-06;-0.0011099332537340583
6.82875e-06;-0.0010960122924573087
6.82900e-06;-0.001082117088329791
6.82925e-06;-0.0010683324442734654
6.82950e-06;-0.0010547606203500563
6.82975e-06;-0.0010415136380884237
6.83000e-06;-0.001028694493442297
6.83025e-06;-0.0010163968575328272
6.83050e-06;-0.0010047126749232172
6.83075e-06;-0.0009937338908215083
6.83100e-06;-0.000983564407037947
6.83125e-06;-0.0009744395805882373
6.83150e-06;-0.0009668651680579235
6.83175e-06;-0.0009613802884148125
6.83200e-06;-0.0009586561150196141
6.83225e-06;-0.0009580020355339294
6.83250e-06;-0.0009591039889571014
6.83275e-06;-0.0009628521839701456
6.83300e-06;-0.0009688036946411577
6.83325e-06;-0.0009780754765327422
6.83350e-06;-0.0009873472584243578
6.83375e-06;-0.0009996485234015822
6.83400e-06;-0.0010165150468636195
6.83425e-06;-0.0010333815703257138
6.83450e-06;-0.001052936619747351
6.83475e-06;-0.0010765431246818804
6.83500e-06;-0.00110014962961649
6.83525e-06;-0.0011261176190542669
6.83550e-06;-0.0011556442311547687
6.83575e-06;-0.0011851708432553706
6.83600e-06;-0.0012167887220105981
6.83625e-06;-0.0012515580205194792
6.83650e-06;-0.0012863273190282425
6.83675e-06;-0.0013224846862401247
6.83700e-06;-0.0013607337939388537
6.83725e-06;-0.0013989829016374533
6.83750e-06;-0.0014379938187262765
6.83775e-06;-0.0014781527391821364
6.83800e-06;-0.0015186082770132867
6.83825e-06;-0.0015595108003371803
6.83850e-06;-0.0016003223068227247
6.83875e-06;-0.0016409966561158375
6.83900e-06;-0.0016812016417890449
6.83925e-06;-0.0017206993232169257
6.83950e-06;-0.0017594271461462638
6.83975e-06;-0.001796994836161103
6.84000e-06;-0.001833431874143653
6.84025e-06;-0.00186816508390265
6.84050e-06;-0.00190134255584386
6.84075e-06;-0.001932175619491011
6.84100e-06;-0.0019610043623305567
6.84125e-06;-0.0019868127078571008
6.84150e-06;-0.0020100991439627627
6.84175e-06;-0.0020295852061914424
6.84200e-06;-0.0020456381999549894
6.84225e-06;-0.002056517755051218
6.84250e-06;-0.002067397310147447
6.84275e-06;-0.002074071299101308
6.84300e-06;-0.002074407739381388
6.84325e-06;-0.002074744179661468
6.84350e-06;-0.0020707344420710693
6.84375e-06;-0.002060175261940508
6.84400e-06;-0.0020496160818099466
6.84425e-06;-0.0020362650375538205
6.84450e-06;-0.0020173971921978577
6.84475e-06;-0.001995298675929272
6.84500e-06;-0.00197009936632403
6.84525e-06;-0.0019419157554481157
6.84550e-06;-0.0019108457314943891
6.84575e-06;-0.0018770104786356603
6.84600e-06;-0.0018405942420289913
6.84625e-06;-0.0018018192952883089
6.84650e-06;-0.0017609131374937245
6.84675e-06;-0.0017181031742058005
6.84700e-06;-0.001673616045094308
6.84725e-06;-0.0016276700717739072
6.84750e-06;-0.0015804716853752014
6.84775e-06;-0.0015322420521226496
6.84800e-06;-0.0014832417395054564
6.84825e-06;-0.001433755167247368
6.84850e-06;-0.0013840700211494468
6.84875e-06;-0.001334473893494106
6.84900e-06;-0.0012852538428581332
6.84925e-06;-0.0012366916994468009
6.84950e-06;-0.001189061856752812
6.84975e-06;-0.0011426478963787467
6.85000e-06;-0.0010977581780088547
6.85025e-06;-0.00105471575029206
6.85050e-06;-0.0010138458076592537
6.85075e-06;-0.000975473591301316
6.85100e-06;-0.0009398933338322405
6.85125e-06;-0.0009070475002761583
6.85150e-06;-0.0008761039087518323
6.85175e-06;-0.0008459808203130369
6.85200e-06;-0.0008162641874425971
6.85225e-06;-0.00078709821360912
6.85250e-06;-0.0007587219112387136
6.85275e-06;-0.0007313742692164996
6.85300e-06;-0.0007052749821092719
6.85325e-06;-0.0006804233585744236
6.85350e-06;-0.0006563333535695227
6.85375e-06;-0.0006323627312531694
6.85400e-06;-0.0006082876004061291
6.85425e-06;-0.0005842970484303179
6.85450e-06;-0.0005604816167982164
6.85475e-06;-0.000537061179670283
6.85500e-06;-0.0005142359767656414
6.85525e-06;-0.0004917574040605019
6.85550e-06;-0.000469801183325563
6.85575e-06;-0.0004477681497192729
6.85600e-06;-0.00042561936349019147
6.85625e-06;-0.0004035215014143655
6.85650e-06;-0.0003815003791375825
6.85675e-06;-0.0003597678870443406
6.85700e-06;-0.00033847034420030075
6.85725e-06;-0.0003174876104902382
6.85750e-06;-0.0002969792762166963
6.85775e-06;-0.00027657703925025573
6.85800e-06;-0.0002563346848833274
6.85825e-06;-0.00023633495308112728
6.85850e-06;-0.00021670083966691421
6.85875e-06;-0.00019751474619190187
6.85900e-06;-0.00017900379325069715
6.85925e-06;-0.00016101373176602088
6.85950e-06;-0.0001438086240417268
6.85975e-06;-0.00012692632425253186
6.86000e-06;-0.00011077813283020521
6.86025e-06;-9.52974624147696e-05
6.86050e-06;-8.060129875502049e-05
6.86075e-06;-6.680660295030914e-05
6.86100e-06;-5.4024862117796406e-05
6.86125e-06;-4.230405332684767e-05
6.86150e-06;-3.154706332919691e-05
6.86175e-06;-2.159536568907535e-05
6.86200e-06;-1.239223640097425e-05
6.86225e-06;-3.973410306252236e-06
6.86250e-06;3.6091393196250878e-06
6.86275e-06;1.0303466805288976e-05
6.86300e-06;1.6061051177024977e-05
6.86325e-06;2.0873167252441522e-05
6.86350e-06;2.4821968386740085e-05
6.86375e-06;2.8028066881290484e-05
6.86400e-06;3.0548301132599406e-05
6.86425e-06;3.2381592314939e-05
6.86450e-06;3.351668996878231e-05
6.86475e-06;3.394236071092723e-05
6.86500e-06;3.364952476218444e-05
6.86525e-06;3.265402635868679e-05
6.86550e-06;3.102863204351249e-05
6.86575e-06;2.8870196697076087e-05
6.86600e-06;2.6235617353830548e-05
6.86625e-06;2.3145509086956774e-05
6.86650e-06;1.961411748579888e-05
6.86675e-06;1.565569868076563e-05
6.86700e-06;1.1285854615864965e-05
6.86725e-06;6.535799038400327e-06
6.86750e-06;1.4724004050774927e-06
6.86775e-06;-3.822391829478008e-06
6.86800e-06;-9.291662090718266e-06
6.86825e-06;-1.4919563757122622e-05
6.86850e-06;-2.0648523179535647e-05
6.86875e-06;-2.6425063702841174e-05
6.86900e-06;-3.227330623547809e-05
6.86925e-06;-3.812154876809519e-05
6.86950e-06;-4.389342877300657e-05
6.86975e-06;-4.955023479751566e-05
6.87000e-06;-5.50393533258554e-05
6.87025e-06;-6.027577634728839e-05
6.87050e-06;-6.534576422477852e-05
6.87075e-06;-7.003262983122112e-05
6.87100e-06;-7.44044540403786e-05
6.87125e-06;-7.881760829161199e-05
6.87150e-06;-8.440373709287588e-05
6.87175e-06;-9.24695240752005e-05
6.87200e-06;-0.00010353525827239222
6.87225e-06;-0.00011750126487222913
6.87250e-06;-0.00013416524020664356
6.87275e-06;-0.00015332488649263997
6.87300e-06;-0.00017479836724151946
6.87325e-06;-0.00019863177404128683
6.87350e-06;-0.00022535679024277138
6.87375e-06;-0.00025561467995540273
6.87400e-06;-0.00028955409654947634
6.87425e-06;-0.0003269353051790112
6.87450e-06;-0.0003674542842080814
6.87475e-06;-0.0004108070848404097
6.87500e-06;-0.0004567025924315236
6.87525e-06;-0.0005049924478962086
6.87550e-06;-0.0005563929907208926
6.87575e-06;-0.0006102917713275797
6.87600e-06;-0.0006661793743399167
6.87625e-06;-0.0007250640194536382
6.87650e-06;-0.0007853642318108745
6.87675e-06;-0.0008477976233877189
6.87700e-06;-0.000911114830259919
6.87725e-06;-0.000975763896449223
6.87750e-06;-0.0010411268759659676
6.87775e-06;-0.0011075656822092084
6.87800e-06;-0.001174341065006361
6.87825e-06;-0.0012416236495024313
6.87850e-06;-0.0013086011882777074
6.87875e-06;-0.001375119040524694
6.87900e-06;-0.0014407162528059902
6.87925e-06;-0.0015049261130898716
6.87950e-06;-0.001567826491828165
6.87975e-06;-0.0016287535564518487
6.88000e-06;-0.0016878523899872535
6.88025e-06;-0.0017441961833908018
6.88050e-06;-0.0017972633628674324
6.88075e-06;-0.0018453928717601276
6.88100e-06;-0.0018935223806529858
6.88125e-06;-0.0019380352317568657
6.88150e-06;-0.0019770979855422673
6.88175e-06;-0.0020135393692431993
6.88200e-06;-0.002046030497514024
6.88225e-06;-0.0020785216257848487
6.88250e-06;-0.002107457122437983
6.88275e-06;-0.0021310344847369485
6.88300e-06;-0.0021546118470359937
6.88325e-06;-0.0021750951940706716
6.88350e-06;-0.002190916036306952
6.88375e-06;-0.002204437372171563
6.88400e-06;-0.0022144934828914027
6.88425e-06;-0.0022245495936112428
6.88450e-06;-0.0022317947390513857
6.88475e-06;-0.002234803919900183
6.88500e-06;-0.00223781310074898
6.88525e-06;-0.0022385687944540826
6.88550e-06;-0.0022359286113703696
6.88575e-06;-0.002231998357474695
6.88600e-06;-0.002226124040335288
6.88625e-06;-0.002219076999093617
6.88650e-06;-0.0022102627294168123
6.88675e-06;-0.002200316135969077
6.88700e-06;-0.0021886631950848445
6.88725e-06;-0.0021762522139595806
6.88750e-06;-0.0021623492375280624
6.88775e-06;-0.0021476679147590817
6.88800e-06;-0.0021323988558785466
6.88825e-06;-0.0021166376452766743
6.88850e-06;-0.0021004633054159377
6.88875e-06;-0.002083954905840797
6.88900e-06;-0.002067194905363916
6.88925e-06;-0.002050305816135462
6.88950e-06;-0.002033501222562306
6.88975e-06;-0.002017031802615915
6.89000e-06;-0.0020013797616050986
6.89025e-06;-0.001986536808072114
6.89050e-06;-0.00197169385453918
6.89075e-06;-0.0019575389140061793
6.89100e-06;-0.0019448193864844852
6.89125e-06;-0.0019329206171954975
6.89150e-06;-0.001921193637690007
6.89175e-06;-0.001908852067076245
6.89200e-06;-0.0018955879350356394
6.89225e-06;-0.0018813577599175073
6.89250e-06;-0.0018664879144452311
6.89275e-06;-0.0018512366573385664
6.89300e-06;-0.0018354106346204111
6.89325e-06;-0.0018190693915841045
6.89350e-06;-0.001801951740870333
6.89375e-06;-0.0017838253356749836
6.89400e-06;-0.0017641787949251655
6.89425e-06;-0.0017436576798749426
6.89450e-06;-0.0017218186311614228
6.89475e-06;-0.001699360435760033
6.89500e-06;-0.0016759692215606687
6.89525e-06;-0.0016519908558782555
6.89550e-06;-0.0016271276863497116
6.89575e-06;-0.0016016640378724639
6.89600e-06;-0.0015749357066821268
6.89625e-06;-0.0015473748595734133
6.89650e-06;-0.001519155978927817
6.89675e-06;-0.0014904537119140983
6.89700e-06;-0.0014614372470772255
6.89725e-06;-0.0014322183189122385
6.89750e-06;-0.001402784002711302
6.89775e-06;-0.0013730876659373199
6.89800e-06;-0.0013432001194502354
6.89825e-06;-0.001313287272503622
6.89850e-06;-0.001283531081600563
6.89875e-06;-0.001254113528074803
6.89900e-06;-0.001225213084997705
6.89925e-06;-0.0011969723317752728
6.89950e-06;-0.0011694556854057476
6.89975e-06;-0.00114270640499862
6.90000e-06;-0.0011168413899378322
6.90025e-06;-0.001092308347584922
6.90050e-06;-0.0010688889026700147
6.90075e-06;-0.0010466963508076108
6.90100e-06;-0.001026352656903032
6.90125e-06;-0.0010071742339363607
6.90150e-06;-0.0009897518079099873
6.90175e-06;-0.0009730105221836457
6.90200e-06;-0.0009572956760978887
6.90225e-06;-0.0009425444166136141
6.90250e-06;-0.0009292452272608732
6.90275e-06;-0.0009159460379081323
6.90300e-06;-0.0009039501384798486
6.90325e-06;-0.0008939182227443953
6.90350e-06;-0.0008838863070089419
6.90375e-06;-0.000874585881066918
6.90400e-06;-0.000866387768584713
6.90425e-06;-0.0008593178043987756
6.90450e-06;-0.0008539478954462928
6.90475e-06;-0.0008485779864938281
6.90500e-06;-0.0008432080775413453
6.90525e-06;-0.0008378381685888806
6.90550e-06;-0.0008324682596364159
6.90575e-06;-0.0008284168255606272
6.90600e-06;-0.0008263522580356875
6.90625e-06;-0.0008242876905107477
6.90650e-06;-0.000822223122985801
6.90675e-06;-0.0008201585554608612
6.90700e-06;-0.0008180939879359214
6.90725e-06;-0.0008168982329312775
6.90750e-06;-0.000817011728915034
6.90775e-06;-0.0008171252248987905
6.90800e-06;-0.0008172387208825474
6.90825e-06;-0.000817352216866304
6.90850e-06;-0.0008174657128500605
6.90875e-06;-0.0008175792088338175
6.90900e-06;-0.000818475246856908
6.90925e-06;-0.0008194593055723141
6.90950e-06;-0.000820443364287717
6.90975e-06;-0.0008214274230031198
6.91000e-06;-0.000822411481718526
6.91025e-06;-0.0008233955404339288
6.91050e-06;-0.0008243478825673213
6.91075e-06;-0.0008252231277683607
6.91100e-06;-0.0008260501999363241
6.91125e-06;-0.0008271701350087395
6.91150e-06;-0.0008296060385464259
6.91175e-06;-0.0008345281254483248
6.91200e-06;-0.0008424039391369388
6.91225e-06;-0.0008536665698556693
6.91250e-06;-0.0008673699338032396
6.91275e-06;-0.0008830097854749621
6.91300e-06;-0.0009015678138619308
6.91325e-06;-0.0009222775197841931
6.91350e-06;-0.0009462296812118616
6.91375e-06;-0.0009729854747182413
6.91400e-06;-0.0010039661820972993
6.91425e-06;-0.0010374839722423223
6.91450e-06;-0.0010748250016255644
6.91475e-06;-0.001114741049066695
6.91500e-06;-0.0011585375020709253
6.91525e-06;-0.0012023339550750072
6.91550e-06;-0.001249197427874072
6.91575e-06;-0.0013006827248339247
6.91600e-06;-0.0013521680217936031
6.91625e-06;-0.0014058417706516765
6.91650e-06;-0.0014628133918858396
6.91675e-06;-0.0015209065402508246
6.91700e-06;-0.0015806897661298977
6.91725e-06;-0.0016412404589944308
6.91750e-06;-0.0017029476808973377
6.91775e-06;-0.0017652397556440374
6.91800e-06;-0.0018284131703176936
6.91825e-06;-0.0018916284480933777
6.91850e-06;-0.001954906811179875
6.91875e-06;-0.002017616690522365
6.91900e-06;-0.0020794698972388427
6.91925e-06;-0.0021402635472178846
6.91950e-06;-0.0021994605055362373
6.91975e-06;-0.0022572141968428875
6.92000e-06;-0.0023127929669590473
6.92025e-06;-0.0023663191680536287
6.92050e-06;-0.002416752264529528
6.92075e-06;-0.002464477610057921
6.92100e-06;-0.0025081225291180916
6.92125e-06;-0.00254832195002932
6.92150e-06;-0.0025833292014560165
6.92175e-06;-0.0026143141123005525
6.92200e-06;-0.002639237584965887
6.92225e-06;-0.0026589616897692075
6.92250e-06;-0.0026708506433158904
6.92275e-06;-0.002682739596862614
6.92300e-06;-0.00268822409174223
6.92325e-06;-0.002684057432153615
6.92350e-06;-0.002679890772564986
6.92375e-06;-0.002670288612142831
6.92400e-06;-0.0026524954615241587
6.92425e-06;-0.0026316041162949854
6.92450e-06;-0.002604080605002411
6.92475e-06;-0.0025717112108495617
6.92500e-06;-0.002534685554723548
6.92525e-06;-0.0024931774598489715
6.92550e-06;-0.0024473402674558948
6.92575e-06;-0.002397365214078279
6.92600e-06;-0.002343530725840923
6.92625e-06;-0.0022861664780382566
6.92650e-06;-0.0022256089580327465
6.92675e-06;-0.002162194651896613
6.92700e-06;-0.0020962590724561197
6.92725e-06;-0.0020281271816298455
6.92750e-06;-0.0019581115303708473
6.92775e-06;-0.0018865484244977068
6.92800e-06;-0.00181382859318432
6.92825e-06;-0.001740374825600353
6.92850e-06;-0.0016666142959985023
6.92875e-06;-0.0015929740164245603
6.92900e-06;-0.0015198802310983108
6.92925e-06;-0.001447753028413768
6.92950e-06;-0.0013770042622390482
6.92975e-06;-0.0013080606934155403
6.93000e-06;-0.001241383316627246
6.93025e-06;-0.0011774529919732746
6.93050e-06;-0.0011167534015743919
6.93075e-06;-0.0010597681353227088
6.93100e-06;-0.0010069760681256392
6.93125e-06;-0.0009587932151026769
6.93150e-06;-0.000915458832262904
6.93175e-06;-0.0008770479623272247
6.93200e-06;-0.0008436183229597966
6.93225e-06;-0.0008152668452380004
6.93250e-06;-0.0007921010272633402
6.93275e-06;-0.0007742283086073144
6.93300e-06;-0.00076175331971567
6.93325e-06;-0.0007547410833631393
6.93350e-06;-0.0007531459150495782
6.93375e-06;-0.0007568193483067553
6.93400e-06;-0.0007656020898966208
6.93425e-06;-0.0007793593303952667
6.93450e-06;-0.0007979629079813474
6.93475e-06;-0.0008212846961452377
6.93500e-06;-0.000850056386785836
6.93525e-06;-0.0008828366713135252
6.93550e-06;-0.0009188366184601216
6.93575e-06;-0.000959688413807529
6.93600e-06;-0.0010032986114381457
6.93625e-06;-0.0010510655642137262
6.93650e-06;-0.001101149638525973
6.93675e-06;-0.0011547254830299122
6.93700e-06;-0.0012101694945833613
6.93725e-06;-0.001268428727484398
6.93750e-06;-0.0013280151344910725
6.93775e-06;-0.0013896015172901316
6.93800e-06;-0.0014519145488085482
6.93825e-06;-0.0015153225985633466
6.93850e-06;-0.0015788693561228947
6.93875e-06;-0.0016426251384439902
6.93900e-06;-0.0017059270207199593
6.93925e-06;-0.0017685449014778574
6.93950e-06;-0.001830058622603229
6.93975e-06;-0.00188990843804659
6.94000e-06;-0.0019479666845399826
6.94025e-06;-0.0020033251386593967
6.94050e-06;-0.0020554582764354705
6.94075e-06;-0.002102731046169734
6.94100e-06;-0.0021500038159039973
6.94125e-06;-0.00219284672799593
6.94150e-06;-0.00222901409690962
6.94175e-06;-0.0022651814658233103
6.94200e-06;-0.0022972972542207376
6.94225e-06;-0.002323307541525457
6.94250e-06;-0.0023493178288301764
6.94275e-06;-0.0023708371781446078
6.94300e-06;-0.0023855889396754443
6.94325e-06;-0.002400340701206331
