Time(s);Current(A)
1.02500e-05;0.00417311936545681
1.02503e-05;0.004176819103650453
1.02505e-05;0.00417893566515398
1.02508e-05;0.004180403920592558
1.02510e-05;0.004181872176031146
1.02513e-05;0.004183340431469735
1.02515e-05;0.004184808686908313
1.02518e-05;0.004186276942346901
1.02520e-05;0.004187745197785489
1.02522e-05;0.0041892134532240674
1.02525e-05;0.004190681708662656
1.02528e-05;0.004192149964101244
1.02530e-05;0.004193618219539823
1.02533e-05;0.0041950864749784105
1.02535e-05;0.0041965547304169985
1.02537e-05;0.004198022985855577
1.02540e-05;0.004199491241294166
1.02543e-05;0.004200959496732754
1.02545e-05;0.004202427752171332
1.02548e-05;0.00420389600760992
1.02550e-05;0.004205364263048509
1.02553e-05;0.004206832518487097
1.02555e-05;0.004208300773925675
1.02558e-05;0.004209769029364263
1.02560e-05;0.004211237284802851
1.02563e-05;0.0042127055402414295
1.02565e-05;0.004214173795680018
1.02568e-05;0.004215642051118606
1.02570e-05;0.004217110306557185
1.02573e-05;0.0042158938448559865
1.02575e-05;0.004204545567525582
1.02578e-05;0.004193197290195254
1.02580e-05;0.0041818490128648494
1.02583e-05;0.004170500735534445
1.02585e-05;0.004159152458204117
1.02588e-05;0.0041478041808737124
1.02590e-05;0.004136455903543308
1.02593e-05;0.00412510762621298
1.02595e-05;0.004113759348882575
1.02598e-05;0.004102411071552171
1.02600e-05;0.004091062794221842
1.02603e-05;0.0040797145168914375
1.02605e-05;0.00405327946864824
1.02607e-05;0.00402066643335701
1.02610e-05;0.003988053398065559
1.02613e-05;0.003955440362774108
1.02615e-05;0.003922827327482878
1.02618e-05;0.0038902142921914268
1.02620e-05;0.0038576012568999757
1.02622e-05;0.0038249882216087458
1.02625e-05;0.0037923751863172947
1.02628e-05;0.0037597621510258436
1.02630e-05;0.0037271491157346136
1.02633e-05;0.0036945360804431625
1.02635e-05;0.0036605240974582577
1.02638e-05;0.003621232645773127
1.02640e-05;0.0035819411940882628
1.02643e-05;0.003542649742403132
1.02645e-05;0.0035033582907180016
1.02648e-05;0.0034640668390331373
1.02650e-05;0.0034247753873480067
1.02653e-05;0.003385483935662876
1.02655e-05;0.0033480898199371558
1.02658e-05;0.0033178560332629394
1.02660e-05;0.003287622246588723
1.02663e-05;0.0032573884599147117
1.02665e-05;0.0032271546732404953
1.02668e-05;0.003196920886566279
1.02670e-05;0.0031666870998922673
1.02673e-05;0.003136453313218051
1.02675e-05;0.0031125080404946492
1.02678e-05;0.0031122949006711456
1.02680e-05;0.0031120817608476406
1.02683e-05;0.003111868621024135
1.02685e-05;0.0031116554812006315
1.02688e-05;0.0031114423413771265
1.02690e-05;0.003111229201553621
1.02692e-05;0.0031110160617301174
1.02695e-05;0.0031108029219066124
1.02698e-05;0.0031105897820831075
1.02700e-05;0.0031103766422596038
1.02703e-05;0.003136384130170161
1.02705e-05;0.0031731288858186397
1.02707e-05;0.0032098736414668694
1.02710e-05;0.003246618397115348
1.02713e-05;0.003283363152763827
1.02715e-05;0.0033201079084120566
1.02718e-05;0.0033568526640605353
1.02720e-05;0.003393597419709014
1.02723e-05;0.0034303421753574927
1.02725e-05;0.0034670869310057225
1.02728e-05;0.0035076119413014082
1.02730e-05;0.0035624032005703277
1.02733e-05;0.0036171944598388764
1.02735e-05;0.003671985719107796
1.02738e-05;0.0037267769783767154
1.02740e-05;0.0037815682376452636
1.02743e-05;0.0038363594969141835
1.02745e-05;0.003891150756183103
1.02748e-05;0.00394388074539905
1.02750e-05;0.0039957666507642
1.02753e-05;0.004047652556129349
1.02755e-05;0.0040995384614941465
1.02758e-05;0.0041514243668592955
1.02760e-05;0.004203310272224444
1.02763e-05;0.004255196177589242
1.02765e-05;0.0043015610881011156
1.02768e-05;0.004327090395056204
1.02770e-05;0.0043526197020111205
1.02773e-05;0.004378149008966209
1.02775e-05;0.004403678315921299
1.02777e-05;0.004429207622876215
1.02780e-05;0.004454736929831304
1.02783e-05;0.004480266236786393
1.02785e-05;0.004505795543741309
1.02788e-05;0.004531324850696398
1.02790e-05;0.004556854157651487
1.02792e-05;0.004582383464606403
1.02795e-05;0.004607912771561492
1.02798e-05;0.004627217313165797
1.02800e-05;0.004623030301790945
1.02803e-05;0.004618843290416063
1.02805e-05;0.004614656279041182
1.02808e-05;0.0046104692676663004
1.02810e-05;0.004606282256291447
1.02813e-05;0.004602095244916566
1.02815e-05;0.004597908233541685
1.02818e-05;0.004593721222166831
1.02820e-05;0.00458953421079195
1.02823e-05;0.004585347199417069
1.02825e-05;0.004581160188042215
1.02828e-05;0.004576973176667334
1.02830e-05;0.004570088551889017
1.02833e-05;0.004553023442447023
1.02835e-05;0.004535958333004913
1.02838e-05;0.004518893223562803
1.02840e-05;0.004501828114120809
1.02843e-05;0.0044847630046787
1.02845e-05;0.00446769789523659
1.02848e-05;0.004450632785794596
1.02850e-05;0.004433567676352486
1.02853e-05;0.004416502566910377
1.02855e-05;0.004399437457468383
1.02858e-05;0.004382372348026273
1.02860e-05;0.004368919491480567
1.02862e-05;0.00435694584156939
1.02865e-05;0.004344972191658131
1.02868e-05;0.004332998541746872
1.02870e-05;0.004321024891835695
1.02873e-05;0.004309051241924437
1.02875e-05;0.004297077592013178
1.02877e-05;0.004285103942102001
1.02880e-05;0.004273130292190742
1.02883e-05;0.004261156642279483
1.02885e-05;0.004249182992368306
1.02888e-05;0.004239680646505823
1.02890e-05;0.004239504719671478
1.02893e-05;0.004239328792837133
1.02895e-05;0.004239152866002789
1.02898e-05;0.004238976939168444
1.02900e-05;0.004238801012334099
1.02903e-05;0.004238625085499755
1.02905e-05;0.00423844915866541
1.02908e-05;0.0042382732318310655
1.02910e-05;0.004238097304996721
1.02913e-05;0.004237921378162376
1.02915e-05;0.004237745451328032
1.02918e-05;0.004237569524493687
1.02920e-05;0.004237393597659342
1.02923e-05;0.004237217670824998
1.02925e-05;0.004238391862406637
1.02928e-05;0.004244661246582181
1.02930e-05;0.004250930630757726
1.02933e-05;0.004257200014933228
1.02935e-05;0.004263469399108773
1.02938e-05;0.004269738783284318
1.02940e-05;0.00427600816745982
1.02943e-05;0.004282277551635364
1.02945e-05;0.0042885469358109095
1.02947e-05;0.004294816319986411
1.02950e-05;0.004301085704161956
1.02953e-05;0.004307355088337501
1.02955e-05;0.004313624472513003
1.02958e-05;0.004319893856688547
1.02960e-05;0.004326163240864093
1.02962e-05;0.004330959470888392
1.02965e-05;0.004330196185515453
1.02968e-05;0.004329432900142515
1.02970e-05;0.00432866961476958
1.02973e-05;0.004327906329396641
1.02975e-05;0.0043271430440237025
1.02978e-05;0.004326379758650764
1.02980e-05;0.00432561647327783
1.02983e-05;0.004324853187904891
1.02985e-05;0.0043240899025319525
1.02988e-05;0.004323326617159018
1.02990e-05;0.004305900646869999
1.02993e-05;0.004281651357507764
1.02995e-05;0.0042574020681456935
1.02998e-05;0.004233152778783459
1.03000e-05;0.004208903489421224
1.03003e-05;0.004184654200059154
1.03005e-05;0.004160404910696918
1.03008e-05;0.004136155621334684
1.03010e-05;0.004111906331972614
1.03013e-05;0.0040876570426103785
1.03015e-05;0.004059445292628799
1.03018e-05;0.004016279669144802
1.03020e-05;0.003973114045660513
1.03023e-05;0.0039299484221762245
1.03025e-05;0.003886782798692228
1.03028e-05;0.003843617175207939
1.03030e-05;0.00380045155172365
1.03032e-05;0.0037572859282396535
1.03035e-05;0.0037141203047553646
1.03038e-05;0.0036683653257188896
1.03040e-05;0.0036215500134160424
1.03043e-05;0.0035747347011128782
1.03045e-05;0.0035279193888097136
1.03047e-05;0.0034811040765068664
1.03050e-05;0.0034342887642037022
1.03053e-05;0.0033874734519005376
1.03055e-05;0.0033406581395976904
1.03058e-05;0.0032963432389066447
1.03060e-05;0.0032614646058668055
1.03063e-05;0.0032265859728269667
1.03065e-05;0.003191707339787364
1.03068e-05;0.0031568287067475246
1.03070e-05;0.0031219500737076854
1.03073e-05;0.0030870714406680826
1.03075e-05;0.0030521928076282434
1.03078e-05;0.0030173141745884046
1.03080e-05;0.0029896776915136107
1.03083e-05;0.002965006846944685
1.03085e-05;0.0029403360023757593
1.03088e-05;0.0029156651578070006
1.03090e-05;0.002890994313238075
1.03093e-05;0.002866323468669149
1.03095e-05;0.0028416526241003904
1.03098e-05;0.0028169817795314646
1.03100e-05;0.00279305754203432
1.03103e-05;0.0027719509142968093
1.03105e-05;0.002750844286559156
1.03108e-05;0.002729737658821502
1.03110e-05;0.0027086310310839913
1.03113e-05;0.002687524403346338
1.03115e-05;0.002666417775608684
1.03117e-05;0.0026453111478711737
1.03120e-05;0.00262420452013352
1.03123e-05;0.002603097892395866
1.03125e-05;0.0025819912646583556
1.03128e-05;0.0025608846369207018
1.03130e-05;0.0025397780091830483
1.03132e-05;0.0025186713814455376
1.03135e-05;0.0024975647537078837
1.03138e-05;0.0024802001480269138
1.03140e-05;0.0024643678890605585
1.03143e-05;0.002448535630094096
1.03145e-05;0.002432703371127634
1.03148e-05;0.0024168711121611715
1.03150e-05;0.0024010388531948168
1.03153e-05;0.0023852065942283544
1.03155e-05;0.0023693743352618916
1.03158e-05;0.002353542076295537
1.03160e-05;0.0023377098173290745
1.03163e-05;0.002321877558362612
1.03165e-05;0.002306045299396257
1.03168e-05;0.0022902130404297946
1.03170e-05;0.0022743807814633323
1.03173e-05;0.0022601254828903392
1.03175e-05;0.002251821452614077
1.03178e-05;0.0022435174223378153
1.03180e-05;0.00223521339206161
1.03183e-05;0.0022269093617853478
1.03185e-05;0.002218605331509086
1.03188e-05;0.0022103013012328807
1.03190e-05;0.0022019972709566185
1.03193e-05;0.0021936932406803568
1.03195e-05;0.0021853892104041514
1.03198e-05;0.0021770851801278896
1.03200e-05;0.0021687811498516275
1.03202e-05;0.002160477119575422
1.03205e-05;0.0021521730892991604
1.03208e-05;0.002143869059022898
1.03210e-05;0.002135565028746693
1.03213e-05;0.002127260998470431
1.03215e-05;0.002118956968194169
1.03217e-05;0.0021106529379179635
1.03220e-05;0.002102348907641702
1.03223e-05;0.0020961427528667473
1.03225e-05;0.002090795671764924
1.03228e-05;0.002085448590663064
1.03230e-05;0.002080101509561205
1.03232e-05;0.0020747544284593815
1.03235e-05;0.0020694073473575218
1.03238e-05;0.0020640602662556624
1.03240e-05;0.0020587131851538027
1.03243e-05;0.0020533661040519793
1.03245e-05;0.00204801902295012
1.03248e-05;0.0020426719418482602
1.03250e-05;0.002037324860746437
1.03253e-05;0.0020319777796445775
1.03255e-05;0.0020266306985427178
1.03258e-05;0.0020212836174408944
1.03260e-05;0.002015936536339035
1.03263e-05;0.0020105894552371753
1.03265e-05;0.002005242374135352
1.03268e-05;0.0019998952930334927
1.03270e-05;0.001997382435159211
1.03273e-05;0.0020055656118327546
1.03275e-05;0.002013748788506354
1.03278e-05;0.002021931965179953
1.03280e-05;0.002030115141853497
1.03283e-05;0.002038298318527096
1.03285e-05;0.0020464814952006953
1.03287e-05;0.0020546646718742393
1.03290e-05;0.0020628478485478384
1.03293e-05;0.002071031025221438
1.03295e-05;0.0020792142018949814
1.03298e-05;0.0021065155768036164
1.03300e-05;0.002141645796071609
1.03302e-05;0.0021767760153393635
1.03305e-05;0.002211906234607356
1.03308e-05;0.0022470364538753488
1.03310e-05;0.0022821666731431033
1.03313e-05;0.0023172968924110963
1.03315e-05;0.002352427111679089
1.03317e-05;0.0023875573309468435
1.03320e-05;0.002422687550214836
1.03323e-05;0.0024611765040336844
1.03325e-05;0.002512340938192061
1.03328e-05;0.00256350537235009
1.03330e-05;0.002614669806508467
1.03333e-05;0.002665834240666843
1.03335e-05;0.0027169986748248726
1.03338e-05;0.0027681631089832488
1.03340e-05;0.002819479230175328
1.03343e-05;0.002871367800896637
1.03345e-05;0.0029232563716182973
1.03348e-05;0.0029751449423399577
1.03350e-05;0.0030270335130612664
1.03353e-05;0.0030789220837829268
1.03355e-05;0.003130810654504587
1.03358e-05;0.0031808122139464863
1.03360e-05;0.003223692408477234
1.03363e-05;0.0032665726030079814
1.03365e-05;0.0033094527975384386
1.03368e-05;0.003352332992069186
1.03370e-05;0.0033865460794826802
1.03373e-05;0.0034142141933880487
1.03375e-05;0.003441882307293605
1.03378e-05;0.003469550421199161
1.03380e-05;0.0034972185351045296
1.03383e-05;0.003505265092318395
1.03385e-05;0.0035118354435779574
1.03387e-05;0.0035184057948374754
1.03390e-05;0.0035249761460970372
1.03393e-05;0.0035315464973565995
1.03395e-05;0.003538116848616117
1.03398e-05;0.0035446871998756793
1.03400e-05;0.0035512575511352415
1.03402e-05;0.003557827902394759
1.03405e-05;0.0035422919798208975
1.03408e-05;0.0035239231564871097
1.03410e-05;0.003505554333153322
1.03413e-05;0.003487185509819658
1.03415e-05;0.0034688166864858703
1.03418e-05;0.003450447863152082
1.03420e-05;0.0034320790398184187
1.03423e-05;0.003413710216484631
1.03425e-05;0.0033953413931508427
1.03428e-05;0.0033707196532687294
1.03430e-05;0.0033398326798300755
1.03433e-05;0.00330519260232854
1.03435e-05;0.0032705525248272393
1.03438e-05;0.003235912447325704
1.03440e-05;0.0032012723698241685
1.03443e-05;0.003166632292322868
1.03445e-05;0.0031319922148213327
1.03448e-05;0.0030973521373197973
1.03450e-05;0.0030646557117083866
1.03453e-05;0.0030333899614138353
1.03455e-05;0.003002124211119284
1.03458e-05;0.002970858460824945
1.03460e-05;0.0029395927105303936
1.03463e-05;0.0029083269602358424
1.03465e-05;0.0028770612099415028
1.03468e-05;0.0028457954596469515
1.03470e-05;0.002818091775654474
1.03472e-05;0.0027930100428268877
1.03475e-05;0.0027679283099991316
1.03478e-05;0.0027428465771713755
1.03480e-05;0.002717764844343789
1.03483e-05;0.002692683111516033
1.03485e-05;0.002667601378688277
1.03487e-05;0.0026425196458606907
1.03490e-05;0.0026174379130329346
1.03493e-05;0.0025885745762309273
1.03495e-05;0.0025569276918739913
1.03498e-05;0.00252528080751727
1.03500e-05;0.002493633923160334
1.03503e-05;0.0024619870388033985
1.03505e-05;0.002430340154446677
1.03508e-05;0.0023986932700897413
1.03510e-05;0.0023670463857328053
1.03513e-05;0.002335399501376084
1.03515e-05;0.0022996168618854567
1.03518e-05;0.002260789992705651
1.03520e-05;0.0022219631235261095
1.03523e-05;0.0021831362543463045
1.03525e-05;0.002144309385166499
1.03528e-05;0.0021054825159869573
1.03530e-05;0.002066655646807152
1.03533e-05;0.002027746132212955
1.03535e-05;0.001987831990493685
1.03538e-05;0.0019479178487741453
1.03540e-05;0.0019080037070546053
1.03543e-05;0.001868089565335336
1.03545e-05;0.001828175423615796
1.03548e-05;0.001788261281896256
1.03550e-05;0.0017483471401769865
1.03553e-05;0.0017111416881253733
1.03555e-05;0.0016759300372637394
1.03557e-05;0.0016407183864023437
1.03560e-05;0.0016055067355407095
1.03563e-05;0.0015709320892504973
1.03565e-05;0.0015441007893562933
1.03568e-05;0.0015172694894619073
1.03570e-05;0.0014904381895675216
1.03572e-05;0.0014636068896733175
1.03575e-05;0.001444668827887159
1.03578e-05;0.001431540788460013
1.03580e-05;0.0014254049403536059
1.03583e-05;0.0014244158757793677
1.03585e-05;0.0014300832502031806
1.03588e-05;0.0014406502689654473
1.03590e-05;0.0014578041219901413
1.03593e-05;0.0014798063849848627
1.03595e-05;0.001509494673788618
1.03598e-05;0.0015448404609708286
1.03600e-05;0.0015877972711715884
1.03603e-05;0.0016363563720043785
1.03605e-05;0.001691624987122074
1.03608e-05;0.0017518323140185627
1.03610e-05;0.0018180145167798587
1.03613e-05;0.0018885946816812925
1.03615e-05;0.0019665080429922773
1.03618e-05;0.002049819193463647
1.03620e-05;0.0021331303439344517
1.03623e-05;0.0022233508261390368
1.03625e-05;0.002318657100930595
1.03628e-05;0.002413963375721508
1.03630e-05;0.0025146660393762527
1.03633e-05;0.0026193408548305193
1.03635e-05;0.0027240156702840763
1.03638e-05;0.0028286904857383424
1.03640e-05;0.0029333653011926085
1.03642e-05;0.003037989381740351
1.03645e-05;0.0031419967352385282
1.03648e-05;0.0032460040887367057
1.03650e-05;0.003350011442234178
1.03653e-05;0.003454018795732355
1.03655e-05;0.003558026149230532
1.03657e-05;0.003646292426171854
1.03660e-05;0.0037229720759895083
1.03663e-05;0.0037996517258071624
1.03665e-05;0.003876331375624816
1.03668e-05;0.003953011025441951
1.03670e-05;0.004029690675259605
1.03673e-05;0.004106370325077259
1.03675e-05;0.004183049974894394
1.03678e-05;0.00425558014336017
1.03680e-05;0.004277669745238046
1.03683e-05;0.004299759347115771
1.03685e-05;0.004321848948993646
1.03688e-05;0.004343938550871522
1.03690e-05;0.004366028152749247
1.03693e-05;0.0043881177546271225
1.03695e-05;0.0044102073565049985
1.03698e-05;0.0044322969583827235
1.03700e-05;0.004432702054152001
1.03703e-05;0.004417145707526841
1.03705e-05;0.004401589360901787
1.03708e-05;0.0043703629631953915
1.03710e-05;0.0043276022185044965
1.03713e-05;0.004284841473813891
1.03715e-05;0.004242080729122996
1.03718e-05;0.004199319984432101
1.03720e-05;0.004156559239741496
1.03723e-05;0.004113798495050601
1.03725e-05;0.004056760407078554
1.03727e-05;0.003989213110772096
1.03730e-05;0.003921665814465179
1.03733e-05;0.0038541185181582625
1.03735e-05;0.0037865712218518033
1.03738e-05;0.003719023925544887
1.03740e-05;0.00365147662923797
1.03742e-05;0.0035807847494885234
1.03745e-05;0.003507778217643987
1.03748e-05;0.0034347716857994503
1.03750e-05;0.003361765153954914
1.03753e-05;0.003288758622110872
1.03755e-05;0.0032157520902663357
1.03758e-05;0.0031502125103651506
1.03760e-05;0.003090169173852416
1.03763e-05;0.0030301258373392737
1.03765e-05;0.002970082500826132
1.03768e-05;0.002910039164313397
1.03770e-05;0.0028499958278002556
1.03773e-05;0.002801804854500284
1.03775e-05;0.002762338120145857
1.03778e-05;0.002722871385791162
1.03780e-05;0.002693137735975403
1.03783e-05;0.0026705683751431317
1.03785e-05;0.0026479990143107074
1.03788e-05;0.00263558286987638
1.03790e-05;0.0026306402633627037
1.03793e-05;0.0026256976568489934
1.03795e-05;0.002630980821958694
1.03798e-05;0.0026437909311418572
1.03800e-05;0.002656601040325107
1.03803e-05;0.002678890402519839
1.03805e-05;0.0027081572144269316
1.03808e-05;0.002737424026334223
1.03810e-05;0.0027752242357650435
1.03812e-05;0.0028193056734766592
1.03815e-05;0.0028633871111885738
1.03818e-05;0.002917849400053344
1.03820e-05;0.002979952783296007
1.03823e-05;0.003042056166539091
1.03825e-05;0.003104159549782175
1.03827e-05;0.0031662629330248384
1.03830e-05;0.0032283663162679223
1.03833e-05;0.003291395841550949
1.03835e-05;0.003365683431476935
1.03838e-05;0.0034399710214024176
1.03840e-05;0.003514258611328404
1.03843e-05;0.0035885462012543896
1.03845e-05;0.0036628337911798724
1.03848e-05;0.0037371213811058586
1.03850e-05;0.0038065721266627873
1.03853e-05;0.003872462587635946
1.03855e-05;0.003938353048609552
1.03858e-05;0.004004243509583157
1.03860e-05;0.004070133970556316
1.03863e-05;0.0041360244315299215
1.03865e-05;0.004201914892503527
1.03868e-05;0.004267805353476687
1.03870e-05;0.004315584115752525
1.03873e-05;0.004350031293065793
1.03875e-05;0.004384478470378828
1.03878e-05;0.004418925647692096
1.03880e-05;0.004453372825005364
1.03883e-05;0.004487820002318399
1.03885e-05;0.004522267179631667
1.03888e-05;0.004556714356944935
1.03890e-05;0.004568618697288342
1.03893e-05;0.004563929798566004
1.03895e-05;0.004559240899843666
1.03897e-05;0.00455455200112136
1.03900e-05;0.004549863102399022
1.03903e-05;0.004545174203676684
1.03905e-05;0.004540485304954378
1.03908e-05;0.00453579640623204
1.03910e-05;0.004531107507509703
1.03912e-05;0.004508373502867698
1.03915e-05;0.0044723569306008275
1.03918e-05;0.004436340358333956
1.03920e-05;0.004400323786067085
1.03923e-05;0.004364307213800458
1.03925e-05;0.004328290641533586
1.03928e-05;0.004292274069266715
1.03930e-05;0.004256257497000087
1.03933e-05;0.004220240924733216
1.03935e-05;0.004177042574299834
1.03938e-05;0.004128557890021595
1.03940e-05;0.004080073205743027
1.03943e-05;0.004031588521464459
1.03945e-05;0.0039831038371862205
1.03948e-05;0.003934619152907653
1.03950e-05;0.003886134468629085
1.03953e-05;0.003838179896273528
1.03955e-05;0.003796669296918625
1.03958e-05;0.0037551586975637223
1.03960e-05;0.0037136480982091005
1.03963e-05;0.0036721374988541978
1.03965e-05;0.003630626899499295
1.03968e-05;0.0035891163001446733
1.03970e-05;0.0035476057007897705
1.03973e-05;0.003521077917751923
1.03975e-05;0.003505578624757687
1.03978e-05;0.003490079331763346
1.03980e-05;0.0034745800387690046
1.03982e-05;0.0034590807457747686
1.03985e-05;0.003443581452780427
1.03988e-05;0.0034280821597860857
1.03990e-05;0.0034125828667918496
1.03993e-05;0.0033970835737975086
