Time(s);Current(A)
2.50000e-06;-0.0026456412037224398
2.50025e-06;-0.0026474766614165133
2.50050e-06;-0.0026493121191105834
2.50075e-06;-0.0026511475768046565
2.50100e-06;-0.0026529830344987296
2.50125e-06;-0.0026587671871683926
2.50150e-06;-0.0026646724707833857
2.50175e-06;-0.0026705777543983788
2.50200e-06;-0.002676483038013372
2.50225e-06;-0.002682388321628355
2.50250e-06;-0.002688293605243348
2.50275e-06;-0.002694198888858341
2.50300e-06;-0.0027014303396324982
2.50325e-06;-0.0027087024721718215
2.50350e-06;-0.002715974604711145
2.50375e-06;-0.002723246737250456
2.50400e-06;-0.0027305188697897796
2.50425e-06;-0.002737791002329103
2.50450e-06;-0.002745063134868426
2.50475e-06;-0.0027508949600719068
2.50500e-06;-0.0027566826021236824
2.50525e-06;-0.002762470244175458
2.50550e-06;-0.0027682578862272236
2.50575e-06;-0.0027740455282789993
2.50600e-06;-0.002779833170330775
2.50625e-06;-0.0027856208123825505
2.50650e-06;-0.0027921149573403256
2.50675e-06;-0.0027994050400135585
2.50700e-06;-0.002806695122686791
2.50725e-06;-0.0028139852053600113
2.50750e-06;-0.0028212752880332438
2.50775e-06;-0.0028285653707064763
2.50800e-06;-0.0028358554533796966
2.50825e-06;-0.002843145536052929
2.50850e-06;-0.0028544999410176756
2.50875e-06;-0.0028659790239341397
2.50900e-06;-0.002877458106850584
2.50925e-06;-0.0028889371897670483
2.50950e-06;-0.0029004162726835123
2.50975e-06;-0.0029118953555999573
2.51000e-06;-0.0029233744385164214
2.51025e-06;-0.0029381042025974
2.51050e-06;-0.0029529336852145227
2.51075e-06;-0.0029677631678316206
2.51100e-06;-0.0029825926504487435
2.51125e-06;-0.002997422133065866
2.51150e-06;-0.003012251615682964
2.51175e-06;-0.0030270810983000864
2.51200e-06;-0.003043016643989679
2.51225e-06;-0.0030589861194880745
2.51250e-06;-0.0030749555949864974
2.51275e-06;-0.0030909250704849204
2.51300e-06;-0.0031068945459833434
2.51325e-06;-0.0031228640214817395
2.51350e-06;-0.0031388334969801625
2.51375e-06;-0.0031548029724785855
2.51400e-06;-0.0031678725585830673
2.51425e-06;-0.0031808531871089056
2.51450e-06;-0.003193833815634744
2.51475e-06;-0.003206814444160582
2.51500e-06;-0.0032197950726863983
2.51525e-06;-0.0032327757012122365
2.51550e-06;-0.0032457563297380748
2.51575e-06;-0.003258736958263891
2.51600e-06;-0.003264896100184746
2.51625e-06;-0.003270845984837839
2.51650e-06;-0.0032767958694909214
2.51675e-06;-0.003282745754144014
2.51700e-06;-0.0032886956387971067
2.51725e-06;-0.0032946455234501995
2.51750e-06;-0.003300595408103282
2.51775e-06;-0.0033065452927563744
2.51800e-06;-0.0033124951774094673
2.51825e-06;-0.0033184450620625497
2.51850e-06;-0.0033243949467156426
2.51875e-06;-0.003330344831368735
2.51900e-06;-0.003333505593726662
2.51925e-06;-0.0033335241642988
2.51950e-06;-0.0033335427348709376
2.51975e-06;-0.0033335613054430754
2.52000e-06;-0.0033335798760152136
2.52025e-06;-0.0033335984465873514
2.52050e-06;-0.003333617017159489
2.52075e-06;-0.003333635587731627
2.52100e-06;-0.0033336541583037648
2.52125e-06;-0.0033336727288759025
2.52150e-06;-0.0033336912994480403
2.52175e-06;-0.003333709870020178
2.52200e-06;-0.003333728440592316
2.52225e-06;-0.0033315008362731495
2.52250e-06;-0.003329204327850234
2.52275e-06;-0.0033269078194273142
2.52300e-06;-0.0033246113110043944
2.52325e-06;-0.003322314802581475
2.52350e-06;-0.003320018294158559
2.52375e-06;-0.0033177217857356394
2.52400e-06;-0.0033152815720915297
2.52425e-06;-0.0033128369501177297
2.52450e-06;-0.0033103923281439258
2.52475e-06;-0.0033079477061701214
2.52500e-06;-0.003305503084196322
2.52525e-06;-0.0033030584622225174
2.52550e-06;-0.0033006138402487135
2.52575e-06;-0.003297530876218572
2.52600e-06;-0.003294428330281675
2.52625e-06;-0.0032913257843447726
2.52650e-06;-0.00328822323840787
2.52675e-06;-0.0032851206924709732
2.52700e-06;-0.0032820181465340707
2.52725e-06;-0.0032789156005971682
2.52750e-06;-0.003275813054660266
2.52775e-06;-0.003272710508723369
2.52800e-06;-0.003266552026095642
2.52825e-06;-0.0032602997989515333
2.52850e-06;-0.0032540475718074347
2.52875e-06;-0.003247795344663326
2.52900e-06;-0.003241543117519217
2.52925e-06;-0.0032352908903751187
2.52950e-06;-0.00322903866323101
2.52975e-06;-0.003222786436086901
2.53000e-06;-0.0032165342089427924
2.53025e-06;-0.0032076131742241835
2.53050e-06;-0.00319861027063826
2.53075e-06;-0.0031896073670523357
2.53100e-06;-0.003180604463466427
2.53125e-06;-0.003171601559880503
2.53150e-06;-0.0031625986562945794
2.53175e-06;-0.0031535957527086553
2.53200e-06;-0.003144592849122747
2.53225e-06;-0.0031353273992061953
2.53250e-06;-0.0031257661677367874
2.53275e-06;-0.003116204936267396
2.53300e-06;-0.0031066437047979883
2.53325e-06;-0.0030970824733285805
2.53350e-06;-0.003087521241859189
2.53375e-06;-0.0030779600103897813
2.53400e-06;-0.0030683987789203735
2.53425e-06;-0.0030588375474509657
2.53450e-06;-0.0030517323500420758
2.53475e-06;-0.003044702494418233
2.53500e-06;-0.0030376726387943906
2.53525e-06;-0.00303064278317056
2.53550e-06;-0.0030236129275467176
2.53575e-06;-0.003016583071922875
2.53600e-06;-0.0030095532162990324
2.53625e-06;-0.0030025233606752015
2.53650e-06;-0.002995493505051359
2.53675e-06;-0.0029929196694744456
2.53700e-06;-0.0029904825276470385
2.53725e-06;-0.0029880453858196266
2.53750e-06;-0.002985608243992215
2.53775e-06;-0.0029831711021648076
2.53800e-06;-0.002980733960337396
2.53825e-06;-0.0029782968185099847
2.53850e-06;-0.002975859676682573
2.53875e-06;-0.0029734225348551657
2.53900e-06;-0.002975163648806792
2.53925e-06;-0.0029770329357564898
2.53950e-06;-0.0029789022227061845
2.53975e-06;-0.0029807715096558823
2.54000e-06;-0.00298264079660558
2.54025e-06;-0.002984510083555278
2.54050e-06;-0.0029863793705049726
2.54075e-06;-0.0029882486574546703
2.54100e-06;-0.002990117944404368
2.54125e-06;-0.002993143813574145
2.54150e-06;-0.002997472674426424
2.54175e-06;-0.003001801535278704
2.54200e-06;-0.003006130396130976
2.54225e-06;-0.0030104592569832555
2.54250e-06;-0.003014788117835535
2.54275e-06;-0.0030191169786878145
2.54300e-06;-0.003023445839540087
2.54325e-06;-0.0030277747003923665
2.54350e-06;-0.0030321035612446458
2.54375e-06;-0.0030359411745107677
2.54400e-06;-0.003039763718169085
2.54425e-06;-0.0030435862618274027
2.54450e-06;-0.0030474088054857134
2.54475e-06;-0.003051231349144031
2.54500e-06;-0.0030550538928023484
2.54525e-06;-0.0030588764364606657
2.54550e-06;-0.003062698980118977
2.54575e-06;-0.003066521523777294
2.54600e-06;-0.003070344067435612
2.54625e-06;-0.003070122172381586
2.54650e-06;-0.0030697762093281804
2.54675e-06;-0.003069430246274775
2.54700e-06;-0.0030690842832213697
2.54725e-06;-0.0030687383201679647
2.54750e-06;-0.0030683923571145594
2.54775e-06;-0.003068046394061154
2.54800e-06;-0.0030677004310077495
2.54825e-06;-0.003067354467954344
2.54850e-06;-0.0030670085049009387
2.54875e-06;-0.003061891662431156
2.54900e-06;-0.0030566284675236995
2.54925e-06;-0.003051365272616243
2.54950e-06;-0.003046102077708786
2.54975e-06;-0.0030408388828013382
2.55000e-06;-0.0030355756878938816
2.55025e-06;-0.003030312492986425
2.55050e-06;-0.0030250492980789774
2.55075e-06;-0.0030168984406620486
2.55100e-06;-0.003008659000740595
2.55125e-06;-0.0030004195608191414
2.55150e-06;-0.0029921801208977017
2.55175e-06;-0.002983940680976248
2.55200e-06;-0.0029757012410547945
2.55225e-06;-0.0029674618011333548
2.55250e-06;-0.002959222361211901
2.55275e-06;-0.0029501697817172234
2.55300e-06;-0.002941092258192676
2.55325e-06;-0.002932014734668114
2.55350e-06;-0.002923114317421084
2.55375e-06;-0.0029142193331211457
2.55400e-06;-0.002905324348821223
2.55425e-06;-0.002896756845474086
2.55450e-06;-0.0028887464445900347
2.55475e-06;-0.002880752825321909
2.55500e-06;-0.0028727592060537694
2.55525e-06;-0.0028674533552678675
2.55550e-06;-0.00286222995499792
2.55575e-06;-0.0028570065547279815
2.55600e-06;-0.002851783154458034
2.55625e-06;-0.0028465597541880864
2.55650e-06;-0.002841336353918148
2.55675e-06;-0.0028361129536482003
2.55700e-06;-0.002830889553378253
2.55725e-06;-0.0028256661531083143
2.55750e-06;-0.0028249505794833546
2.55775e-06;-0.0028243732888374507
2.55800e-06;-0.0028237959981915464
2.55825e-06;-0.0028232187075456433
2.55850e-06;-0.0028226414168997394
2.55875e-06;-0.002822064126253835
2.55900e-06;-0.002821486835607932
2.55925e-06;-0.002820909544962028
2.55950e-06;-0.0028203322543161238
2.55975e-06;-0.0028234598633435502
2.56000e-06;-0.0028267011246039223
2.56025e-06;-0.0028299423858643
2.56050e-06;-0.0028331836471246776
2.56075e-06;-0.0028364249083850496
2.56100e-06;-0.0028396661696454273
2.56125e-06;-0.002842907430905805
2.56150e-06;-0.002846148692166177
2.56175e-06;-0.0028493899534265546
2.56200e-06;-0.002854264678735847
2.56225e-06;-0.0028591895125104137
2.56250e-06;-0.0028641143462849717
2.56275e-06;-0.0028690391800595383
2.56300e-06;-0.002873964013834105
2.56325e-06;-0.0028788888476086634
2.56350e-06;-0.00288381368138323
2.56375e-06;-0.0028887385151577967
2.56400e-06;-0.0028936633489323633
2.56425e-06;-0.002898221037327389
2.56450e-06;-0.002902767463098359
2.56475e-06;-0.002907313888869329
2.56500e-06;-0.0029118603146402913
2.56525e-06;-0.0029152122895918222
2.56550e-06;-0.0029185276233344706
2.56575e-06;-0.0029218429570771138
2.56600e-06;-0.002925158290819762
2.56625e-06;-0.0029258404676141287
2.56650e-06;-0.002926441869166687
2.56675e-06;-0.0029236473783280756
2.56700e-06;-0.0029207487144247975
2.56725e-06;-0.0029178500505215197
2.56750e-06;-0.0029111704085539158
2.56775e-06;-0.0029043747805575903
2.56800e-06;-0.002897579152561265
2.56825e-06;-0.002886339452163904
2.56850e-06;-0.0028749634245252096
2.56875e-06;-0.002863587396886496
2.56900e-06;-0.002846978275328309
2.56925e-06;-0.002830208622349093
2.56950e-06;-0.0028134389693698484
2.56975e-06;-0.0027966693163906037
2.57000e-06;-0.002777346387573011
2.57025e-06;-0.002755146968763336
2.57050e-06;-0.0027329475499536615
2.57075e-06;-0.002710748131143987
2.57100e-06;-0.0026885487123343497
2.57125e-06;-0.002663381922522856
2.57150e-06;-0.002638124105053319
2.57175e-06;-0.0026117623100605095
2.57200e-06;-0.0025853666492354358
2.57225e-06;-0.0025582979167854967
2.57250e-06;-0.002530856809412106
2.57275e-06;-0.00250320273109869
2.57300e-06;-0.0024754977222615003
2.57325e-06;-0.0024479040658592095
2.57350e-06;-0.002420583818949627
2.57375e-06;-0.0023936940618416304
2.57400e-06;-0.002367354674647361
2.57425e-06;-0.0023416591000983366
2.57450e-06;-0.0023167370525323705
2.57475e-06;-0.002292757785918154
2.57500e-06;-0.002269897153907582
2.57525e-06;-0.0022523951894893274
2.57550e-06;-0.0022350565824947283
2.57575e-06;-0.002217717975500129
2.57600e-06;-0.0022003793685055595
2.57625e-06;-0.0021830407615109604
2.57650e-06;-0.0021657021545163613
2.57675e-06;-0.0021483635475217622
2.57700e-06;-0.0021310249405271926
2.57725e-06;-0.0021199082080845862
2.57750e-06;-0.002108982339092824
2.57775e-06;-0.0020980564701010796
2.57800e-06;-0.0020871306011093172
2.57825e-06;-0.002076204732117555
2.57850e-06;-0.002065278863125811
2.57875e-06;-0.0020543529941340487
2.57900e-06;-0.0020434271251422863
2.57925e-06;-0.0020375241279806736
2.57950e-06;-0.0020317752134259683
2.57975e-06;-0.002026026298871253
2.58000e-06;-0.002020277384316538
2.58025e-06;-0.0020145284697618325
2.58050e-06;-0.0020087795552071173
2.58075e-06;-0.002003030640652402
2.58100e-06;-0.001997281726097687
2.58125e-06;-0.0019915328115429815
2.58150e-06;-0.0019857838969882663
2.58175e-06;-0.001980034982433551
2.58200e-06;-0.0019742860678788458
2.58225e-06;-0.0019685371533241305
2.58250e-06;-0.0019627882387694153
2.58275e-06;-0.00195703932421471
2.58300e-06;-0.0019544660411784424
2.58325e-06;-0.0019519901744409773
2.58350e-06;-0.0019495143077035123
2.58375e-06;-0.0019470384409660515
2.58400e-06;-0.0019445625742285865
2.58425e-06;-0.0019420867074911214
2.58450e-06;-0.0019396108407536605
2.58475e-06;-0.0019371349740161955
2.58500e-06;-0.0019346591072787304
2.58525e-06;-0.0019321832405412654
2.58550e-06;-0.0019297073738038044
2.58575e-06;-0.0019272315070663394
2.58600e-06;-0.0019247556403288743
2.58625e-06;-0.0019222797735914134
2.58650e-06;-0.0019198039068539484
2.58675e-06;-0.0019185773649277294
2.58700e-06;-0.0019173891475358403
2.58725e-06;-0.0019162009301439493
2.58750e-06;-0.0019150127127520586
2.58775e-06;-0.0019138244953601675
2.58800e-06;-0.0019126362779682787
2.58825e-06;-0.0019114480605763877
2.58850e-06;-0.0019102598431844967
2.58875e-06;-0.0019090716257926079
2.58900e-06;-0.0019078834084007169
2.58925e-06;-0.001906695191008826
2.58950e-06;-0.001905506973616935
2.58975e-06;-0.0019043187562250462
2.59000e-06;-0.0019031305388331552
2.59025e-06;-0.0019019423214412644
2.59050e-06;-0.0019010297709860754
2.59075e-06;-0.0019004277836015754
2.59100e-06;-0.0018998257962170755
2.59125e-06;-0.0018992238088325764
2.59150e-06;-0.0018986218214480765
2.59175e-06;-0.0018980198340635764
2.59200e-06;-0.0018974178466790764
2.59225e-06;-0.0018968158592945774
2.59250e-06;-0.0018962138719100774
2.59275e-06;-0.0018956118845255775
2.59300e-06;-0.0018950098971410785
2.59325e-06;-0.0018944079097565783
2.59350e-06;-0.0018938059223720784
2.59375e-06;-0.0018932039349875784
2.59400e-06;-0.0018926019476030794
2.59425e-06;-0.0018919999602185795
2.59450e-06;-0.0018915282083258435
2.59475e-06;-0.0018910604515627438
2.59500e-06;-0.001890598794122976
2.59525e-06;-0.0018901420677054019
2.59550e-06;-0.0018896911343348013
2.59575e-06;-0.0018893037394010906
2.59600e-06;-0.001889410526253577
2.59625e-06;-0.0018907379330572454
2.59650e-06;-0.001893657873979825
2.59675e-06;-0.0018981453943780642
2.59700e-06;-0.001904112766365402
2.59725e-06;-0.0019114711511916962
2.59750e-06;-0.0019201310462638296
2.59775e-06;-0.0019300395241393052
2.59800e-06;-0.00194225225898657
2.59825e-06;-0.0019545345411005784
2.59850e-06;-0.0019704634279146837
2.59875e-06;-0.0019865041786938952
2.59900e-06;-0.002007495810462657
2.59925e-06;-0.002028639316433298
2.59950e-06;-0.0020497828224039388
2.59975e-06;-0.002070926328374544
2.60000e-06;-0.0020949270663789756
2.60025e-06;-0.002122146727786971
2.60050e-06;-0.0021493663891949664
2.60075e-06;-0.0021765860506029154
2.60100e-06;-0.002203805712010911
2.60125e-06;-0.002234675579982748
2.60150e-06;-0.002265657422411141
2.60175e-06;-0.002296639264839587
2.60200e-06;-0.0023291594168528213
2.60225e-06;-0.0023617267583543352
2.60250e-06;-0.002394294099855794
2.60275e-06;-0.002427436660257802
2.60300e-06;-0.0024605968661882732
2.60325e-06;-0.0024937570721186883
2.60350e-06;-0.002526130239438354
2.60375e-06;-0.002558479263406335
2.60400e-06;-0.0025894491625984405
2.60425e-06;-0.002620376755486915
2.60450e-06;-0.002649414235844792
2.60475e-06;-0.0026783937347378147
2.60500e-06;-0.002703842704324807
2.60525e-06;-0.0027291833706983774
2.60550e-06;-0.0027545240370719483
2.60575e-06;-0.0027756126091291675
2.60600e-06;-0.0027965707431023487
2.60625e-06;-0.0028166771931674287
2.60650e-06;-0.0028367575168089278
2.60675e-06;-0.0028568378404503925
2.60700e-06;-0.0028762495577741515
2.60725e-06;-0.0028956407647986065
2.60750e-06;-0.0029150319718230285
2.60775e-06;-0.002934423178847484
2.60800e-06;-0.002953814385871939
2.60825e-06;-0.0029735802720696875
2.60850e-06;-0.0029933576519997067
2.60875e-06;-0.0030131350319297263
2.60900e-06;-0.0030329124118597455
2.60925e-06;-0.0030526897917897314
2.60950e-06;-0.003073680440081078
2.60975e-06;-0.0030947083068320336
2.61000e-06;-0.0031157361735829536
2.61025e-06;-0.003136764040333909
2.61050e-06;-0.0031577919070848648
2.61075e-06;-0.0031788197738358203
2.61100e-06;-0.0031998476405867404
2.61125e-06;-0.003221604973499676
2.61150e-06;-0.0032433846836605108
2.61175e-06;-0.003265164393821308
2.61200e-06;-0.0032869441039821428
2.61225e-06;-0.0033087238141429774
2.61250e-06;-0.0033305035243037747
2.61275e-06;-0.0033522832344646094
2.61300e-06;-0.003372556078289547
2.61325e-06;-0.0033927826971854747
2.61350e-06;-0.0034130093160813684
2.61375e-06;-0.0034332359349772967
2.61400e-06;-0.0034534625538732247
2.61425e-06;-0.0034736891727691183
2.61450e-06;-0.0034896604217862816
2.61475e-06;-0.003505501132237487
2.61500e-06;-0.0035213418426886926
2.61525e-06;-0.0035371825531398714
2.61550e-06;-0.0035530232635910767
2.61575e-06;-0.0035688639740422824
2.61600e-06;-0.003576635753040368
2.61625e-06;-0.003584160007905249
2.61650e-06;-0.0035916842627701294
2.61675e-06;-0.003599208517634998
2.61700e-06;-0.003606732772499879
2.61725e-06;-0.0036142570273647594
2.61750e-06;-0.0036217812822296404
2.61775e-06;-0.003629305537094509
2.61800e-06;-0.00363682979195939
2.61825e-06;-0.0036443540468242704
2.61850e-06;-0.003651878301689139
2.61875e-06;-0.00365940255655402
2.61900e-06;-0.0036669268114189004
2.61925e-06;-0.003674451066283769
2.61950e-06;-0.003674940752102504
2.61975e-06;-0.0036752146440932423
2.62000e-06;-0.003675488536083981
2.62025e-06;-0.0036757624280747184
2.62050e-06;-0.003676036320065457
2.62075e-06;-0.0036763102120561954
2.62100e-06;-0.003676584104046933
2.62125e-06;-0.0036768579960376716
2.62150e-06;-0.0036771318880284096
2.62175e-06;-0.003677405780019148
2.62200e-06;-0.0036776796720098858
2.62225e-06;-0.0036779535640006243
2.62250e-06;-0.0036782274559913623
2.62275e-06;-0.0036785013479821004
2.62300e-06;-0.0036767582133465045
2.62325e-06;-0.003674953204004148
2.62350e-06;-0.0036731481946617943
2.62375e-06;-0.003671343185319438
2.62400e-06;-0.003669538175977081
2.62425e-06;-0.0036677331666347245
2.62450e-06;-0.0036659275244531695
2.62475e-06;-0.0036640834089745537
2.62500e-06;-0.003662239293495938
2.62525e-06;-0.003660395178017325
2.62550e-06;-0.003658551062538709
2.62575e-06;-0.003656706947060093
2.62600e-06;-0.0036548628315814773
2.62625e-06;-0.0036532448485379486
2.62650e-06;-0.0036550404932454887
2.62675e-06;-0.003656836137953029
2.62700e-06;-0.0036586317826605656
2.62725e-06;-0.0036604274273681057
2.62750e-06;-0.003662223072075646
2.62775e-06;-0.003664018716783183
2.62800e-06;-0.0036658143614907227
2.62825e-06;-0.003667610006198263
2.62850e-06;-0.0036722844107160567
2.62875e-06;-0.0036792012339103546
2.62900e-06;-0.0036861180571046643
2.62925e-06;-0.003693034880298974
2.62950e-06;-0.0036999517034932714
2.62975e-06;-0.003706868526687581
2.63000e-06;-0.0037137853498818907
2.63025e-06;-0.0037207021730762
2.63050e-06;-0.0037278639429421763
2.63075e-06;-0.003738723354659992
2.63100e-06;-0.003749582766377808
2.63125e-06;-0.0037604421780956052
2.63150e-06;-0.003771301589813421
2.63175e-06;-0.003782161001531237
2.63200e-06;-0.003793020413249034
2.63225e-06;-0.00380387982496685
2.63250e-06;-0.003814739236684666
2.63275e-06;-0.003825598648402482
2.63300e-06;-0.0038364580601202795
2.63325e-06;-0.0038472314185319947
2.63350e-06;-0.0038567057419171356
2.63375e-06;-0.003866180065302261
2.63400e-06;-0.003875654388687402
2.63425e-06;-0.003885128712072543
2.63450e-06;-0.003894603035457684
2.63475e-06;-0.0039040773588428094
2.63500e-06;-0.003913551682227951
2.63525e-06;-0.003923026005613091
2.63550e-06;-0.003932500328998217
2.63575e-06;-0.003941974652383357
2.63600e-06;-0.0039510336017250965
2.63625e-06;-0.003953822188474064
2.63650e-06;-0.003956610775223034
2.63675e-06;-0.003959399361972006
2.63700e-06;-0.0039621879487209775
2.63725e-06;-0.003964976535469944
2.63750e-06;-0.003967765122218915
2.63775e-06;-0.003970553708967887
2.63800e-06;-0.003973342295716853
2.63825e-06;-0.003976130882465825
2.63850e-06;-0.003978919469214796
2.63875e-06;-0.003981708055963768
2.63900e-06;-0.003984496642712734
2.63925e-06;-0.003987285229461706
2.63950e-06;-0.003986950323721519
2.63975e-06;-0.003984182364042909
2.64000e-06;-0.003981414404364294
2.64025e-06;-0.003978646444685679
2.64050e-06;-0.003975878485007068
2.64075e-06;-0.003973110525328453
2.64100e-06;-0.003970342565649838
2.64125e-06;-0.003967574605971223
2.64150e-06;-0.003964806646292612
2.64175e-06;-0.003962038686613997
2.64200e-06;-0.003959270726935382
2.64225e-06;-0.003956502767256772
2.64250e-06;-0.003953734807578157
2.64275e-06;-0.003950870470589121
2.64300e-06;-0.003946551250485119
2.64325e-06;-0.003942232030381125
2.64350e-06;-0.003937912810277123
2.64375e-06;-0.003933593590173122
2.64400e-06;-0.003929274370069128
2.64425e-06;-0.0039251756958673355
