Time(s);Current(A)
6.75000e-06;-1.0429767284641398e-05
6.75025e-06;3.881888818912004e-06
6.75050e-06;2.1038914133659954e-05
6.75075e-06;4.0907522308955546e-05
6.75100e-06;6.328043081177902e-05
6.75125e-06;8.795293132804583e-05
6.75150e-06;0.00011475610974931464
6.75175e-06;0.00014353175931628004
6.75200e-06;0.0001741224738570996
6.75225e-06;0.00020637082885755078
6.75250e-06;0.00024011295957240012
6.75275e-06;0.000275553477389335
6.75300e-06;0.0003113178649652445
6.75325e-06;0.00034852057166578237
6.75350e-06;0.0003860495203247207
6.75375e-06;0.0004235784689835319
6.75400e-06;0.0004611074176423431
6.75425e-06;0.0004986363663012814
6.75450e-06;0.0005361653149600926
6.75475e-06;0.0005736942636189039
6.75500e-06;0.0006090366475585612
6.75525e-06;0.0006438830712180349
6.75550e-06;0.0006787294948776266
6.75575e-06;0.0007104000796529386
6.75600e-06;0.0007413503153215084
6.75625e-06;0.000768844354272158
6.75650e-06;0.0007955544528814863
6.75675e-06;0.0008191424371827996
6.75700e-06;0.0008420222582760093
6.75725e-06;0.0008649020793691414
6.75750e-06;0.0008839295051595639
6.75775e-06;0.0009020831241808068
6.75800e-06;0.0009202367432019882
6.75825e-06;0.0009383903622231696
6.75850e-06;0.0009565439812444126
6.75875e-06;0.0009746976002655939
6.75900e-06;0.0009928512192867753
6.75925e-06;0.0010093354212320214
6.75950e-06;0.0010221912273095384
6.75975e-06;0.0010350470333870992
6.76000e-06;0.0010479028394646164
6.76025e-06;0.0010607586455421334
6.76050e-06;0.0010736144516196942
6.76075e-06;0.0010864702576972114
6.76100e-06;0.0010993260637747284
6.76125e-06;0.0011093963937067837
6.76150e-06;0.0011188349172638209
6.76175e-06;0.001128273440820858
6.76200e-06;0.0011377119643779271
6.76225e-06;0.0011471504879349641
6.76250e-06;0.0011565890114920013
6.76275e-06;0.0011660275350490704
6.76300e-06;0.0011754660586061074
6.76325e-06;0.0011849045821631446
6.76350e-06;0.0011943431057202137
6.76375e-06;0.001201250694068859
6.76400e-06;0.001207584211445214
6.76425e-06;0.0012139177288215475
6.76450e-06;0.001220251246197881
6.76475e-06;0.001226584763574236
6.76500e-06;0.0012329182809505694
6.76525e-06;0.0012392517983269029
6.76550e-06;0.0012455853157032578
6.76575e-06;0.0012519188330795913
6.76600e-06;0.0012582523504559248
6.76625e-06;0.0012623118332038513
6.76650e-06;0.0012658555156002632
6.76675e-06;0.001269399197996675
6.76700e-06;0.0012663044870396415
6.76725e-06;0.0012617040445593456
6.76750e-06;0.0012492880284554807
6.76775e-06;0.0012350992708235048
6.76800e-06;0.0012138433986692244
6.76825e-06;0.0011909845517364974
6.76850e-06;0.0011613220573742868
6.76875e-06;0.0011301163482819677
6.76900e-06;0.0010924636900498579
6.76925e-06;0.0010473706364339125
6.76950e-06;0.0010009216229635248
6.76975e-06;0.0009659854283195187
6.77000e-06;0.0009223686935644041
6.77025e-06;0.0008451041908045173
6.77050e-06;0.0007963548074938231
6.77075e-06;0.0006955289716735962
6.77100e-06;0.0006153505799510092
6.77125e-06;0.000537383043122575
6.77150e-06;0.0004548417308739664
6.77175e-06;0.0003686882317595416
6.77200e-06;0.00027938195397156053
6.77225e-06;0.00018756795835654904
6.77250e-06;9.13193891832175e-05
6.77275e-06;-1.1401620940570508e-05
6.77300e-06;-0.0001137139097822309
6.77325e-06;-0.00021249955333636008
6.77350e-06;-0.0003113783912173948
6.77375e-06;-0.0004104720252544608
6.77400e-06;-0.000509270550591357
6.77425e-06;-0.0006071450609865846
6.77450e-06;-0.0007049088729231866
6.77475e-06;-0.0008036843815080436
6.77500e-06;-0.000898865614964247
6.77525e-06;-0.0009866503029521178
6.77550e-06;-0.00107356778666589
6.77575e-06;-0.0011552904405101056
6.77600e-06;-0.0012322148284233825
6.77625e-06;-0.0013038490082530106
6.77650e-06;-0.001370479566998052
6.77675e-06;-0.0014322856924286844
6.77700e-06;-0.001485950938856931
6.77725e-06;-0.001530021913945689
6.77750e-06;-0.001566010179582703
6.77775e-06;-0.0015941160160586338
6.77800e-06;-0.0016142958492702927
6.77825e-06;-0.0016264422859063865
6.77850e-06;-0.0016310590797513932
6.77875e-06;-0.0016285827260534504
6.77900e-06;-0.001617260318862805
6.77925e-06;-0.0015965058125687582
6.77950e-06;-0.0015675903873842007
6.77975e-06;-0.001530964214703202
6.78000e-06;-0.0014869241691206248
6.78025e-06;-0.0014357272478487868
6.78050e-06;-0.0013780136421265674
6.78075e-06;-0.0013143808051027433
6.78100e-06;-0.0012440551853082965
6.78125e-06;-0.0011645606367972595
6.78150e-06;-0.0010840134577018124
6.78175e-06;-0.0009966331680610861
6.78200e-06;-0.000904449895937892
6.78225e-06;-0.0008068294810225351
6.78250e-06;-0.0007085905781572245
6.78275e-06;-0.00060545900155648
6.78300e-06;-0.0005017152546797634
6.78325e-06;-0.00039401317450241417
6.78350e-06;-0.0002858158285219711
6.78375e-06;-0.00017645748620477672
6.78400e-06;-6.695388027753069e-05
6.78425e-06;4.2004025894164674e-05
6.78450e-06;0.00014963592579671757
6.78475e-06;0.00025518005037239303
6.78500e-06;0.00035841316614234427
6.78525e-06;0.0004588252176205372
6.78550e-06;0.0005554498285046383
6.78575e-06;0.0006475224853287957
6.78600e-06;0.0007343164615658032
6.78625e-06;0.0008151148965638426
6.78650e-06;0.0008892008272934003
6.78675e-06;0.000956492074543362
6.78700e-06;0.001017919712708708
6.78725e-06;0.001073986267790582
6.78750e-06;0.0011244003971615621
6.78775e-06;0.0011688773838444482
6.78800e-06;0.0012071484244647267
6.78825e-06;0.0012389508725155038
6.78850e-06;0.0012640221727068196
6.78875e-06;0.0012799494454525913
6.78900e-06;0.001294826683297854
6.78925e-06;0.0013001008865237223
6.78950e-06;0.0013041735601425296
6.78975e-06;0.001298805283752318
6.79000e-06;0.0012922557577463346
6.79025e-06;0.0012763361581807663
6.79050e-06;0.0012592441770454576
6.79075e-06;0.0012335411729102537
6.79100e-06;0.0012067607594464513
6.79125e-06;0.0011731553060404009
6.79150e-06;0.0011386959051183409
6.79175e-06;0.0010981753261344962
6.79200e-06;0.0010568963738674753
6.79225e-06;0.001010262705842332
6.79250e-06;0.0009629590569437936
6.79275e-06;0.000910780168881267
6.79300e-06;0.0008579912919528779
6.79325e-06;0.0008052024150243099
6.79350e-06;0.0007495223110848592
6.79375e-06;0.0006934804574492576
6.79400e-06;0.0006374386038138459
6.79425e-06;0.0005815403329321448
6.79450e-06;0.0005258677819588459
6.79475e-06;0.0004701952309857357
6.79500e-06;0.0004145226800126255
6.79525e-06;0.00036137248441003373
6.79550e-06;0.0003103673513820565
6.79575e-06;0.00026175781897914367
6.79600e-06;0.00021592381825149334
6.79625e-06;0.00017324623578423095
6.79650e-06;0.0001341021379894679
6.79675e-06;9.887401001137559e-05
6.79700e-06;6.790533140466793e-05
6.79725e-06;4.137319029429539e-05
6.79750e-06;1.9333687768955644e-05
6.79775e-06;1.8394290424031426e-06
6.79800e-06;-1.1055505534621975e-05
6.79825e-06;-1.9296471592475733e-05
6.79850e-06;-2.283122159455608e-05
6.79875e-06;-2.160413650408398e-05
6.79900e-06;-1.5584029320550855e-05
6.79925e-06;-4.843961516075406e-06
6.79950e-06;1.0467229895842587e-05
6.79975e-06;3.019852435360732e-05
6.80000e-06;5.4199822644381774e-05
6.80025e-06;8.2321392876163e-05
6.80050e-06;0.00011441200099828166
6.80075e-06;0.00015032252843902592
6.80100e-06;0.0001898885733605009
6.80125e-06;0.00023288043001654565
6.80150e-06;0.0002790209145034075
6.80175e-06;0.00032803154158054945
6.80200e-06;0.0003796344116918794
6.80225e-06;0.0004344428740158082
6.80250e-06;0.0004896167807462962
6.80275e-06;0.0005483986350305859
6.80300e-06;0.0006076319149295493
6.80325e-06;0.000666865194828312
6.80350e-06;0.0007280464130585804
6.80375e-06;0.0007894713569100956
6.80400e-06;0.0008508963007614026
6.80425e-06;0.0009123212446127097
6.80450e-06;0.0009712985711638445
6.80475e-06;0.0010299696523696745
6.80500e-06;0.0010886407335755045
6.80525e-06;0.0011473118147815333
6.80550e-06;0.0012008048540062162
6.80575e-06;0.0012536500177427086
6.80600e-06;0.0013011217119157851
6.80625e-06;0.0013479210787438393
6.80650e-06;0.0013874775967196256
6.80675e-06;0.0014261278910197943
6.80700e-06;0.001453804596758286
6.80725e-06;0.0014801082894792055
6.80750e-06;0.0014939917380493088
6.80775e-06;0.0015063211683686776
6.80800e-06;0.0015094593200250196
6.80825e-06;0.001502377551681025
6.80850e-06;0.0014941609582664799
6.80875e-06;0.0014765777057773029
6.80900e-06;0.0014510082198000733
6.80925e-06;0.001417698390376747
6.80950e-06;0.0013769213934458828
6.80975e-06;0.0013290363141287332
6.81000e-06;0.0012744078298442562
6.81025e-06;0.0012134003593877183
6.81050e-06;0.0011463437239808822
6.81075e-06;0.001073372209653431
6.81100e-06;0.0009944906394762272
6.81125e-06;0.0009099385956498015
6.81150e-06;0.0008202096101301905
6.81175e-06;0.0007258511814003228
6.81200e-06;0.000627414070347473
6.81225e-06;0.0005254489343895884
6.81250e-06;0.00042048471532035324
6.81275e-06;0.00031292777034940954
6.81300e-06;0.00020310340648973155
6.81325e-06;9.148399309288233e-05
6.81350e-06;-2.129909892782867e-05
6.81375e-06;-0.00013447287939618083
6.81400e-06;-0.0002476803552023016
6.81425e-06;-0.0003592774805684639
6.81450e-06;-0.000470673119237751
6.81475e-06;-0.0005794830349989186
6.81500e-06;-0.0006856148272445133
6.81525e-06;-0.0007885375937369024
6.81550e-06;-0.0008875339861104942
6.81575e-06;-0.000981865466654594
6.81600e-06;-0.0010707924746715112
6.81625e-06;-0.0011535753783604042
6.81650e-06;-0.0012269254640551873
6.81675e-06;-0.0012991819513837465
6.81700e-06;-0.0013631573792110764
6.81725e-06;-0.0014260966826727518
6.81750e-06;-0.0014820575529991367
6.81775e-06;-0.0015371452832876422
6.81800e-06;-0.001583947504896461
6.81825e-06;-0.0016297130454590312
6.81850e-06;-0.0016663761874603936
6.81875e-06;-0.001701900439331325
6.81900e-06;-0.0017306250012297678
6.81925e-06;-0.0017584987873961724
6.81950e-06;-0.0017791342773574095
6.81975e-06;-0.0017988641132699948
6.82000e-06;-0.0018185939491826468
6.82025e-06;-0.0018287632246093365
6.82050e-06;-0.001837736284785113
6.82075e-06;-0.0018467093449609198
6.82100e-06;-0.001848380854718252
6.82125e-06;-0.0018491387960735599
6.82150e-06;-0.0018498967374288703
6.82175e-06;-0.0018420241266215197
6.82200e-06;-0.0018330716630026841
6.82225e-06;-0.0018241191993838184
6.82250e-06;-0.0018151667357649828
6.82275e-06;-0.0018062142721461472
6.82300e-06;-0.0017972618085272815
6.82325e-06;-0.0017854573552555696
6.82350e-06;-0.001769169418927961
6.82375e-06;-0.0017528814826004075
6.82400e-06;-0.0017365935462728542
6.82425e-06;-0.0017203056099452457
6.82450e-06;-0.0017040176736176922
6.82475e-06;-0.0016877297372901389
6.82500e-06;-0.001672149028010229
6.82525e-06;-0.0016566568068249125
6.82550e-06;-0.0016411645856395957
6.82575e-06;-0.0016256723644542267
6.82600e-06;-0.0016101801432689099
6.82625e-06;-0.0015946879220835933
6.82650e-06;-0.0015809890475191547
6.82675e-06;-0.0015675145560942961
6.82700e-06;-0.0015540400646694376
6.82725e-06;-0.0015405655732445333
6.82750e-06;-0.0015270910818196747
6.82775e-06;-0.0015136165903947706
6.82800e-06;-0.0014952846513456956
6.82825e-06;-0.0014763449495054143
6.82850e-06;-0.0014574052476650685
6.82875e-06;-0.0014384655458247872
6.82900e-06;-0.0014195258439845056
6.82925e-06;-0.00140058614214416
6.82950e-06;-0.0013816464403038785
6.82975e-06;-0.001362706738463597
6.83000e-06;-0.0013437670366232514
6.83025e-06;-0.0013248273347829698
6.83050e-06;-0.0012987367889636418
6.83075e-06;-0.001271751531099552
6.83100e-06;-0.0012447662732355536
6.83125e-06;-0.0012177810153715552
6.83150e-06;-0.0011907957575074653
6.83175e-06;-0.001163810499643467
6.83200e-06;-0.001136825241779377
6.83225e-06;-0.0011098399839153787
6.83250e-06;-0.0010828547260513803
6.83275e-06;-0.0010558694681872904
6.83300e-06;-0.0010268128866122803
6.83325e-06;-0.0009974971414647143
6.83350e-06;-0.000968181396317049
6.83375e-06;-0.0009388656511694829
6.83400e-06;-0.0009095499060219169
6.83425e-06;-0.0008802341608742516
6.83450e-06;-0.0008537756161301234
6.83475e-06;-0.0008276745636794864
6.83500e-06;-0.0008015735112287609
6.83525e-06;-0.0007754724587781239
6.83550e-06;-0.0007493714063274868
6.83575e-06;-0.0007232703538767615
6.83600e-06;-0.0007019832609166421
6.83625e-06;-0.000681298489521594
6.83650e-06;-0.0006606137181266161
6.83675e-06;-0.0006421356875734219
6.83700e-06;-0.0006239337639546462
6.83725e-06;-0.0006057318403359322
6.83750e-06;-0.0005867240549354235
6.83775e-06;-0.0005676154402838723
6.83800e-06;-0.0005485068256323861
6.83825e-06;-0.0005293982109808998
6.83850e-06;-0.0005097228240060612
6.83875e-06;-0.000489976522601395
6.83900e-06;-0.0004702302211967289
6.83925e-06;-0.0004504839197919958
6.83950e-06;-0.00042854663289737885
6.83975e-06;-0.0004063352103745161
6.84000e-06;-0.00038412378785157813
6.84025e-06;-0.0003609168271313318
6.84050e-06;-0.00033758530488815536
6.84075e-06;-0.00031425378264505793
6.84100e-06;-0.0002897626026985228
6.84125e-06;-0.00026512632663213613
6.84150e-06;-0.00023926694895540728
6.84175e-06;-0.00021325453707106464
6.84200e-06;-0.00018724212518663388
6.84225e-06;-0.00016079835681636365
6.84250e-06;-0.00013430061721634597
6.84275e-06;-0.00010780287761623853
6.84300e-06;-8.130513801622087e-05
6.84325e-06;-5.480739841620322e-05
6.84350e-06;-2.8170784302835218e-05
6.84375e-06;-1.6772605270304446e-06
6.84400e-06;2.4488505319155965e-05
6.84425e-06;5.016090233260539e-05
6.84450e-06;7.518900214447332e-05
6.84475e-06;9.951237495433235e-05
6.84500e-06;0.00012315155031983885
6.84525e-06;0.00014605789352557433
6.84550e-06;0.0001680890828429634
6.84575e-06;0.0001890821152687541
6.84600e-06;0.0002088727142320107
6.84625e-06;0.0002272966031617821
6.84650e-06;0.00024416599209546813
6.84675e-06;0.0002591628430779699
6.84700e-06;0.0002718936430903321
6.84725e-06;0.00028214398375288384
6.84750e-06;0.00028988286537840006
6.84775e-06;0.0002951171125371423
6.84800e-06;0.0002978558799896101
6.84825e-06;0.0002981082837077878
6.84850e-06;0.00029586874055435305
6.84875e-06;0.0002910500283785668
6.84900e-06;0.0002835177431843478
6.84925e-06;0.00027324961780758925
6.84950e-06;0.0002603383113974928
6.84975e-06;0.0002449002089821954
6.85000e-06;0.00022705302909536062
6.85025e-06;0.00020691458564849524
6.85050e-06;0.00018459340619854457
6.85075e-06;0.00016014691792009186
6.85100e-06;0.00013360295464503024
6.85125e-06;0.00010505964022702406
6.85150e-06;7.468704510728753e-05
6.85175e-06;4.267008296232263e-05
6.85200e-06;9.19453849830011e-06
6.85225e-06;-2.5553798930431724e-05
6.85250e-06;-6.139496193524743e-05
6.85275e-06;-9.818098371595681e-05
6.85300e-06;-0.0001360589098902628
6.85325e-06;-0.000174060530741383
6.85350e-06;-0.00021277572956403178
6.85375e-06;-0.0002515802111073219
6.85400e-06;-0.0002903846926507435
6.85425e-06;-0.0003284395091590791
6.85450e-06;-0.0003664005277412642
6.85475e-06;-0.00040436154632357796
6.85500e-06;-0.0004404430283831929
6.85525e-06;-0.0004762893432418381
6.85550e-06;-0.0005096810307565544
6.85575e-06;-0.0005427655958316688
6.85600e-06;-0.0005724909534754614
6.85625e-06;-0.0006017960078160723
6.85650e-06;-0.0006271962871352947
6.85675e-06;-0.0006521080018530405
6.85700e-06;-0.0006745857830806712
6.85725e-06;-0.0006967590310792515
6.85750e-06;-0.0007165218158669623
6.85775e-06;-0.0007359830040218783
6.85800e-06;-0.0007554441921767942
6.85825e-06;-0.0007711224231302228
6.85850e-06;-0.0007863273313012706
6.85875e-06;-0.0008015322394723183
6.85900e-06;-0.0008140414972588097
6.85925e-06;-0.0008262134758554076
6.85950e-06;-0.0008383854544520055
6.85975e-06;-0.000846398914860268
6.86000e-06;-0.0008538920623772184
6.86025e-06;-0.0008613852098941688
6.86050e-06;-0.0008688783574111444
6.86075e-06;-0.0008763715049280948
6.86100e-06;-0.0008838646524450452
6.86125e-06;-0.0008913577999620208
6.86150e-06;-0.0008988509474789712
6.86175e-06;-0.0009044732916095062
6.86200e-06;-0.0009071546309334657
6.86225e-06;-0.0009098359702574252
6.86250e-06;-0.0009125173095813937
6.86275e-06;-0.0009151986489053532
6.86300e-06;-0.0009178799882293126
6.86325e-06;-0.0009205613275532811
6.86350e-06;-0.0009232426668772406
6.86375e-06;-0.0009259240062012001
6.86400e-06;-0.0009268069017236338
6.86425e-06;-0.00092746477634881
6.86450e-06;-0.0009281226509739862
6.86475e-06;-0.0009287805255991646
6.86500e-06;-0.0009294384002243407
6.86525e-06;-0.0009296622523053631
6.86550e-06;-0.0009298317995800724
6.86575e-06;-0.0009300013468547812
6.86600e-06;-0.0009301708941294905
6.86625e-06;-0.0009303404414041992
6.86650e-06;-0.0009297717199216802
6.86675e-06;-0.0009291106264128534
6.86700e-06;-0.0009235682925203061
6.86725e-06;-0.0009174152188928044
6.86750e-06;-0.0009047494014423619
6.86775e-06;-0.0008912687109016161
6.86800e-06;-0.0008719709004358193
6.86825e-06;-0.000851945253190404
6.86850e-06;-0.0008264220508583855
6.86875e-06;-0.0008002109956298988
6.86900e-06;-0.000768684853371139
6.86925e-06;-0.0007324247595621661
6.86950e-06;-0.0006918300446785068
6.86975e-06;-0.0006472353122257178
6.87000e-06;-0.0005989828685118718
6.87025e-06;-0.0005474150845251203
6.87050e-06;-0.0004928204819725986
6.87075e-06;-0.00043516360736077877
6.87100e-06;-0.0003741398456270996
6.87125e-06;-0.0003097319433523095
6.87150e-06;-0.0002422825090609516
6.87175e-06;-0.00017221234451156214
6.87200e-06;-9.994696873082957e-05
6.87225e-06;-2.5911887804887552e-05
6.87250e-06;4.9501076884300385e-05
6.87275e-06;0.00012610308034079762
6.87300e-06;0.00020429319638563923
6.87325e-06;0.00028266572999366706
6.87350e-06;0.0003617613650571633
6.87375e-06;0.00044094747441747077
6.87400e-06;0.0005201335837780465
6.87425e-06;0.0005968963738704802
6.87450e-06;0.0006733559587836454
6.87475e-06;0.0007498155436965515
6.87500e-06;0.0008221295461082283
6.87525e-06;0.0008939248541396132
6.87550e-06;0.0009607991378527408
6.87575e-06;0.001027057704073963
6.87600e-06;0.0010865900693695044
6.87625e-06;0.0011452808538685536
6.87650e-06;0.0011953827577873787
6.87675e-06;0.001244410022837062
6.87700e-06;0.00128307603045683
6.87725e-06;0.0013204456398015806
6.87750e-06;0.0013467824244238892
6.87775e-06;0.0013717387844175556
6.87800e-06;0.0013854331352570212
6.87825e-06;0.0013977183859617984
6.87850e-06;0.0013984878173945497
6.87875e-06;0.0013978163920259107
6.87900e-06;0.0013854320901617483
6.87925e-06;0.0013715822757393197
6.87950e-06;0.0013465120985434325
6.87975e-06;0.0013200380319991084
6.88000e-06;0.0012831131553722452
6.88025e-06;0.0012448806756619837
6.88050e-06;0.0011969515733736482
6.88075e-06;0.001147809231778505
6.88100e-06;0.0010897598415994547
6.88125e-06;0.0010305960034401617
6.88150e-06;0.000963746571421944
6.88175e-06;0.0008959355195724383
6.88200e-06;0.0008218337172171627
6.88225e-06;0.0007469448175276225
6.88250e-06;0.000667150181104175
6.88275e-06;0.0005867417399685152
6.88300e-06;0.0005028346148256604
6.88325e-06;0.0004184897351015751
6.88350e-06;0.00033230576671651485
6.88375e-06;0.00024589169195815433
6.88400e-06;0.0001594776172000866
6.88425e-06;7.306354244201888e-05
6.88450e-06;-1.2280161316133165e-05
6.88475e-06;-9.617868444207409e-05
6.88500e-06;-0.00017815363721481028
6.88525e-06;-0.0002576653007508561
6.88550e-06;-0.00033414747349142133
6.88575e-06;-0.0004070291732616449
6.88600e-06;-0.00047573930689971363
6.88625e-06;-0.0005397067473092923
6.88650e-06;-0.0005984043353612234
6.88675e-06;-0.0006516119234495068
6.88700e-06;-0.0006994791216498565
6.88725e-06;-0.0007421050997405859
6.88750e-06;-0.000779383720517207
6.88775e-06;-0.0008111567655859748
6.88800e-06;-0.0008372629479420353
6.88825e-06;-0.0008575408254259271
6.88850e-06;-0.0008718565562813023
6.88875e-06;-0.0008802685867643338
6.88900e-06;-0.000883067118112167
6.88925e-06;-0.0008805105532250156
6.88950e-06;-0.0008727287921759956
6.88975e-06;-0.000859819075958284
6.89000e-06;-0.0008418767163553151
6.89025e-06;-0.0008189969023116819
6.89050e-06;-0.0007912922379250084
6.89075e-06;-0.0007589956706081706
6.89100e-06;-0.0007224852517106584
6.89125e-06;-0.0006821191756257545
6.89150e-06;-0.0006381751139225573
6.89175e-06;-0.0005909102615526317
6.89200e-06;-0.0005405804929201887
6.89225e-06;-0.0004874417665043751
6.89250e-06;-0.00043176081129842547
6.89275e-06;-0.00037311633867734024
6.89300e-06;-0.00031413602927270765
6.89325e-06;-0.00025282077413424126
6.89350e-06;-0.00019121337109384334
6.89375e-06;-0.00012858184000307226
6.89400e-06;-6.582217023382738e-05
6.89425e-06;-3.062500464582474e-06
