Time(s);Current(A)
1.75000e-06;-0.013178924217360163
1.75025e-06;-0.013187657596026983
1.75050e-06;-0.013196390974693802
1.75075e-06;-0.01320512435336063
1.75100e-06;-0.01321385773202745
1.75125e-06;-0.013222591110694277
1.75150e-06;-0.013231324489361096
1.75175e-06;-0.013240057868027923
1.75200e-06;-0.013248791246694744
1.75225e-06;-0.013257524625361563
1.75250e-06;-0.01326625800402839
1.75275e-06;-0.013272892699719003
1.75300e-06;-0.01327520610499435
1.75325e-06;-0.013277519510269694
1.75350e-06;-0.01327983291554504
1.75375e-06;-0.013282146320820386
1.75400e-06;-0.01328445972609573
1.75425e-06;-0.013286773131371079
1.75450e-06;-0.013289086536646424
1.75475e-06;-0.013291399941921769
1.75500e-06;-0.013293713347197115
1.75525e-06;-0.01329602675247246
1.75550e-06;-0.013298340157747807
1.75575e-06;-0.013300653563023151
1.75600e-06;-0.013302966968298498
1.75625e-06;-0.013297432328036941
1.75650e-06;-0.013290254797421524
1.75675e-06;-0.0132830772668061
1.75700e-06;-0.013275899736190682
1.75725e-06;-0.013268722205575258
1.75750e-06;-0.01326154467495984
1.75775e-06;-0.013254367144344423
1.75800e-06;-0.013247189613728998
1.75825e-06;-0.013240012083113581
1.75850e-06;-0.013232834552498157
1.75875e-06;-0.013225657021882739
1.75900e-06;-0.013218479491267322
1.75925e-06;-0.013211301960651897
1.75950e-06;-0.01320124169642962
1.75975e-06;-0.01318524574337495
1.76000e-06;-0.013169249790320293
1.76025e-06;-0.013153253837265623
1.76050e-06;-0.013137257884210968
1.76075e-06;-0.013121261931156312
1.76100e-06;-0.013105265978101643
1.76125e-06;-0.013089270025046987
1.76150e-06;-0.013073274071992318
1.76175e-06;-0.013057278118937662
1.76200e-06;-0.013041282165883007
1.76225e-06;-0.013024683180246195
1.76250e-06;-0.013007957957266923
1.76275e-06;-0.012991232734287636
1.76300e-06;-0.012974507511308365
1.76325e-06;-0.012957782288329093
1.76350e-06;-0.012941057065349806
1.76375e-06;-0.012924331842370533
1.76400e-06;-0.012907606619391247
1.76425e-06;-0.012890881396411974
1.76450e-06;-0.012874156173432702
1.76475e-06;-0.012858541447855615
1.76500e-06;-0.012845213290490293
1.76525e-06;-0.012831634876513818
1.76550e-06;-0.012817541171992162
1.76575e-06;-0.012800958703021325
1.76600e-06;-0.012779251746893046
1.76625e-06;-0.012757544790764767
1.76650e-06;-0.012733105206993224
1.76675e-06;-0.012703039009876054
1.76700e-06;-0.01267297281275886
1.76725e-06;-0.012639975386137932
1.76750e-06;-0.012600942415272364
1.76775e-06;-0.012561909444406763
1.76800e-06;-0.012518303049194959
1.76825e-06;-0.012465279750613466
1.76850e-06;-0.012412256452032021
1.76875e-06;-0.012359233153450574
1.76900e-06;-0.012306209854869084
1.76925e-06;-0.01224213753544077
1.76950e-06;-0.012175752241440413
1.76975e-06;-0.012109366947440112
1.77000e-06;-0.012042981653439753
1.77025e-06;-0.011973493928434031
1.77050e-06;-0.011897618146957533
1.77075e-06;-0.011821742365480972
1.77100e-06;-0.011744781529792638
1.77125e-06;-0.011665586514660143
1.77150e-06;-0.011585899206413086
1.77175e-06;-0.011504901709904685
1.77200e-06;-0.011423134107002963
1.77225e-06;-0.011341036499808449
1.77250e-06;-0.011259091940288797
1.77275e-06;-0.01117778346243466
1.77300e-06;-0.011097590787258289
1.77325e-06;-0.011018935216462238
1.77350e-06;-0.010942084759881992
1.77375e-06;-0.010867239792193291
1.77400e-06;-0.010794744020696922
1.77425e-06;-0.010725078991930372
1.77450e-06;-0.010658753816916366
1.77475e-06;-0.0105962785559773
1.77500e-06;-0.010538142548964924
1.77525e-06;-0.01048454837660149
1.77550e-06;-0.01043490291524597
1.77575e-06;-0.01038816174746977
1.77600e-06;-0.010344302629722696
1.77625e-06;-0.010303045039667195
1.77650e-06;-0.010263769408904439
1.77675e-06;-0.010228574728809689
1.77700e-06;-0.010196070865440332
1.77725e-06;-0.010169107524700923
1.77750e-06;-0.01014214418396149
1.77775e-06;-0.010118165675946575
1.77800e-06;-0.010100333083816852
1.77825e-06;-0.010082500491687144
1.77850e-06;-0.010064667899557423
1.77875e-06;-0.010046835307427714
1.77900e-06;-0.010032426725034045
1.77925e-06;-0.010025068345372003
1.77950e-06;-0.010017709965709966
1.77975e-06;-0.010010351586047923
1.78000e-06;-0.010002993206385886
1.78025e-06;-0.00999820670559512
1.78050e-06;-0.009998715828602577
1.78075e-06;-0.009999224951610033
1.78100e-06;-0.00999973407461749
1.78125e-06;-0.010000243197624947
1.78150e-06;-0.010000752320632402
1.78175e-06;-0.010002897904703625
1.78200e-06;-0.010008413041770069
1.78225e-06;-0.010013928178836517
1.78250e-06;-0.010019443315902961
1.78275e-06;-0.010024958452969409
1.78300e-06;-0.010030473590035853
1.78325e-06;-0.010036417136787622
1.78350e-06;-0.010043242799936986
1.78375e-06;-0.010050068463086342
1.78400e-06;-0.010056673857795101
1.78425e-06;-0.010062825709061723
1.78450e-06;-0.010068768252031299
1.78475e-06;-0.010074112981287103
1.78500e-06;-0.010078949476911037
1.78525e-06;-0.010083562524028047
1.78550e-06;-0.010089106707950614
1.78575e-06;-0.010097115522126544
1.78600e-06;-0.01010829951940778
1.78625e-06;-0.01012302740482282
1.78650e-06;-0.010140650821902285
1.78675e-06;-0.010159905017008135
1.78700e-06;-0.01018251706345853
1.78725e-06;-0.010207581594253478
1.78750e-06;-0.01023769590970367
1.78775e-06;-0.010267810225153887
1.78800e-06;-0.010302495042245757
1.78825e-06;-0.010346590744715145
1.78850e-06;-0.010390686447184492
1.78875e-06;-0.010434782149653841
1.78900e-06;-0.010478877852123227
1.78925e-06;-0.010527555199046894
1.78950e-06;-0.01058566637494168
1.78975e-06;-0.010643777550836418
1.79000e-06;-0.010701888726731154
1.79025e-06;-0.010759999902625942
1.79050e-06;-0.01082143299654933
1.79075e-06;-0.010889706081408441
1.79100e-06;-0.010957979166267494
1.79125e-06;-0.011026252251126606
1.79150e-06;-0.011094525335985659
1.79175e-06;-0.011162798420844711
1.79200e-06;-0.011231537514770526
1.79225e-06;-0.011301236144050458
1.79250e-06;-0.01137093477333045
1.79275e-06;-0.01144063340261038
1.79300e-06;-0.011510332031890311
1.79325e-06;-0.011580030661170302
1.79350e-06;-0.01164795988690438
1.79375e-06;-0.011712245824601128
1.79400e-06;-0.011774921686764755
1.79425e-06;-0.011834282325025597
1.79450e-06;-0.011891424904234544
1.79475e-06;-0.011944000391878025
1.79500e-06;-0.011993738420134523
1.79525e-06;-0.012037633981382587
1.79550e-06;-0.012077220227298742
1.79575e-06;-0.012107933383164411
1.79600e-06;-0.01213864653903008
1.79625e-06;-0.012163837000337739
1.79650e-06;-0.012177655964699883
1.79675e-06;-0.01219147492906204
1.79700e-06;-0.012199573104419655
1.79725e-06;-0.012195891896723057
1.79750e-06;-0.012192210689026458
1.79775e-06;-0.012181504638207878
1.79800e-06;-0.012156334093424584
1.79825e-06;-0.012131163548641312
1.79850e-06;-0.01210599300385804
1.79875e-06;-0.012080822459074747
1.79900e-06;-0.012036942868768455
1.79925e-06;-0.011989146773357428
1.79950e-06;-0.01194135067794644
1.79975e-06;-0.011893554582535413
1.80000e-06;-0.011840767461011545
1.80025e-06;-0.011777703573753174
1.80050e-06;-0.01171463968649475
1.80075e-06;-0.011649113065127788
1.80100e-06;-0.011578515554342863
1.80125e-06;-0.01150647389242037
1.80150e-06;-0.011431458653002817
1.80175e-06;-0.011355666156738067
1.80200e-06;-0.011277942619790267
1.80225e-06;-0.011199353801773773
1.80250e-06;-0.011120346128627669
1.80275e-06;-0.011041364772542556
1.80300e-06;-0.010962854296812168
1.80325e-06;-0.010885257706533725
1.80350e-06;-0.010809020424414359
1.80375e-06;-0.010734604188701145
1.80400e-06;-0.010662498426801609
1.80425e-06;-0.010593207593125426
1.80450e-06;-0.010527238918072888
1.80475e-06;-0.01046510063527575
1.80500e-06;-0.010407294763556391
1.80525e-06;-0.010354269630949271
1.80550e-06;-0.010306287948156129
1.80575e-06;-0.010263418473582538
1.80600e-06;-0.010225704834405944
1.80625e-06;-0.010193246520346394
1.80650e-06;-0.010166159337828794
1.80675e-06;-0.010144558448426731
1.80700e-06;-0.010129488074058831
1.80725e-06;-0.01012015203090959
1.80750e-06;-0.010114433900703218
1.80775e-06;-0.01011616522936943
1.80800e-06;-0.010122122708204442
1.80825e-06;-0.010136782035969747
1.80850e-06;-0.010151441363735065
1.80875e-06;-0.01017222329154587
1.80900e-06;-0.010205611950903921
1.80925e-06;-0.010239000610261947
1.80950e-06;-0.01027238926962
1.80975e-06;-0.010305777928978025
1.81000e-06;-0.010345058152614738
1.81025e-06;-0.010396469393907733
1.81050e-06;-0.010447880635200687
1.81075e-06;-0.010499291876493684
1.81100e-06;-0.010550703117786638
1.81125e-06;-0.010605137004299776
1.81150e-06;-0.01066579466446625
1.81175e-06;-0.010726452324632672
1.81200e-06;-0.01078806311135726
1.81225e-06;-0.010851636432063947
1.81250e-06;-0.010915209752770631
1.81275e-06;-0.0109787482648733
1.81300e-06;-0.011042215104365621
1.81325e-06;-0.011105053257845693
1.81350e-06;-0.011166596916221433
1.81375e-06;-0.011226934806581858
1.81400e-06;-0.011284789961900833
1.81425e-06;-0.011337317908999615
1.81450e-06;-0.01137887687504026
1.81475e-06;-0.011420435841080871
1.81500e-06;-0.011461994807121519
1.81525e-06;-0.01150355377316213
1.81550e-06;-0.01154511273920274
1.81575e-06;-0.011586671705243388
1.81600e-06;-0.011628230671283999
1.81625e-06;-0.011669789637324646
1.81650e-06;-0.011711348603365257
1.81675e-06;-0.011748225578747792
1.81700e-06;-0.011775462107442446
1.81725e-06;-0.011802698636137076
1.81750e-06;-0.011829935164831728
1.81775e-06;-0.011857171693526358
1.81800e-06;-0.01188440822222101
1.81825e-06;-0.01191164475091564
1.81850e-06;-0.011938881279610269
1.81875e-06;-0.011966117808304921
1.81900e-06;-0.011993354336999551
1.81925e-06;-0.012018193168228511
1.81950e-06;-0.012038095023653913
1.81975e-06;-0.012057996879079312
1.82000e-06;-0.01207789873450473
1.82025e-06;-0.012097800589930131
1.82050e-06;-0.012117702445355549
1.82075e-06;-0.012137604300780949
1.82100e-06;-0.01215750615620635
1.82125e-06;-0.012177408011631767
1.82150e-06;-0.012197309867057167
1.82175e-06;-0.012217211722482585
1.82200e-06;-0.012237113577907986
1.82225e-06;-0.012257015433333403
1.82250e-06;-0.012276917288758803
1.82275e-06;-0.012296819144184205
1.82300e-06;-0.012316720999609622
1.82325e-06;-0.012336622855035022
1.82350e-06;-0.012347839179678143
1.82375e-06;-0.01235723729688807
1.82400e-06;-0.012366635414097995
1.82425e-06;-0.01237603353130793
1.82450e-06;-0.012385431648517855
1.82475e-06;-0.01239482976572779
1.82500e-06;-0.012404227882937715
1.82525e-06;-0.012413626000147641
1.82550e-06;-0.012423024117357575
1.82575e-06;-0.012432422234567501
1.82600e-06;-0.012441820351777435
1.82625e-06;-0.012451218468987361
1.82650e-06;-0.012460616586197295
1.82675e-06;-0.012470014703407221
1.82700e-06;-0.012479412820617148
1.82725e-06;-0.012488810937827081
1.82750e-06;-0.01249513528703949
1.82775e-06;-0.012495130598312046
1.82800e-06;-0.012495125909584601
1.82825e-06;-0.012495121220857157
1.82850e-06;-0.012495116532129712
1.82875e-06;-0.012495111843402268
1.82900e-06;-0.012495107154674823
1.82925e-06;-0.012495102465947379
1.82950e-06;-0.012495097777219934
1.82975e-06;-0.012495093088492488
1.83000e-06;-0.012495088399765044
1.83025e-06;-0.0124950837110376
1.83050e-06;-0.012495079022310155
1.83075e-06;-0.01249507433358271
1.83100e-06;-0.012495069644855266
1.83125e-06;-0.012492090420614242
1.83150e-06;-0.012488488514499628
1.83175e-06;-0.012484886608385017
1.83200e-06;-0.012481284702270404
1.83225e-06;-0.012477682796155793
1.83250e-06;-0.012474080890041182
1.83275e-06;-0.012470478983926567
1.83300e-06;-0.012466877077811956
1.83325e-06;-0.012463275171697341
1.83350e-06;-0.01245967326558273
1.83375e-06;-0.01245607135946812
1.83400e-06;-0.012452469453353507
1.83425e-06;-0.012448867547238895
1.83450e-06;-0.012445265641124281
1.83475e-06;-0.012441652780115223
1.83500e-06;-0.012438017362445208
1.83525e-06;-0.012433220321782382
1.83550e-06;-0.012426031442828925
1.83575e-06;-0.012418842563875461
1.83600e-06;-0.012408481129293514
1.83625e-06;-0.012391587248230834
1.83650e-06;-0.012374693367168167
1.83675e-06;-0.012354956445163386
1.83700e-06;-0.01232936556345808
1.83725e-06;-0.012303774681752797
1.83750e-06;-0.012273403837883529
1.83775e-06;-0.012233190819227751
1.83800e-06;-0.012192977800571974
1.83825e-06;-0.012152764781916164
1.83850e-06;-0.012112551763260386
1.83875e-06;-0.01206697454589931
1.83900e-06;-0.012010352182272352
1.83925e-06;-0.011953729818645347
1.83950e-06;-0.01189710745501839
1.83975e-06;-0.011840485091391434
1.84000e-06;-0.01178020796641249
1.84025e-06;-0.011712405509894478
1.84050e-06;-0.011644603053376406
1.84075e-06;-0.011575336149158377
1.84100e-06;-0.011503053875836033
1.84125e-06;-0.011430034228410975
1.84150e-06;-0.011355496291812912
1.84175e-06;-0.011280390254440404
1.84200e-06;-0.011204114469918109
1.84225e-06;-0.011127723451664247
1.84250e-06;-0.011051213287539068
1.84275e-06;-0.010975211220717198
1.84300e-06;-0.010900161886401425
1.84325e-06;-0.01082646339195121
1.84350e-06;-0.010754393489551657
1.84375e-06;-0.01068417657168076
1.84400e-06;-0.010616156579343936
1.84425e-06;-0.010550788713552719
1.84450e-06;-0.010488550133891134
1.84475e-06;-0.010429917355091568
1.84500e-06;-0.010376053002383019
1.84525e-06;-0.010326563917751814
1.84550e-06;-0.010279429437294813
1.84575e-06;-0.010237143201455684
1.84600e-06;-0.010196934521717516
1.84625e-06;-0.010161003631127563
1.84650e-06;-0.010128039032353459
1.84675e-06;-0.01010118217282839
1.84700e-06;-0.010074325313303345
1.84725e-06;-0.010051009899423882
1.84750e-06;-0.010034986494527623
1.84775e-06;-0.010018963089631364
1.84800e-06;-0.01000722885573007
1.84825e-06;-0.010004326233705852
1.84850e-06;-0.010001423611681631
1.84875e-06;-0.009998520989657414
1.84900e-06;-0.009995618367633193
1.84925e-06;-0.009992715745608975
1.84950e-06;-0.009994523701951266
1.84975e-06;-0.010006030968462795
1.85000e-06;-0.010017538234974315
1.85025e-06;-0.010029045501485844
1.85050e-06;-0.010040552767997365
1.85075e-06;-0.010052060034508885
1.85100e-06;-0.010066518019128064
1.85125e-06;-0.010087051675972791
1.85150e-06;-0.010107585332817534
1.85175e-06;-0.010128118989662262
1.85200e-06;-0.01014865264650699
1.85225e-06;-0.010169186303351735
1.85250e-06;-0.010189719960196462
1.85275e-06;-0.01021168625807625
1.85300e-06;-0.010233952461470552
1.85325e-06;-0.010256218664864872
1.85350e-06;-0.010278484868259174
1.85375e-06;-0.010300751071653475
1.85400e-06;-0.010323017275047796
1.85425e-06;-0.010344264442701435
1.85450e-06;-0.01036341336615812
1.85475e-06;-0.010381644529816039
1.85500e-06;-0.01039798598137153
1.85525e-06;-0.010412991208758273
1.85550e-06;-0.010425245085533776
1.85575e-06;-0.010435623559967164
1.85600e-06;-0.010442140489683036
1.85625e-06;-0.010446253849768385
1.85650e-06;-0.010445418142978096
1.85675e-06;-0.010444582436187807
1.85700e-06;-0.010440857919707518
1.85725e-06;-0.010431185203447562
1.85750e-06;-0.010421512487187598
1.85775e-06;-0.010407983356465006
1.85800e-06;-0.010386513680632682
1.85825e-06;-0.010365044004800343
1.85850e-06;-0.010343574328968019
1.85875e-06;-0.01032210465313568
1.85900e-06;-0.01029054568430077
1.85925e-06;-0.01025687464793812
1.85950e-06;-0.01022320361157544
1.85975e-06;-0.010189532575212788
1.86000e-06;-0.010153097045603209
1.86025e-06;-0.010110969289822193
1.86050e-06;-0.01006884153404118
1.86075e-06;-0.010025409774883741
1.86100e-06;-0.00997929300929522
1.86125e-06;-0.009932604337326827
1.86150e-06;-0.009884418411428111
1.86175e-06;-0.009835317313203034
1.86200e-06;-0.009785518773218784
1.86225e-06;-0.009735297764174153
1.86250e-06;-0.009684938321477075
1.86275e-06;-0.009634726361158046
1.86300e-06;-0.009584946581453656
1.86325e-06;-0.009535870212960542
1.86350e-06;-0.009487735872007822
1.86375e-06;-0.00944077427491207
1.86400e-06;-0.009395259211367725
1.86425e-06;-0.009351500775837502
1.86450e-06;-0.009309814041822854
1.86475e-06;-0.009270515981424818
1.86500e-06;-0.009233913179543194
1.86525e-06;-0.00920017254882603
1.86550e-06;-0.009169067824329849
1.86575e-06;-0.009140137101351068
1.86600e-06;-0.009113172363207427
1.86625e-06;-0.009088255940312493
1.86650e-06;-0.009065529984617167
1.86675e-06;-0.00904513886909778
1.86700e-06;-0.00902762041239746
1.86725e-06;-0.009012648005026642
1.86750e-06;-0.008999046528945934
1.86775e-06;-0.008988267867128622
1.86800e-06;-0.00897896390277537
1.86825e-06;-0.008972696412289066
1.86850e-06;-0.008966428921802756
1.86875e-06;-0.008962497788881562
1.86900e-06;-0.008963377329921028
1.86925e-06;-0.008964256870960497
1.86950e-06;-0.008965136411999964
1.86975e-06;-0.008966015953039431
1.87000e-06;-0.008969041794636088
1.87025e-06;-0.008976486973562086
1.87050e-06;-0.008983932152488078
1.87075e-06;-0.008991377331414068
1.87100e-06;-0.008998822510340065
1.87125e-06;-0.009007492424419042
1.87150e-06;-0.009018684127798205
1.87175e-06;-0.00902987583117736
1.87200e-06;-0.009041487267461686
1.87225e-06;-0.009053962954230386
1.87250e-06;-0.009066438640999076
1.87275e-06;-0.009079082941457803
1.87300e-06;-0.009092074425712401
1.87325e-06;-0.009105032725087893
1.87350e-06;-0.00911792269518187
1.87375e-06;-0.009130551905193667
1.87400e-06;-0.009142644197502485
1.87425e-06;-0.009154323962185679
1.87450e-06;-0.009165154312405891
1.87475e-06;-0.0091754389388114
1.87500e-06;-0.009184599893316605
1.87525e-06;-0.009192889161219056
1.87550e-06;-0.009199383583972709
1.87575e-06;-0.009205878006726365
1.87600e-06;-0.009211195736289606
1.87625e-06;-0.00921409059729237
1.87650e-06;-0.009216985458295135
1.87675e-06;-0.009218656233634872
1.87700e-06;-0.009217806557005964
1.87725e-06;-0.009216956880377058
1.87750e-06;-0.009214464197042428
1.87775e-06;-0.009208588482919174
1.87800e-06;-0.009202712768795925
1.87825e-06;-0.00919683705467267
1.87850e-06;-0.009190961340549421
1.87875e-06;-0.009183272757791839
1.87900e-06;-0.009171851390265776
1.87925e-06;-0.00916043002273972
1.87950e-06;-0.009149008655213658
1.87975e-06;-0.009137587287687602
1.88000e-06;-0.009125000674232157
1.88025e-06;-0.00911001476268402
1.88050e-06;-0.009095028851135882
1.88075e-06;-0.009079509850382956
1.88100e-06;-0.009062893193006667
1.88125e-06;-0.009045963867090499
1.88150e-06;-0.00902839074143008
1.88175e-06;-0.009010613787544305
1.88200e-06;-0.008992417141420165
1.88225e-06;-0.00897414483986064
1.88250e-06;-0.00895570884441747
1.88275e-06;-0.00893727968832746
1.88300e-06;-0.00891895297539007
1.88325e-06;-0.00890082495425618
1.88350e-06;-0.008883376348704711
1.88375e-06;-0.00886696269735742
1.88400e-06;-0.0088533788898886
1.88425e-06;-0.00883795452464284
1.88450e-06;-0.008820289829110177
1.88475e-06;-0.00880770180088847
1.88500e-06;-0.008795113772666752
1.88525e-06;-0.008782525744445045
1.88550e-06;-0.008769937716223327
1.88575e-06;-0.00875734968800162
1.88600e-06;-0.008744761659779913
1.88625e-06;-0.008732173631558196
1.88650e-06;-0.008721415082076854
1.88675e-06;-0.008712305306896704
1.88700e-06;-0.008703195531716562
1.88725e-06;-0.008694085756536421
1.88750e-06;-0.008684975981356272
1.88775e-06;-0.008675866206176129
1.88800e-06;-0.00866675643099598
1.88825e-06;-0.00865764853156833
1.88850e-06;-0.008649787902946406
1.88875e-06;-0.008641927274324486
1.88900e-06;-0.008634066645702567
1.88925e-06;-0.008626206017080642
1.88950e-06;-0.008618345388458723
1.88975e-06;-0.008610484759836797
1.89000e-06;-0.00860262593088375
1.89025e-06;-0.00859596378136928
1.89050e-06;-0.008589301631854803
1.89075e-06;-0.008582639482340332
1.89100e-06;-0.008575977332825856
1.89125e-06;-0.008569315183311384
1.89150e-06;-0.008562653033796915
1.89175e-06;-0.00855599182793652
1.89200e-06;-0.008549958099416445
1.89225e-06;-0.008543924370896365
1.89250e-06;-0.008537891226949017
1.89275e-06;-0.008532246791265127
1.89300e-06;-0.00852660235558124
1.89325e-06;-0.008520958732891642
1.89350e-06;-0.008515855706064461
1.89375e-06;-0.008510752679237284
1.89400e-06;-0.008505650015087601
1.89425e-06;-0.008500788690256026
1.89450e-06;-0.00849604666421796
1.89475e-06;-0.008491483505257191
1.89500e-06;-0.00848713478263948
1.89525e-06;-0.008483155996545788
1.89550e-06;-0.008480301901450384
1.89575e-06;-0.00847958111682658
1.89600e-06;-0.008481380331660762
1.89625e-06;-0.008485593340216936
1.89650e-06;-0.00849209073340922
1.89675e-06;-0.008500772840143122
1.89700e-06;-0.008511527079470085
1.89725e-06;-0.008524316128796117
1.89750e-06;-0.008540905777817742
