Time(s);Current(A)
1.15500e-05;0.002767336602350216
1.15503e-05;0.002768789461165919
1.15505e-05;0.002756563790159811
1.15508e-05;0.0027443381191537023
1.15510e-05;0.0027321124481476766
1.15513e-05;0.0027198867771415685
1.15515e-05;0.00270766110613546
1.15517e-05;0.002695435435129434
1.15520e-05;0.002683209764123326
1.15523e-05;0.0026709840931172174
1.15525e-05;0.002658758422111192
1.15528e-05;0.0026465327511050836
1.15530e-05;0.002619992021796103
1.15532e-05;0.0025864480444420545
1.15535e-05;0.002552904067087779
1.15538e-05;0.002519360089733503
1.15540e-05;0.0024858161123792275
1.15543e-05;0.002452272135025179
1.15545e-05;0.0024187281576709034
1.15548e-05;0.0023851841803166278
1.15550e-05;0.0023516402029625794
1.15553e-05;0.0023180962256083037
1.15555e-05;0.002282965380547095
1.15558e-05;0.0022401680635353864
1.15560e-05;0.002197370746523388
1.15563e-05;0.00215457342951139
1.15565e-05;0.0021117761124996815
1.15568e-05;0.0020689787954876835
1.15570e-05;0.002026181478475685
1.15573e-05;0.0019850971839974686
1.15575e-05;0.0019448509386178375
1.15578e-05;0.001904604693238206
1.15580e-05;0.0018643584478588474
1.15583e-05;0.0018241122024792162
1.15585e-05;0.0017838659570995848
1.15588e-05;0.0017449314664695844
1.15590e-05;0.0017123343226456826
1.15593e-05;0.0016797371788217807
1.15595e-05;0.0016485297044697025
1.15598e-05;0.0016240359983675302
1.15600e-05;0.0015995422922653576
1.15602e-05;0.0015766746453169677
1.15605e-05;0.0015616628119571698
1.15608e-05;0.001546650978597372
1.15610e-05;0.0015333430049591249
1.15613e-05;0.0015282667148508384
1.15615e-05;0.001523190424742552
1.15617e-05;0.001519856272421567
1.15620e-05;0.0015249387325418989
1.15623e-05;0.0015300211926622307
1.15625e-05;0.001536744744994403
1.15628e-05;0.0015513967385943675
1.15630e-05;0.0015660487321944314
1.15633e-05;0.001582184326924291
1.15635e-05;0.001605487492335089
1.15638e-05;0.0016287906577460447
1.15640e-05;0.0016539520549349992
1.15643e-05;0.001688090937610764
1.15645e-05;0.0017222298202867602
1.15648e-05;0.0017563687029627565
1.15650e-05;0.0017905075856385212
1.15653e-05;0.0018246464683145175
1.15655e-05;0.0018587853509905135
1.15658e-05;0.0018982299156121228
1.15660e-05;0.0019402701390111566
1.15663e-05;0.0019823103624101905
1.15665e-05;0.0020243505858089394
1.15668e-05;0.0020663908092079736
1.15670e-05;0.0021084310326070074
1.15673e-05;0.002150112631031605
1.15675e-05;0.002190061641229538
1.15678e-05;0.0022300106514274707
1.15680e-05;0.002269959661625133
1.15683e-05;0.0023099086718230658
1.15685e-05;0.0023498576820209986
1.15687e-05;0.002389806692218661
1.15690e-05;0.0024202935132901235
1.15693e-05;0.002446151218913035
1.15695e-05;0.0024720089245357712
1.15698e-05;0.0024978666301586827
1.15700e-05;0.002523724335781594
1.15702e-05;0.0025495820414043304
1.15705e-05;0.002572414967956458
1.15708e-05;0.002580634588169389
1.15710e-05;0.00258885420838232
1.15713e-05;0.002594995752867658
1.15715e-05;0.0025910977022315877
1.15718e-05;0.002587199651595517
1.15720e-05;0.0025811331006217854
1.15723e-05;0.0025645900953390676
1.15725e-05;0.0025480470900563503
1.15728e-05;0.002529504055839405
1.15730e-05;0.0025012984860058878
1.15733e-05;0.0024730929161723707
1.15735e-05;0.0024431169991086235
1.15738e-05;0.002404588184196781
1.15740e-05;0.002366059369284939
1.15743e-05;0.0023254466158197777
1.15745e-05;0.00227476594275946
1.15748e-05;0.002224085269699142
1.15750e-05;0.0021734045966391676
1.15753e-05;0.00212272392357885
1.15755e-05;0.002072043250518532
1.15758e-05;0.002019966293175894
1.15760e-05;0.001961143610117215
1.15763e-05;0.0019023209270585357
1.15765e-05;0.0018434982440002552
1.15768e-05;0.001784675560941576
1.15770e-05;0.001725852877882897
1.15772e-05;0.0016674123499362365
1.15775e-05;0.0016108180889679686
1.15778e-05;0.0015542238279997007
1.15780e-05;0.0014976295670318164
1.15783e-05;0.0014410353060635484
1.15785e-05;0.0013863937135739092
1.15787e-05;0.0013411858489693251
1.15790e-05;0.0012959779843644348
1.15793e-05;0.0012507701197595445
1.15795e-05;0.0012055622551546542
1.15798e-05;0.001162413033104569
1.15800e-05;0.001129209520674378
1.15803e-05;0.0010971568457432326
1.15805e-05;0.0010706640945399347
1.15808e-05;0.0010453952997935647
1.15810e-05;0.0010260396809329921
1.15813e-05;0.0010079863082208536
1.15815e-05;0.0009962243443876902
1.15818e-05;0.0009857149956503724
1.15820e-05;0.0009812572783546513
1.15823e-05;0.0009779294660725594
1.15825e-05;0.0009800604485386086
1.15828e-05;0.0009832856799202332
1.15830e-05;0.0009917974443832992
1.15833e-05;0.0010013710159034422
1.15835e-05;0.0010160743874654064
1.15838e-05;0.0010319292353815307
1.15840e-05;0.0010533470934606065
1.15843e-05;0.0010747649515395372
1.15845e-05;0.0010972909170306518
1.15848e-05;0.0011251703687426245
1.15850e-05;0.0011530498204544081
1.15853e-05;0.0011820553141032525
1.15855e-05;0.0012165009392122296
1.15857e-05;0.0012509465643209734
1.15860e-05;0.0012853921894299505
1.15863e-05;0.0013198378145389278
1.15865e-05;0.0013542834396476715
1.15868e-05;0.0013890515035568424
1.15870e-05;0.0014253773331260927
1.15872e-05;0.001461703162695097
1.15875e-05;0.0014980289922643473
1.15878e-05;0.0015343548218335976
1.15880e-05;0.001570680651402848
1.15883e-05;0.0016046431544646468
1.15885e-05;0.0016271879594251604
1.15888e-05;0.0016497327643856742
1.15890e-05;0.0016722775693460352
1.15893e-05;0.0016948223743065488
1.15895e-05;0.0017173671792670626
1.15898e-05;0.0017399119842274235
1.15900e-05;0.0017624567891879371
1.15903e-05;0.001785001594148451
1.15905e-05;0.001807546399108812
1.15908e-05;0.0018300912040693255
1.15910e-05;0.0018526360090298393
1.15913e-05;0.0018751808139902003
1.15915e-05;0.001881132423863947
1.15918e-05;0.001878966270000872
1.15920e-05;0.0018768001161378121
1.15923e-05;0.0018746339622747374
1.15925e-05;0.0018724678084116625
1.15928e-05;0.0018703016545486026
1.15930e-05;0.0018681355006855277
1.15933e-05;0.001865969346822453
1.15935e-05;0.001863803192959393
1.15938e-05;0.0018616370390963182
1.15940e-05;0.0018594708852332435
1.15942e-05;0.0018573047313701833
1.15945e-05;0.0018527586464917808
1.15948e-05;0.0018367146438445796
1.15950e-05;0.0018206706411974872
1.15953e-05;0.001804626638550286
1.15955e-05;0.0017885826359030847
1.15957e-05;0.001772538633255992
1.15960e-05;0.001756494630608791
1.15963e-05;0.0017404506279615898
1.15965e-05;0.0017223747505004507
1.15968e-05;0.0017033048342423242
1.15970e-05;0.0016842349179840687
1.15973e-05;0.001665165001725813
1.15975e-05;0.0016460950854676865
1.15978e-05;0.001627025169209431
1.15980e-05;0.0016079552529511753
1.15983e-05;0.0015895579302623215
1.15985e-05;0.0015744100402263672
1.15988e-05;0.001559262150190413
1.15990e-05;0.0015441142601545612
1.15993e-05;0.0015289663701186069
1.15995e-05;0.0015138184800826526
1.15998e-05;0.001498670590046801
1.16000e-05;0.001491148006262303
1.16003e-05;0.0014873558935691086
1.16005e-05;0.0014835637808759397
1.16008e-05;0.0014797716681827452
1.16010e-05;0.0014759795554895507
1.16013e-05;0.0014721874427963818
1.16015e-05;0.0014702516033374589
1.16018e-05;0.0014772837872677525
1.16020e-05;0.0014843159711979985
1.16023e-05;0.001492596823962394
1.16025e-05;0.001506910243001445
1.16027e-05;0.0015212236620403986
1.16030e-05;0.00153663132666693
1.16033e-05;0.0015573255083004224
1.16035e-05;0.0015780196899337743
1.16038e-05;0.0016002169473167845
1.16040e-05;0.0016296758611358507
1.16042e-05;0.0016591347749547172
1.16045e-05;0.0016885936887737832
1.16048e-05;0.0017180526025928494
1.16050e-05;0.0017475115164119156
1.16053e-05;0.001776970430230782
1.16055e-05;0.0018075370873516978
1.16058e-05;0.0018434554716099342
1.16060e-05;0.0018793738558679268
1.16063e-05;0.0019152922401261632
1.16065e-05;0.0019512106243843993
1.16068e-05;0.001987129008642392
1.16070e-05;0.0020230473929006283
1.16073e-05;0.002057558430798167
1.16075e-05;0.0020852702998824016
1.16078e-05;0.0021129821689668243
1.16080e-05;0.002140694038051247
1.16083e-05;0.0021684059071354817
1.16085e-05;0.002196117776219905
1.16088e-05;0.0022238296453043274
1.16090e-05;0.0022515415143885623
1.16093e-05;0.002279253383472985
1.16095e-05;0.0023069652525574075
1.16098e-05;0.002334677121641643
1.16100e-05;0.0023623889907260654
1.16103e-05;0.002390100859810488
1.16105e-05;0.002417812728894723
1.16108e-05;0.002442138959920714
1.16110e-05;0.002450108503391582
1.16113e-05;0.002458078046862396
1.16115e-05;0.0024660475903332643
1.16118e-05;0.0024740171338041325
1.16120e-05;0.0024819866772749465
1.16123e-05;0.0024899562207458146
1.16125e-05;0.0024979257642166824
1.16127e-05;0.0025058953076874967
1.16130e-05;0.0025138648511583645
1.16133e-05;0.0025218343946292326
1.16135e-05;0.002529803938100101
1.16138e-05;0.0025377734815709148
1.16140e-05;0.002545743025041783
1.16143e-05;0.0025518448020677336
1.16145e-05;0.0025489230297230914
1.16148e-05;0.0025460012573784293
1.16150e-05;0.0025430794850337672
1.16153e-05;0.002540157712689125
1.16155e-05;0.002537235940344463
1.16158e-05;0.002534314167999801
1.16160e-05;0.0025313923956551583
1.16163e-05;0.0025284706233104966
1.16165e-05;0.0025255488509658345
1.16168e-05;0.002522627078621192
1.16170e-05;0.00251970530627653
1.16173e-05;0.0025164691506950505
1.16175e-05;0.0025117141474725055
1.16178e-05;0.002506959144249928
1.16180e-05;0.0025022041410273504
1.16183e-05;0.002497449137804805
1.16185e-05;0.002492694134582228
1.16188e-05;0.0024879391313596504
1.16190e-05;0.002483184128137105
1.16193e-05;0.0024784291249145274
1.16195e-05;0.00247367412169195
1.16198e-05;0.002468919118469405
1.16200e-05;0.0024641641152468273
1.16203e-05;0.0024589570599968416
1.16205e-05;0.0024515660519301716
1.16208e-05;0.0024441750438634513
1.16210e-05;0.0024367840357967315
1.16212e-05;0.0024293930277300615
1.16215e-05;0.0024220020196633416
1.16218e-05;0.0024146110115966218
1.16220e-05;0.002407220003529902
1.16223e-05;0.002399828995463232
1.16225e-05;0.0023924379873965116
1.16228e-05;0.0023850469793297918
1.16230e-05;0.002377655971263122
1.16233e-05;0.002370264963196402
1.16235e-05;0.002362873955129682
1.16238e-05;0.002355482947063012
1.16240e-05;0.0023450878313274167
1.16243e-05;0.0023332230386433877
1.16245e-05;0.002321358245959439
1.16248e-05;0.0023094934532754104
1.16250e-05;0.0022976286605913814
1.16253e-05;0.0022857638679074327
1.16255e-05;0.002273899075223404
1.16258e-05;0.002262034282539375
1.16260e-05;0.0022501694898554264
1.16263e-05;0.002238304697171398
1.16265e-05;0.002226439904487369
1.16268e-05;0.0022145751118034206
1.16270e-05;0.0022027103191193916
1.16273e-05;0.0021908455264353626
1.16275e-05;0.0021792756179712424
1.16278e-05;0.002169130353538624
1.16280e-05;0.0021589850891060055
1.16283e-05;0.002148839824673456
1.16285e-05;0.0021386945602408372
1.16288e-05;0.0021285492958082186
1.16290e-05;0.002118404031375669
1.16293e-05;0.0021082587669430507
1.16295e-05;0.002098113502510432
1.16297e-05;0.0020879682380778824
1.16300e-05;0.0020778374395576545
1.16303e-05;0.002067713718086696
1.16305e-05;0.0020575899966157377
1.16308e-05;0.0020474662751448483
1.16310e-05;0.00203734255367389
1.16313e-05;0.0020272188322029315
1.16315e-05;0.0020170951107320416
1.16318e-05;0.0020069713892610836
1.16320e-05;0.0019968476677901252
1.16323e-05;0.001985757277056409
1.16325e-05;0.001969996715782488
1.16328e-05;0.0019542361545085664
1.16330e-05;0.0019384755932347522
1.16333e-05;0.001922715031960831
1.16335e-05;0.00190695447068691
1.16338e-05;0.0018911939094130958
1.16340e-05;0.0018754333481391747
1.16343e-05;0.0018596727868652534
1.16345e-05;0.0018439122255914393
1.16348e-05;0.0018281516643175182
1.16350e-05;0.0018101789802506185
1.16353e-05;0.0017911240760254208
1.16355e-05;0.0017720691718000941
1.16358e-05;0.0017530142675747675
1.16360e-05;0.0017339593633495698
1.16363e-05;0.0017149044591242431
1.16365e-05;0.0016958495548989165
1.16368e-05;0.0016767946506737188
1.16370e-05;0.0016577397464483921
1.16373e-05;0.0016386848422230652
1.16375e-05;0.001620375890477722
1.16378e-05;0.0016056707828089026
1.16380e-05;0.001590965675140083
1.16382e-05;0.0015762605674713628
1.16385e-05;0.0015615554598025433
1.16388e-05;0.0015468503521337237
1.16390e-05;0.001532145244464904
1.16393e-05;0.0015174401367961839
1.16395e-05;0.0015027350291273644
1.16398e-05;0.0014880299214585448
1.16400e-05;0.0014733248137898246
1.16403e-05;0.001458619706121005
1.16405e-05;0.0014485540792270764
1.16408e-05;0.001440758190539524
1.16410e-05;0.0014329623018519185
1.16413e-05;0.001425166413164313
1.16415e-05;0.0014173705244767605
1.16418e-05;0.0014095746357891549
1.16420e-05;0.0014017787471015495
1.16423e-05;0.0013939828584139968
1.16425e-05;0.0013861869697263914
1.16428e-05;0.001378391081038786
1.16430e-05;0.0013705951923512333
1.16433e-05;0.0013634402272935987
1.16435e-05;0.0013593816911514878
1.16438e-05;0.0013553231550094045
1.16440e-05;0.0013512646188672936
1.16443e-05;0.001347206082725183
1.16445e-05;0.0013431475465830996
1.16448e-05;0.0013390890104409887
1.16450e-05;0.0013350304742988778
1.16453e-05;0.0013309719381567945
1.16455e-05;0.0013269134020146838
1.16458e-05;0.001322854865872573
1.16460e-05;0.0013187963297304896
1.16463e-05;0.0013147377935883787
1.16465e-05;0.001311965203658237
1.16467e-05;0.0013098217274998699
1.16470e-05;0.0013076782513414883
1.16473e-05;0.0013055347751831066
1.16475e-05;0.0013033912990247248
1.16478e-05;0.0013012478228663577
1.16480e-05;0.001299104346707976
1.16483e-05;0.0012969608705495944
1.16485e-05;0.0012948173943912273
1.16488e-05;0.0012926739182328455
1.16490e-05;0.0012905304420744639
1.16493e-05;0.0012883869659160968
1.16495e-05;0.0012866310549057773
1.16498e-05;0.001286747547837819
1.16500e-05;0.00128686404076986
1.16503e-05;0.0012879296926412642
1.16505e-05;0.0012935809192189491
1.16508e-05;0.001299232145796596
1.16510e-05;0.0013057812498857228
1.16513e-05;0.001316668177952334
1.16515e-05;0.0013275551060188716
1.16518e-05;0.0013394812183502073
1.16520e-05;0.0013564278355536613
1.16523e-05;0.0013733744527570006
1.16525e-05;0.0013914500732535545
1.16528e-05;0.001414980132126751
1.16530e-05;0.001438510190999788
1.16533e-05;0.0014635142206375945
1.16535e-05;0.0014956392947879013
1.16538e-05;0.0015277643689379904
1.16540e-05;0.0015598894430882975
1.16543e-05;0.0015920145172386043
1.16545e-05;0.0016241395913886934
1.16548e-05;0.0016562646655390002
1.16550e-05;0.0016897097967705497
1.16552e-05;0.0017295323850458656
1.16555e-05;0.0017693549733214515
1.16558e-05;0.0018091775615970375
1.16560e-05;0.0018490001498726232
1.16563e-05;0.0018888227381479391
1.16565e-05;0.001928645326423525
1.16568e-05;0.001968281478920273
1.16570e-05;0.0020070169232670743
1.16573e-05;0.002045752367614138
1.16575e-05;0.0020844878119612017
1.16578e-05;0.002123223256308003
1.16580e-05;0.0021619587006550664
1.16583e-05;0.00220069414500213
1.16585e-05;0.0022394295893489314
1.16588e-05;0.0022700190024985308
1.16590e-05;0.002296623194209082
1.16593e-05;0.0023232273859194533
1.16595e-05;0.002349831577630005
1.16598e-05;0.0023764357693405566
1.16600e-05;0.002403039961050928
1.16603e-05;0.0024296441527614796
1.16605e-05;0.002452929103045757
1.16608e-05;0.002460178141002625
1.16610e-05;0.0024674271789595415
1.16613e-05;0.0024746762169164586
1.16615e-05;0.0024819252548733267
1.16618e-05;0.0024891742928302434
1.16620e-05;0.0024964233307871605
1.16623e-05;0.0025036723687440286
1.16625e-05;0.002510921406700945
1.16628e-05;0.0025181704446578623
1.16630e-05;0.0025254194826147304
1.16633e-05;0.002520509963922319
1.16635e-05;0.0025096522062091915
1.16637e-05;0.0024987944484961373
1.16640e-05;0.00248793669078301
1.16643e-05;0.0024770789330698824
1.16645e-05;0.002466221175356755
1.16648e-05;0.0024553634176437008
1.16650e-05;0.0024445056599305733
1.16653e-05;0.002433647902217446
1.16655e-05;0.002422790144504392
1.16658e-05;0.0024106336957884925
1.16660e-05;0.002392203013779735
1.16663e-05;0.002373772331771103
1.16665e-05;0.0023553416497623454
1.16668e-05;0.002336910967753588
1.16670e-05;0.002318480285744956
1.16673e-05;0.0023000496037361984
1.16675e-05;0.002281618921727441
1.16678e-05;0.002263188239718809
1.16680e-05;0.00224680396881369
1.16683e-05;0.002231420848187479
1.16685e-05;0.002216037727561372
1.16688e-05;0.002200654606935161
1.16690e-05;0.0021852714863089496
1.16693e-05;0.0021698883656828425
1.16695e-05;0.0021545052450566314
1.16698e-05;0.00213912212443042
1.16700e-05;0.002125662925395127
1.16703e-05;0.0021214985723820834
1.16705e-05;0.0021173342193690405
1.16708e-05;0.0021131698663560254
1.16710e-05;0.0021090055133429824
1.16713e-05;0.002104841160329939
1.16715e-05;0.0021006768073169244
1.16718e-05;0.002096512454303881
1.16720e-05;0.002092348101290838
1.16722e-05;0.002088183748277823
1.16725e-05;0.00208401939526478
1.16728e-05;0.0020798550422517366
1.16730e-05;0.0020756906892386937
1.16733e-05;0.0020790638316357827
1.16735e-05;0.002086124486097174
1.16738e-05;0.0020931851405585657
1.16740e-05;0.0021002457950199094
1.16743e-05;0.002107306449481301
1.16745e-05;0.0021143671039426924
1.16748e-05;0.0021214277584040357
1.16750e-05;0.002128488412865427
1.16753e-05;0.0021355490673268186
1.16755e-05;0.0021426097217881624
1.16758e-05;0.002149670376249554
1.16760e-05;0.0021567310307109453
1.16763e-05;0.002164394269034891
1.16765e-05;0.002174968709273897
1.16768e-05;0.0021855431495129037
1.16770e-05;0.002196117589751838
1.16773e-05;0.0022066920299908446
1.16775e-05;0.002217266470229851
1.16778e-05;0.0022278409104687855
1.16780e-05;0.002238415350707792
1.16783e-05;0.0022484132192657643
1.16785e-05;0.0022556255559065203
1.16788e-05;0.0022628378925473253
1.16790e-05;0.0022700502291881303
1.16793e-05;0.0022772625658288863
1.16795e-05;0.0022844749024696913
1.16798e-05;0.0022916872391104963
1.16800e-05;0.0022988995757512527
1.16803e-05;0.002303009390662996
1.16805e-05;0.0022921303089890686
1.16807e-05;0.0022812512273152146
1.16810e-05;0.0022703721456412873
1.16813e-05;0.0022594930639673596
1.16815e-05;0.0022486139822935057
1.16818e-05;0.0022377349006195784
1.16820e-05;0.0022268558189456507
1.16823e-05;0.0022159767372717234
1.16825e-05;0.0022050976555978694
1.16828e-05;0.002190201784725169
1.16830e-05;0.0021559000101488393
1.16833e-05;0.0021215982355727424
1.16835e-05;0.0020872964609964127
1.16838e-05;0.0020529946864200834
1.16840e-05;0.002018692911843986
1.16843e-05;0.0019843911372676563
1.16845e-05;0.001950089362691327
1.16848e-05;0.0019157875881152297
1.16850e-05;0.0018814858135389
1.16853e-05;0.0018452437696041184
1.16855e-05;0.0017996279003406196
1.16858e-05;0.0017540120310768118
1.16860e-05;0.0017083961618130038
1.16863e-05;0.001662780292549505
1.16865e-05;0.001617164423285697
1.16868e-05;0.0015715994062190253
1.16870e-05;0.0015262800661827714
1.16873e-05;0.0014809607261462104
1.16875e-05;0.0014356413861096493
1.16878e-05;0.0013903220460733954
1.16880e-05;0.0013450027060368341
1.16883e-05;0.001300649750733253
1.16885e-05;0.0012609655913627617
1.16888e-05;0.0012212814319920015
1.16890e-05;0.0011827934688243918
1.16892e-05;0.0011500845662917578
1.16895e-05;0.001117375663758902
1.16898e-05;0.001085624112149148
1.16900e-05;0.0010584977123491504
1.16903e-05;0.001031371312548969
1.16905e-05;0.0010048197791523285
1.16908e-05;0.0009810455391416001
1.16910e-05;0.0009572712991310327
1.16913e-05;0.0009342734610029575
1.16915e-05;0.0009150265740529713
1.16918e-05;0.0008957796871031155
1.16920e-05;0.0008769738530409884
1.16923e-05;0.0008602988327833565
1.16925e-05;0.0008436238125258376
1.16928e-05;0.0008277000666347713
1.16930e-05;0.0008154058759181154
1.16933e-05;0.0008031116852015429
1.16935e-05;0.0007908174944848871
1.16938e-05;0.0007785233037682313
1.16940e-05;0.0007662291130516587
1.16943e-05;0.000753934922335003
1.16945e-05;0.0007416407316183472
1.16948e-05;0.0007293465409017746
1.16950e-05;0.0007200496394559708
1.16953e-05;0.0007122190792486038
1.16955e-05;0.00070438851904129
1.16958e-05;0.0006965579588339231
1.16960e-05;0.0006887273986265561
1.16963e-05;0.0006808968384192422
1.16965e-05;0.0006730662782118752
1.16968e-05;0.0006652357180045083
1.16970e-05;0.0006578507306795316
1.16973e-05;0.0006526183941477392
1.16975e-05;0.0006473860576159469
1.16977e-05;0.0006421537210841899
1.16980e-05;0.0006369213845523976
