Time(s);Current(A)
1.07500e-05;-0.003884293775854384
1.07503e-05;-0.003902525768520219
1.07505e-05;-0.003919905489525977
1.07508e-05;-0.003937285210531616
1.07510e-05;-0.003953135758270291
1.07513e-05;-0.003966984023473437
1.07515e-05;-0.003980832288676489
1.07518e-05;-0.003994680553879635
1.07520e-05;-0.004008528819082781
1.07523e-05;-0.004022377084285833
1.07525e-05;-0.004036225349488979
1.07528e-05;-0.004043846605074851
1.07530e-05;-0.0040510207977876595
1.07533e-05;-0.004058194990500517
1.07535e-05;-0.004065369183213374
1.07538e-05;-0.004072543375926182
1.07540e-05;-0.00407971756863904
1.07543e-05;-0.004083205780409896
1.07545e-05;-0.004081867609568567
1.07548e-05;-0.004080529438727228
1.07550e-05;-0.004079191267885891
1.07553e-05;-0.004077853097044562
1.07555e-05;-0.004076514926203223
1.07558e-05;-0.004075176755361886
1.07560e-05;-0.004073838584520557
1.07563e-05;-0.004072500413679218
1.07565e-05;-0.004071162242837881
1.07567e-05;-0.00406668113560508
1.07570e-05;-0.004058084702278472
1.07573e-05;-0.004049488268951865
1.07575e-05;-0.004040891835625315
1.07578e-05;-0.004032295402298707
1.07580e-05;-0.0040236989689721
1.07582e-05;-0.00401510253564555
1.07585e-05;-0.004006506102318942
1.07588e-05;-0.003997909668992335
1.07590e-05;-0.003989313235665727
1.07593e-05;-0.003979792754440242
1.07595e-05;-0.003969062335132295
1.07598e-05;-0.0039583319158243485
1.07600e-05;-0.003947601496516474
1.07603e-05;-0.003936871077208527
1.07605e-05;-0.0039264737845581855
1.07608e-05;-0.003916512684263067
1.07610e-05;-0.00390655158396788
1.07613e-05;-0.0038965904836726945
1.07615e-05;-0.003886629383377576
1.07618e-05;-0.003877346201174012
1.07620e-05;-0.003868950677409819
1.07623e-05;-0.003860700988555859
1.07625e-05;-0.0038526422543177113
1.07628e-05;-0.0038430669479148035
1.07630e-05;-0.0038315058587195705
1.07633e-05;-0.0038175956327634523
1.07635e-05;-0.0038006094731556843
1.07638e-05;-0.0037836233135480316
1.07640e-05;-0.0037642839340036463
1.07643e-05;-0.0037418632743423533
1.07645e-05;-0.0037194426146812125
1.07648e-05;-0.003693672877059823
1.07650e-05;-0.003663517893857207
1.07652e-05;-0.003633362910654795
1.07655e-05;-0.0035993797344552373
1.07658e-05;-0.0035603839647525112
1.07660e-05;-0.0035213881950500498
1.07663e-05;-0.0034823924253473237
1.07665e-05;-0.0034433966556445977
1.07667e-05;-0.0033960278002019015
1.07670e-05;-0.0033480578061701807
1.07673e-05;-0.0033000878121384604
1.07675e-05;-0.0032521178181067396
1.07678e-05;-0.0032020080943042785
1.07680e-05;-0.0031490966320420056
1.07683e-05;-0.0030955227879202424
1.07685e-05;-0.0030410816283295327
1.07688e-05;-0.0029861867825333307
1.07690e-05;-0.002930470537847464
1.07693e-05;-0.002874373330635455
1.07695e-05;-0.002818229287354516
1.07698e-05;-0.0027623747859004447
1.07700e-05;-0.0027071464297575105
1.07703e-05;-0.0026528621781070376
1.07705e-05;-0.0025997605446970015
1.07708e-05;-0.0025479898632319213
1.07710e-05;-0.002497733197166495
1.07713e-05;-0.002449289618635679
1.07715e-05;-0.002403012408595193
1.07718e-05;-0.0023592560672955377
1.07720e-05;-0.002318375063795832
1.07723e-05;-0.002280712606601896
1.07725e-05;-0.00224654566997002
1.07728e-05;-0.0022160247526462696
1.07730e-05;-0.002189212648706607
1.07733e-05;-0.0021661689321742813
1.07735e-05;-0.00214696675030609
1.07737e-05;-0.0021316799104161587
1.07740e-05;-0.002120382219818295
1.07743e-05;-0.0021131403276665748
1.07745e-05;-0.002110838731479943
1.07748e-05;-0.002111970754069392
1.07750e-05;-0.002117238277646905
1.07752e-05;-0.0021279207804083644
1.07755e-05;-0.0021386032831698957
1.07758e-05;-0.002153888919774612
1.07760e-05;-0.00217520184884347
1.07763e-05;-0.0021965147779124724
1.07765e-05;-0.002221299683492993
1.07768e-05;-0.002250630756657933
1.07770e-05;-0.0022823341045794254
1.07773e-05;-0.002317143682789541
1.07775e-05;-0.002353955680680116
1.07778e-05;-0.002393389624718895
1.07780e-05;-0.0024340956544673703
1.07783e-05;-0.0024771902125061253
1.07785e-05;-0.002521846793857705
1.07788e-05;-0.002567803016747821
1.07790e-05;-0.0026147752020988803
1.07793e-05;-0.002662478720579023
1.07795e-05;-0.00271063235120586
1.07798e-05;-0.0027589551297768403
1.07800e-05;-0.0028071659673200877
1.07803e-05;-0.002854982387346677
1.07805e-05;-0.002902111440435071
1.07808e-05;-0.00294824067453218
1.07810e-05;-0.0029930443450838272
1.07813e-05;-0.003035728772412766
1.07815e-05;-0.0030767602839129656
1.07818e-05;-0.0031150186972963667
1.07820e-05;-0.0031496460467227154
1.07822e-05;-0.00318427339614883
1.07825e-05;-0.0032163569438268032
1.07828e-05;-0.003245109665672907
1.07830e-05;-0.0032724918519030383
1.07833e-05;-0.0032980794739793113
1.07835e-05;-0.0033236670960555843
1.07837e-05;-0.00334673948181111
1.07840e-05;-0.0033665184449895064
1.07843e-05;-0.0033862974081679026
1.07845e-05;-0.003406076371346165
1.07848e-05;-0.0034237164309110766
1.07850e-05;-0.003438555833776695
1.07853e-05;-0.0034533952366423135
1.07855e-05;-0.0034682346395078314
1.07858e-05;-0.003480552252807772
1.07860e-05;-0.0034895678627836764
1.07863e-05;-0.0034985834727595195
1.07865e-05;-0.0035075990827354237
1.07868e-05;-0.003516614692711328
1.07870e-05;-0.003525630302687171
1.07873e-05;-0.003534645912663075
1.07875e-05;-0.0035436615226389794
1.07878e-05;-0.0035504605226364754
1.07880e-05;-0.0035543571180810057
1.07883e-05;-0.003558253713525536
1.07885e-05;-0.00356215030897004
1.07888e-05;-0.0035660469044145704
1.07890e-05;-0.0035699434998591006
1.07893e-05;-0.0035738400953036044
1.07895e-05;-0.0035777366907481347
1.07898e-05;-0.0035804089085667346
1.07900e-05;-0.003581477939883853
1.07903e-05;-0.003582546971200979
1.07905e-05;-0.0035836160025181046
1.07907e-05;-0.003584685033835223
1.07910e-05;-0.003585754065152349
1.07913e-05;-0.003586823096469474
1.07915e-05;-0.0035878921277865926
1.07918e-05;-0.0035889611591037184
1.07920e-05;-0.003590030190420844
1.07922e-05;-0.0035910992217379626
1.07925e-05;-0.003592252583696938
1.07928e-05;-0.003593516367264269
1.07930e-05;-0.0035947801508315917
1.07933e-05;-0.0035960439343989225
1.07935e-05;-0.003597307717966254
1.07938e-05;-0.0035985715015335847
1.07940e-05;-0.0035998352851009073
1.07943e-05;-0.0036010990686682386
1.07945e-05;-0.0036023628522355695
1.07948e-05;-0.003603626635802892
1.07950e-05;-0.003604890419370223
1.07953e-05;-0.0036070396602238416
1.07955e-05;-0.0036103483090404874
1.07958e-05;-0.0036136569578571554
1.07960e-05;-0.0036169656066738234
1.07963e-05;-0.003620274255490469
1.07965e-05;-0.003623582904307137
1.07968e-05;-0.003626891553123805
1.07970e-05;-0.003630200201940451
1.07973e-05;-0.003633508850757119
1.07975e-05;-0.003636817499573787
1.07978e-05;-0.003640126148390433
1.07980e-05;-0.0036434347972071008
1.07983e-05;-0.0036467434460237687
1.07985e-05;-0.0036502859642625375
1.07988e-05;-0.0036541347085322848
1.07990e-05;-0.0036579834528020316
1.07992e-05;-0.0036618321970717524
1.07995e-05;-0.0036656809413414997
1.07998e-05;-0.0036695296856112465
1.08000e-05;-0.0036733784298809673
1.08003e-05;-0.0036772271741507146
1.08005e-05;-0.0036810759184204614
1.08007e-05;-0.0036849246626901823
1.08010e-05;-0.0036887734069599295
1.08013e-05;-0.0036926221512296764
1.08015e-05;-0.003696470895499397
1.08018e-05;-0.003699855596334788
1.08020e-05;-0.0037026326838369788
1.08023e-05;-0.003704922562764734
1.08025e-05;-0.0037065744961814525
1.08028e-05;-0.00370630226238743
1.08030e-05;-0.003703510545359799
1.08033e-05;-0.003700718828332187
1.08035e-05;-0.0036954334838907484
1.08038e-05;-0.0036868830113331846
1.08040e-05;-0.0036783325387756785
1.08043e-05;-0.003666074322582991
1.08045e-05;-0.0036489612279415875
1.08048e-05;-0.0036318481333003
1.08050e-05;-0.0036147350386588964
1.08053e-05;-0.0035976219440174923
1.08055e-05;-0.003580508849376205
1.08058e-05;-0.0035529839036682045
1.08060e-05;-0.003524711447940692
1.08063e-05;-0.0034964389922133715
1.08065e-05;-0.0034681665364858596
1.08068e-05;-0.0034398940807583473
1.08070e-05;-0.0034079783708279333
1.08073e-05;-0.0033712922241960963
1.08075e-05;-0.003334606077564259
1.08077e-05;-0.003297919930932671
1.08080e-05;-0.003261233784300834
1.08083e-05;-0.0032227462413060627
1.08085e-05;-0.003181899969865953
1.08088e-05;-0.003141053698425566
1.08090e-05;-0.003100207426985179
1.08092e-05;-0.0030593611555450695
1.08095e-05;-0.0030182314209639214
1.08098e-05;-0.0029767305228858374
1.08100e-05;-0.0029355119184465745
1.08103e-05;-0.002894982946173838
1.08105e-05;-0.0028552596198265856
1.08108e-05;-0.00281648696837449
1.08110e-05;-0.002778832178194083
1.08113e-05;-0.002744265671498671
1.08115e-05;-0.0027128240351151378
1.08118e-05;-0.002681382398731817
1.08120e-05;-0.002649940762348284
1.08123e-05;-0.00261849912596475
1.08125e-05;-0.0025898350035760045
1.08128e-05;-0.0025648077272487917
1.08130e-05;-0.002539780450921579
1.08133e-05;-0.0025153548633212153
1.08135e-05;-0.002491717120275329
1.08138e-05;-0.0024680793772294423
1.08140e-05;-0.002445572724301764
1.08143e-05;-0.0024245471082470307
1.08145e-05;-0.002403521492192297
1.08148e-05;-0.0023828710242194593
1.08150e-05;-0.0023627117709897616
1.08153e-05;-0.002342552517760064
1.08155e-05;-0.0023223932645305033
1.08158e-05;-0.0023022340113008056
1.08160e-05;-0.002282074758071108
1.08162e-05;-0.002262309086025755
1.08165e-05;-0.002243058764823775
1.08168e-05;-0.002223808443621795
1.08170e-05;-0.0022045581224199454
1.08173e-05;-0.0021853078012179653
1.08175e-05;-0.002166057480015985
1.08177e-05;-0.0021470494776570375
1.08180e-05;-0.0021283587649070794
1.08183e-05;-0.0021096680521571214
1.08185e-05;-0.0020912935418887857
1.08188e-05;-0.002073333063647541
1.08190e-05;-0.002055372585406296
1.08193e-05;-0.0020375845247260368
1.08195e-05;-0.0020200222256906665
1.08198e-05;-0.0020028081056125036
1.08200e-05;-0.0019860498872048726
1.08203e-05;-0.001969776583735817
1.08205e-05;-0.0019541382225165002
1.08208e-05;-0.001938921184552619
1.08210e-05;-0.001924255822593231
1.08213e-05;-0.0019099452684506063
1.08215e-05;-0.0018963942421764295
1.08218e-05;-0.0018835684703313582
1.08220e-05;-0.0018715696650930824
1.08223e-05;-0.001860564217749595
1.08225e-05;-0.0018509925048993989
1.08228e-05;-0.001843586482650452
1.08230e-05;-0.0018389119271935866
1.08233e-05;-0.0018370935815098033
1.08235e-05;-0.0018380580412760868
1.08238e-05;-0.0018417261788870255
1.08240e-05;-0.0018480190143447962
1.08243e-05;-0.0018575221771406011
1.08245e-05;-0.0018693135940501867
1.08247e-05;-0.0018838359498640183
1.08250e-05;-0.0019019341668335382
1.08253e-05;-0.0019232917243087269
1.08255e-05;-0.0019489170261439907
1.08258e-05;-0.0019745423279794285
1.08260e-05;-0.00200295514506921
1.08262e-05;-0.0020350179037606016
1.08265e-05;-0.0020691704419301044
1.08268e-05;-0.0021060593142033708
1.08270e-05;-0.0021449590245546358
1.08273e-05;-0.0021864917040155785
1.08275e-05;-0.0022292716676723125
1.08278e-05;-0.0022743643325566568
1.08280e-05;-0.0023209122495128007
1.08283e-05;-0.0023686682181484602
1.08285e-05;-0.002417452335082055
1.08288e-05;-0.0024671560466619624
1.08290e-05;-0.002517630110037836
1.08293e-05;-0.002568617041201498
1.08295e-05;-0.002619810521360379
1.08298e-05;-0.0026709029188502474
1.08300e-05;-0.002721586827594307
1.08303e-05;-0.0027715645273969714
1.08305e-05;-0.002820580635948627
1.08308e-05;-0.0028684246771418956
1.08310e-05;-0.0029148605394875107
1.08313e-05;-0.002959100145668415
1.08315e-05;-0.0030016278268850125
1.08318e-05;-0.003041283775245194
1.08320e-05;-0.003077179508407955
1.08323e-05;-0.0031130752415707156
1.08325e-05;-0.0031463323861767463
1.08328e-05;-0.00317613459214912
1.08330e-05;-0.003204505619784233
1.08332e-05;-0.0032310026783544383
1.08335e-05;-0.0032574997369248233
1.08338e-05;-0.0032817437561967196
1.08340e-05;-0.0033030376707630124
1.08343e-05;-0.00332433158532945
1.08345e-05;-0.003343656400948745
1.08347e-05;-0.0033604029002138654
1.08350e-05;-0.003377149399479099
1.08353e-05;-0.0033911746853516407
1.08355e-05;-0.0034016368445444456
1.08358e-05;-0.0034120990037373213
1.08360e-05;-0.0034225611629301973
1.08363e-05;-0.003433023322123073
1.08365e-05;-0.003443485481315878
1.08368e-05;-0.003453947640508754
1.08370e-05;-0.0034644097997016295
1.08373e-05;-0.0034748719588944344
1.08375e-05;-0.0034853341180873104
1.08378e-05;-0.00348954719594061
1.08380e-05;-0.003493311626295669
1.08383e-05;-0.0034970760566507535
1.08385e-05;-0.0035008404870058383
1.08388e-05;-0.003504604917360897
1.08390e-05;-0.0035083693477159818
1.08393e-05;-0.0035121337780710665
1.08395e-05;-0.0035158982084261253
1.08398e-05;-0.00351966263878121
1.08400e-05;-0.0035222618916370715
1.08403e-05;-0.0035233354739792255
1.08405e-05;-0.003524409056321387
1.08408e-05;-0.0035254826386635486
1.08410e-05;-0.0035265562210057026
1.08413e-05;-0.0035271777991599863
1.08415e-05;-0.003527758622571976
1.08418e-05;-0.0035283394459839617
1.08420e-05;-0.0035289202693959514
1.08423e-05;-0.003528739088002513
1.08425e-05;-0.0035274223496757
1.08428e-05;-0.0035261056113488776
1.08430e-05;-0.0035247888730220553
1.08432e-05;-0.0035234721346952417
1.08435e-05;-0.0035221553963684193
1.08438e-05;-0.0035205562158333163
1.08440e-05;-0.0035146640927671076
1.08443e-05;-0.0035087719697008595
1.08445e-05;-0.003502879846634611
1.08448e-05;-0.0034969877235683624
1.08450e-05;-0.003491095600502154
1.08453e-05;-0.0034852034774359056
1.08455e-05;-0.0034753473750721623
1.08458e-05;-0.0034639641479447996
1.08460e-05;-0.00345258092081736
1.08463e-05;-0.00344119769368992
1.08465e-05;-0.0034298144665625575
1.08468e-05;-0.0034184312394351176
1.08470e-05;-0.0034070480123076776
1.08473e-05;-0.003395664785180315
1.08475e-05;-0.0033834249724641434
1.08478e-05;-0.0033681813584812417
1.08480e-05;-0.003352937744498443
1.08483e-05;-0.003337694130515541
1.08485e-05;-0.0033224505165326394
1.08488e-05;-0.003307206902549841
1.08490e-05;-0.003291963288566939
1.08493e-05;-0.003276719674584037
1.08495e-05;-0.0032614760606012386
1.08498e-05;-0.0032461220641661352
1.08500e-05;-0.003230725542842878
1.08503e-05;-0.0032153290215197255
1.08505e-05;-0.0031999325001964684
1.08508e-05;-0.0031849551040079712
1.08510e-05;-0.003171447460086555
1.08513e-05;-0.0031579398161650477
1.08515e-05;-0.0031444321722435397
1.08517e-05;-0.0031309245283221237
1.08520e-05;-0.0031191699231833806
1.08523e-05;-0.0031080906770051112
1.08525e-05;-0.003099105435270065
1.08528e-05;-0.003090926909665757
1.08530e-05;-0.0030868667244610265
1.08533e-05;-0.0030843931317028365
1.08535e-05;-0.0030819195389446634
1.08538e-05;-0.003084307108967344
1.08540e-05;-0.0030885674440849324
1.08543e-05;-0.0030928277792024914
1.08545e-05;-0.0031036301729097846
1.08548e-05;-0.003116952897560088
1.08550e-05;-0.0031302756222103016
1.08553e-05;-0.003143598346860605
1.08555e-05;-0.0031592505356468474
1.08558e-05;-0.0031830714905390924
1.08560e-05;-0.003206892445431499
1.08563e-05;-0.003230713400323905
1.08565e-05;-0.00325453435521615
1.08568e-05;-0.0032830793676231957
1.08570e-05;-0.0033134443252612806
1.08573e-05;-0.003346366931541515
1.08575e-05;-0.0033802748730840807
1.08578e-05;-0.0034161457179367437
1.08580e-05;-0.003452772772150973
1.08583e-05;-0.003490502084352991
1.08585e-05;-0.0035292517116918697
1.08588e-05;-0.003568772033437876
1.08590e-05;-0.0036089301296585276
1.08593e-05;-0.003649512443870159
1.08595e-05;-0.00369027666689993
1.08598e-05;-0.003730977253350036
1.08600e-05;-0.0037713674936686245
1.08602e-05;-0.0038112060692072815
1.08605e-05;-0.0038502856297085164
1.08608e-05;-0.0038884349302220162
1.08610e-05;-0.003925455447612034
1.08613e-05;-0.003961097966415528
1.08615e-05;-0.0039943775947076125
1.08618e-05;-0.0040269024058115525
1.08620e-05;-0.004054570928407721
1.08623e-05;-0.00408036856372457
1.08625e-05;-0.004106166199041418
1.08628e-05;-0.004131963834358092
1.08630e-05;-0.004152057477879871
1.08633e-05;-0.00416995365605836
1.08635e-05;-0.004187849834236728
1.08638e-05;-0.004205746012415217
1.08640e-05;-0.004215152635879162
1.08643e-05;-0.0042212886546619845
1.08645e-05;-0.004227424673444849
1.08648e-05;-0.0042335606922277134
1.08650e-05;-0.004239696711010536
1.08653e-05;-0.004245832729793401
1.08655e-05;-0.004251968748576265
1.08658e-05;-0.004258104767359088
1.08660e-05;-0.004255318303551406
1.08663e-05;-0.0042490944494082234
1.08665e-05;-0.004242870595265083
1.08668e-05;-0.004236646741121899
1.08670e-05;-0.004230422886978716
1.08673e-05;-0.004224199032835576
1.08675e-05;-0.004217975178692393
1.08678e-05;-0.004211751324549209
1.08680e-05;-0.004200299560610167
1.08683e-05;-0.0041868337421267846
1.08685e-05;-0.004173367923643402
1.08687e-05;-0.0041599021051601116
1.08690e-05;-0.004146436286676729
1.08693e-05;-0.004132970468193347
1.08695e-05;-0.004119504649710055
1.08698e-05;-0.004106038831226673
1.08700e-05;-0.004092136597240949
1.08703e-05;-0.004078066233991319
1.08705e-05;-0.004063995870741785
1.08708e-05;-0.004049925507492155
1.08710e-05;-0.0040358551442425256
1.08713e-05;-0.004021784780992991
1.08715e-05;-0.0040077144177433615
1.08718e-05;-0.003993644054493732
1.08720e-05;-0.003982663109052324
1.08723e-05;-0.003972872363178078
1.08725e-05;-0.0039630816173038316
1.08728e-05;-0.0039532908714296515
1.08730e-05;-0.003943500125555406
1.08733e-05;-0.00393370937968116
1.08735e-05;-0.00392391863380698
1.08738e-05;-0.003914663957555799
1.08740e-05;-0.003907289124528278
1.08743e-05;-0.0038999142915008057
1.08745e-05;-0.003892539458473284
1.08748e-05;-0.0038851646254457624
1.08750e-05;-0.0038777897924182902
1.08753e-05;-0.0038704149593907686
1.08755e-05;-0.003863040126363247
1.08758e-05;-0.0038567876787086
1.08760e-05;-0.003850967630511738
1.08763e-05;-0.003845147582314876
1.08765e-05;-0.003839327534118053
1.08768e-05;-0.003833507485921191
1.08770e-05;-0.003827687437724329
1.08772e-05;-0.0038218673895275062
1.08775e-05;-0.0038160473413306442
1.08778e-05;-0.0038102272931337822
1.08780e-05;-0.0038044072449369593
1.08783e-05;-0.0037985871967400973
1.08785e-05;-0.003792767148543235
1.08788e-05;-0.003787954590142899
1.08790e-05;-0.003783530167629236
1.08793e-05;-0.0037791057451155422
1.08795e-05;-0.0037746813226018487
1.08798e-05;-0.003770256900088185
1.08800e-05;-0.0037658324775744914
1.08803e-05;-0.003761408055060798
1.08805e-05;-0.0037569836325471342
1.08808e-05;-0.0037525592100334407
1.08810e-05;-0.003748134787519747
1.08813e-05;-0.0037437103650060834
1.08815e-05;-0.00373928594249239
1.08818e-05;-0.0037356561525190017
1.08820e-05;-0.0037323324950808653
1.08823e-05;-0.0037290088376427063
1.08825e-05;-0.0037269224611535447
1.08828e-05;-0.0037253127476935405
1.08830e-05;-0.0037237030342335245
1.08833e-05;-0.003725486655098773
1.08835e-05;-0.003728577559503475
1.08838e-05;-0.0037316684639081984
1.08840e-05;-0.0037347593683129216
1.08843e-05;-0.0037378502727176237
1.08845e-05;-0.003740941177122347
1.08848e-05;-0.0037488631302642194
1.08850e-05;-0.0037586462470543197
1.08853e-05;-0.0037684293638444864
1.08855e-05;-0.003778212480634653
1.08857e-05;-0.0037879955974247535
1.08860e-05;-0.0037977787142149198
1.08863e-05;-0.003812170872219193
1.08865e-05;-0.0038283386653759285
1.08868e-05;-0.0038445064585327735
1.08870e-05;-0.003860674251689619
1.08873e-05;-0.003876842044846464
1.08875e-05;-0.0038930098380031996
1.08878e-05;-0.003909177631160045
1.08880e-05;-0.0039281928400780475
1.08883e-05;-0.0039483050171688966
1.08885e-05;-0.003968417194259882
1.08888e-05;-0.003988529371350868
1.08890e-05;-0.004008641548441717
1.08893e-05;-0.004028753725532702
1.08895e-05;-0.004048865902623687
1.08898e-05;-0.004069264461255367
1.08900e-05;-0.004089773348501618
1.08903e-05;-0.004109788589558725
1.08905e-05;-0.0041296136532044305
1.08908e-05;-0.0041486880788248375
1.08910e-05;-0.004167473320816119
1.08913e-05;-0.004185178155008923
1.08915e-05;-0.004202466761622797
1.08918e-05;-0.004218695129843393
1.08920e-05;-0.004233675321192506
1.08923e-05;-0.004247350768653779
1.08925e-05;-0.004258279127670117
1.08928e-05;-0.004268294803468142
1.08930e-05;-0.004273938592638553
1.08933e-05;-0.004277898110564544
1.08935e-05;-0.004276381410909026
1.08938e-05;-0.004272754996023895
1.08940e-05;-0.004269128581138763
1.08942e-05;-0.004257695065772454
1.08945e-05;-0.0042432538615151194
1.08948e-05;-0.004228812657257786
