Time(s);Current(A)
5.50000e-06;0.0049849486326174666
5.50025e-06;0.005000981158052044
5.50050e-06;0.005017013683486623
5.50075e-06;0.0050330462089212555
5.50100e-06;0.005049078734355833
5.50125e-06;0.005065111259790411
5.50150e-06;0.005081143785225044
5.50175e-06;0.005097176310659621
5.50200e-06;0.0051132088360942
5.50225e-06;0.005129241361528833
5.50250e-06;0.00514527388696341
5.50275e-06;0.005161306412397988
5.50300e-06;0.005177338937832621
5.50325e-06;0.005196505042817578
5.50350e-06;0.005216993111792897
5.50375e-06;0.005237481180768146
5.50400e-06;0.005257969249743395
5.50425e-06;0.005278457318718712
5.50450e-06;0.005298945387693961
5.50475e-06;0.00531943345666921
5.50500e-06;0.005339921525644529
5.50525e-06;0.005360409594619778
5.50550e-06;0.005380897663595027
5.50575e-06;0.0054013857325703445
5.50600e-06;0.005421873801545594
5.50625e-06;0.005442361870520843
5.50650e-06;0.005462849939496161
5.50675e-06;0.0054809572620572134
5.50700e-06;0.0054897347677753845
5.50725e-06;0.005498512273493586
5.50750e-06;0.005507289779211758
5.50775e-06;0.005516067284929959
5.50800e-06;0.00552484479064813
5.50825e-06;0.005533622296366302
5.50850e-06;0.005542399802084504
5.50875e-06;0.005551177307802675
5.50900e-06;0.005559954813520847
5.50925e-06;0.005568732319239048
5.50950e-06;0.005577509824957219
5.50975e-06;0.005586287330675391
5.51000e-06;0.005595064836393593
5.51025e-06;0.005603842342111764
5.51050e-06;0.005612619847829936
5.51075e-06;0.005621397353548137
5.51100e-06;0.005630174859266309
5.51125e-06;0.00563895236498448
5.51150e-06;0.005647729870702682
5.51175e-06;0.005654573474133254
5.51200e-06;0.0056538383812251075
5.51225e-06;0.005653103288316964
5.51250e-06;0.00565236819540882
5.51275e-06;0.005651633102500673
5.51300e-06;0.005650898009592529
5.51325e-06;0.005650162916684385
5.51350e-06;0.0056494278237762385
5.51375e-06;0.005648692730868095
5.51400e-06;0.005647957637959951
5.51425e-06;0.005647222545051804
5.51450e-06;0.005646487452143661
5.51475e-06;0.005645752359235516
5.51500e-06;0.0056450172663273694
5.51525e-06;0.005644282173419226
5.51550e-06;0.005643547080511082
5.51575e-06;0.005642811987602935
5.51600e-06;0.0056420768946947916
5.51625e-06;0.005641341801786645
5.51650e-06;0.0056406067088785004
5.51675e-06;0.005638908345064324
5.51700e-06;0.005633435055425548
5.51725e-06;0.00562796176578679
5.51750e-06;0.005622488476148033
5.51775e-06;0.005617015186509256
5.51800e-06;0.005611541896870498
5.51825e-06;0.00560606860723174
5.51850e-06;0.005600595317592964
5.51875e-06;0.005595122027954207
5.51900e-06;0.005589648738315449
5.51925e-06;0.005580246204245229
5.51950e-06;0.005555445503178377
5.51975e-06;0.005530644802111525
5.52000e-06;0.0055058441010445896
5.52025e-06;0.005481043399977738
5.52050e-06;0.0054562426989108025
5.52075e-06;0.005431441997843951
5.52100e-06;0.0054066412967771
5.52125e-06;0.005381840595710163
5.52150e-06;0.005357039894643312
5.52175e-06;0.00532844406916229
5.52200e-06;0.0052849756745349695
5.52225e-06;0.005241507279907796
5.52250e-06;0.005198038885280622
5.52275e-06;0.005154570490653301
5.52300e-06;0.005111102096026127
5.52325e-06;0.005067633701398953
5.52350e-06;0.005024165306771632
5.52375e-06;0.004980696912144459
5.52400e-06;0.0049362146810104125
5.52425e-06;0.004887759364436867
5.52450e-06;0.004839304047863486
5.52475e-06;0.00479084873128994
5.52500e-06;0.004742393414716559
5.52525e-06;0.0046939380981431775
5.52550e-06;0.004645482781569631
5.52575e-06;0.00459702746499625
5.52600e-06;0.0045485721484228685
5.52625e-06;0.004503128291595686
5.52650e-06;0.004469485930164935
5.52675e-06;0.004435843568734184
5.52700e-06;0.004402201207303318
5.52725e-06;0.004368558845872567
5.52750e-06;0.004334916484441816
5.52775e-06;0.00430127412301095
5.52800e-06;0.004267631761580199
5.52825e-06;0.004233989400149448
5.52850e-06;0.004200347038718582
5.52875e-06;0.00419119595945431
5.52900e-06;0.004192377023529859
5.52925e-06;0.004193558087605405
5.52950e-06;0.004194739151680949
5.52975e-06;0.004195920215756499
5.53000e-06;0.004197101279832044
5.53025e-06;0.004198282343907589
5.53050e-06;0.004199463407983138
5.53075e-06;0.004200644472058683
5.53100e-06;0.004208647206869071
5.53125e-06;0.004243383128420395
5.53150e-06;0.004278119049971602
5.53175e-06;0.004312854971522808
5.53200e-06;0.004347590893074132
5.53225e-06;0.004382326814625338
5.53250e-06;0.004417062736176545
5.53275e-06;0.004451798657727869
5.53300e-06;0.004486534579279076
5.53325e-06;0.004533780428652149
5.53350e-06;0.004586303844406962
5.53375e-06;0.004638827260161774
5.53400e-06;0.004691350675916765
5.53425e-06;0.004743874091671578
5.53450e-06;0.00479639750742639
5.53475e-06;0.004848920923181381
5.53500e-06;0.004901444338936194
5.53525e-06;0.00495323943218801
5.53550e-06;0.005002180330003933
5.53575e-06;0.005051121227819691
5.53600e-06;0.005100062125635448
5.53625e-06;0.005149003023451371
5.53650e-06;0.0051979439212671286
5.53675e-06;0.005246884819082886
5.53700e-06;0.005295825716898809
5.53725e-06;0.0053447666147145665
5.53750e-06;0.005388141236227166
5.53775e-06;0.005409702388632448
5.53800e-06;0.005431263541037657
5.53825e-06;0.00545282469344294
5.53850e-06;0.0054743858458481485
5.53875e-06;0.005495946998253357
5.53900e-06;0.005517508150658639
5.53925e-06;0.005539069303063848
5.53950e-06;0.005560630455469057
5.53975e-06;0.005574596380531559
5.54000e-06;0.0055587976572064254
5.54025e-06;0.005542998933881292
5.54050e-06;0.005527200210556105
5.54075e-06;0.005511401487230972
5.54100e-06;0.005495602763905838
5.54125e-06;0.005479804040580651
5.54150e-06;0.005464005317255518
5.54175e-06;0.005448206593930385
5.54200e-06;0.0054324078706051975
5.54225e-06;0.005411039704840917
5.54250e-06;0.005367845662322035
5.54275e-06;0.0053246516198033
5.54300e-06;0.0052814575772845655
5.54325e-06;0.005238263534765684
5.54350e-06;0.005195069492246949
5.54375e-06;0.005151875449728214
5.54400e-06;0.005108681407209333
5.54425e-06;0.0050654873646905985
5.54450e-06;0.0050222933221718636
5.54475e-06;0.004978341600324655
5.54500e-06;0.004931420637692944
5.54525e-06;0.004884499675061234
5.54550e-06;0.004837578712429364
5.54575e-06;0.004790657749797653
5.54600e-06;0.004743736787165942
5.54625e-06;0.004696815824534072
5.54650e-06;0.004649894861902362
5.54675e-06;0.004602973899270492
5.54700e-06;0.004556052936638781
5.54725e-06;0.004523123702623856
5.54750e-06;0.004496097162661227
5.54775e-06;0.004469070622698689
5.54800e-06;0.004442044082736151
5.54825e-06;0.004415017542773522
5.54850e-06;0.004387991002810984
5.54875e-06;0.0043609644628484455
5.54900e-06;0.004333937922885816
5.54925e-06;0.004306911382923278
5.54950e-06;0.004285447913169055
5.54975e-06;0.004285785348270977
5.55000e-06;0.004286122783372898
5.55025e-06;0.004286460218474819
5.55050e-06;0.004286797653576741
5.55075e-06;0.004287135088678662
5.55100e-06;0.004287472523780584
5.55125e-06;0.004287809958882505
5.55150e-06;0.004288147393984426
5.55175e-06;0.004288484829086348
5.55200e-06;0.004288822264188268
5.55225e-06;0.0042931007316739656
5.55250e-06;0.004312823561500885
5.55275e-06;0.004332546391327739
5.55300e-06;0.004352269221154593
5.55325e-06;0.004371992050981513
5.55350e-06;0.004391714880808366
5.55375e-06;0.00441143771063522
5.55400e-06;0.00443116054046214
5.55425e-06;0.004450883370288994
5.55450e-06;0.004470606200115847
5.55475e-06;0.004490329029942767
5.55500e-06;0.0045102288013899785
5.55525e-06;0.004530821982642531
5.55550e-06;0.004551415163895013
5.55575e-06;0.0045720083451474955
5.55600e-06;0.004592601526400047
5.55625e-06;0.00461319470765253
5.55650e-06;0.0046337878889050116
5.55675e-06;0.004654381070157564
5.55700e-06;0.004674974251410047
5.55725e-06;0.0046955674326625285
5.55750e-06;0.004716160613915081
5.55775e-06;0.0047367537951675635
5.55800e-06;0.0047573469764200455
5.55825e-06;0.0047667930824675546
5.55850e-06;0.0047715365691103915
5.55875e-06;0.004776280055753228
5.55900e-06;0.004781023542396081
5.55925e-06;0.004785767029038918
5.55950e-06;0.004790510515681771
5.55975e-06;0.004795254002324608
5.56000e-06;0.004799997488967445
5.56025e-06;0.0048047409756102975
5.56050e-06;0.004809484462253134
5.56075e-06;0.004814227948895971
5.56100e-06;0.004818971435538825
5.56125e-06;0.0048207481856252996
5.56150e-06;0.004810898704340682
5.56175e-06;0.004801049223056032
5.56200e-06;0.0047911997417714155
5.56225e-06;0.004781350260486798
5.56250e-06;0.004771500779202148
5.56275e-06;0.0047616512979175305
5.56300e-06;0.004751801816632914
5.56325e-06;0.004741952335348263
5.56350e-06;0.004732102854063646
5.56375e-06;0.004722253372778996
5.56400e-06;0.004712403891494379
5.56425e-06;0.004702554410209761
5.56450e-06;0.004690148051421649
5.56475e-06;0.004676663022081857
5.56500e-06;0.004663177992742065
5.56525e-06;0.004649692963402227
5.56550e-06;0.004636207934062435
5.56575e-06;0.004622722904722642
5.56600e-06;0.004609237875382805
5.56625e-06;0.004595752846043012
5.56650e-06;0.004582267816703221
5.56675e-06;0.004568782787363382
5.56700e-06;0.004555297758023591
5.56725e-06;0.004541812728683798
5.56750e-06;0.004531106924112176
5.56775e-06;0.0045312925180748444
5.56800e-06;0.004531478112037515
5.56825e-06;0.0045316637060001845
5.56850e-06;0.004531849299962853
5.56875e-06;0.004532034893925524
5.56900e-06;0.004532220487888193
5.56925e-06;0.004532406081850862
5.56950e-06;0.004532591675813533
5.56975e-06;0.004532777269776202
5.57000e-06;0.004532962863738871
5.57025e-06;0.0045331484577015415
5.57050e-06;0.00453333405166421
5.57075e-06;0.004549265961587479
5.57100e-06;0.004571840773761396
5.57125e-06;0.004594415585935236
5.57150e-06;0.004616990398109077
5.57175e-06;0.004639565210282993
5.57200e-06;0.004662140022456834
5.57225e-06;0.00468471483463075
5.57250e-06;0.004707289646804591
5.57275e-06;0.004729864458978431
5.57300e-06;0.004752439271152348
5.57325e-06;0.004775014083326188
5.57350e-06;0.0047975888955000285
5.57375e-06;0.004822003675844167
5.57400e-06;0.004853629037663189
5.57425e-06;0.004885254399482211
5.57450e-06;0.00491687976130134
5.57475e-06;0.004948505123120362
5.57500e-06;0.004980130484939384
5.57525e-06;0.005011755846758513
5.57550e-06;0.005043381208577535
5.57575e-06;0.005075006570396557
5.57600e-06;0.005106631932215686
5.57625e-06;0.005131864821039417
5.57650e-06;0.005154400915683057
5.57675e-06;0.005176937010326621
5.57700e-06;0.005199473104970185
5.57725e-06;0.005222009199613825
5.57750e-06;0.005244545294257388
5.57775e-06;0.005267081388900952
5.57800e-06;0.005289617483544592
5.57825e-06;0.005312153578188156
5.57850e-06;0.005328676043409229
5.57875e-06;0.005321631924377674
5.57900e-06;0.005314587805346141
5.57925e-06;0.00530754368631461
5.57950e-06;0.005300499567283054
5.57975e-06;0.005293455448251522
5.58000e-06;0.00528641132921999
5.58025e-06;0.0052793672101884345
5.58050e-06;0.005272323091156902
5.58075e-06;0.005265278972125346
5.58100e-06;0.005258234853093815
5.58125e-06;0.0052511907340622825
5.58150e-06;0.005222725408739733
5.58175e-06;0.005185223113766541
5.58200e-06;0.005147720818793349
5.58225e-06;0.00511021852382003
5.58250e-06;0.005072716228846837
5.58275e-06;0.005035213933873644
5.58300e-06;0.004997711638900325
5.58325e-06;0.004960209343927133
5.58350e-06;0.004922707048953941
5.58375e-06;0.004885204753980621
5.58400e-06;0.004847702459007429
5.58425e-06;0.004808420397174115
5.58450e-06;0.004762163674498528
5.58475e-06;0.004715906951823099
5.58500e-06;0.004669650229147513
5.58525e-06;0.004623393506472083
5.58550e-06;0.004577136783796654
5.58575e-06;0.0045308800611210676
5.58600e-06;0.004484623338445638
5.58625e-06;0.004438366615770209
5.58650e-06;0.004394979547738507
5.58675e-06;0.004362838260444807
5.58700e-06;0.0043306969731511085
5.58725e-06;0.0042985556858573006
5.58750e-06;0.004266414398563601
5.58775e-06;0.004234273111269902
5.58800e-06;0.004202131823976094
5.58825e-06;0.004169990536682395
5.58850e-06;0.004137849249388696
5.58875e-06;0.004111106422712841
5.58900e-06;0.004105519418587722
5.58925e-06;0.004099932414462585
5.58950e-06;0.0040943454103374655
5.58975e-06;0.004088758406212346
5.59000e-06;0.004083171402087208
5.59025e-06;0.004077584397962089
5.59050e-06;0.00407199739383697
5.59075e-06;0.004066410389711832
5.59100e-06;0.004060823385586713
5.59125e-06;0.0040552363814615935
5.59150e-06;0.004049649377336456
5.59175e-06;0.004060032598344351
5.59200e-06;0.004077153182218077
5.59225e-06;0.004094273766091861
5.59250e-06;0.004111394349965586
5.59275e-06;0.004128514933839311
5.59300e-06;0.0041456355177130946
5.59325e-06;0.004162756101586821
5.59350e-06;0.004179876685460604
5.59375e-06;0.004196997269334329
5.59400e-06;0.004214117853208055
5.59425e-06;0.004231238437081839
5.59450e-06;0.004249515737909182
5.59475e-06;0.004272326052930713
5.59500e-06;0.00429513636795232
5.59525e-06;0.004317946682973851
5.59550e-06;0.004340756997995382
5.59575e-06;0.0043635673130169896
5.59600e-06;0.00438637762803852
5.59625e-06;0.004409187943060051
5.59650e-06;0.004429307688966145
5.59675e-06;0.004447735114662321
5.59700e-06;0.004466162540358496
5.59725e-06;0.004484589966054734
5.59750e-06;0.00450301739175091
5.59775e-06;0.004521444817447148
5.59800e-06;0.0045398722431433235
5.59825e-06;0.0045584138725476946
5.59850e-06;0.004581510027636454
5.59875e-06;0.004604606182725136
5.59900e-06;0.004627702337813817
5.59925e-06;0.004650798492902577
5.59950e-06;0.004673894647991258
5.59975e-06;0.00469699080307994
5.60000e-06;0.0047200869581687
5.60025e-06;0.004743183113257381
5.60050e-06;0.004766279268346062
5.60075e-06;0.004789375423434822
5.60100e-06;0.004812471578523504
5.60125e-06;0.004835567733612185
5.60150e-06;0.00485894672233169
5.60175e-06;0.004893605318824421
5.60200e-06;0.0049282639153172695
5.60225e-06;0.00496292251181
5.60250e-06;0.004997581108302731
5.60275e-06;0.005032239704795579
5.60300e-06;0.005066898301288309
5.60325e-06;0.00510155689778104
5.60350e-06;0.005136215494273888
5.60375e-06;0.005170874090766619
5.60400e-06;0.005205532687259349
5.60425e-06;0.005240191283752197
5.60450e-06;0.005274849880244928
5.60475e-06;0.00530948773810874
5.60500e-06;0.005343298524597837
5.60525e-06;0.005377109311086821
5.60550e-06;0.005410920097575805
5.60575e-06;0.005444730884064902
5.60600e-06;0.005478541670553886
5.60625e-06;0.005512352457042983
5.60650e-06;0.005546163243531967
5.60675e-06;0.00557997403002095
5.60700e-06;0.005613333956144937
5.60725e-06;0.005628713248000564
5.60750e-06;0.005644092539856191
5.60775e-06;0.00565947183171187
5.60800e-06;0.005674851123567496
5.60825e-06;0.005690230415423123
5.60850e-06;0.005705609707278802
5.60875e-06;0.005720988999134429
5.60900e-06;0.005736368290990055
5.60925e-06;0.005750880520569223
5.60950e-06;0.005730813685583013
5.60975e-06;0.005710746850596803
5.61000e-06;0.005690680015610525
5.61025e-06;0.0056706131806243155
5.61050e-06;0.0056505463456380375
5.61075e-06;0.005630479510651827
5.61100e-06;0.005610412675665618
5.61125e-06;0.0055903458406793395
5.61150e-06;0.00557027900569313
5.61175e-06;0.005549458619100778
5.61200e-06;0.005498586054784809
5.61225e-06;0.005447713490469013
5.61250e-06;0.0053968409261532175
5.61275e-06;0.005345968361837249
5.61300e-06;0.005295095797521453
5.61325e-06;0.005244223233205657
5.61350e-06;0.0051933506688896895
5.61375e-06;0.005142478104573894
5.61400e-06;0.005091605540258098
5.61425e-06;0.005040502154146048
5.61450e-06;0.00498019342950423
5.61475e-06;0.004919884704862207
5.61500e-06;0.004859575980220388
5.61525e-06;0.00479926725557857
5.61550e-06;0.004738958530936547
5.61575e-06;0.004681480554059674
5.61600e-06;0.004626569267066231
5.61625e-06;0.004571657980072601
5.61650e-06;0.004516746693079158
5.61675e-06;0.0044618354060857145
5.61700e-06;0.00440711283038707
5.61725e-06;0.004360442185162363
5.61750e-06;0.004334748353507477
5.61775e-06;0.004309054521852504
5.61800e-06;0.004283360690197617
5.61825e-06;0.00425766685854273
5.61850e-06;0.004231973026887757
5.61875e-06;0.004206279195232871
5.61900e-06;0.0041805853635778975
5.61925e-06;0.004154891531923011
5.61950e-06;0.004129197700268124
5.61975e-06;0.004103503868613151
5.62000e-06;0.004077810036958265
5.62025e-06;0.004052965620743031
5.62050e-06;0.004061996500528678
5.62075e-06;0.004071027380314296
5.62100e-06;0.004080058260099913
5.62125e-06;0.004089089139885561
5.62150e-06;0.004098120019671178
5.62175e-06;0.004107150899456795
5.62200e-06;0.004116181779242443
5.62225e-06;0.00412521265902806
5.62250e-06;0.004134243538813678
5.62275e-06;0.004143274418599325
5.62300e-06;0.004152305298384943
5.62325e-06;0.004161754636966689
5.62350e-06;0.004187892411983844
5.62375e-06;0.0042140301870009994
5.62400e-06;0.004240167962018244
5.62425e-06;0.0042663057370353995
5.62450e-06;0.004292443512052555
5.62475e-06;0.004318581287069799
5.62500e-06;0.004344719062086955
5.62525e-06;0.00437085683710411
5.62550e-06;0.004396946264791498
5.62575e-06;0.004421107566344748
5.62600e-06;0.004445268867897997
5.62625e-06;0.004469430169451328
5.62650e-06;0.004493591471004577
5.62675e-06;0.004517752772557827
5.62700e-06;0.004541914074111158
5.62725e-06;0.004566075375664408
5.62750e-06;0.004590236677217739
5.62775e-06;0.004614109711467478
5.62800e-06;0.004626486439242601
5.62825e-06;0.004638863167017765
5.62850e-06;0.004651239894792887
5.62875e-06;0.00466361662256801
5.62900e-06;0.0046759933503431736
5.62925e-06;0.004688370078118296
5.62950e-06;0.004700746805893418
5.62975e-06;0.004713123533668583
5.63000e-06;0.004725500261443706
5.63025e-06;0.004737876989218828
5.63050e-06;0.004750253716993992
5.63075e-06;0.004762630444769115
5.63100e-06;0.004775007172544237
5.63125e-06;0.004787383900319402
5.63150e-06;0.004799760628094524
5.63175e-06;0.004812137355869688
5.63200e-06;0.004824514083644811
5.63225e-06;0.004836890811419933
5.63250e-06;0.004849267539195097
5.63275e-06;0.004858361693719702
5.63300e-06;0.004864479480072152
5.63325e-06;0.004870597266424623
5.63350e-06;0.004876715052777074
5.63375e-06;0.004882832839129524
5.63400e-06;0.004888950625481996
5.63425e-06;0.004895068411834446
5.63450e-06;0.004901186198186897
5.63475e-06;0.004907303984539368
5.63500e-06;0.004913421770891818
5.63525e-06;0.004919539557244269
5.63550e-06;0.0049256573435967396
5.63575e-06;0.0049317751299491905
5.63600e-06;0.004937892916301661
5.63625e-06;0.004944010702654112
5.63650e-06;0.0049501284890065625
5.63675e-06;0.004956246275359033
5.63700e-06;0.004962364061711484
5.63725e-06;0.0049684818480639345
5.63750e-06;0.00497427496775641
5.63775e-06;0.004967120148599967
5.63800e-06;0.004959965329443523
5.63825e-06;0.004952810510287055
5.63850e-06;0.004945655691130611
5.63875e-06;0.004938500871974168
5.63900e-06;0.0049313460528177
5.63925e-06;0.004924191233661257
5.63950e-06;0.004917036414504813
5.63975e-06;0.004909881595348346
5.64000e-06;0.004902726776191902
5.64025e-06;0.004882210652080888
5.64050e-06;0.004849579592593233
5.64075e-06;0.004816948533105577
5.64100e-06;0.004784317473617811
5.64125e-06;0.004751686414130155
5.64150e-06;0.0047190553546425
5.64175e-06;0.004686424295154734
5.64200e-06;0.0046537932356670786
5.64225e-06;0.004621162176179423
5.64250e-06;0.004588531116691657
5.64275e-06;0.0045555083750397785
5.64300e-06;0.004506865068265536
5.64325e-06;0.00445822176149113
5.64350e-06;0.004409578454716887
5.64375e-06;0.004360935147942646
5.64400e-06;0.0043122918411682394
5.64425e-06;0.004263648534393997
5.64450e-06;0.004215005227619591
5.64475e-06;0.004166361920845348
5.64500e-06;0.004118526627676113
5.64525e-06;0.004071423974966671
5.64550e-06;0.004024321322257387
5.64575e-06;0.003977218669548105
5.64600e-06;0.0039301160168386615
5.64625e-06;0.003883013364129379
5.64650e-06;0.0038359107114200957
5.64675e-06;0.003788808058710653
5.64700e-06;0.003742276679010974
5.64725e-06;0.0037185280759007276
5.64750e-06;0.0036947794727904006
5.64775e-06;0.003671030869680154
5.64800e-06;0.0036472822665699076
5.64825e-06;0.0036235336634595806
5.64850e-06;0.0035997850603493343
5.64875e-06;0.0035760364572390074
5.64900e-06;0.003552287854128761
5.64925e-06;0.0035285392510185144
5.64950e-06;0.0035255264437791694
5.64975e-06;0.0035413151553866282
5.65000e-06;0.0035571038669940875
5.65025e-06;0.0035728925786016
5.65050e-06;0.003588681290209059
5.65075e-06;0.003604470001816518
