Time(s);Current(A)
9.50000e-06;0.009526295042282074
9.50025e-06;0.009525138414150208
9.50050e-06;0.009523981786018347
9.50075e-06;0.00952282515788648
9.50100e-06;0.009521668529754612
9.50125e-06;0.009512697552782072
9.50150e-06;0.009490173444674798
9.50175e-06;0.009467649336567525
9.50200e-06;0.009445125228460404
9.50225e-06;0.009422601120353131
9.50250e-06;0.009400077012245857
9.50275e-06;0.009377552904138737
9.50300e-06;0.009355028796031464
9.50325e-06;0.00933250468792419
9.50350e-06;0.009309980579816917
9.50375e-06;0.009287456471709796
9.50400e-06;0.009264932363602523
9.50425e-06;0.009242408255495249
9.50450e-06;0.009218213916711817
9.50475e-06;0.009191122745979026
9.50500e-06;0.009164031575246234
9.50525e-06;0.009136940404513625
9.50550e-06;0.009109849233780835
9.50575e-06;0.009082758063048042
9.50600e-06;0.009055666892315435
9.50625e-06;0.009028575721582643
9.50650e-06;0.009001484550849852
9.50675e-06;0.008974393380117244
9.50700e-06;0.008947302209384451
9.50725e-06;0.00892021103865166
9.50750e-06;0.008893119867919052
9.50775e-06;0.008872855273658489
9.50800e-06;0.008864430627682461
9.50825e-06;0.008856005981706489
9.50850e-06;0.008847581335730461
9.50875e-06;0.008839156689754433
9.50900e-06;0.008830732043778461
9.50925e-06;0.008822307397802433
9.50950e-06;0.008813882751826404
9.50975e-06;0.008805458105850433
9.51000e-06;0.008797033459874405
9.51025e-06;0.0088121724062456
9.51050e-06;0.008830966495801241
9.51075e-06;0.008849760585357008
9.51100e-06;0.008868554674912774
9.51125e-06;0.008887348764468414
9.51150e-06;0.008906142854024182
9.51175e-06;0.008924936943579948
9.51200e-06;0.008943731033135716
9.51225e-06;0.008962525122691356
9.51250e-06;0.008988901809428707
9.51275e-06;0.009028429679466045
9.51300e-06;0.009067957549503116
9.51325e-06;0.009107485419540456
9.51350e-06;0.009147013289577795
9.51375e-06;0.009186541159614866
9.51400e-06;0.009226069029652204
9.51425e-06;0.009265596899689544
9.51450e-06;0.009305124769726615
9.51475e-06;0.009344652639763954
9.51500e-06;0.009384180509801292
9.51525e-06;0.009423089547761675
9.51550e-06;0.009460925289346627
9.51575e-06;0.009498761030931578
9.51600e-06;0.009536596772516273
9.51625e-06;0.009574432514101224
9.51650e-06;0.009612268255686176
9.51675e-06;0.00965010399727087
9.51700e-06;0.009687939738855822
9.51725e-06;0.009725775480440773
9.51750e-06;0.009763611222025468
9.51775e-06;0.009801446963610419
9.51800e-06;0.009829164857095255
9.51825e-06;0.009839334452575163
9.51850e-06;0.00984950404805514
9.51875e-06;0.009859673643535115
9.51900e-06;0.009869843239015023
9.51925e-06;0.009880012834495
9.51950e-06;0.009890182429974975
9.51975e-06;0.009900352025454882
9.52000e-06;0.00991052162093486
9.52025e-06;0.009920691216414835
9.52050e-06;0.009930860811894811
9.52075e-06;0.009941030407374719
9.52100e-06;0.009951200002854696
9.52125e-06;0.009936887239248984
9.52150e-06;0.009918776814968921
9.52175e-06;0.009900666390688736
9.52200e-06;0.009882555966408548
9.52225e-06;0.009864445542128486
9.52250e-06;0.009846335117848298
9.52275e-06;0.009828224693568113
9.52300e-06;0.009810114269288048
9.52325e-06;0.009792003845007863
9.52350e-06;0.009773893420727675
9.52375e-06;0.009755782996447613
9.52400e-06;0.009737672572167427
9.52425e-06;0.00971574379553106
9.52450e-06;0.009687192505453432
9.52475e-06;0.009658641215375609
9.52500e-06;0.009630089925297786
9.52525e-06;0.009601538635220157
9.52550e-06;0.009572987345142335
9.52575e-06;0.009544436055064512
9.52600e-06;0.009516962118979209
9.52625e-06;0.009491356735250978
9.52650e-06;0.009465751351522746
9.52675e-06;0.009440145967794687
9.52700e-06;0.009414540584066456
9.52725e-06;0.009388935200338224
9.52750e-06;0.009363329816610165
9.52775e-06;0.009338444507332271
9.52800e-06;0.00931480808822534
9.52825e-06;0.009291171669118567
9.52850e-06;0.009267535250011635
9.52875e-06;0.009243898830904703
9.52900e-06;0.00922026241179777
9.52925e-06;0.009196625992690999
9.52950e-06;0.009172989573584065
9.52975e-06;0.009149353154477133
9.53000e-06;0.0091150446388613
9.53025e-06;0.009079080686319949
9.53050e-06;0.009043116733778597
9.53075e-06;0.009007152781237489
9.53100e-06;0.008971188828696137
9.53125e-06;0.008935224876154786
9.53150e-06;0.00889926092361368
9.53175e-06;0.008863296971072328
9.53200e-06;0.008822427196745749
9.53225e-06;0.008773048812502725
9.53250e-06;0.008723670428259367
9.53275e-06;0.00867429204401601
9.53300e-06;0.008624913659772986
9.53325e-06;0.008575535275529627
9.53350e-06;0.008526156891286269
9.53375e-06;0.008476778507043245
9.53400e-06;0.008427400122799886
9.53425e-06;0.008378021738556528
9.53450e-06;0.008328643354313506
9.53475e-06;0.008279811642226942
9.53500e-06;0.008231928073048686
9.53525e-06;0.008184044503870754
9.53550e-06;0.008136160934692499
9.53575e-06;0.008088277365514242
9.53600e-06;0.008040393796336311
9.53625e-06;0.007992510227158054
9.53650e-06;0.007944626657979799
9.53675e-06;0.007896743088801866
9.53700e-06;0.007848859519623611
9.53725e-06;0.007800975950445354
9.53750e-06;0.0077631784265674774
9.53775e-06;0.0077428740422366875
9.53800e-06;0.007722569657905761
9.53825e-06;0.0077022652735748345
9.53850e-06;0.007681960889244045
9.53875e-06;0.0076616565049131185
9.53900e-06;0.0076413521205821915
9.53925e-06;0.0076210477362514024
9.53950e-06;0.0076007433519204755
9.53975e-06;0.0075804389675895485
9.54000e-06;0.0075601345832587595
9.54025e-06;0.0075398301989278325
9.54050e-06;0.0075195258145969055
9.54075e-06;0.0074992214302661165
9.54100e-06;0.0074789170459351895
9.54125e-06;0.0074684108495643485
9.54150e-06;0.00747489853575134
9.54175e-06;0.007481386221938374
9.54200e-06;0.007487873908125409
9.54225e-06;0.0074943615943124
9.54250e-06;0.007500849280499435
9.54275e-06;0.0075073369666864695
9.54300e-06;0.00751382465287346
9.54325e-06;0.007520312339060495
9.54350e-06;0.00752680002524753
9.54375e-06;0.00753328771143452
9.54400e-06;0.007539775397621555
9.54425e-06;0.00754626308380859
9.54450e-06;0.007552750769995581
9.54475e-06;0.007559238456182615
9.54500e-06;0.007568162712482716
9.54525e-06;0.007581312932452516
9.54550e-06;0.007594463152422406
9.54575e-06;0.007607613372392296
9.54600e-06;0.007620763592362185
9.54625e-06;0.007633913812331986
9.54650e-06;0.007647064032301876
9.54675e-06;0.007660214252271765
9.54700e-06;0.007673364472241566
9.54725e-06;0.0076842779446246
9.54750e-06;0.0076948444566377824
9.54775e-06;0.007705410968650894
9.54800e-06;0.007715977480664077
9.54825e-06;0.00772654399267726
9.54850e-06;0.007737110504690371
9.54875e-06;0.007747677016703554
9.54900e-06;0.007758243528716737
9.54925e-06;0.007771245024288323
9.54950e-06;0.00778846973182555
9.54975e-06;0.007805694439362776
9.55000e-06;0.007822919146899887
9.55025e-06;0.007840143854437114
9.55050e-06;0.007857368561974342
9.55075e-06;0.007874593269511452
9.55100e-06;0.007891817977048679
9.55125e-06;0.007909042684585907
9.55150e-06;0.007926267392123017
9.55175e-06;0.007943492099660244
9.55200e-06;0.007960716807197472
9.55225e-06;0.007977941514734582
9.55250e-06;0.007995166222271808
9.55275e-06;0.00801899895529798
9.55300e-06;0.008043856713669731
9.55325e-06;0.00806871447204165
9.55350e-06;0.008093572230413567
9.55375e-06;0.008118429988785317
9.55400e-06;0.008143287747157236
9.55425e-06;0.008168145505529153
9.55450e-06;0.008193003263901072
9.55475e-06;0.008217861022272822
9.55500e-06;0.00824271878064474
9.55525e-06;0.008267576539016658
9.55550e-06;0.008292434297388409
9.55575e-06;0.008317292055760327
9.55600e-06;0.008337904331109522
9.55625e-06;0.008351153281707224
9.55650e-06;0.008364402232305014
9.55675e-06;0.008377651182902802
9.55700e-06;0.008390900133500504
9.55725e-06;0.008404149084098294
9.55750e-06;0.008417398034696084
9.55775e-06;0.008430646985293784
9.55800e-06;0.008443895935891574
9.55825e-06;0.008457144886489364
9.55850e-06;0.008470393837087064
9.55875e-06;0.008483642787684854
9.55900e-06;0.008496891738282645
9.55925e-06;0.008510140688880345
9.55950e-06;0.008523389639478135
9.55975e-06;0.008536638590075925
9.56000e-06;0.008549887540673625
9.56025e-06;0.008563136491271415
9.56050e-06;0.008576385441869205
9.56075e-06;0.008589634392466905
9.56100e-06;0.008602883343064695
9.56125e-06;0.00861066081259929
9.56150e-06;0.008608948598220218
9.56175e-06;0.008607236383841133
9.56200e-06;0.008605524169462048
9.56225e-06;0.008603811955082976
9.56250e-06;0.00860209974070389
9.56275e-06;0.008600387526324806
9.56300e-06;0.008598675311945733
9.56325e-06;0.008596963097566648
9.56350e-06;0.008595250883187563
9.56375e-06;0.008593538668808479
9.56400e-06;0.008591826454429406
9.56425e-06;0.008590114240050321
9.56450e-06;0.008588402025671236
9.56475e-06;0.008586689811292163
9.56500e-06;0.008584977596913079
9.56525e-06;0.008583265382533994
9.56550e-06;0.008581553168154921
9.56575e-06;0.008579840953775836
9.56600e-06;0.008578128739396751
9.56625e-06;0.008576416525017679
9.56650e-06;0.008574714059975523
9.56675e-06;0.008573028504089182
9.56700e-06;0.008571342948202852
9.56725e-06;0.008569657392316512
9.56750e-06;0.00856797183643017
9.56775e-06;0.008566286280543841
9.56800e-06;0.0085646007246575
9.56825e-06;0.00856291516877116
9.56850e-06;0.00856122961288483
9.56875e-06;0.008559544056998488
9.56900e-06;0.008557858501112148
9.56925e-06;0.008556172945225819
9.56950e-06;0.008554487389339477
9.56975e-06;0.008552801833453137
9.57000e-06;0.008560269388744844
9.57025e-06;0.008569156758620407
9.57050e-06;0.008578044128495972
9.57075e-06;0.008586931498371475
9.57100e-06;0.008595818868247038
9.57125e-06;0.008604706238122602
9.57150e-06;0.008613593607998106
9.57175e-06;0.00862248097787367
9.57200e-06;0.008631368347749233
9.57225e-06;0.008640255717624796
9.57250e-06;0.0086491430875003
9.57275e-06;0.008658030457375863
9.57300e-06;0.008666917827251427
9.57325e-06;0.008678172169186942
9.57350e-06;0.008693531764604918
9.57375e-06;0.008708891360022893
9.57400e-06;0.008724250955440766
9.57425e-06;0.008739610550858742
9.57450e-06;0.008754970146276719
9.57475e-06;0.008770329741694591
9.57500e-06;0.008785689337112568
9.57525e-06;0.008801048932530545
9.57550e-06;0.008816408527948417
9.57575e-06;0.008831768123366392
9.57600e-06;0.008847127718784369
9.57625e-06;0.008862487314202241
9.57650e-06;0.008873640826295916
9.57675e-06;0.008884141898106638
9.57700e-06;0.00889464296991729
9.57725e-06;0.008905144041728012
9.57750e-06;0.008915645113538734
9.57775e-06;0.008926146185349386
9.57800e-06;0.008936647257160108
9.57825e-06;0.00894714832897083
9.57850e-06;0.00895764940078148
9.57875e-06;0.008968150472592204
9.57900e-06;0.008978651544402926
9.57925e-06;0.008989152616213577
9.57950e-06;0.008996959773136774
9.57975e-06;0.009000094630093812
9.58000e-06;0.009003229487050828
9.58025e-06;0.009006364344007865
9.58050e-06;0.009009499200964902
9.58075e-06;0.00901263405792194
9.58100e-06;0.009015768914878956
9.58125e-06;0.009018903771835993
9.58150e-06;0.00902203862879303
9.58175e-06;0.009025173485750047
9.58200e-06;0.009028308342707084
9.58225e-06;0.00903144319966412
9.58250e-06;0.009034578056621136
9.58275e-06;0.009037712913578175
9.58300e-06;0.009040847770535211
9.58325e-06;0.009043982627492227
9.58350e-06;0.009047117484449264
9.58375e-06;0.009050252341406302
9.58400e-06;0.009053387198363318
9.58425e-06;0.009056522055320355
9.58450e-06;0.009059656912277392
9.58475e-06;0.009062791769234408
9.58500e-06;0.009065926626191446
9.58525e-06;0.009069061483148483
9.58550e-06;0.009072196340105499
9.58575e-06;0.009075331197062535
9.58600e-06;0.009078466054019574
9.58625e-06;0.00908160091097659
9.58650e-06;0.009084735767933626
9.58675e-06;0.009087870624890663
9.58700e-06;0.009091005481847679
9.58725e-06;0.009094140338804717
9.58750e-06;0.009097275195761754
9.58775e-06;0.00910041005271877
9.58800e-06;0.009103544909675807
9.58825e-06;0.009106679766632845
9.58850e-06;0.009109814623589861
9.58875e-06;0.00911175631732068
9.58900e-06;0.009111628600273557
9.58925e-06;0.009111500883226431
9.58950e-06;0.009111373166179309
9.58975e-06;0.009111245449132183
9.59000e-06;0.00911111773208506
9.59025e-06;0.009110990015037936
9.59050e-06;0.009110862297990812
9.59075e-06;0.009110734580943688
9.59100e-06;0.009110606863896564
9.59125e-06;0.00911047914684944
9.59150e-06;0.009110351429802314
9.59175e-06;0.009110223712755192
9.59200e-06;0.009110095995708067
9.59225e-06;0.009109968278660943
9.59250e-06;0.009109840561613819
9.59275e-06;0.009109712844566695
9.59300e-06;0.009109585127519571
9.59325e-06;0.009109457410472447
9.59350e-06;0.009109329693425323
9.59375e-06;0.0091092019763782
9.59400e-06;0.009109074259331076
9.59425e-06;0.00910894654228395
9.59450e-06;0.009108818825236826
9.59475e-06;0.009108691108189702
9.59500e-06;0.009108563391142578
9.59525e-06;0.009108435674095455
9.59550e-06;0.00910830795704833
9.59575e-06;0.009108180240001207
9.59600e-06;0.009108052522954083
9.59625e-06;0.009107924805906959
9.59650e-06;0.009107797088859835
9.59675e-06;0.00910766937181271
9.59700e-06;0.009107541654765586
9.59725e-06;0.009107413937718462
9.59750e-06;0.009107286220671338
9.59775e-06;0.009107158503624214
9.59800e-06;0.009104040848793552
9.59825e-06;0.009095737474741504
9.59850e-06;0.009087434100689455
9.59875e-06;0.009079130726637465
9.59900e-06;0.009070827352585416
9.59925e-06;0.009062523978533368
9.59950e-06;0.009054220604481378
9.59975e-06;0.009045917230429329
9.60000e-06;0.009037613856377281
9.60025e-06;0.009029310482325291
9.60050e-06;0.009021007108273242
9.60075e-06;0.009012703734221195
9.60100e-06;0.009004400360169203
9.60125e-06;0.008983862901647308
9.60150e-06;0.008961427713353851
9.60175e-06;0.008938992525060545
9.60200e-06;0.008916557336767088
9.60225e-06;0.008894122148473632
9.60250e-06;0.008871686960180326
9.60275e-06;0.00884925177188687
9.60300e-06;0.008826816583593413
9.60325e-06;0.008804381395300107
9.60350e-06;0.00878194620700665
9.60375e-06;0.008759511018713194
9.60400e-06;0.008737075830419888
9.60425e-06;0.00871341168770719
9.60450e-06;0.00868761605831586
9.60475e-06;0.008661820428924705
9.60500e-06;0.008636024799533374
9.60525e-06;0.008610229170142043
9.60550e-06;0.00858443354075089
9.60575e-06;0.008558637911359558
9.60600e-06;0.008532842281968227
9.60625e-06;0.008507046652576898
9.60650e-06;0.008481251023185742
9.60675e-06;0.008455455393794411
9.60700e-06;0.008429659764403082
9.60725e-06;0.008403864135011926
9.60750e-06;0.008385089395578556
9.60775e-06;0.00837849161989918
9.60800e-06;0.00837189384421985
9.60825e-06;0.008365296068540475
9.60850e-06;0.0083586982928611
9.60875e-06;0.008352100517181769
9.60900e-06;0.008345502741502394
9.60925e-06;0.008338904965823018
9.60950e-06;0.008332307190143688
9.60975e-06;0.008325709414464314
9.61000e-06;0.008319111638784939
9.61025e-06;0.008312513863105608
9.61050e-06;0.008305916087426233
9.61075e-06;0.008310056587172118
9.61100e-06;0.008332821448134792
9.61125e-06;0.008355586309097619
9.61150e-06;0.008378351170060448
9.61175e-06;0.008401116031023122
9.61200e-06;0.008423880891985949
9.61225e-06;0.008446645752948777
9.61250e-06;0.008469410613911451
9.61275e-06;0.00849217547487428
9.61300e-06;0.008514940335837107
9.61325e-06;0.008537705196799781
9.61350e-06;0.00856047005776261
9.61375e-06;0.008587594207681553
9.61400e-06;0.00862227906627665
9.61425e-06;0.00865696392487198
9.61450e-06;0.008691648783467312
9.61475e-06;0.008726333642062644
9.61500e-06;0.00876101850065774
9.61525e-06;0.008795703359253072
9.61550e-06;0.008830388217848402
9.61575e-06;0.008865073076443498
9.61600e-06;0.00889975793503883
9.61625e-06;0.008934442793634163
9.61650e-06;0.008969127652229259
9.61675e-06;0.00899709760109097
9.61700e-06;0.009013421275342035
9.61725e-06;0.009029744949592989
9.61750e-06;0.009046068623844054
9.61775e-06;0.009062392298095117
9.61800e-06;0.009078715972346071
9.61825e-06;0.009095039646597136
9.61850e-06;0.0091113633208482
9.61875e-06;0.009127686995099154
9.61900e-06;0.009144010669350219
9.61925e-06;0.009160334343601284
9.61950e-06;0.009176658017852238
9.61975e-06;0.009192981692103301
9.62000e-06;0.009209305366354366
9.62025e-06;0.00922562904060532
9.62050e-06;0.009241952714856385
9.62075e-06;0.009258276389107449
9.62100e-06;0.0092659553947922
9.62125e-06;0.009258641170776932
9.62150e-06;0.009251326946761666
9.62175e-06;0.009244012722746449
9.62200e-06;0.009236698498731181
9.62225e-06;0.009229384274715915
9.62250e-06;0.009222070050700698
9.62275e-06;0.00921475582668543
9.62300e-06;0.009207441602670164
9.62325e-06;0.009200127378654896
9.62350e-06;0.009192813154639679
9.62375e-06;0.009185498930624413
9.62400e-06;0.009178184706609145
9.62425e-06;0.00917087048259393
9.62450e-06;0.009163556258578662
9.62475e-06;0.009156242034563396
9.62500e-06;0.009148927810548178
9.62525e-06;0.009140282419596526
9.62550e-06;0.009129328265562064
9.62575e-06;0.009118374111527678
9.62600e-06;0.009107419957493219
9.62625e-06;0.009096465803458758
9.62650e-06;0.009085511649424371
9.62675e-06;0.00907455749538991
9.62700e-06;0.00906360334135545
9.62725e-06;0.009052649187321064
9.62750e-06;0.009041695033286603
9.62775e-06;0.009030740879252142
9.62800e-06;0.009019786725217756
9.62825e-06;0.009008832571183296
9.62850e-06;0.008997878417148835
9.62875e-06;0.008986924263114449
9.62900e-06;0.00897900427500898
9.62925e-06;0.008976346714998225
9.62950e-06;0.00897368915498749
9.62975e-06;0.008971031594976737
9.63000e-06;0.008968374034965984
9.63025e-06;0.008965716474955247
9.63050e-06;0.008963058914944495
9.63075e-06;0.008960401354933742
9.63100e-06;0.008957743794923005
9.63125e-06;0.008955086234912252
9.63150e-06;0.0089524286749015
9.63175e-06;0.008949771114890745
9.63200e-06;0.00894711355488001
9.63225e-06;0.008944455994869257
9.63250e-06;0.008941798434858502
9.63275e-06;0.008941139812932479
9.63300e-06;0.008943948129922665
9.63325e-06;0.00894675644691285
9.63350e-06;0.008949564763903017
9.63375e-06;0.008952373080893201
9.63400e-06;0.008955181397883387
9.63425e-06;0.008957989714873554
9.63450e-06;0.00896079803186374
9.63475e-06;0.008963606348853926
9.63500e-06;0.008966414665844092
9.63525e-06;0.008969222982834276
9.63550e-06;0.008972031299824462
9.63575e-06;0.008974839616814629
9.63600e-06;0.008977647933804815
9.63625e-06;0.008977969155912438
9.63650e-06;0.00897790458421393
9.63675e-06;0.008977840012515425
9.63700e-06;0.008977775440816918
9.63725e-06;0.008977710869118413
9.63750e-06;0.008977646297419905
9.63775e-06;0.008977581725721398
9.63800e-06;0.008977517154022892
9.63825e-06;0.008977452582324385
9.63850e-06;0.008977388010625878
9.63875e-06;0.008977323438927372
9.63900e-06;0.008977258867228865
9.63925e-06;0.008977194295530358
9.63950e-06;0.008970465621348924
9.63975e-06;0.00895217879215549
9.64000e-06;0.008933891962962057
9.64025e-06;0.008915605133768625
9.64050e-06;0.008897318304575316
9.64075e-06;0.008879031475381882
9.64100e-06;0.008860744646188448
9.64125e-06;0.00884245781699514
9.64150e-06;0.008824170987801706
9.64175e-06;0.008805884158608274
9.64200e-06;0.008787597329414963
9.64225e-06;0.008769310500221532
9.64250e-06;0.008751023671028098
9.64275e-06;0.008732736841834789
9.64300e-06;0.008703041172583026
9.64325e-06;0.008671575784024497
9.64350e-06;0.00864011039546618
9.64375e-06;0.008608645006907651
9.64400e-06;0.008577179618349123
9.64425e-06;0.008545714229790807
9.64450e-06;0.008514248841232277
9.64475e-06;0.008482783452673748
9.64500e-06;0.008451318064115433
9.64525e-06;0.008419852675556904
9.64550e-06;0.008388387286998375
9.64575e-06;0.008356921898440058
9.64600e-06;0.00832545650988153
9.64625e-06;0.008297398543726187
9.64650e-06;0.00827525037809364
9.64675e-06;0.008253102212460943
9.64700e-06;0.008230954046828247
9.64725e-06;0.0082088058811957
9.64750e-06;0.008186657715563003
9.64775e-06;0.008164509549930307
9.64800e-06;0.00814236138429776
9.64825e-06;0.008120213218665063
9.64850e-06;0.008098065053032366
9.64875e-06;0.00807591688739967
9.64900e-06;0.008053768721767123
9.64925e-06;0.008031620556134426
9.64950e-06;0.00800947239050173
9.64975e-06;0.007987324224869183
9.65000e-06;0.007965176059236486
9.65025e-06;0.00794302789360379
9.65050e-06;0.007923539101996247
9.65075e-06;0.007908662703026146
9.65100e-06;0.007893786304056048
9.65125e-06;0.00787890990508605
9.65150e-06;0.00786403350611595
9.65175e-06;0.007849157107145852
