Time(s);Current(A)
1.12500e-05;-0.0014173152751920904
1.12503e-05;-0.0013989727733475627
1.12505e-05;-0.0013803775013217219
1.12508e-05;-0.0013607949044818833
1.12510e-05;-0.0013402167128382402
1.12513e-05;-0.0013188349220148417
1.12515e-05;-0.0012968561010407442
1.12518e-05;-0.0012744867934193086
1.12520e-05;-0.00125185678534631
1.12523e-05;-0.0012286755914670006
1.12525e-05;-0.0012042729251598623
1.12527e-05;-0.001178280383310083
1.12530e-05;-0.0011507845994532784
1.12533e-05;-0.0011219977873927905
1.12535e-05;-0.0010921411362402943
1.12538e-05;-0.001061435835106859
1.12540e-05;-0.0010300549148906687
1.12542e-05;-0.0009979083488490517
1.12545e-05;-0.0009646680196504313
1.12548e-05;-0.0009301950247660587
1.12550e-05;-0.000894635472192632
1.12553e-05;-0.0008582141240831717
1.12555e-05;-0.0008211614132055928
1.12558e-05;-0.0007836419174949889
1.12560e-05;-0.00074603697457742
1.12563e-05;-0.0007082327934475914
1.12565e-05;-0.0006701334590805496
1.12568e-05;-0.0006317596589480996
1.12570e-05;-0.0005932947902446092
1.12573e-05;-0.0005549713971623694
1.12575e-05;-0.0005170256054596631
1.12578e-05;-0.00047969337623025426
1.12580e-05;-0.0004431919099428724
1.12583e-05;-0.0004076350689948493
1.12585e-05;-0.00037304328174191657
1.12588e-05;-0.00033951133811271157
1.12590e-05;-0.0003072457655702613
1.12593e-05;-0.00027648391367956034
1.12595e-05;-0.00024746538291583493
1.12598e-05;-0.00022042964457588248
1.12600e-05;-0.00019556160653349484
1.12603e-05;-0.00017273552378532664
1.12605e-05;-0.00015151521118593413
1.12608e-05;-0.00013162958512081884
1.12610e-05;-0.00011310567693797096
1.12612e-05;-9.605534348846846e-05
1.12615e-05;-8.059660045409729e-05
1.12618e-05;-6.684743174812627e-05
1.12620e-05;-5.489160735856838e-05
1.12623e-05;-4.461831564193174e-05
1.12625e-05;-3.572228507937067e-05
1.12627e-05;-2.800170598146279e-05
1.12630e-05;-2.1441507637120043e-05
1.12633e-05;-1.6079742596137837e-05
1.12635e-05;-1.195832802953008e-05
1.12638e-05;-9.119153135387241e-06
1.12640e-05;-7.5826700507747885e-06
1.12643e-05;-7.247443374153518e-06
1.12645e-05;-7.890250164928758e-06
1.12648e-05;-9.35268660347466e-06
1.12650e-05;-1.1593329924026576e-05
1.12653e-05;-1.4604034194828609e-05
1.12655e-05;-1.837907459170662e-05
1.12658e-05;-2.291270756798635e-05
1.12660e-05;-2.8185760841277698e-05
1.12663e-05;-3.4102715467210006e-05
1.12665e-05;-4.049177873117163e-05
1.12668e-05;-4.722176499280795e-05
1.12670e-05;-5.423478315303362e-05
1.12673e-05;-6.157567667173151e-05
1.12675e-05;-6.898308901208019e-05
1.12678e-05;-7.665666858938591e-05
1.12680e-05;-8.439479866920108e-05
1.12683e-05;-9.214535771395727e-05
1.12685e-05;-9.989893101380854e-05
1.12688e-05;-0.00010729290463814361
1.12690e-05;-0.00011459966865681598
1.12693e-05;-0.00012150774544227175
1.12695e-05;-0.0001279952363845977
1.12697e-05;-0.0001340366771690612
1.12700e-05;-0.0001397084405303379
1.12703e-05;-0.0001457932433408263
1.12705e-05;-0.000153686051365765
1.12708e-05;-0.0001642222009765707
1.12710e-05;-0.00017743811392982158
1.12712e-05;-0.00019315202780283974
1.12715e-05;-0.0002111666736422281
1.12718e-05;-0.00023128482969128156
1.12720e-05;-0.0002533910238451777
1.12723e-05;-0.0002778122087421566
1.12725e-05;-0.00030525883475005205
1.12728e-05;-0.0003360906825715805
1.12730e-05;-0.00037016715704078833
1.12733e-05;-0.0004072109386040486
1.12735e-05;-0.0004469350287084393
1.12738e-05;-0.0004890524579047935
1.12740e-05;-0.0005342207583601678
1.12743e-05;-0.0005800183131362403
1.12745e-05;-0.000629779574644659
1.12748e-05;-0.0006805021087144505
1.12750e-05;-0.0007348019126463246
1.12753e-05;-0.000789969271014586
1.12755e-05;-0.0008476216728375452
1.12758e-05;-0.0009058767438908267
1.12760e-05;-0.0009656594094029076
1.12763e-05;-0.0010258125449670859
1.12765e-05;-0.0010872359236813952
1.12768e-05;-0.0011489673599708239
1.12770e-05;-0.0012112011313998462
1.12773e-05;-0.0012735567284376682
1.12775e-05;-0.0013352048963100368
1.12778e-05;-0.0013966814994604046
1.12780e-05;-0.001456325467094184
1.12782e-05;-0.0015155249865492157
1.12785e-05;-0.0015722052411740058
1.12788e-05;-0.0016282745272484952
1.12790e-05;-0.0016808183791253005
1.12793e-05;-0.001732507247677747
1.12795e-05;-0.001777950258283349
1.12797e-05;-0.0018218785322365488
1.12800e-05;-0.0018658068061900462
1.12803e-05;-0.0019032716201524181
1.12805e-05;-0.0019391689249220235
1.12808e-05;-0.0019716863007577996
1.12810e-05;-0.0020033839810001592
1.12813e-05;-0.0020313472447589954
1.12815e-05;-0.002058404843103794
1.12818e-05;-0.002081089694404241
1.12820e-05;-0.002102714073264238
1.12823e-05;-0.002120315742210962
1.12825e-05;-0.0021369418292283195
1.12828e-05;-0.0021507368878833843
1.12830e-05;-0.00216384536953633
1.12833e-05;-0.002173250009862218
1.12835e-05;-0.0021817563998178975
1.12838e-05;-0.0021902627897735193
1.12840e-05;-0.0021948365712726094
1.12843e-05;-0.002198456622120152
1.12845e-05;-0.00219977894528843
1.12848e-05;-0.002200544026783479
1.12850e-05;-0.002199464948520297
1.12853e-05;-0.0021979386272358292
1.12855e-05;-0.0021945374148818002
1.12858e-05;-0.0021906815065922355
1.12860e-05;-0.002185025380571948
1.12863e-05;-0.0021789326682888134
1.12865e-05;-0.0021719090221359576
1.12867e-05;-0.0021642709685586407
1.12870e-05;-0.0021561891879096637
1.12873e-05;-0.0021477014734030114
1.12875e-05;-0.0021388424203078018
1.12878e-05;-0.0021296466749452215
1.12880e-05;-0.0021201644821229374
1.12882e-05;-0.002110531746251844
1.12885e-05;-0.0021009696287619885
1.12888e-05;-0.0020916516273795484
1.12890e-05;-0.002082833274854769
1.12893e-05;-0.0020741230804757365
1.12895e-05;-0.0020659623019794815
1.12898e-05;-0.0020583698774431993
1.12900e-05;-0.0020512420069274118
1.12903e-05;-0.0020438221262950485
1.12905e-05;-0.002034751446733633
1.12908e-05;-0.0020232156077879537
1.12910e-05;-0.0020091807563136373
1.12913e-05;-0.0019928273426075877
1.12915e-05;-0.0019743500529249784
1.12918e-05;-0.0019539442377832397
1.12920e-05;-0.0019317247115379246
1.12923e-05;-0.00190737267245687
1.12925e-05;-0.001880191577619825
1.12928e-05;-0.0018498265024497916
1.12930e-05;-0.0018164113517647276
1.12933e-05;-0.0017802137898019624
1.12935e-05;-0.0017415110014429764
1.12938e-05;-0.0017005801715693194
1.12940e-05;-0.0016576482656017572
1.12943e-05;-0.0016117085001844866
1.12945e-05;-0.0015651320104903858
1.12948e-05;-0.00151566546582991
1.12950e-05;-0.0014638098682425056
1.12952e-05;-0.0014101211010957378
1.12955e-05;-0.001354927782120102
1.12958e-05;-0.0012985583643834256
1.12960e-05;-0.0012413098683464986
1.12963e-05;-0.001183309238797932
1.12965e-05;-0.0011245349613821607
1.12967e-05;-0.001065099756520248
1.12970e-05;-0.001005308033002086
1.12973e-05;-0.0009455169305482282
1.12975e-05;-0.0008860869732453986
1.12978e-05;-0.0008273787703164147
1.12980e-05;-0.0007697330666602557
1.12983e-05;-0.0007133840749127455
1.12985e-05;-0.0006584732278263279
1.12988e-05;-0.0006052257374209471
1.12990e-05;-0.0005539871284406681
1.12993e-05;-0.0005051356207741073
1.12995e-05;-0.000459051811593004
1.12998e-05;-0.0004161161802528821
1.13000e-05;-0.0003766637309099184
1.13003e-05;-0.00034075830872778794
1.13005e-05;-0.00030815992618556733
1.13008e-05;-0.00027870840802150316
1.13010e-05;-0.0002524615759259453
1.13013e-05;-0.00022954247543464007
1.13015e-05;-0.00021007906118783985
1.13018e-05;-0.00019419922677744222
1.13020e-05;-0.000182002371755846
1.13023e-05;-0.00017341800908396372
1.13025e-05;-0.0001681853507865027
1.13028e-05;-0.00016609362709194193
1.13030e-05;-0.0001670686485284359
1.13033e-05;-0.00017107702209516934
1.13035e-05;-0.00017808848583950442
1.13037e-05;-0.00018807269263663754
1.13040e-05;-0.00020098150610018144
1.13043e-05;-0.00021666030888679304
1.13045e-05;-0.00023483533268871308
1.13048e-05;-0.0002552641587106177
1.13050e-05;-0.0002777898993877002
1.13052e-05;-0.00030228128944302597
1.13055e-05;-0.000328608997134945
1.13058e-05;-0.00035726272655070535
1.13060e-05;-0.00038639483137872777
1.13063e-05;-0.0004176152599805438
1.13065e-05;-0.00044934214591676677
1.13068e-05;-0.0004823241670029439
1.13070e-05;-0.0005156105816939654
1.13073e-05;-0.0005495035532999341
1.13075e-05;-0.0005835436262327735
1.13078e-05;-0.0006175709334910944
1.13080e-05;-0.0006515951448363348
1.13083e-05;-0.0006848677741799723
1.13085e-05;-0.0007179581309171234
1.13088e-05;-0.0007494202200432854
1.13090e-05;-0.0007804874240064609
1.13093e-05;-0.0008091654559009176
1.13095e-05;-0.0008372640691575062
1.13098e-05;-0.0008622414867624002
1.13100e-05;-0.000886461956402804
1.13103e-05;-0.0009062603105849081
1.13105e-05;-0.0009249862195671652
1.13108e-05;-0.0009437121285492953
1.13110e-05;-0.0009570481121915999
1.13113e-05;-0.0009690769387474579
1.13115e-05;-0.0009811057653032345
1.13118e-05;-0.0009873620866781684
1.13120e-05;-0.0009922184682435117
1.13122e-05;-0.0009970748498088222
1.13125e-05;-0.0009963439416827838
1.13128e-05;-0.0009942580119462795
1.13130e-05;-0.0009921720822097893
1.13133e-05;-0.000985785689596541
1.13135e-05;-0.0009783563547958254
1.13137e-05;-0.0009684536178996712
1.13140e-05;-0.0009563558176205134
1.13143e-05;-0.0009423572087687691
1.13145e-05;-0.000926601833579867
1.13148e-05;-0.000909233587874472
1.13150e-05;-0.0008903713603742134
1.13153e-05;-0.0008701257401731404
1.13155e-05;-0.0008486067170282276
1.13158e-05;-0.0008259241628787809
1.13160e-05;-0.0008021921786135971
1.13163e-05;-0.0007775505402509937
1.13165e-05;-0.000752171795977942
1.13168e-05;-0.000726228527741036
1.13170e-05;-0.0006998775551553412
1.13173e-05;-0.0006732706157791181
1.13175e-05;-0.0006465588621448738
1.13178e-05;-0.0006198935887265646
1.13180e-05;-0.0005934285246142713
1.13183e-05;-0.0005673336250519788
1.13185e-05;-0.0005417993172656533
1.13188e-05;-0.0005170159505570765
1.13190e-05;-0.0004931640673032808
1.13193e-05;-0.0004704210433618737
1.13195e-05;-0.00044896384068191154
1.13198e-05;-0.00042896947514192344
1.13200e-05;-0.0004106396500308169
1.13203e-05;-0.0003942968710812864
1.13205e-05;-0.0003803327619808209
1.13207e-05;-0.00036897323432649823
1.13210e-05;-0.00036026177062986305
1.13213e-05;-0.0003541948758745878
1.13215e-05;-0.00035076588528358874
1.13218e-05;-0.00034996818092610996
1.13220e-05;-0.00035181056873485476
1.13222e-05;-0.00035637747843207397
1.13225e-05;-0.00036379667954504827
1.13228e-05;-0.0003740921350157136
1.13230e-05;-0.0003871735061080906
1.13233e-05;-0.00040292098717340316
1.13235e-05;-0.0004212128489511743
1.13238e-05;-0.0004419274026455972
1.13240e-05;-0.0004658521739412621
1.13243e-05;-0.0004904419275345803
1.13245e-05;-0.0005185414568776064
1.13248e-05;-0.0005474921720821109
1.13250e-05;-0.0005794908618412753
1.13253e-05;-0.0006122287420879891
1.13255e-05;-0.0006473933184581524
1.13258e-05;-0.0006831464137478447
1.13260e-05;-0.0007207287247581022
1.13263e-05;-0.000758754654583225
1.13265e-05;-0.000798107839762272
1.13268e-05;-0.0008377829090366528
1.13270e-05;-0.0008781177879969344
1.13273e-05;-0.0009186126830714509
1.13275e-05;-0.0009590002059424316
1.13278e-05;-0.000999361689057861
1.13280e-05;-0.0010388636792336616
1.13283e-05;-0.001078157226394585
1.13285e-05;-0.0011158988423341793
1.13288e-05;-0.0011532640861043615
1.13290e-05;-0.0011882817575082703
1.13292e-05;-0.0012227300989745232
1.13295e-05;-0.0012530152222269947
1.13298e-05;-0.0012822906876732087
1.13300e-05;-0.0013115661531192242
1.13303e-05;-0.0013365884394345663
1.13305e-05;-0.0013605792507490001
1.13307e-05;-0.0013818848356602687
1.13310e-05;-0.0014025392032536962
1.13313e-05;-0.0014231935708471236
1.13315e-05;-0.0014399809775630516
1.13318e-05;-0.0014558305743837157
1.13320e-05;-0.0014716801712044874
1.13323e-05;-0.0014842666742918766
1.13325e-05;-0.0014960618164916407
1.13328e-05;-0.0015057013477124523
1.13330e-05;-0.0015148181032004705
1.13333e-05;-0.001523934858688427
1.13335e-05;-0.0015302113102061393
1.13338e-05;-0.001535798935212974
1.13340e-05;-0.0015413865602197708
1.13343e-05;-0.001544707204475131
1.13345e-05;-0.0015474780637575948
1.13348e-05;-0.0015488006943792396
1.13350e-05;-0.001549772102629675
1.13353e-05;-0.0015507435108801106
1.13355e-05;-0.0015499683562712888
1.13358e-05;-0.0015487696277024343
1.13360e-05;-0.0015475708991335795
1.13363e-05;-0.0015451043634338068
1.13365e-05;-0.001542330360937644
1.13368e-05;-0.0015390353315446108
1.13370e-05;-0.0015356139434438013
1.13373e-05;-0.0015316642984678755
1.13375e-05;-0.001527586541380029
1.13377e-05;-0.00152350878429221
1.13380e-05;-0.001519008112517319
1.13383e-05;-0.0015144048760692994
1.13385e-05;-0.0015098298880675263
1.13388e-05;-0.0015052617508390374
1.13390e-05;-0.0015009572189287161
1.13392e-05;-0.0014967166162082161
1.13395e-05;-0.001492736995401229
1.13398e-05;-0.0014890275417528281
1.13400e-05;-0.0014855211659541919
1.13403e-05;-0.001481745028300509
1.13405e-05;-0.0014768581365964069
1.13408e-05;-0.0014703572422210024
1.13410e-05;-0.0014622199813765014
1.13413e-05;-0.0014525554095799803
1.13415e-05;-0.0014409718564005374
1.13418e-05;-0.0014289941167684888
1.13420e-05;-0.0014155324670496346
1.13423e-05;-0.0014005286293023752
1.13425e-05;-0.0013828371751614518
1.13428e-05;-0.0013645634620942778
1.13430e-05;-0.0013438797771082754
1.13433e-05;-0.0013211830916226748
1.13435e-05;-0.0012968508369421712
1.13438e-05;-0.001271056707530899
1.13440e-05;-0.0012439432179950926
1.13443e-05;-0.0012154862029405756
1.13445e-05;-0.0011855173224729627
1.13448e-05;-0.001154000407715806
1.13450e-05;-0.0011210883062173064
1.13453e-05;-0.0010869851355107775
1.13455e-05;-0.0010518990489957086
1.13458e-05;-0.001016037845217264
1.13460e-05;-0.0009795900957332729
1.13462e-05;-0.0009426399068372479
1.13465e-05;-0.0009051810269380497
1.13468e-05;-0.0008672901491798204
1.13470e-05;-0.0008291621343035761
1.13473e-05;-0.0007910241888023758
1.13475e-05;-0.0007531057317904364
1.13477e-05;-0.0007156362065061821
1.13480e-05;-0.0006788328874555282
1.13483e-05;-0.0006428476488468753
1.13485e-05;-0.000607775667620335
1.13488e-05;-0.0005737641150036417
1.13490e-05;-0.0005410342423513211
1.13493e-05;-0.0005098275187277289
1.13495e-05;-0.00048038665731600953
1.13498e-05;-0.00045295446639363664
1.13500e-05;-0.0004276901672997809
1.13503e-05;-0.00040428592654453846
1.13505e-05;-0.0003819896698672467
1.13508e-05;-0.0003603415581830854
1.13510e-05;-0.0003393588405925973
1.13513e-05;-0.000319192309535487
1.13515e-05;-0.0003000024144292085
1.13518e-05;-0.00028194948757491266
1.13520e-05;-0.00026514157558733874
1.13523e-05;-0.0002493941906615301
1.13525e-05;-0.00023424456237895673
1.13528e-05;-0.0002194129954442754
1.13530e-05;-0.00020491868354935498
1.13533e-05;-0.0001910939083480421
1.13535e-05;-0.00017741482427103032
1.13538e-05;-0.00016481228473140148
1.13540e-05;-0.00015247082725418004
1.13543e-05;-0.00014102496380919894
1.13545e-05;-0.00012979629856536468
1.13548e-05;-0.00011880471180280097
1.13550e-05;-0.00010815474799683694
1.13553e-05;-9.75736902743895e-05
1.13555e-05;-8.740003616394784e-05
1.13558e-05;-7.767892300814286e-05
1.13560e-05;-6.843838515527163e-05
1.13562e-05;-5.961964519734661e-05
1.13565e-05;-5.105474631751559e-05
1.13568e-05;-4.264760287238359e-05
1.13570e-05;-3.44194049089026e-05
1.13573e-05;-2.6424155616775284e-05
1.13575e-05;-1.871821886781228e-05
1.13578e-05;-1.1357932625482399e-05
1.13580e-05;-4.3867504079827576e-06
1.13583e-05;2.2237664548677127e-06
1.13585e-05;8.570431539540031e-06
1.13588e-05;1.4705033155791076e-05
1.13590e-05;2.06058980325402e-05
1.13593e-05;2.6230800842013938e-05
1.13595e-05;3.0662481447930255e-05
1.13598e-05;3.263812822658092e-05
1.13600e-05;4.0095659254132216e-05
1.13603e-05;4.4427729094760016e-05
1.13605e-05;4.745424449631946e-05
1.13608e-05;4.915908036443676e-05
1.13610e-05;4.9739797654694356e-05
1.13613e-05;4.912495511493749e-05
1.13615e-05;4.7452945474871225e-05
1.13618e-05;4.458980083496413e-05
1.13620e-05;4.07151650422421e-05
1.13623e-05;3.569576901748262e-05
1.13625e-05;2.9421048628744154e-05
1.13628e-05;2.177875101572239e-05
1.13630e-05;1.2794756217658842e-05
1.13633e-05;2.6085999342170927e-06
1.13635e-05;-8.715236770214041e-06
1.13638e-05;-2.1179962608851592e-05
1.13640e-05;-3.461236569986937e-05
1.13643e-05;-4.838273828204278e-05
1.13645e-05;-5.9434557084370036e-05
1.13647e-05;-7.76592048077675e-05
1.13650e-05;-9.598297355110517e-05
1.13653e-05;-0.0001150403421082783
1.13655e-05;-0.00013409892720264
1.13658e-05;-0.00015342013339695776
1.13660e-05;-0.00017324100735087542
1.13663e-05;-0.00019348196202261997
1.13665e-05;-0.00021418286640834266
1.13668e-05;-0.00023504097779220172
1.13670e-05;-0.00025656659344829063
1.13673e-05;-0.0002784216271477016
1.13675e-05;-0.0002997038562377507
1.13678e-05;-0.0003207127327393332
1.13680e-05;-0.0003414157317951045
1.13683e-05;-0.0003614905736581679
1.13685e-05;-0.0003813372323462065
1.13688e-05;-0.0004005743710625267
1.13690e-05;-0.00041929021267401003
1.13693e-05;-0.0004372741830334396
1.13695e-05;-0.0004535757239416327
1.13698e-05;-0.0004692221614739012
1.13700e-05;-0.00048343775591629367
1.13703e-05;-0.000496978676834078
1.13705e-05;-0.0005103835939851778
1.13708e-05;-0.0005240220420784432
1.13710e-05;-0.0005382666558084427
1.13713e-05;-0.0005527309102994739
1.13715e-05;-0.0005671002301463518
1.13718e-05;-0.0005814247862510936
1.13720e-05;-0.0005956961196210545
1.13723e-05;-0.0006099423573181343
1.13725e-05;-0.0006251800357415553
1.13728e-05;-0.0006408851999530471
1.13730e-05;-0.0006565903641645388
1.13732e-05;-0.0006731728563415465
1.13735e-05;-0.0006904598177561713
1.13738e-05;-0.0007078838929995449
1.13740e-05;-0.0007253079682429187
1.13743e-05;-0.0007434537841183207
1.13745e-05;-0.0007619399163427215
1.13748e-05;-0.0007804260485671224
1.13750e-05;-0.0007998418151088552
1.13753e-05;-0.0008196959243774907
1.13755e-05;-0.0008395500336461262
1.13758e-05;-0.0008595659537414299
1.13760e-05;-0.0008796581711483087
1.13763e-05;-0.0008997503885551875
1.13765e-05;-0.0009199701348339007
1.13768e-05;-0.0009402500137395645
1.13770e-05;-0.0009605298926452284
1.13773e-05;-0.0009804909625561996
1.13775e-05;-0.0010003017071174545
1.13778e-05;-0.0010201124516787095
1.13780e-05;-0.0010389435234537253
1.13783e-05;-0.0010573126582796902
1.13785e-05;-0.001075681793105655
1.13788e-05;-0.0010930663633741534
1.13790e-05;-0.0011099866901174284
1.13793e-05;-0.001125773536765728
1.13795e-05;-0.0011410259229854241
1.13798e-05;-0.001155199851647761
1.13800e-05;-0.001167439227177085
1.13803e-05;-0.0011790061953460699
1.13805e-05;-0.0011878196237179164
1.13808e-05;-0.0011953346984031577
1.13810e-05;-0.0011998142378419007
1.13813e-05;-0.0012028624566286273
1.13815e-05;-0.0012021658992649254
1.13817e-05;-0.001199703598792975
1.13820e-05;-0.0011972412983210078
1.13823e-05;-0.0011900296285684393
1.13825e-05;-0.0011805785282761768
1.13828e-05;-0.0011711274279838503
1.13830e-05;-0.0011576120041660088
1.13833e-05;-0.001142180163727613
1.13835e-05;-0.0011245189018399544
1.13838e-05;-0.0011044363542854403
1.13840e-05;-0.0010824041804384265
1.13843e-05;-0.0010584668475442877
1.13845e-05;-0.0010326294403495062
1.13848e-05;-0.0010049614509106324
1.13850e-05;-0.0009756221951204401
1.13853e-05;-0.000944786652111857
1.13855e-05;-0.0009126251860689425
1.13858e-05;-0.000879321180266919
1.13860e-05;-0.0008450480617688522
1.13863e-05;-0.0008099382579465073
1.13865e-05;-0.0007740994772736093
1.13868e-05;-0.000737679634473014
1.13870e-05;-0.0007008829926803143
1.13873e-05;-0.0006639237440831934
1.13875e-05;-0.0006270129310080622
1.13878e-05;-0.0005903699212150051
1.13880e-05;-0.0005542077542611835
1.13883e-05;-0.0005187137928835837
1.13885e-05;-0.0004840598743695913
1.13888e-05;-0.00045044303723376113
1.13890e-05;-0.00041809566031225876
1.13893e-05;-0.00038725615568325496
1.13895e-05;-0.0003581611431210146
1.13898e-05;-0.00033105230702056736
1.13900e-05;-0.00030609386923949344
1.13902e-05;-0.00028311291263818743
1.13905e-05;-0.0002616199184933999
1.13908e-05;-0.0002412922951746037
1.13910e-05;-0.0002221419092639229
1.13913e-05;-0.00020429138723156677
1.13915e-05;-0.00018786750761612357
1.13918e-05;-0.00017300026939886149
1.13920e-05;-0.00015977108566109024
1.13923e-05;-0.00014805025079872805
