Time(s);Current(A)
0.00000e+00;-2.830498359211913e-21
2.50000e-10;-2.0599383017858553e-15
5.00000e-10;-2.7317750264034377e-16
7.50000e-10;2.0207243710559574e-07
1.00000e-09;1.3225731927915987e-06
1.25000e-09;3.823068389281326e-06
1.50000e-09;7.0723992648132636e-06
1.75000e-09;1.027269935597416e-05
2.00000e-09;1.3192721463480332e-05
2.25000e-09;1.580882054407509e-05
2.50000e-09;1.809735155450174e-05
2.75000e-09;2.016124424897577e-05
3.00000e-09;2.242555069446854e-05
3.25000e-09;2.5155688916644098e-05
3.50000e-09;2.7924499724340242e-05
3.75000e-09;2.9756976249448415e-05
4.00000e-09;2.9196998725727488e-05
4.25000e-09;2.489999312537921e-05
4.50000e-09;1.6375321651939782e-05
4.75000e-09;3.799468971016086e-06
5.00000e-09;-1.2333218836349912e-05
5.25000e-09;-3.162841681512226e-05
5.50000e-09;-5.412563861409539e-05
5.75000e-09;-8.020754029998989e-05
6.00000e-09;-0.00011055808044196393
6.25000e-09;-0.00014579128202880684
6.50000e-09;-0.0001859862140570477
6.75000e-09;-0.00023080409203778265
7.00000e-09;-0.00027970700133378933
7.25000e-09;-0.000332219741180165
7.50000e-09;-0.00038813889527407954
7.75000e-09;-0.0004474759774951569
8.00000e-09;-0.0005104312559898967
8.25000e-09;-0.0005771611219991543
8.50000e-09;-0.0006485207747116173
8.75000e-09;-0.0007214340481820936
9.00000e-09;-0.0007976979381598519
9.25000e-09;-0.0008754722498085332
9.50000e-09;-0.0009559910041272008
9.75000e-09;-0.0010377469235091769
1.00000e-08;-0.0011195028428911526
1.02500e-08;-0.0012034620946069037
1.05000e-08;-0.0012884145847007111
1.07500e-08;-0.001373367074794518
1.10000e-08;-0.0014576538442393988
1.12500e-08;-0.0015416405140182227
1.15000e-08;-0.0016256271837970459
1.17500e-08;-0.0017062698972173116
1.20000e-08;-0.0017854051912896416
1.22500e-08;-0.001864540485361971
1.25000e-08;-0.0019378946366042536
1.27500e-08;-0.002008642711205347
1.30000e-08;-0.002079390785806441
1.32500e-08;-0.0021410576807538865
1.35000e-08;-0.0021986308781633966
1.37500e-08;-0.0022562040755729072
1.40000e-08;-0.002304394701538335
1.42500e-08;-0.0023483557658074803
1.45000e-08;-0.0023923168300766257
1.47500e-08;-0.002427363833604674
1.50000e-08;-0.0024583924749924943
1.52500e-08;-0.0024894211163803146
1.55000e-08;-0.002510597124261124
1.57500e-08;-0.0025273316715533167
1.60000e-08;-0.0025440662188455096
1.62500e-08;-0.002552297869276845
1.65000e-08;-0.002556696505796754
1.67500e-08;-0.002561095142316663
1.70000e-08;-0.0025575236403784355
1.72500e-08;-0.002550359286252777
1.75000e-08;-0.002543194932127118
1.77500e-08;-0.002528689970709426
1.80000e-08;-0.0025108759429430393
1.82500e-08;-0.0024930619151766523
1.85000e-08;-0.0024696636335551367
1.87500e-08;-0.0024437480307121697
1.90000e-08;-0.002417832427869203
1.92500e-08;-0.0023872593749995176
1.95000e-08;-0.0023545867940470712
1.97500e-08;-0.0023219142130946257
2.00000e-08;-0.002286151911581285
2.02500e-08;-0.002248996797467
2.05000e-08;-0.0022118416833527155
2.07500e-08;-0.00217345420099629
2.10000e-08;-0.002134511180369387
2.12500e-08;-0.002095264200183868
2.15000e-08;-0.002055880198317885
2.17500e-08;-0.00201691506363669
2.20000e-08;-0.0019781387497506435
2.22500e-08;-0.0019407544069478383
2.25000e-08;-0.001903997549649523
2.27500e-08;-0.0018701217549996815
2.30000e-08;-0.0018375447122213485
2.32500e-08;-0.0018049676694430151
2.35000e-08;-0.0017760301304663006
2.37500e-08;-0.0017487332404273036
2.40000e-08;-0.0017215588008335145
2.42500e-08;-0.0016944395605756255
2.45000e-08;-0.001664904786016495
2.47500e-08;-0.0016342811147282033
2.50000e-08;-0.0016036574434399114
2.52500e-08;-0.0015714742274468777
2.55000e-08;-0.0015385879855737724
2.57500e-08;-0.0015057017437006665
2.60000e-08;-0.0014697050786356936
2.62500e-08;-0.001432306268447718
2.65000e-08;-0.001394907458259742
2.67500e-08;-0.0013534181398616987
2.70000e-08;-0.0013100848646180588
2.72500e-08;-0.0012667515893744184
2.75000e-08;-0.0012208559489603863
2.77500e-08;-0.0011738052220499541
2.80000e-08;-0.0011267544951395214
2.82500e-08;-0.001076373974716912
2.85000e-08;-0.0010244924194042885
2.87500e-08;-0.0009726108640916643
2.90000e-08;-0.0009185943967682974
2.92500e-08;-0.0008636155342082537
2.95000e-08;-0.0008086366716482092
2.97500e-08;-0.0007528965059433997
3.00000e-08;-0.0006968131530175224
3.02500e-08;-0.0006407298000916459
3.05000e-08;-0.0005842240559866262
3.07500e-08;-0.0005275279025079292
3.10000e-08;-0.00047147288864732767
3.12500e-08;-0.0004157068935900264
3.15000e-08;-0.00036149673535346567
3.17500e-08;-0.0003079879315229836
3.20000e-08;-0.00025592778025230545
3.22500e-08;-0.00020555379136223266
3.25000e-08;-0.00015687388036531572
3.27500e-08;-0.00011022000312261791
3.30000e-08;-6.594578588441774e-05
3.32500e-08;-2.4404931905092704e-05
3.35000e-08;1.405504073402399e-05
3.37500e-08;4.946836077768767e-05
3.40000e-08;8.263436625889657e-05
3.42500e-08;0.00011449159140591069
3.45000e-08;0.0001453623219905649
3.47500e-08;0.00017510979783769327
3.50000e-08;0.00020350397462987196
3.52500e-08;0.00023031476257783984
3.55000e-08;0.000255315990637097
3.57500e-08;0.0002781417145449819
3.60000e-08;0.00030024997369015297
3.62500e-08;0.00032141638349021754
3.65000e-08;0.00034215821779544434
3.67500e-08;0.000361651735610833
3.70000e-08;0.0003805825258582286
3.72500e-08;0.00039951331610562426
3.75000e-08;0.00041638824014354384
3.77500e-08;0.0004323364019367957
3.80000e-08;0.0004482845637300475
3.82500e-08;0.0004632243214992312
3.85000e-08;0.00047770950164436075
3.87500e-08;0.0004921946817894903
3.90000e-08;0.000505605016908827
3.92500e-08;0.0005185308235193615
3.95000e-08;0.0005314566301298962
3.97500e-08;0.0005427606082259608
4.00000e-08;0.000553333483574382
4.02500e-08;0.0005639063589228032
4.05000e-08;0.0005744792342712247
4.07500e-08;0.0005850521096196459
4.10000e-08;0.0005956249849680672
4.12500e-08;0.0006057146459427411
4.15000e-08;0.0006137346138787205
4.17500e-08;0.0006217545818146999
4.20000e-08;0.0006297745497506795
4.22500e-08;0.0006377945176866589
4.25000e-08;0.0006458144856226382
4.27500e-08;0.0006538344535586176
4.30000e-08;0.0006609213587312409
4.32500e-08;0.0006672814429492404
4.35000e-08;0.0006731504245298157
4.37500e-08;0.000677975650680552
4.40000e-08;0.0006802818561283425
4.42500e-08;0.000678570932488573
4.45000e-08;0.0006722837999548193
4.47500e-08;0.0006615083202346625
4.50000e-08;0.0006464603131972978
4.52500e-08;0.000627355510571543
4.55000e-08;0.0006044041152336937
4.57500e-08;0.0005775101113738231
4.60000e-08;0.0005459996581117254
4.62500e-08;0.0005091847227407723
4.65000e-08;0.00046696535687531626
4.67500e-08;0.00041964704792307766
4.70000e-08;0.0003676152902559262
4.72500e-08;0.00031125560620404505
4.75000e-08;0.00025094993232862927
4.77500e-08;0.0001868884131119213
4.80000e-08;0.00011889927251728378
4.82500e-08;4.6801831009825116e-05
4.85000e-08;-2.9216126909491433e-05
4.87500e-08;-0.000108712955222147
4.90000e-08;-0.00019119688798571852
4.92500e-08;-0.0002761761572833771
4.95000e-08;-0.0003636915404084655
4.97500e-08;-0.0004520220587463658
5.00000e-08;-0.0005426927266599686
5.02500e-08;-0.0006344183086840512
5.05000e-08;-0.0007261438907081337
5.07500e-08;-0.0008184437901954972
5.10000e-08;-0.0009110025857817256
5.12500e-08;-0.0010035613813679563
5.15000e-08;-0.0010933960156407016
5.17500e-08;-0.0011820026274662273
5.20000e-08;-0.001270609239291753
5.22500e-08;-0.0013550739607959713
5.25000e-08;-0.0014376715629547561
5.27500e-08;-0.0015152880158103002
5.30000e-08;-0.0015906590204513562
5.32500e-08;-0.0016593967175705482
5.35000e-08;-0.0017251441914251197
5.37500e-08;-0.0017828462056215244
5.40000e-08;-0.0018369214136484402
5.42500e-08;-0.0018824276181575825
5.45000e-08;-0.0019240710085895827
5.47500e-08;-0.0019568438432278627
5.50000e-08;-0.0019856179272855217
5.52500e-08;-0.0020051695910656866
5.55000e-08;-0.002020563887562793
5.57500e-08;-0.002026534555072472
5.60000e-08;-0.002028257152589545
5.62500e-08;-0.0020209114360414584
5.65000e-08;-0.002009477821623548
5.67500e-08;-0.0019894701885156308
5.70000e-08;-0.0019655974805451904
5.72500e-08;-0.0019336138749493027
5.75000e-08;-0.0018979739644562567
5.77500e-08;-0.0018547800811837458
5.80000e-08;-0.001808180948709234
5.82500e-08;-0.0017549337039244294
5.85000e-08;-0.001698689562036556
5.87500e-08;-0.0016367899909692347
5.90000e-08;-0.0015723410136143207
5.92500e-08;-0.0015042584436741218
5.95000e-08;-0.001432440022903386
5.97500e-08;-0.0013578397918279218
6.00000e-08;-0.0012808805875873424
6.02500e-08;-0.0012020316335551913
6.05000e-08;-0.0011217707764059628
6.07500e-08;-0.0010405690554421384
6.10000e-08;-0.0009588949982638732
6.12500e-08;-0.0008772171002475811
6.15000e-08;-0.0007960039149773367
6.17500e-08;-0.0007157355690803064
6.20000e-08;-0.000636924279356357
6.22500e-08;-0.0005601113517578205
6.25000e-08;-0.0004858434558162385
6.27500e-08;-0.0004146628198278999
6.30000e-08;-0.0003471101748764002
6.32500e-08;-0.0002837261698281879
6.35000e-08;-0.00022504240108466212
6.37500e-08;-0.0001710808251640141
6.40000e-08;-0.00012083494194253206
6.42500e-08;-7.309179810559917e-05
6.45000e-08;-2.744093798301918e-05
6.47500e-08;1.5923189594339475e-05
6.50000e-08;5.668242667070239e-05
6.52500e-08;9.451867325116432e-05
6.55000e-08;0.0001291195159489099
6.57500e-08;0.00016049182287453852
6.60000e-08;0.00018928663049215934
6.62500e-08;0.00021628425461215112
6.65000e-08;0.0002417622715074041
6.67500e-08;0.0002656193268451244
6.70000e-08;0.00028767659863504995
6.72500e-08;0.00030775531758580173
6.75000e-08;0.0003256803188340315
6.77500e-08;0.00034095132779817964
6.80000e-08;0.0003553351684056581
6.82500e-08;0.00036813925985119836
6.85000e-08;0.0003802312174659549
6.87500e-08;0.00039085002841972934
6.90000e-08;0.00040080476079681145
6.92500e-08;0.0004090350362323821
6.95000e-08;0.00041648794513574245
6.97500e-08;0.0004220927697586332
7.00000e-08;0.00042686449798244374
7.02500e-08;0.00043163622620625436
7.05000e-08;0.00043524991772729365
7.07500e-08;0.0004383415788316052
7.10000e-08;0.0004414332399359166
7.12500e-08;0.00044318206025589286
7.15000e-08;0.00044432554247858026
7.17500e-08;0.0004454690247012677
7.20000e-08;0.00044661250692395516
7.22500e-08;0.00044719132588990826
7.25000e-08;0.0004475156007688572
7.27500e-08;0.00044783987564780606
7.30000e-08;0.000448164150526755
7.32500e-08;0.0004484662984658179
7.35000e-08;0.0004487296044884076
7.37500e-08;0.0004484605663154032
7.40000e-08;0.00044624529967664695
7.42500e-08;0.00044063152155104603
7.45000e-08;0.0004310807643397534
7.47500e-08;0.00041768892888940847
7.50000e-08;0.00040067756966932603
7.52500e-08;0.00038026825611518024
7.55000e-08;0.0003566770279812337
7.57500e-08;0.00032981693101211807
7.60000e-08;0.00029902566294869737
7.62500e-08;0.00026361697097182843
7.65000e-08;0.00022347706027574734
7.67500e-08;0.00017888945311361586
7.70000e-08;0.0001302163943391876
7.72500e-08;7.78201124871074e-05
7.75000e-08;2.205935580930252e-05
7.77500e-08;-3.6896928158253055e-05
7.80000e-08;-9.924019729964974e-05
7.82500e-08;-0.00016517688103610885
7.85000e-08;-0.00023455479731698537
7.87500e-08;-0.0003069729221432585
7.90000e-08;-0.0003819809118855898
7.92500e-08;-0.00045966359293067225
7.95000e-08;-0.0005382088359443183
7.97500e-08;-0.0006190027350749226
8.00000e-08;-0.0007008103040546782
8.02500e-08;-0.0007826178730344382
8.05000e-08;-0.0008657587556430119
8.07500e-08;-0.0009495006816102483
8.10000e-08;-0.0010332426075774846
8.12500e-08;-0.0011153656092007544
8.15000e-08;-0.001196758817245025
8.17500e-08;-0.0012781520252892913
8.20000e-08;-0.001355484227710016
8.22500e-08;-0.0014309857727319436
8.25000e-08;-0.0015064873177538748
8.27500e-08;-0.0015752491934812693
8.30000e-08;-0.0016409728992076312
8.32500e-08;-0.0017066966049339965
8.35000e-08;-0.0017632539399477496
8.37500e-08;-0.0018156791742158587
8.40000e-08;-0.0018681044084839678
8.42500e-08;-0.0019145127467057714
8.45000e-08;-0.0019582087332871167
8.47500e-08;-0.00200190471986846
8.50000e-08;-0.0020395073123097296
8.52500e-08;-0.0020743630685975015
8.55000e-08;-0.002109218824885275
8.57500e-08;-0.00213772015734866
8.60000e-08;-0.0021633569843009575
8.62500e-08;-0.002188993811253256
8.65000e-08;-0.002206528586950602
8.67500e-08;-0.002220411045598863
8.70000e-08;-0.002234293504247124
8.72500e-08;-0.0022481759628953843
8.75000e-08;-0.0022620584215436454
8.77500e-08;-0.002275940880191906
8.80000e-08;-0.002289823338840167
8.82500e-08;-0.0023037057974884274
8.85000e-08;-0.002315125536171712
8.87500e-08;-0.002315997007574988
8.90000e-08;-0.0023168684789782643
8.92500e-08;-0.0023177399503815405
8.95000e-08;-0.0023186114217848166
8.97500e-08;-0.002319482893188093
9.00000e-08;-0.0023203543645913694
9.02500e-08;-0.0023212258359946456
9.05000e-08;-0.0023220973073979218
9.07500e-08;-0.0023194659351781217
9.10000e-08;-0.0023152555189505427
9.12500e-08;-0.0023110451027229637
9.15000e-08;-0.0023068346864953846
9.17500e-08;-0.0023026242702678056
9.20000e-08;-0.0022978189663465224
9.22500e-08;-0.002292745493489047
9.25000e-08;-0.002287672020631572
9.27500e-08;-0.0022825985477740967
9.30000e-08;-0.0022775250749166214
9.32500e-08;-0.0022730214700616216
9.35000e-08;-0.002268774755536697
9.37500e-08;-0.0022636148784518344
9.40000e-08;-0.002258043357564519
9.42500e-08;-0.0022480461277289785
9.45000e-08;-0.0022360538361816205
9.47500e-08;-0.0022182523703349042
9.50000e-08;-0.0021978321915638865
9.52500e-08;-0.0021774120127928676
9.55000e-08;-0.0021507291544148256
9.57500e-08;-0.002121223147826287
9.60000e-08;-0.0020917171412377484
9.62500e-08;-0.002053703155747185
9.65000e-08;-0.0020118538654159803
9.67500e-08;-0.001970004575084778
9.70000e-08;-0.001920547522580231
9.72500e-08;-0.0018676609731968319
9.75000e-08;-0.00181477442381343
9.77500e-08;-0.0017554982507834783
9.80000e-08;-0.00169334170454343
9.82500e-08;-0.0016311851583033783
9.85000e-08;-0.00156361597071509
9.87500e-08;-0.001493606822966739
9.90000e-08;-0.0014204720995194993
9.92500e-08;-0.0013459284003630063
9.95000e-08;-0.0012694011002854547
9.97500e-08;-0.001191979614373404
1.00000e-07;-0.0011133817295413179
1.00250e-07;-0.0010335359258393424
1.00500e-07;-0.0009529143024646295
1.00750e-07;-0.0008719720211251416
1.01000e-07;-0.0007911959306967634
1.01250e-07;-0.0007110728800553663
1.01500e-07;-0.0006320882737072366
1.01750e-07;-0.0005546505140703986
1.02000e-07;-0.0004790215464185746
1.02250e-07;-0.00040545541898330485
1.02500e-07;-0.00033434960341458496
1.02750e-07;-0.00026620161976764745
1.03000e-07;-0.00020152873650272534
1.03250e-07;-0.00014084818237313182
1.03500e-07;-8.467109220430374e-05
1.03750e-07;-3.3161106259873726e-05
1.04000e-07;1.4235823764037684e-05
1.04250e-07;5.825987265254045e-05
1.04500e-07;9.914799683558568e-05
1.04750e-07;0.0001367421146039885
1.05000e-07;0.00017080221591833162
1.05250e-07;0.0002010883630051803
1.05500e-07;0.00022736445999940296
1.05750e-07;0.0002496120870706247
1.06000e-07;0.0002682623592618412
1.06250e-07;0.00028386297541027925
1.06500e-07;0.0002966463548636907
1.06750e-07;0.00030659745874241117
1.07000e-07;0.0003136499413305466
1.07250e-07;0.0003177375351805532
1.07500e-07;0.00031879636713560446
1.07750e-07;0.0003168989204156955
1.08000e-07;0.0003123992725834262
1.08250e-07;0.0003057244283980427
1.08500e-07;0.0002971039765165625
1.08750e-07;0.0002866124054572232
1.09000e-07;0.00027429211440666956
1.09250e-07;0.00026018554579285006
1.09500e-07;0.00024433659743086086
1.09750e-07;0.00022687461378687987
1.10000e-07;0.00020810531812939993
1.10250e-07;0.00018838008353150908
1.10500e-07;0.00016792657473101947
1.10750e-07;0.00014671920688380538
1.11000e-07;0.00012526638782839455
1.11250e-07;0.0001033055502148828
1.11500e-07;8.111570333166531e-05
1.11750e-07;5.8925856448448994e-05
1.12000e-07;3.68513076623751e-05
1.12250e-07;1.5222640946434474e-05
1.12500e-07;-5.701155179005713e-06
1.12750e-07;-2.5754550887814347e-05
1.13000e-07;-4.478464773199808e-05
1.13250e-07;-6.263854237178845e-05
1.13500e-07;-7.916661502803555e-05
1.13750e-07;-9.440393533011747e-05
1.14000e-07;-0.00010875351104307478
1.14250e-07;-0.00012268001424305315
1.14500e-07;-0.00013634460686753094
1.14750e-07;-0.00014952308722853116
1.15000e-07;-0.00016251746731426022
1.15250e-07;-0.0001747187881846561
1.15500e-07;-0.00018656260654093912
1.15750e-07;-0.00019759593628666008
1.16000e-07;-0.00020826390653546855
1.16250e-07;-0.00021893187678427703
1.16500e-07;-0.00022877730689678218
1.16750e-07;-0.0002382519448149567
1.17000e-07;-0.0002477265827331307
1.17250e-07;-0.00025720122065130526
1.17500e-07;-0.0002666758585694798
1.17750e-07;-0.0002761504964876538
1.18000e-07;-0.00028562513440582834
1.18250e-07;-0.00029509977232400233
1.18500e-07;-0.0003045744102421769
1.18750e-07;-0.0003140490481603509
1.19000e-07;-0.0003235236860785254
1.19250e-07;-0.00033299832399669995
1.19500e-07;-0.0003420823400603601
1.19750e-07;-0.00034949325330052447
1.20000e-07;-0.0003569041665406896
1.20250e-07;-0.000364315079780854
1.20500e-07;-0.00037172599302101833
1.20750e-07;-0.00037913690626118347
1.21000e-07;-0.00038654781950134786
1.21250e-07;-0.0003939587327415122
1.21500e-07;-0.00040136964598167657
1.21750e-07;-0.0004087805592218417
1.22000e-07;-0.00041619147246200604
1.22250e-07;-0.0004236023857021704
1.22500e-07;-0.00043101329894233557
1.22750e-07;-0.0004372608418775005
1.23000e-07;-0.0004429839500657497
1.23250e-07;-0.0004481957413842949
1.23500e-07;-0.00045317703658994817
1.23750e-07;-0.0004568900549202874
1.24000e-07;-0.0004600313477568045
1.24250e-07;-0.00046101521380271723
1.24500e-07;-0.0004593737350321073
1.24750e-07;-0.00045464247844840183
1.25000e-07;-0.0004488542504395051
1.25250e-07;-0.00044085581596743824
1.25500e-07;-0.00043047463006173876
1.25750e-07;-0.00041800491598042137
1.26000e-07;-0.0004031303711359058
1.26250e-07;-0.00038553190268004404
1.26500e-07;-0.0003651687360518616
1.26750e-07;-0.00034219079489164765
1.27000e-07;-0.00031678559517903977
1.27250e-07;-0.0002891406127722906
1.27500e-07;-0.0002594416805275689
1.27750e-07;-0.00022778512022773162
1.28000e-07;-0.00019409916579469683
1.28250e-07;-0.00015831031914798258
1.28500e-07;-0.00012051942219196191
1.28750e-07;-8.094675070810558e-05
1.29000e-07;-3.983612203606103e-05
1.29250e-07;2.5686722489783127e-06
1.29500e-07;4.602489911134955e-05
1.29750e-07;9.034591313519246e-05
1.30000e-07;0.00013568242639586388
1.30250e-07;0.00018136261633764565
1.30500e-07;0.00022763544667444937
1.30750e-07;0.00027417543288951556
1.31000e-07;0.00032055520942764193
1.31250e-07;0.00036686276517672794
1.31500e-07;0.0004122597562250878
1.31750e-07;0.0004572462745578225
1.32000e-07;0.000501195233998591
1.32250e-07;0.0005438207242480435
1.32500e-07;0.0005850178981625884
1.32750e-07;0.0006244950382420446
1.33000e-07;0.0006619512549496706
1.33250e-07;0.0006970856508511141
1.33500e-07;0.0007295927987451329
1.33750e-07;0.0007589178573509429
1.34000e-07;0.0007840659114031604
1.34250e-07;0.0008041137620936888
1.34500e-07;0.0008186974975632921
1.34750e-07;0.0008278150025600325
1.35000e-07;0.0008315337798842885
1.35250e-07;0.0008299213905440978
1.35500e-07;0.0008230424446518188
1.35750e-07;0.0008108054256591081
1.36000e-07;0.0007928431372264318
1.36250e-07;0.0007688333410211358
1.36500e-07;0.0007388042192278554
1.36750e-07;0.000703010494217783
1.37000e-07;0.0006617506226523286
1.37250e-07;0.000615322910896045
1.37500e-07;0.0005640239118193095
1.37750e-07;0.0005080523430204754
1.38000e-07;0.0004474342433058453
1.38250e-07;0.0003822238413380308
1.38500e-07;0.0003126948155748267
1.38750e-07;0.00023926276587663318
1.39000e-07;0.00016237061990481892
1.39250e-07;8.24612531946014e-05
1.39500e-07;-2.36474973817712e-08
1.39750e-07;-8.470368517246838e-05
1.40000e-07;-0.00017130663791476854
1.40250e-07;-0.000259906998885687
1.40500e-07;-0.0003491486926715762
1.40750e-07;-0.0004389868927144124
1.41000e-07;-0.0005290939913242423
1.41250e-07;-0.0006192010899340723
1.41500e-07;-0.000707154105201455
1.41750e-07;-0.0007941360830032249
1.42000e-07;-0.0008811180608049949
1.42250e-07;-0.0009641651745951986
1.42500e-07;-0.001045438494260541
1.42750e-07;-0.0011218153207299224
1.43000e-07;-0.0011959848610420636
1.43250e-07;-0.001263634998424088
1.43500e-07;-0.001328346259499078
