Time(s);Current(A)
9.75000e-06;0.01197569420138157
9.75025e-06;0.011946947882378166
9.75050e-06;0.011918422320340056
9.75075e-06;0.011894011889998264
9.75100e-06;0.011869601459656305
9.75125e-06;0.011845191029314346
9.75150e-06;0.011820780598972387
9.75175e-06;0.011796370168630593
9.75200e-06;0.011771959738288634
9.75225e-06;0.011747549307946675
9.75250e-06;0.011723490540393408
9.75275e-06;0.011705987120645689
9.75300e-06;0.01168848370089797
9.75325e-06;0.01167098028115037
9.75350e-06;0.01165347686140265
9.75375e-06;0.01163597344165493
9.75400e-06;0.011618470021907329
9.75425e-06;0.011600966602159611
9.75450e-06;0.011583463182411892
9.75475e-06;0.01156595976266429
9.75500e-06;0.01154845634291657
9.75525e-06;0.011530952923168851
9.75550e-06;0.011513449503421251
9.75575e-06;0.011495992935570498
9.75600e-06;0.011479409734166696
9.75625e-06;0.011462826532763006
9.75650e-06;0.011446243331359206
9.75675e-06;0.011429660129955405
9.75700e-06;0.011413076928551716
9.75725e-06;0.011396493727147914
9.75750e-06;0.011379910525744113
9.75775e-06;0.011363327324340424
9.75800e-06;0.011346744122936623
9.75825e-06;0.011330160921532821
9.75850e-06;0.011313577720129133
9.75875e-06;0.011296994518725331
9.75900e-06;0.011280538978384453
9.75925e-06;0.01126646316856092
9.75950e-06;0.01125238735873729
9.75975e-06;0.011238311548913662
9.76000e-06;0.011224235739090033
9.76025e-06;0.0112101599292665
9.76050e-06;0.01119608411944287
9.76075e-06;0.011182008309619242
9.76100e-06;0.011167932499795708
9.76125e-06;0.01115385668997208
9.76150e-06;0.01113978088014845
9.76175e-06;0.011125705070324917
9.76200e-06;0.011111629260501289
9.76225e-06;0.01109755345067766
9.76250e-06;0.011084142535785881
9.76275e-06;0.011083125930672646
9.76300e-06;0.01108210932555941
9.76325e-06;0.011081092720446183
9.76350e-06;0.011080076115332948
9.76375e-06;0.011079059510219714
9.76400e-06;0.011078042905106486
9.76425e-06;0.011077026299993251
9.76450e-06;0.011076009694880016
9.76475e-06;0.011074993089766788
9.76500e-06;0.011073976484653553
9.76525e-06;0.011072959879540318
9.76550e-06;0.01107194327442709
9.76575e-06;0.011070926669313856
9.76600e-06;0.011070739058741348
9.76625e-06;0.011086004739590797
9.76650e-06;0.011101270420440349
9.76675e-06;0.011116536101289902
9.76700e-06;0.01113180178213935
9.76725e-06;0.011147067462988903
9.76750e-06;0.011162333143838455
9.76775e-06;0.011177598824687903
9.76800e-06;0.011192864505537456
9.76825e-06;0.011208130186387007
9.76850e-06;0.01122339586723656
9.76875e-06;0.011238661548086008
9.76900e-06;0.01125392722893556
9.76925e-06;0.011269192909785113
9.76950e-06;0.011284458590634561
9.76975e-06;0.01129967533371428
9.77000e-06;0.011313979827578658
9.77025e-06;0.011328284321442937
9.77050e-06;0.011342588815307315
9.77075e-06;0.011356893309171693
9.77100e-06;0.011371197803035974
9.77125e-06;0.01138550229690035
9.77150e-06;0.011399806790764728
9.77175e-06;0.011414111284629009
9.77200e-06;0.011428415778493385
9.77225e-06;0.011442720272357763
9.77250e-06;0.011457024766222044
9.77275e-06;0.01147132926008642
9.77300e-06;0.011485633753950798
9.77325e-06;0.011499938247815079
9.77350e-06;0.011513523809780908
9.77375e-06;0.011513707758574835
9.77400e-06;0.01151389170736876
9.77425e-06;0.011514075656162687
9.77450e-06;0.011514259604956615
9.77475e-06;0.011514443553750541
9.77500e-06;0.011514627502544467
9.77525e-06;0.011514811451338394
9.77550e-06;0.01151499540013232
9.77575e-06;0.011515179348926246
9.77600e-06;0.011515363297720174
9.77625e-06;0.011515547246514098
9.77650e-06;0.011515731195308026
9.77675e-06;0.011515915144101952
9.77700e-06;0.01151609909289588
9.77725e-06;0.011516283041689805
9.77750e-06;0.011516466990483733
9.77775e-06;0.011516650939277659
9.77800e-06;0.011516834888071585
9.77825e-06;0.011513382829496963
9.77850e-06;0.011506966822426034
9.77875e-06;0.011500550815355146
9.77900e-06;0.011494134808284215
9.77925e-06;0.011487718801213286
9.77950e-06;0.011481302794142398
9.77975e-06;0.011474886787071469
9.78000e-06;0.011468470780000538
9.78025e-06;0.011462054772929652
9.78050e-06;0.01145563876585872
9.78075e-06;0.01144922275878779
9.78100e-06;0.011442806751716904
9.78125e-06;0.011436390744645973
9.78150e-06;0.011429974737575043
9.78175e-06;0.011423558730504156
9.78200e-06;0.011417142723433225
9.78225e-06;0.011410726716362295
9.78250e-06;0.011404310709291408
9.78275e-06;0.011397753985656804
9.78300e-06;0.01138857416384082
9.78325e-06;0.011379394342024899
9.78350e-06;0.011370214520208914
9.78375e-06;0.011361034698392931
9.78400e-06;0.011351854876577009
9.78425e-06;0.011342675054761024
9.78450e-06;0.01133349523294504
9.78475e-06;0.011324315411129118
9.78500e-06;0.011315135589313135
9.78525e-06;0.01130595576749715
9.78550e-06;0.011296775945681167
9.78575e-06;0.011287596123865245
9.78600e-06;0.01127841630204926
9.78625e-06;0.011269236480233277
9.78650e-06;0.011256922420825391
9.78675e-06;0.011242053438432225
9.78700e-06;0.011227184456039058
9.78725e-06;0.011212315473645993
9.78750e-06;0.011197446491252826
9.78775e-06;0.01118257750885966
9.78800e-06;0.011167708526466594
9.78825e-06;0.011152839544073428
9.78850e-06;0.011137970561680264
9.78875e-06;0.011123101579287198
9.78900e-06;0.011108232596894032
9.78925e-06;0.011093363614500865
9.78950e-06;0.0110784946321078
9.78975e-06;0.011063625649714633
9.79000e-06;0.01104883442804025
9.79025e-06;0.011035492744323321
9.79050e-06;0.011022151060606302
9.79075e-06;0.011008809376889285
9.79100e-06;0.010995467693172356
9.79125e-06;0.010982126009455338
9.79150e-06;0.01096878432573832
9.79175e-06;0.010955442642021392
9.79200e-06;0.010942100958304373
9.79225e-06;0.010928759274587356
9.79250e-06;0.010915417590870427
9.79275e-06;0.010911101887163627
9.79300e-06;0.01091414385278449
9.79325e-06;0.01091718581840533
9.79350e-06;0.010920227784026194
9.79375e-06;0.010923269749647056
9.79400e-06;0.010926311715267919
9.79425e-06;0.01092935368088876
9.79450e-06;0.010932395646509621
9.79475e-06;0.010935437612130484
9.79500e-06;0.010938479577751325
9.79525e-06;0.010942862304287091
9.79550e-06;0.010972238161920184
9.79575e-06;0.011001614019553078
9.79600e-06;0.01103098987718617
9.79625e-06;0.011060365734819265
9.79650e-06;0.011089741592452159
9.79675e-06;0.011119117450085252
9.79700e-06;0.011148493307718344
9.79725e-06;0.01117786916535124
9.79750e-06;0.011207245022984333
9.79775e-06;0.011236620880617425
9.79800e-06;0.011265996738250319
9.79825e-06;0.011302125914136292
9.79850e-06;0.011343760163434762
9.79875e-06;0.011385394412732949
9.79900e-06;0.011427028662031418
9.79925e-06;0.011468662911329886
9.79950e-06;0.011510297160628073
9.79975e-06;0.011551931409926542
9.80000e-06;0.01159356565922501
9.80025e-06;0.011635199908523196
9.80050e-06;0.011676834157821666
9.80075e-06;0.011718468407120135
9.80100e-06;0.011759480300119458
9.80125e-06;0.011788890846144142
9.80150e-06;0.011818301392168827
9.80175e-06;0.011847711938193313
9.80200e-06;0.011877122484217998
9.80225e-06;0.011906533030242682
9.80250e-06;0.011935943576267366
9.80275e-06;0.011965354122291853
9.80300e-06;0.011994764668316537
9.80325e-06;0.01202293221311702
9.80350e-06;0.012027928965690375
9.80375e-06;0.012032925718263763
9.80400e-06;0.012037922470837152
9.80425e-06;0.012042919223410506
9.80450e-06;0.012047915975983894
9.80475e-06;0.012052912728557281
9.80500e-06;0.012057909481130636
9.80525e-06;0.012062906233704023
9.80550e-06;0.012066534350398823
9.80575e-06;0.012044649718619512
9.80600e-06;0.012022765086840054
9.80625e-06;0.012000880455060595
9.80650e-06;0.011978995823281284
9.80675e-06;0.011957111191501826
9.80700e-06;0.011935226559722366
9.80725e-06;0.011913341927943057
9.80750e-06;0.011891457296163598
9.80775e-06;0.011869572664384138
9.80800e-06;0.011847688032604829
9.80825e-06;0.011825803400825369
9.80850e-06;0.01180391876904591
9.80875e-06;0.0117820341372666
9.80900e-06;0.011755095377786877
9.80925e-06;0.01172403666675258
9.80950e-06;0.011692977955718494
9.80975e-06;0.011661919244684198
9.81000e-06;0.011630860533649904
9.81025e-06;0.011599801822615817
9.81050e-06;0.011568743111581521
9.81075e-06;0.011537684400547225
9.81100e-06;0.011506625689512929
9.81125e-06;0.011475566978478844
9.81150e-06;0.011444508267444548
9.81175e-06;0.011413449556410252
9.81200e-06;0.011382390845376168
9.81225e-06;0.011351861268043297
9.81250e-06;0.011331195274779824
9.81275e-06;0.011310529281516494
9.81300e-06;0.011289863288253023
9.81325e-06;0.011269197294989552
9.81350e-06;0.011248531301726221
9.81375e-06;0.01122786530846275
9.81400e-06;0.01120719931519928
9.81425e-06;0.011186533321935947
9.81450e-06;0.011165867328672476
9.81475e-06;0.011145201335409005
9.81500e-06;0.011124592924848858
9.81525e-06;0.011104193902321847
9.81550e-06;0.011083794879794837
9.81575e-06;0.011063395857267963
9.81600e-06;0.011042996834740953
9.81625e-06;0.011022597812213942
9.81650e-06;0.01100219878968707
9.81675e-06;0.01098179976716006
9.81700e-06;0.01096140074463305
9.81725e-06;0.010941001722106177
9.81750e-06;0.010920602699579167
9.81775e-06;0.010900152308851848
9.81800e-06;0.01087961827188732
9.81825e-06;0.01085908423492265
9.81850e-06;0.010838550197957982
9.81875e-06;0.010818016160993454
9.81900e-06;0.010797482124028784
9.81925e-06;0.010776948087064116
9.81950e-06;0.010756414050099448
9.81975e-06;0.010735880013134918
9.82000e-06;0.01071534597617025
9.82025e-06;0.010694811939205582
9.82050e-06;0.010677271829484223
9.82075e-06;0.010661852386459437
9.82100e-06;0.010646432943434652
9.82125e-06;0.01063101350040997
9.82150e-06;0.010615594057385186
9.82175e-06;0.0106001746143604
9.82200e-06;0.01058475517133572
9.82225e-06;0.010569335728310935
9.82250e-06;0.010553916285286149
9.82275e-06;0.010538496842261469
9.82300e-06;0.010523077399236682
9.82325e-06;0.010522522169652606
9.82350e-06;0.010525911651639859
9.82375e-06;0.010529301133627135
9.82400e-06;0.010532690615614413
9.82425e-06;0.010536080097601666
9.82450e-06;0.010539469579588942
9.82475e-06;0.010542859061576218
9.82500e-06;0.010546248543563471
9.82525e-06;0.010549638025550747
9.82550e-06;0.010553027507538025
9.82575e-06;0.010562568673344248
9.82600e-06;0.010587150799655174
9.82625e-06;0.0106117329259661
9.82650e-06;0.010636315052276857
9.82675e-06;0.010660897178587782
9.82700e-06;0.010685479304898708
9.82725e-06;0.010710061431209466
9.82750e-06;0.010734643557520391
9.82775e-06;0.010759225683831317
9.82800e-06;0.010783807810142243
9.82825e-06;0.010808389936453
9.82850e-06;0.010840135450134326
9.82875e-06;0.01087378200601787
9.82900e-06;0.010907428561901186
9.82925e-06;0.01094107511778473
9.82950e-06;0.010974721673668274
9.82975e-06;0.011008368229551589
9.83000e-06;0.011042014785435133
9.83025e-06;0.011075661341318677
9.83050e-06;0.011109307897201992
9.83075e-06;0.011142954453085536
9.83100e-06;0.011173446768698733
9.83125e-06;0.011196226918873673
9.83150e-06;0.011219007069048768
9.83175e-06;0.011241787219223863
9.83200e-06;0.011264567369398803
9.83225e-06;0.011287347519573897
9.83250e-06;0.011310127669748992
9.83275e-06;0.011332907819923932
9.83300e-06;0.011355687970099027
9.83325e-06;0.011378468120274121
9.83350e-06;0.011401248270449062
9.83375e-06;0.011403915262810238
9.83400e-06;0.011401244562281445
9.83425e-06;0.01139857386175267
9.83450e-06;0.011395903161223877
9.83475e-06;0.011393232460695082
9.83500e-06;0.011390561760166307
9.83525e-06;0.011387891059637514
9.83550e-06;0.011385220359108722
9.83575e-06;0.011382549658579946
9.83600e-06;0.011379878958051154
9.83625e-06;0.011377208257522359
9.83650e-06;0.011374537556993566
9.83675e-06;0.011371866856464791
9.83700e-06;0.011369196155935998
9.83725e-06;0.011351694467778502
9.83750e-06;0.011330256885617881
9.83775e-06;0.011308819303457117
9.83800e-06;0.01128738172129635
9.83825e-06;0.011265944139135729
9.83850e-06;0.011244506556974964
9.83875e-06;0.011223068974814197
9.83900e-06;0.011201631392653576
9.83925e-06;0.01118019381049281
9.83950e-06;0.011158756228332045
9.83975e-06;0.011137318646171424
9.84000e-06;0.011115881064010657
9.84025e-06;0.01109444348184989
9.84050e-06;0.01107300589968927
9.84075e-06;0.011053027958320995
9.84100e-06;0.011033437381003357
9.84125e-06;0.011013846803685851
9.84150e-06;0.010994256226368213
9.84175e-06;0.010974665649050575
9.84200e-06;0.010955075071733069
9.84225e-06;0.010935484494415431
9.84250e-06;0.010915893917097793
9.84275e-06;0.010896303339780287
9.84300e-06;0.010890934990088325
9.84325e-06;0.010889340979761726
9.84350e-06;0.010887746969435137
9.84375e-06;0.010886152959108537
9.84400e-06;0.010884558948781936
9.84425e-06;0.010882964938455348
9.84450e-06;0.010881370928128747
9.84475e-06;0.010879776917802148
9.84500e-06;0.010878182907475548
9.84525e-06;0.010897712948677645
9.84550e-06;0.010922848956915445
9.84575e-06;0.010947984965153245
9.84600e-06;0.010973120973390873
9.84625e-06;0.010998256981628672
9.84650e-06;0.01102339298986647
9.84675e-06;0.0110485289981041
9.84700e-06;0.011073665006341899
9.84725e-06;0.011098801014579697
9.84750e-06;0.011123937022817327
9.84775e-06;0.011149073031055124
9.84800e-06;0.011174209039292924
9.84825e-06;0.011210475889208378
9.84850e-06;0.01124969667679316
9.84875e-06;0.011288917464377941
9.84900e-06;0.011328138251962458
9.84925e-06;0.01136735903954724
9.84950e-06;0.011406579827132021
9.84975e-06;0.011445800614716535
9.85000e-06;0.011485021402301317
9.85025e-06;0.011524242189886099
9.85050e-06;0.011563462977470615
9.85075e-06;0.011602683765055397
9.85100e-06;0.011641904552640178
9.85125e-06;0.011671313098254997
9.85150e-06;0.011698117640325975
9.85175e-06;0.011724922182396954
9.85200e-06;0.011751726724467752
9.85225e-06;0.011778531266538732
9.85250e-06;0.01180533580860971
9.85275e-06;0.011832140350680509
9.85300e-06;0.011858944892751487
9.85325e-06;0.011885749434822467
9.85350e-06;0.011905505181668304
9.85375e-06;0.011908026516962662
9.85400e-06;0.011910547852257038
9.85425e-06;0.011913069187551414
9.85450e-06;0.011915590522845774
9.85475e-06;0.01191811185814015
9.85500e-06;0.011920633193434525
9.85525e-06;0.011923154528728884
9.85550e-06;0.01192567586402326
9.85575e-06;0.011928197199317635
9.85600e-06;0.011911440444341333
9.85625e-06;0.011889567609314486
9.85650e-06;0.011867694774287639
9.85675e-06;0.011845821939260941
9.85700e-06;0.011823949104234094
9.85725e-06;0.011802076269207247
9.85750e-06;0.011780203434180549
9.85775e-06;0.011758330599153701
9.85800e-06;0.011736457764126854
9.85825e-06;0.011714584929100156
9.85850e-06;0.011692712094073309
9.85875e-06;0.011670839259046462
9.85900e-06;0.011648966424019762
9.85925e-06;0.011625397821428388
9.85950e-06;0.01159768304134498
9.85975e-06;0.011569968261261759
9.86000e-06;0.01154225348117835
9.86025e-06;0.01151453870109494
9.86050e-06;0.011486823921011718
9.86075e-06;0.01145910914092831
9.86100e-06;0.011431394360844902
9.86125e-06;0.01140367958076168
9.86150e-06;0.01137596480067827
9.86175e-06;0.011348250020594862
9.86200e-06;0.01132053524051164
9.86225e-06;0.01129282046042823
9.86250e-06;0.011265105680344821
9.86275e-06;0.011245193671871627
9.86300e-06;0.01122735238739801
9.86325e-06;0.011209511102924273
9.86350e-06;0.011191669818450536
9.86375e-06;0.01117382853397692
9.86400e-06;0.011155987249503183
9.86425e-06;0.011138145965029447
9.86450e-06;0.01112030468055583
9.86475e-06;0.011102463396082092
9.86500e-06;0.011084622111608357
9.86525e-06;0.01106678082713474
9.86550e-06;0.011048939542661004
9.86575e-06;0.011031098258187266
9.86600e-06;0.01101325697371365
9.86625e-06;0.010995415689239913
9.86650e-06;0.010979385849106883
9.86675e-06;0.010963836735753895
9.86700e-06;0.010948287622400802
9.86725e-06;0.010932738509047708
9.86750e-06;0.01091718939569472
9.86775e-06;0.010901640282341626
9.86800e-06;0.010886091168988534
9.86825e-06;0.010870542055635545
9.86850e-06;0.01085499294228245
9.86875e-06;0.010839443828929358
9.86900e-06;0.01082389471557637
9.86925e-06;0.010808345602223277
9.86950e-06;0.010792796488870183
9.86975e-06;0.010777247375517196
9.87000e-06;0.010761698262164101
9.87025e-06;0.010750219704198398
9.87050e-06;0.010739821402987198
9.87075e-06;0.010729423101775926
9.87100e-06;0.010719024800564657
9.87125e-06;0.010708626499353386
9.87150e-06;0.010698228198142186
9.87175e-06;0.010687829896930916
9.87200e-06;0.010677431595719645
9.87225e-06;0.010667033294508445
9.87250e-06;0.010656634993297175
9.87275e-06;0.010646236692085904
9.87300e-06;0.010635838390874704
9.87325e-06;0.010625440089663435
9.87350e-06;0.010615041788452163
9.87375e-06;0.010604643487240963
9.87400e-06;0.010594245186029694
9.87425e-06;0.010583846884818423
9.87450e-06;0.010573448583607222
9.87475e-06;0.010563050282395953
9.87500e-06;0.010552651981184682
9.87525e-06;0.010542253679973482
9.87550e-06;0.010531855378762212
9.87575e-06;0.010523723423705151
9.87600e-06;0.010516192918698238
9.87625e-06;0.010508662413691274
9.87650e-06;0.01050113190868431
9.87675e-06;0.010493601403677399
9.87700e-06;0.010486070898670435
9.87725e-06;0.010478540393663471
9.87750e-06;0.01047100988865656
9.87775e-06;0.010463479383649596
9.87800e-06;0.010455948878642632
9.87825e-06;0.010448418373635719
9.87850e-06;0.010440887868628755
9.87875e-06;0.010433357363621793
9.87900e-06;0.01042582685861488
9.87925e-06;0.010418296353607916
9.87950e-06;0.010410765848600952
9.87975e-06;0.010403235343593989
9.88000e-06;0.010395704838587077
9.88025e-06;0.010388174333580113
9.88050e-06;0.01038064382857315
9.88075e-06;0.010373113323566238
9.88100e-06;0.010365582818559274
9.88125e-06;0.010361677774631955
9.88150e-06;0.010358734866936385
9.88175e-06;0.010355791959240796
9.88200e-06;0.010352849051545205
9.88225e-06;0.010349906143849636
9.88250e-06;0.010346963236154045
9.88275e-06;0.010344020328458456
9.88300e-06;0.010341077420762885
9.88325e-06;0.010338134513067296
9.88350e-06;0.010335191605371706
9.88375e-06;0.010332248697676136
9.88400e-06;0.010329305789980545
9.88425e-06;0.010326362882284956
9.88450e-06;0.010323419974589385
9.88475e-06;0.010320477066893796
9.88500e-06;0.010317534159198206
9.88525e-06;0.010314591251502636
9.88550e-06;0.010311648343807047
9.88575e-06;0.010308705436111456
9.88600e-06;0.010305762528415885
9.88625e-06;0.010302819620720296
9.88650e-06;0.010299876713024706
9.88675e-06;0.010296933805329136
9.88700e-06;0.010293990897633547
9.88725e-06;0.010291047989937956
9.88750e-06;0.010288105082242387
9.88775e-06;0.010288278032508286
9.88800e-06;0.010289277878932334
9.88825e-06;0.010290277725356381
9.88850e-06;0.010291277571780423
9.88875e-06;0.010292277418204472
9.88900e-06;0.01029327726462852
9.88925e-06;0.010294277111052562
9.88950e-06;0.010295276957476611
9.88975e-06;0.01029627680390066
9.89000e-06;0.010297276650324701
9.89025e-06;0.01029827649674875
9.89050e-06;0.010299276343172799
9.89075e-06;0.01030027618959684
9.89100e-06;0.01030127603602089
9.89125e-06;0.010302275882444938
9.89150e-06;0.01030327572886898
9.89175e-06;0.010304275575293028
9.89200e-06;0.010305275421717077
9.89225e-06;0.010306275268141119
9.89250e-06;0.010307275114565168
9.89275e-06;0.010308274960989215
9.89300e-06;0.010309274807413256
9.89325e-06;0.010310274653837305
9.89350e-06;0.010311274500261354
9.89375e-06;0.010312274346685395
9.89400e-06;0.010313274193109444
9.89425e-06;0.01031629078190188
9.89450e-06;0.010319842580109276
9.89475e-06;0.010323394378316695
9.89500e-06;0.010326946176524115
9.89525e-06;0.01033049797473151
9.89550e-06;0.01033404977293893
9.89575e-06;0.010337601571146347
9.89600e-06;0.010341153369353743
9.89625e-06;0.010344705167561162
9.89650e-06;0.010348256965768582
9.89675e-06;0.010351808763976001
9.89700e-06;0.010355360562183396
9.89725e-06;0.010358912360390816
9.89750e-06;0.010362464158598235
9.89775e-06;0.01036601595680563
9.89800e-06;0.01036956775501305
9.89825e-06;0.010373119553220468
9.89850e-06;0.010376921654608885
9.89875e-06;0.010381335751083532
9.89900e-06;0.01038574984755818
9.89925e-06;0.010390163944032797
9.89950e-06;0.010394578040507446
9.89975e-06;0.010398992136982093
9.90000e-06;0.010403406233456711
9.90025e-06;0.010407820329931358
9.90050e-06;0.010412234426406005
9.90075e-06;0.010416648522880623
9.90100e-06;0.01042106261935527
9.90125e-06;0.01042547671582992
9.90150e-06;0.010429890812304535
9.90175e-06;0.010434304908779184
