Time(s);Current(A)
9.55000e-06;-0.0057117111102607115
9.55025e-06;-0.005705532822860134
9.55050e-06;-0.005701196817783354
9.55075e-06;-0.005703533662685018
9.55100e-06;-0.005707710877262827
9.55125e-06;-0.005720850011868323
9.55150e-06;-0.005736460840863957
9.55175e-06;-0.005752071669859697
9.55200e-06;-0.005781741864799405
9.55225e-06;-0.005815289627919222
9.55250e-06;-0.005848837391039266
9.55275e-06;-0.005882385154159311
9.55300e-06;-0.005915932917279127
9.55325e-06;-0.00595478820969678
9.55350e-06;-0.006007036168123906
9.55375e-06;-0.006059284126550678
9.55400e-06;-0.006111532084977803
9.55425e-06;-0.006163780043404929
9.55450e-06;-0.006216028001832055
9.55475e-06;-0.006275713000466706
9.55500e-06;-0.006337449132174534
9.55525e-06;-0.006399185263882361
9.55550e-06;-0.00646358854027163
9.55575e-06;-0.006528727414226243
9.55600e-06;-0.006593866288180857
9.55625e-06;-0.006659088746132677
9.55650e-06;-0.006724334256522085
9.55675e-06;-0.006789579766911492
9.55700e-06;-0.006852248286537503
9.55725e-06;-0.006914206073018089
9.55750e-06;-0.006976163859498674
9.55775e-06;-0.007032874347238718
9.55800e-06;-0.007088137631832539
9.55825e-06;-0.0071434009164263595
9.55850e-06;-0.007188310224186638
9.55875e-06;-0.007230363908778885
9.55900e-06;-0.0072724175933711315
9.55925e-06;-0.007314471277963094
9.55950e-06;-0.007356524962555341
9.55975e-06;-0.0073888757495066395
9.56000e-06;-0.007418550480701412
9.56025e-06;-0.007448225211896385
9.56050e-06;-0.007477899943091358
9.56075e-06;-0.00750757467428613
9.56100e-06;-0.007523864548795172
9.56125e-06;-0.007536462884538136
9.56150e-06;-0.007549061220281015
9.56175e-06;-0.007561659556023979
9.56200e-06;-0.007574257891766943
9.56225e-06;-0.007586856227509822
9.56250e-06;-0.007599454563252786
9.56275e-06;-0.00761205289899575
9.56300e-06;-0.007624651234738628
9.56325e-06;-0.007637249570481593
9.56350e-06;-0.007649847906224557
9.56375e-06;-0.007662446241967521
9.56400e-06;-0.007671144103696834
9.56425e-06;-0.007669999769022951
9.56450e-06;-0.007668855434349068
9.56475e-06;-0.007667711099675192
9.56500e-06;-0.00766656676500131
9.56525e-06;-0.007665422430327427
9.56550e-06;-0.007664278095653552
9.56575e-06;-0.00766313376097967
9.56600e-06;-0.007661989426305787
9.56625e-06;-0.007660845091631912
9.56650e-06;-0.0076597007569580286
9.56675e-06;-0.007658556422284146
9.56700e-06;-0.007657412087610271
9.56725e-06;-0.007653783896149503
9.56750e-06;-0.007649470657860457
9.56775e-06;-0.0076451574195714415
9.56800e-06;-0.007640844181282396
9.56825e-06;-0.007636530942993351
9.56850e-06;-0.007632217704704335
9.56875e-06;-0.00762790446641529
9.56900e-06;-0.007623591228126244
9.56925e-06;-0.0076192779898372285
9.56950e-06;-0.007614964751548183
9.56975e-06;-0.007610651513259138
9.57000e-06;-0.007604859084522742
9.57025e-06;-0.007595334165106149
9.57050e-06;-0.007585809245689556
9.57075e-06;-0.007576284326273027
9.57100e-06;-0.007566759406856433
9.57125e-06;-0.00755723448743984
9.57150e-06;-0.007547709568023311
9.57175e-06;-0.007538184648606718
9.57200e-06;-0.007528659729190124
9.57225e-06;-0.007519134809773531
9.57250e-06;-0.007509609890357001
9.57275e-06;-0.0075000849709404085
9.57300e-06;-0.007485405623011225
9.57325e-06;-0.007469304685510738
9.57350e-06;-0.007453203748010142
9.57375e-06;-0.007437102810509546
9.57400e-06;-0.007421001873009059
9.57425e-06;-0.007404900935508463
9.57450e-06;-0.007388799998007867
9.57475e-06;-0.00737269906050738
9.57500e-06;-0.007356598123006784
9.57525e-06;-0.007340497185506188
9.57550e-06;-0.0073235310258817415
9.57575e-06;-0.0073063262382995825
9.57600e-06;-0.007289121450717423
9.57625e-06;-0.007271916663135381
9.57650e-06;-0.0072547118755532216
9.57675e-06;-0.0072375070879710625
9.57700e-06;-0.007220302300389021
9.57725e-06;-0.0072030975128068615
9.57750e-06;-0.0071858927252247025
9.57775e-06;-0.00716868793764266
9.57800e-06;-0.0071534601488516016
9.57825e-06;-0.007138777615632145
9.57850e-06;-0.007125427863929569
9.57875e-06;-0.007112445692900716
9.57900e-06;-0.007103161292526786
9.57925e-06;-0.007094896735999686
9.57950e-06;-0.0070866321794725295
9.57975e-06;-0.007085911109147723
9.58000e-06;-0.0070872705296658005
9.58025e-06;-0.007088629950183887
9.58050e-06;-0.007102130884583633
9.58075e-06;-0.007118980444243774
9.58100e-06;-0.007135830003903801
9.58125e-06;-0.007152679563563942
9.58150e-06;-0.007169529123224084
9.58175e-06;-0.007186378682884111
9.58200e-06;-0.0072093180387894406
9.58225e-06;-0.007247623981045197
9.58250e-06;-0.007285929923300695
9.58275e-06;-0.007324235865556451
9.58300e-06;-0.007362541807812209
9.58325e-06;-0.007400847750067706
9.58350e-06;-0.007439153692323463
9.58375e-06;-0.007487614767410209
9.58400e-06;-0.007538876624561847
9.58425e-06;-0.007590138481713832
9.58450e-06;-0.00764548062493338
9.58475e-06;-0.007701948109615795
9.58500e-06;-0.007758415594298593
9.58525e-06;-0.007817384758980214
9.58550e-06;-0.007877043886125815
9.58575e-06;-0.007936703013271821
9.58600e-06;-0.007996936521862936
9.58625e-06;-0.008057328444654326
9.58650e-06;-0.008117720367446124
9.58675e-06;-0.008176175623463263
9.58700e-06;-0.008234096747464215
9.58725e-06;-0.008292017871465558
9.58750e-06;-0.008345901170556936
9.58775e-06;-0.008398670838956866
9.58800e-06;-0.008451440507357154
9.58825e-06;-0.008497531972512105
9.58850e-06;-0.008541781591558653
9.58875e-06;-0.0085860312106055
9.58900e-06;-0.008620572676076946
9.58925e-06;-0.008652436636203983
9.58950e-06;-0.008684300596330801
9.58975e-06;-0.00870438785102292
9.59000e-06;-0.00872122709449458
9.59025e-06;-0.008738066337966127
9.59050e-06;-0.008736399330039975
9.59075e-06;-0.008729628304481653
9.59100e-06;-0.00872285727892338
9.59125e-06;-0.00871608625336506
9.59150e-06;-0.00870931522780674
9.59175e-06;-0.008702544202248464
9.59200e-06;-0.008672329751168061
9.59225e-06;-0.008635649611566749
9.59250e-06;-0.008598969471965683
9.59275e-06;-0.00856228933236437
9.59300e-06;-0.008525609192763055
9.59325e-06;-0.008488929053161991
9.59350e-06;-0.00843465512909918
9.59375e-06;-0.008375528845464386
9.59400e-06;-0.008316402561829995
9.59425e-06;-0.008257276278195202
9.59450e-06;-0.00819814999456041
9.59475e-06;-0.008135604194405737
9.59500e-06;-0.008064429813951586
9.59525e-06;-0.007993255433497437
9.59550e-06;-0.007922081053043768
9.59575e-06;-0.007850906672589619
9.59600e-06;-0.007779732292135469
9.59625e-06;-0.0077067186323757355
9.59650e-06;-0.007633197700029153
9.59675e-06;-0.007560755877241341
9.59700e-06;-0.007488611672491173
9.59725e-06;-0.0074188309968958545
9.59750e-06;-0.007349702181811159
9.59775e-06;-0.00728433555910831
9.59800e-06;-0.007220006547742975
9.59825e-06;-0.007169575786025631
9.59850e-06;-0.007122978156678362
9.59875e-06;-0.0070763805273314105
9.59900e-06;-0.007029782897984142
9.59925e-06;-0.006983185268636873
9.59950e-06;-0.006936587639289921
9.59975e-06;-0.006889990009942653
9.60000e-06;-0.006843392380595384
9.60025e-06;-0.006803113558900046
9.60050e-06;-0.006778779195698961
9.60075e-06;-0.006754444832497876
9.60100e-06;-0.0067301104692969555
9.60125e-06;-0.00670577610609587
9.60150e-06;-0.006681441742894785
9.60175e-06;-0.006657107379693865
9.60200e-06;-0.006632773016492779
9.60225e-06;-0.0066084386532916945
9.60250e-06;-0.006597385517705384
9.60275e-06;-0.006589995340029718
9.60300e-06;-0.006582605162354053
9.60325e-06;-0.006575214984678437
9.60350e-06;-0.006567824807002772
9.60375e-06;-0.0065604346293271065
9.60400e-06;-0.0065530444516514914
9.60425e-06;-0.006545654273975825
9.60450e-06;-0.00653826409630016
9.60475e-06;-0.006530873918624545
9.60500e-06;-0.00652612510211129
9.60525e-06;-0.00652804132048291
9.60550e-06;-0.006529957538854519
9.60575e-06;-0.006531873757226139
9.60600e-06;-0.0065337899755977605
9.60625e-06;-0.006535706193969381
9.60650e-06;-0.0065376224123409885
9.60675e-06;-0.00653953863071261
9.60700e-06;-0.00654145484908423
9.60725e-06;-0.006543371067455838
9.60750e-06;-0.006545287285827459
9.60775e-06;-0.006547950771904067
9.60800e-06;-0.006550820354151213
9.60825e-06;-0.0065536899363983795
9.60850e-06;-0.006556559518645547
9.60875e-06;-0.006559429100892693
9.60900e-06;-0.00656229868313986
9.60925e-06;-0.006565168265387026
9.60950e-06;-0.0065680378476341734
9.60975e-06;-0.00657090742988134
9.61000e-06;-0.006573777012128506
9.61025e-06;-0.006577688910336455
9.61050e-06;-0.0065842309192388005
9.61075e-06;-0.0065907729281411455
9.61100e-06;-0.006597314937043447
9.61125e-06;-0.006603856945945792
9.61150e-06;-0.006610398954848137
9.61175e-06;-0.006616940963750439
9.61200e-06;-0.006623482972652784
9.61225e-06;-0.00663002498155513
9.61250e-06;-0.0066365669904574305
9.61275e-06;-0.0066431089993597755
9.61300e-06;-0.006653391691972823
9.61325e-06;-0.006664706063839586
9.61350e-06;-0.0066760204357064245
9.61375e-06;-0.006687334807573264
9.61400e-06;-0.006698649179440026
9.61425e-06;-0.006709963551306866
9.61450e-06;-0.006721277923173705
9.61475e-06;-0.006732592295040545
9.61500e-06;-0.006743906666907307
9.61525e-06;-0.006755221038774147
9.61550e-06;-0.006766654560516403
9.61575e-06;-0.006778388737120844
9.61600e-06;-0.0067901229137253645
9.61625e-06;-0.006801857090329886
9.61650e-06;-0.006813591266934326
9.61675e-06;-0.006825325443538847
9.61700e-06;-0.006837059620143368
9.61725e-06;-0.006848793796747809
9.61750e-06;-0.00686052797335233
9.61775e-06;-0.00687226214995685
9.61800e-06;-0.006883996326561292
9.61825e-06;-0.006893370702180519
9.61850e-06;-0.006902094245516513
9.61875e-06;-0.006910817788852447
9.61900e-06;-0.006913354437386162
9.61925e-06;-0.006914184742505519
9.61950e-06;-0.00691501504762487
9.61975e-06;-0.006915845352744227
9.62000e-06;-0.0069166756578635845
9.62025e-06;-0.006917505962982936
9.62050e-06;-0.006918336268102293
9.62075e-06;-0.006914899547573879
9.62100e-06;-0.006900695698635802
9.62125e-06;-0.00688649184969763
9.62150e-06;-0.006872288000759457
9.62175e-06;-0.00685808415182138
9.62200e-06;-0.006843880302883207
9.62225e-06;-0.006829676453945034
9.62250e-06;-0.006815472605006957
9.62275e-06;-0.006791208042929371
9.62300e-06;-0.006764168739699965
9.62325e-06;-0.006737129436470561
9.62350e-06;-0.006710090133241338
9.62375e-06;-0.006683050830011933
9.62400e-06;-0.006656011526782527
9.62425e-06;-0.0066268773883023675
9.62450e-06;-0.006592457282028936
9.62475e-06;-0.006558037175755506
9.62500e-06;-0.006523617069482308
9.62525e-06;-0.006489196963208876
9.62550e-06;-0.006454776856935445
9.62575e-06;-0.006420356750662248
9.62600e-06;-0.0063846320096503815
9.62625e-06;-0.0063485474508356175
9.62650e-06;-0.006312462892021098
9.62675e-06;-0.006277400077619449
9.62700e-06;-0.006242619059968289
9.62725e-06;-0.006207838042317363
9.62750e-06;-0.006174806692016154
9.62775e-06;-0.006142257899355918
9.62800e-06;-0.006111862398371921
9.62825e-06;-0.006082060774476157
9.62850e-06;-0.006055124183720644
9.62875e-06;-0.006028977768099779
9.62900e-06;-0.0060074466004623175
9.62925e-06;-0.005987188316598852
9.62950e-06;-0.005966930032735525
9.62975e-06;-0.005952981914862105
9.63000e-06;-0.005940774138554045
9.63025e-06;-0.005928566362246068
9.63050e-06;-0.005926854793135824
9.63075e-06;-0.005928038074286975
9.63100e-06;-0.0059292213554381175
9.63125e-06;-0.005930404636589268
9.63150e-06;-0.005931587917740418
9.63175e-06;-0.005932771198891569
9.63200e-06;-0.005938782975053157
9.63225e-06;-0.005956978654034647
9.63250e-06;-0.005975174333016135
9.63275e-06;-0.005993370011997501
9.63300e-06;-0.006011565690978989
9.63325e-06;-0.006029761369960479
9.63350e-06;-0.006047957048941844
9.63375e-06;-0.00607610874159956
9.63400e-06;-0.006107006299335003
9.63425e-06;-0.006137903857070237
9.63450e-06;-0.00616880141480568
9.63475e-06;-0.006199698972541123
9.63500e-06;-0.006230596530276356
9.63525e-06;-0.0062614940880117995
9.63550e-06;-0.0062961921887393826
9.63575e-06;-0.006331938477890196
9.63600e-06;-0.006367684767041252
9.63625e-06;-0.006403431056192307
9.63650e-06;-0.00643917734534312
9.63675e-06;-0.0064749236344941756
9.63700e-06;-0.006510669923645232
9.63725e-06;-0.006544519121976164
9.63750e-06;-0.006577845103324917
9.63775e-06;-0.00661117108467367
9.63800e-06;-0.0066366142555597364
9.63825e-06;-0.006659883350086523
9.63850e-06;-0.006683152444613309
9.63875e-06;-0.006706421539139938
9.63900e-06;-0.006729690633666724
9.63925e-06;-0.006752959728193511
9.63950e-06;-0.006776228822720139
9.63975e-06;-0.006799497917246926
9.64000e-06;-0.006818113467314376
9.64025e-06;-0.0068249865731313634
9.64050e-06;-0.006831859678948304
9.64075e-06;-0.00683873278476529
9.64100e-06;-0.0068456058905822775
9.64125e-06;-0.006852478996399218
9.64150e-06;-0.006859352102216204
9.64175e-06;-0.0068662252080331915
9.64200e-06;-0.006873098313850132
9.64225e-06;-0.006868945553173699
9.64250e-06;-0.00686175186238694
9.64275e-06;-0.00685455817160023
9.64300e-06;-0.0068473644808134705
9.64325e-06;-0.006840170790026712
9.64350e-06;-0.006832977099240001
9.64375e-06;-0.006825783408453242
9.64400e-06;-0.006818589717666483
9.64425e-06;-0.006811396026879773
9.64450e-06;-0.006797811668291343
9.64475e-06;-0.006782464765765245
9.64500e-06;-0.00676711786323925
9.64525e-06;-0.006751770960713151
9.64550e-06;-0.006736424058187052
9.64575e-06;-0.006721077155661058
9.64600e-06;-0.006705730253134958
9.64625e-06;-0.00669038335060886
9.64650e-06;-0.006675036448082865
9.64675e-06;-0.0066592087449340994
9.64700e-06;-0.00664324843714227
9.64725e-06;-0.006627288129350549
9.64750e-06;-0.00661132782155872
9.64775e-06;-0.0065953675137668906
9.64800e-06;-0.00657940720597517
9.64825e-06;-0.006566354088317535
9.64850e-06;-0.006554102772679112
9.64875e-06;-0.006541851457040689
9.64900e-06;-0.006529600141402349
9.64925e-06;-0.006517348825763926
9.64950e-06;-0.006505097510125503
9.64975e-06;-0.006494848716899535
9.65000e-06;-0.006485152218652405
9.65025e-06;-0.006475455720405275
9.65050e-06;-0.006465759222158212
9.65075e-06;-0.006456062723911082
9.65100e-06;-0.006446366225663952
9.65125e-06;-0.006436669727416889
9.65150e-06;-0.006426973229169759
9.65175e-06;-0.006417276730922629
9.65200e-06;-0.006407580232675566
9.65225e-06;-0.006397883734428436
9.65250e-06;-0.006388187236181306
9.65275e-06;-0.006378490737934243
9.65300e-06;-0.006368794239687113
9.65325e-06;-0.006359875729609565
9.65350e-06;-0.00635117178839639
9.65375e-06;-0.006342467847183157
9.65400e-06;-0.006333763905969924
9.65425e-06;-0.006325059964756749
9.65450e-06;-0.0063163560235435165
9.65475e-06;-0.006307652082330284
9.65500e-06;-0.00629894814111711
9.65525e-06;-0.006290244199903876
9.65550e-06;-0.006281540258690643
9.65575e-06;-0.006272836317477469
9.65600e-06;-0.006264132376264235
9.65625e-06;-0.0062554284350510025
9.65650e-06;-0.006246724493837829
9.65675e-06;-0.006240127637592309
9.65700e-06;-0.006234111914642007
9.65725e-06;-0.006228096191691704
9.65750e-06;-0.006222080468741443
9.65775e-06;-0.00621606474579114
9.65800e-06;-0.006210049022840838
9.65825e-06;-0.006204033299890576
9.65850e-06;-0.006198017576940274
9.65875e-06;-0.006192001853989972
9.65900e-06;-0.00618598613103971
9.65925e-06;-0.0061799704080894085
9.65950e-06;-0.006173954685139106
9.65975e-06;-0.006167938962188845
9.66000e-06;-0.006161923239238542
9.66025e-06;-0.00615590751628824
9.66050e-06;-0.00615332399317531
9.66075e-06;-0.0061516870695740794
9.66100e-06;-0.006150050145972848
9.66125e-06;-0.006148413222371629
9.66150e-06;-0.006146776298770398
9.66175e-06;-0.006145139375169167
9.66200e-06;-0.0061435024515679474
9.66225e-06;-0.006141865527966717
9.66250e-06;-0.006140228604365486
9.66275e-06;-0.006138591680764267
9.66300e-06;-0.006136954757163035
9.66325e-06;-0.006135317833561805
9.66350e-06;-0.006133680909960585
9.66375e-06;-0.006132043986359355
9.66400e-06;-0.006130407062758124
9.66425e-06;-0.006130507594182141
9.66450e-06;-0.006131087315093
9.66475e-06;-0.006131667036003858
9.66500e-06;-0.006132246756914712
9.66525e-06;-0.00613282647782557
9.66550e-06;-0.0061334061987364285
9.66575e-06;-0.006133985919647287
9.66600e-06;-0.006134565640558141
9.66625e-06;-0.006135212812254705
9.66650e-06;-0.006136030184773132
9.66675e-06;-0.006136847557291555
9.66700e-06;-0.006137664929809983
9.66725e-06;-0.00613848230232841
9.66750e-06;-0.006139299674846833
9.66775e-06;-0.006140117047365261
9.66800e-06;-0.006140934419883688
9.66825e-06;-0.006141751792402111
9.66850e-06;-0.006142054292075877
9.66875e-06;-0.006142214789999569
9.66900e-06;-0.006142375287923261
9.66925e-06;-0.0061389784168442985
9.66950e-06;-0.00613460042464145
9.66975e-06;-0.006130222432438632
9.67000e-06;-0.006120298818411868
9.67025e-06;-0.006108845723830106
9.67050e-06;-0.00609739262924842
9.67075e-06;-0.0060808525906751254
9.67100e-06;-0.006062909574732154
9.67125e-06;-0.006044966558789305
9.67150e-06;-0.006018503936689965
9.67175e-06;-0.005989691610199086
9.67200e-06;-0.005960879283708402
9.67225e-06;-0.005932066957217523
9.67250e-06;-0.005903254630726644
9.67275e-06;-0.005865497064517768
9.67300e-06;-0.005825272404329809
9.67325e-06;-0.005785047744141849
9.67350e-06;-0.005744823083954162
9.67375e-06;-0.005704598423766202
9.67400e-06;-0.005658490569469792
9.67425e-06;-0.005610760132300319
9.67450e-06;-0.00556302969513117
9.67475e-06;-0.005513150832894836
9.67500e-06;-0.005462679435778056
9.67525e-06;-0.005410990595762652
9.67550e-06;-0.005358965985422057
9.67575e-06;-0.005306261753232302
9.67600e-06;-0.005253370081575098
9.67625e-06;-0.005200563088901963
9.67650e-06;-0.005148160871088602
9.67675e-06;-0.005096488356405432
9.67700e-06;-0.005045803845890697
9.67725e-06;-0.0049962787119304155
9.67750e-06;-0.004948098969027429
9.67775e-06;-0.004901541223949947
9.67800e-06;-0.004856931075925199
9.67825e-06;-0.004814601837769517
9.67850e-06;-0.004774887287959649
9.67875e-06;-0.004738123860608253
9.67900e-06;-0.004704766588073636
9.67925e-06;-0.00467542492626106
9.67950e-06;-0.004650568580487846
9.67975e-06;-0.0046303683228921325
9.68000e-06;-0.004614849748544775
9.68025e-06;-0.004604018609045625
9.68050e-06;-0.004599723273396215
9.68075e-06;-0.004596950958922219
9.68100e-06;-0.00460174792366805
9.68125e-06;-0.004608632492970228
9.68150e-06;-0.0046252550846486735
9.68175e-06;-0.004644563419486074
9.68200e-06;-0.004663871754323344
9.68225e-06;-0.004697027171422632
9.68250e-06;-0.004734001608957441
9.68275e-06;-0.00477097604649225
9.68300e-06;-0.004807950484026809
9.68325e-06;-0.004844924921561618
9.68350e-06;-0.004895961618444223
9.68375e-06;-0.004950876681527022
9.68400e-06;-0.005005791744610194
9.68425e-06;-0.005060706807693366
9.68450e-06;-0.0051156218707761655
9.68475e-06;-0.005177348044171865
9.68500e-06;-0.005240952719405229
9.68525e-06;-0.005307035897412792
9.68550e-06;-0.00537380264561762
9.68575e-06;-0.005441974626969097
9.68600e-06;-0.005510534171129594
9.68625e-06;-0.005579225661208091
9.68650e-06;-0.005647953541924415
9.68675e-06;-0.00571554081131996
9.68700e-06;-0.005782813500513447
9.68725e-06;-0.005847753502683536
9.68750e-06;-0.005912050150589404
9.68775e-06;-0.005971495885007515
9.68800e-06;-0.006029603739185069
9.68825e-06;-0.00608771159336223
9.68850e-06;-0.006137335124294915
9.68875e-06;-0.006184618681849001
9.68900e-06;-0.006231902239402767
9.68925e-06;-0.0062730997382822356
9.68950e-06;-0.0063126187043113235
9.68975e-06;-0.0063521376703401435
9.69000e-06;-0.006385015728195313
9.69025e-06;-0.0064160622259024965
9.69050e-06;-0.006447108723609469
9.69075e-06;-0.006478155221316654
9.69100e-06;-0.006509201719023837
9.69125e-06;-0.0065402482167310205
9.69150e-06;-0.006568695090303681
9.69175e-06;-0.006590582245410115
9.69200e-06;-0.00661246940051655
9.69225e-06;-0.006634356555622836
9.69250e-06;-0.00665624371072927
9.69275e-06;-0.006678130865835704
9.69300e-06;-0.006700018020941991
9.69325e-06;-0.00671621147964635
9.69350e-06;-0.006730834618877328
9.69375e-06;-0.006745457758108206
9.69400e-06;-0.006760080897339185
9.69425e-06;-0.006774704036570162
9.69450e-06;-0.006789327175801042
9.69475e-06;-0.006803950315032019
9.69500e-06;-0.0068185734542629975
9.69525e-06;-0.006833196593493876
9.69550e-06;-0.006847819732724854
9.69575e-06;-0.006860747761699018
9.69600e-06;-0.00686939846230501
9.69625e-06;-0.00687804916291106
9.69650e-06;-0.006886699863517112
