Time(s);Current(A)
3.50000e-06;0.0015767682723808307
3.50025e-06;0.001579397527946331
3.50050e-06;0.0015820267835118358
3.50075e-06;0.0015846560390773406
3.50100e-06;0.0015872852946428409
3.50125e-06;0.0015906207243647772
3.50150e-06;0.001595340014234819
3.50175e-06;0.001600059304104861
3.50200e-06;0.0016047785939748947
3.50225e-06;0.0016094978838449366
3.50250e-06;0.0016142171737149784
3.50275e-06;0.0016189364635850122
3.50300e-06;0.001623655753455054
3.50325e-06;0.0016283750433250962
3.50350e-06;0.001633094333195138
3.50375e-06;0.0016378136230651718
3.50400e-06;0.0016425329129352137
3.50425e-06;0.0016472522028052555
3.50450e-06;0.0016519714926752894
3.50475e-06;0.0016566907825453312
3.50500e-06;0.001661410072415373
3.50525e-06;0.001666129362285407
3.50550e-06;0.001670848652155449
3.50575e-06;0.0016755679420254908
3.50600e-06;0.0016802872318955327
3.50625e-06;0.0016850065217655665
3.50650e-06;0.0016897258116356083
3.50675e-06;0.0016944451015056502
3.50700e-06;0.0016979723852828686
3.50725e-06;0.0016991637442556953
3.50750e-06;0.001700355103228522
3.50775e-06;0.0017015464622013488
3.50800e-06;0.0017027378211741735
3.50825e-06;0.0017039291801470003
3.50850e-06;0.001705120539119827
3.50875e-06;0.0017063118980926517
3.50900e-06;0.0017075032570654785
3.50925e-06;0.0017086946160383052
3.50950e-06;0.00170988597501113
3.50975e-06;0.0017110773339839567
3.51000e-06;0.0017122686929567834
3.51025e-06;0.0017134600519296101
3.51050e-06;0.0017146514109024349
3.51075e-06;0.0017158427698752616
3.51100e-06;0.0017170341288480883
3.51125e-06;0.0017182254878209129
3.51150e-06;0.0017194168467937396
3.51175e-06;0.0017206082057665665
3.51200e-06;0.0017217995647393933
3.51225e-06;0.0017229909237122178
3.51250e-06;0.0017241822826850445
3.51275e-06;0.0017250539428107607
3.51300e-06;0.0017252991023913543
3.51325e-06;0.0017255442619719483
3.51350e-06;0.0017257894215525426
3.51375e-06;0.0017260345811331362
3.51400e-06;0.0017262797407137302
3.51425e-06;0.0017265249002943242
3.51450e-06;0.0017267700598749185
3.51475e-06;0.001727015219455512
3.51500e-06;0.001727260379036106
3.51525e-06;0.0017275055386167001
3.51550e-06;0.0017305427039579883
3.51575e-06;0.001734120102449037
3.51600e-06;0.0017376975009400855
3.51625e-06;0.0017412748994311339
3.51650e-06;0.0017448522979221764
3.51675e-06;0.001748429696413225
3.51700e-06;0.0017520070949042735
3.51725e-06;0.001755584493395316
3.51750e-06;0.0017591618918863646
3.51775e-06;0.001762739290377413
3.51800e-06;0.0017684595186204747
3.51825e-06;0.0017783789612802266
3.51850e-06;0.0017882984039399785
3.51875e-06;0.0017982178465997306
3.51900e-06;0.0018081372892594656
3.51925e-06;0.0018180567319192175
3.51950e-06;0.0018279761745789696
3.51975e-06;0.0018378956172387046
3.52000e-06;0.0018478150598984565
3.52025e-06;0.0018577345025582086
3.52050e-06;0.0018676539452179605
3.52075e-06;0.0018785048822954403
3.52100e-06;0.0018911812302738534
3.52125e-06;0.0019038575782522665
3.52150e-06;0.0019165339262306581
3.52175e-06;0.0019292102742090712
3.52200e-06;0.0019418866221874843
3.52225e-06;0.001954562970165876
3.52250e-06;0.001967239318144289
3.52275e-06;0.001979915666122702
3.52300e-06;0.0019925920141011153
3.52325e-06;0.002005268362079507
3.52350e-06;0.0020164779662053714
3.52375e-06;0.002024813253355899
3.52400e-06;0.002033148540506413
3.52425e-06;0.0020414838276569406
3.52450e-06;0.0020498191148074683
3.52475e-06;0.002058154401957996
3.52500e-06;0.0020664896891085098
3.52525e-06;0.0020748249762590374
3.52550e-06;0.002083160263409565
3.52575e-06;0.002091495550560079
3.52600e-06;0.0020998308377106066
3.52625e-06;0.0021081661248611343
3.52650e-06;0.002116501412011648
3.52675e-06;0.002124836699162176
3.52700e-06;0.0021318202945254205
3.52725e-06;0.0021361550356644066
3.52750e-06;0.0021404897768033853
3.52775e-06;0.0021448245179423718
3.52800e-06;0.002149159259081358
3.52825e-06;0.0021534940002203365
3.52850e-06;0.002157828741359323
3.52875e-06;0.002162163482498309
3.52900e-06;0.0021664982236372877
3.52925e-06;0.0021708329647762738
3.52950e-06;0.0021751677059152603
3.52975e-06;0.0021795024470542463
3.53000e-06;0.002183837188193225
3.53025e-06;0.0021881719293322115
3.53050e-06;0.00219193643636929
3.53075e-06;0.0021945834793336296
3.53100e-06;0.002197230522297973
3.53125e-06;0.0021998775652623172
3.53150e-06;0.002202524608226661
3.53175e-06;0.002205171651191
3.53200e-06;0.002207818694155344
3.53225e-06;0.0022104657371196878
3.53250e-06;0.0022131127800840275
3.53275e-06;0.002215759823048371
3.53300e-06;0.002218406866012715
3.53325e-06;0.0022210539089770544
3.53350e-06;0.002223700951941398
3.53375e-06;0.002226347994905742
3.53400e-06;0.0022289910205970953
3.53425e-06;0.002231633268974846
3.53450e-06;0.0022342755173526017
3.53475e-06;0.0022369177657303578
3.53500e-06;0.0022395600141081086
3.53525e-06;0.0022422022624858646
3.53550e-06;0.0022448445108636202
3.53575e-06;0.002247486759241376
3.53600e-06;0.002250129007619127
3.53625e-06;0.0022527712559968827
3.53650e-06;0.0022554135043746384
3.53675e-06;0.0022580557527523896
3.53700e-06;0.0022606980011301452
3.53725e-06;0.0022650507911795496
3.53750e-06;0.0022727556586594295
3.53775e-06;0.002280460526139322
3.53800e-06;0.002288165393619215
3.53825e-06;0.002295870261099108
3.53850e-06;0.0023035751285789877
3.53875e-06;0.0023112799960588806
3.53900e-06;0.0023189848635387735
3.53925e-06;0.0023266897310186534
3.53950e-06;0.0023343945984985463
3.53975e-06;0.0023420994659784393
3.54000e-06;0.002349804333458332
3.54025e-06;0.0023575092009382116
3.54050e-06;0.002366122067486253
3.54075e-06;0.0023765143020752976
3.54100e-06;0.0023869065366643252
3.54125e-06;0.0023972987712533697
3.54150e-06;0.0024076910058424147
3.54175e-06;0.0024180832404314422
3.54200e-06;0.0024284754750204867
3.54225e-06;0.0024388677096095317
3.54250e-06;0.0024492599441985766
3.54275e-06;0.0024596521787876038
3.54300e-06;0.0024700444133766487
3.54325e-06;0.0024804366479656936
3.54350e-06;0.0024908288825547208
3.54375e-06;0.002499619399053907
3.54400e-06;0.0025052710951733647
3.54425e-06;0.002510922791292822
3.54450e-06;0.00251657448741227
3.54475e-06;0.0025222261835317274
3.54500e-06;0.0025278778796511848
3.54525e-06;0.0025335295757706326
3.54550e-06;0.0025391812718900905
3.54575e-06;0.002544832968009548
3.54600e-06;0.0025504846641289957
3.54625e-06;0.002556136360248453
3.54650e-06;0.0025617880563679105
3.54675e-06;0.002567439752487368
3.54700e-06;0.002573091448606816
3.54725e-06;0.0025787431447262736
3.54750e-06;0.002584394840845731
3.54775e-06;0.002590046536965179
3.54800e-06;0.0025956982330846362
3.54825e-06;0.002601349929204094
3.54850e-06;0.0026070016253235515
3.54875e-06;0.002611512181959183
3.54900e-06;0.002613786494969458
3.54925e-06;0.0026160608079797334
3.54950e-06;0.0026183351209900048
3.54975e-06;0.0026206094340002805
3.55000e-06;0.0026228837470105557
3.55025e-06;0.002625158060020827
3.55050e-06;0.0026274323730311024
3.55075e-06;0.002629706686041378
3.55100e-06;0.0026319809990516534
3.55125e-06;0.0026342553120619248
3.55150e-06;0.0026365296250722
3.55175e-06;0.0026388039380824757
3.55200e-06;0.002641078251092747
3.55225e-06;0.0026433525641030224
3.55250e-06;0.0026456268771132977
3.55275e-06;0.002647901190123573
3.55300e-06;0.0026501755031338448
3.55325e-06;0.00265244981614412
3.55350e-06;0.0026547241291543953
3.55375e-06;0.002656324962119951
3.55400e-06;0.002656606004228884
3.55425e-06;0.002656887046337817
3.55450e-06;0.00265716808844675
3.55475e-06;0.002657449130555683
3.55500e-06;0.002657730172664616
3.55525e-06;0.0026580112147735497
3.55550e-06;0.0026582922568824823
3.55575e-06;0.0026497338099986585
3.55600e-06;0.0026394649852027707
3.55625e-06;0.0026291961604069003
3.55650e-06;0.0026189273356110126
3.55675e-06;0.002608658510815125
3.55700e-06;0.002598389686019237
3.55725e-06;0.002588120861223367
3.55750e-06;0.0025721103797526346
3.55775e-06;0.002544848212295365
3.55800e-06;0.002517586044838142
3.55825e-06;0.002490323877380873
3.55850e-06;0.0024630617099236033
3.55875e-06;0.00243579954246638
3.55900e-06;0.002408537375009111
3.55925e-06;0.0023812752075518416
3.55950e-06;0.0023540130400945725
3.55975e-06;0.0023158479138382965
3.56000e-06;0.0022755731430174502
3.56025e-06;0.0022352983721966044
3.56050e-06;0.0021950236013758262
3.56075e-06;0.0021547488305549804
3.56100e-06;0.002114474059734134
3.56125e-06;0.002074199288913288
3.56150e-06;0.00203392451809251
3.56175e-06;0.00199270149459015
3.56200e-06;0.001949620219713158
3.56225e-06;0.0019065389448362391
3.56250e-06;0.0018634576699592472
3.56275e-06;0.0018203763950822554
3.56300e-06;0.0017772951202053365
3.56325e-06;0.0017363652730581272
3.56350e-06;0.0016996514894288886
3.56375e-06;0.00166293770579965
3.56400e-06;0.0016262239221704737
3.56425e-06;0.001589510138541235
3.56450e-06;0.0015527963549119964
3.56475e-06;0.0015206347621330048
3.56500e-06;0.001497393908593718
3.56525e-06;0.0014741530550544312
3.56550e-06;0.0014509122015151444
3.56575e-06;0.0014276713479758967
3.56600e-06;0.00140443049443661
3.56625e-06;0.0013811896408973232
3.56650e-06;0.0013579487873580755
3.56675e-06;0.0013347079338187889
3.56700e-06;0.0013209810452660964
3.56725e-06;0.0013090950409075878
3.56750e-06;0.0012972090365490588
3.56775e-06;0.0012853230321905299
3.56800e-06;0.0012734370278320011
3.56825e-06;0.0012615510234734923
3.56850e-06;0.0012496650191149636
3.56875e-06;0.0012377790147564346
3.56900e-06;0.0012286394786449962
3.56925e-06;0.0012248820822261973
3.56950e-06;0.0012211246858073981
3.56975e-06;0.0012173672893885993
3.57000e-06;0.0012136098929698066
3.57025e-06;0.0012098524965510075
3.57050e-06;0.0012060951001322084
3.57075e-06;0.0012023377037134158
3.57100e-06;0.001198580307294617
3.57125e-06;0.0011948229108758178
3.57150e-06;0.0011946114324867577
3.57175e-06;0.0011950860638809684
3.57200e-06;0.0011955606952751793
3.57225e-06;0.00119603532666939
3.57250e-06;0.0011965099580636
3.57275e-06;0.0011969845894578106
3.57300e-06;0.0011974592208520212
3.57325e-06;0.0011979338522462313
3.57350e-06;0.001198408483640442
3.57375e-06;0.001198911775678942
3.57400e-06;0.0011994712327910461
3.57425e-06;0.001200030689903149
3.57450e-06;0.0012005901470152531
3.57475e-06;0.001201149604127357
3.57500e-06;0.0012017090612394601
3.57525e-06;0.001202268518351564
3.57550e-06;0.001202827975463668
3.57575e-06;0.001203387432575771
3.57600e-06;0.001203946889687875
3.57625e-06;0.0012033957710751648
3.57650e-06;0.0012006683033651555
3.57675e-06;0.0011979408356551507
3.57700e-06;0.0011952133679451415
3.57725e-06;0.001192485900235132
3.57750e-06;0.0011897584325251272
3.57775e-06;0.001187030964815118
3.57800e-06;0.0011843034971051086
3.57825e-06;0.0011815760293950994
3.57850e-06;0.0011788485616850946
3.57875e-06;0.0011761210939750851
3.57900e-06;0.0011733936262650758
3.57925e-06;0.001170666158555071
3.57950e-06;0.0011669396032189339
3.57975e-06;0.001161255177379496
3.58000e-06;0.0011555707515400677
3.58025e-06;0.0011498863257006298
3.58050e-06;0.001144201899861192
3.58075e-06;0.001138517474021754
3.58100e-06;0.001132833048182326
3.58125e-06;0.0011271486223428879
3.58150e-06;0.00112146419650345
3.58175e-06;0.0011157797706640219
3.58200e-06;0.001110095344824584
3.58225e-06;0.0011044109189851461
3.58250e-06;0.0010987264931457083
3.58275e-06;0.0010930689990204779
3.58300e-06;0.0010874642818563918
3.58325e-06;0.0010818595646923056
3.58350e-06;0.0010762548475282288
3.58375e-06;0.0010706501303641427
3.58400e-06;0.0010650454132000566
3.58425e-06;0.0010594406960359798
3.58450e-06;0.0010560996666267822
3.58475e-06;0.001053196644611457
3.58500e-06;0.0010502936225961319
3.58525e-06;0.0010473906005808117
3.58550e-06;0.0010444875785654865
3.58575e-06;0.0010415845565501613
3.58600e-06;0.0010417235295955732
3.58625e-06;0.0010478237739500308
3.58650e-06;0.0010539240183044885
3.58675e-06;0.0010600242626589464
3.58700e-06;0.0010661245070133936
3.58725e-06;0.0010722247513678513
3.58750e-06;0.001078324995722309
3.58775e-06;0.0010844252400767564
3.58800e-06;0.001090525484431214
3.58825e-06;0.0010966257287856717
3.58850e-06;0.0011063533661190617
3.58875e-06;0.0011231894547354656
3.58900e-06;0.0011400255433518694
3.58925e-06;0.0011568616319682732
3.58950e-06;0.0011736977205846484
3.58975e-06;0.0011905338092010522
3.59000e-06;0.001207369897817456
3.59025e-06;0.0012242059864338312
3.59050e-06;0.001241042075050235
3.59075e-06;0.0012578781636666389
3.59100e-06;0.00127622699354809
3.59125e-06;0.001297540279624046
3.59150e-06;0.0013188535657000376
3.59175e-06;0.0013401668517760295
3.59200e-06;0.0013614801378519852
3.59225e-06;0.001382793423927977
3.59250e-06;0.0014041067100039688
3.59275e-06;0.0014254199960799245
3.59300e-06;0.0014445580242059
3.59325e-06;0.0014632751554728891
3.59350e-06;0.0014819922867398783
3.59375e-06;0.0015007094180068358
3.59400e-06;0.001519426549273825
3.59425e-06;0.001538143680540814
3.59450e-06;0.0015568608118077716
3.59475e-06;0.0015725282092738735
3.59500e-06;0.0015822191701430673
3.59525e-06;0.0015919101310122611
3.59550e-06;0.0016016010918814385
3.59575e-06;0.001611292052750632
3.59600e-06;0.0016209830136198259
3.59625e-06;0.0016306739744890032
3.59650e-06;0.001640364935358197
3.59675e-06;0.0016500558962273906
3.59700e-06;0.001659746857096568
3.59725e-06;0.0016694378179657617
3.59750e-06;0.0016791287788349555
3.59775e-06;0.001688819739704149
3.59800e-06;0.0016920117701992893
3.59825e-06;0.0016939463041380552
3.59850e-06;0.0016958808380768211
3.59875e-06;0.0016978153720155838
3.59900e-06;0.0016997499059543497
3.59925e-06;0.0017016844398931156
3.59950e-06;0.0017036189738318815
3.59975e-06;0.0017055535077706442
3.60000e-06;0.00170748804170941
3.60025e-06;0.001709422575648176
3.60050e-06;0.0017113571095869386
3.60075e-06;0.0017132916435257045
3.60100e-06;0.001714076667784728
3.60125e-06;0.0017126090456925295
3.60150e-06;0.0017111414236003286
3.60175e-06;0.0017096738015081278
3.60200e-06;0.0017082061794159267
3.60225e-06;0.0017067385573237284
3.60250e-06;0.0017052709352315275
3.60275e-06;0.0017038033131393264
3.60300e-06;0.001702335691047128
3.60325e-06;0.00170085031182137
3.60350e-06;0.0016993301346788817
3.60375e-06;0.001697809957536396
3.60400e-06;0.001696289780393908
3.60425e-06;0.0016947696032514198
3.60450e-06;0.0016932494261089315
3.60475e-06;0.0016917292489664459
3.60500e-06;0.0016902090718239576
3.60525e-06;0.0016886888946814696
3.60550e-06;0.0016885269332738784
3.60575e-06;0.0016910266108010172
3.60600e-06;0.001693526288328156
3.60625e-06;0.001696025965855295
3.60650e-06;0.0017014440732780933
3.60675e-06;0.001706998602477907
3.60700e-06;0.0017125531316777205
3.60725e-06;0.0017244157139261872
3.60750e-06;0.0017409827451189428
3.60775e-06;0.0017575497763116983
3.60800e-06;0.0017741168075044258
3.60825e-06;0.0017906838386971813
3.60850e-06;0.0018072508698899368
3.60875e-06;0.0018238179010826923
3.60900e-06;0.0018403849322754199
3.60925e-06;0.0018569519634681754
3.60950e-06;0.001878707721802481
3.60975e-06;0.001904447544966263
3.61000e-06;0.0019301873681300888
3.61025e-06;0.0019559271912939144
3.61050e-06;0.0019816670144577405
3.61075e-06;0.0020074068376215227
3.61100e-06;0.0020331466607853483
3.61125e-06;0.0020588864839491744
3.61150e-06;0.002084626307112956
3.61175e-06;0.0021112946943140074
3.61200e-06;0.0021386970566345796
3.61225e-06;0.0021660994189551053
3.61250e-06;0.0021935017812756774
3.61275e-06;0.0022209041435962496
3.61300e-06;0.0022483065059168217
3.61325e-06;0.0022757088682373475
3.61350e-06;0.0023031112305579196
3.61375e-06;0.002326169981500434
3.61400e-06;0.0023457953637654773
3.61425e-06;0.0023654207460305533
3.61450e-06;0.0023850461282956294
3.61475e-06;0.0024046715105607054
3.61500e-06;0.002424296892825748
3.61525e-06;0.002443922275090824
3.61550e-06;0.0024635476573559
3.61575e-06;0.0024722907682921754
3.61600e-06;0.0024724320854057
3.61625e-06;0.002472573402519224
3.61650e-06;0.0024727147196327483
3.61675e-06;0.002472856036746273
3.61700e-06;0.002472997353859797
3.61725e-06;0.0024731386709733218
3.61750e-06;0.002473279988086846
3.61775e-06;0.0024734213052003706
3.61800e-06;0.0024735626223138948
3.61825e-06;0.0024724800976647443
3.61850e-06;0.002451708765934396
3.61875e-06;0.002430937434204048
3.61900e-06;0.0024101661024737
3.61925e-06;0.002389394770743387
3.61950e-06;0.002368623439013039
3.61975e-06;0.002347852107282691
3.62000e-06;0.002327080775552378
3.62025e-06;0.00230630944382203
3.62050e-06;0.002285538112091682
3.62075e-06;0.002264766780361369
3.62100e-06;0.002238882857930085
3.62125e-06;0.0022089577340086222
3.62150e-06;0.0021790326100871596
3.62175e-06;0.002149107486165748
3.62200e-06;0.0021191823622442856
3.62225e-06;0.002089257238322823
3.62250e-06;0.002059332114401411
3.62275e-06;0.0020304293166549265
3.62300e-06;0.0020023346074693094
3.62325e-06;0.001974239898283692
3.62350e-06;0.0019461451890981222
3.62375e-06;0.0019180504799125048
3.62400e-06;0.0018899557707268875
3.62425e-06;0.0018618610615413179
3.62450e-06;0.001842408809727943
3.62475e-06;0.001829787910873465
3.62500e-06;0.0018171670120190084
3.62525e-06;0.0018045461131645305
3.62550e-06;0.0017919252143100523
3.62575e-06;0.0017793043154555744
3.62600e-06;0.0017666834166011178
3.62625e-06;0.0017540625177466396
3.62650e-06;0.0017414416188921617
3.62675e-06;0.001728820720037705
3.62700e-06;0.0017161998211832272
3.62725e-06;0.001704952545654247
3.62750e-06;0.0017158037190324526
3.62775e-06;0.00172665489241064
3.62800e-06;0.0017375060657888455
3.62825e-06;0.001748357239167051
3.62850e-06;0.0017592084125452384
3.62875e-06;0.001770059585923444
3.62900e-06;0.0017809107593016497
3.62925e-06;0.0017917619326798368
3.62950e-06;0.0018026131060580426
3.62975e-06;0.001813464279436248
3.63000e-06;0.0018243154528144536
3.63025e-06;0.0018424516367600112
3.63050e-06;0.001866346192005845
3.63075e-06;0.001890240747251679
3.63100e-06;0.0019141353024974724
3.63125e-06;0.0019380298577433063
3.63150e-06;0.00196192441298914
3.63175e-06;0.001985818968234974
3.63200e-06;0.0020097968259967943
3.63225e-06;0.002035114830187719
3.63250e-06;0.0020604328343786435
3.63275e-06;0.0020857508385695254
3.63300e-06;0.00211106884276045
3.63325e-06;0.0021363868469513746
3.63350e-06;0.0021617048511422565
3.63375e-06;0.0021870228553331813
3.63400e-06;0.002204906996678621
3.63425e-06;0.0022169151077747157
3.63450e-06;0.00222892321887079
3.63475e-06;0.0022409313299668844
3.63500e-06;0.002252939441062979
3.63525e-06;0.002264947552159053
3.63550e-06;0.0022769556632551476
3.63575e-06;0.002288963774351242
3.63600e-06;0.0023009718854473363
3.63625e-06;0.0023129799965434105
3.63650e-06;0.002324988107639505
3.63675e-06;0.0023369962187355996
3.63700e-06;0.0023490043298316737
3.63725e-06;0.0023596236316594586
3.63750e-06;0.0023479001775836253
3.63775e-06;0.0023361767235078124
3.63800e-06;0.002324453269431979
3.63825e-06;0.002312729815356146
3.63850e-06;0.0023010063612803125
3.63875e-06;0.0022892829072044996
3.63900e-06;0.0022775594531286663
3.63925e-06;0.002265835999052833
3.63950e-06;0.0022541125449770196
3.63975e-06;0.0022423890909011868
3.64000e-06;0.0022306656368253535
3.64025e-06;0.00221894218274952
3.64050e-06;0.002207218728673707
3.64075e-06;0.002189159286641905
3.64100e-06;0.0021660916197257284
3.64125e-06;0.0021430239528095908
3.64150e-06;0.002119956285893414
3.64175e-06;0.0020968886189772374
3.64200e-06;0.0020738209520610998
3.64225e-06;0.002050753285144923
3.64250e-06;0.0020276856182287464
3.64275e-06;0.0020054489942244137
3.64300e-06;0.001983869260640374
3.64325e-06;0.001962289527056298
3.64350e-06;0.0019407097934722218
3.64375e-06;0.001919130059888182
3.64400e-06;0.001897550326304106
3.64425e-06;0.0018759705927200298
3.64450e-06;0.0018543908591359536
3.64475e-06;0.0018395051836570169
3.64500e-06;0.0018299107664022632
3.64525e-06;0.0018203163491475095
3.64550e-06;0.001810721931892772
3.64575e-06;0.0018011275146380184
3.64600e-06;0.0017915330973832647
3.64625e-06;0.0017819386801285276
3.64650e-06;0.0017723442628737739
3.64675e-06;0.0017627498456190202
3.64700e-06;0.0017531554283642665
3.64725e-06;0.0017435610111095291
3.64750e-06;0.0017339665938547754
3.64775e-06;0.0017322691134430191
3.64800e-06;0.0017368136959713854
3.64825e-06;0.0017413582784997592
