Time(s);Current(A)
4.00000e-06;-0.003578875896368177
4.00025e-06;-0.003582359725767128
4.00050e-06;-0.0035858435551660785
4.00075e-06;-0.003589327384565041
4.00100e-06;-0.003592811213963992
4.00125e-06;-0.003596295043362943
4.00150e-06;-0.003599778872761905
4.00175e-06;-0.003603262702160856
4.00200e-06;-0.0036061239187363666
4.00225e-06;-0.0036085463371322954
4.00250e-06;-0.0036106874444609507
4.00275e-06;-0.0036120230753594797
4.00300e-06;-0.0036113852475272725
4.00325e-06;-0.0036077953941209113
4.00350e-06;-0.0035999551758736105
4.00375e-06;-0.0035906290280267013
4.00400e-06;-0.003576437107309409
4.00425e-06;-0.0035600164933350205
4.00450e-06;-0.0035435958793606876
4.00475e-06;-0.003522166412077725
4.00500e-06;-0.0034984427157191424
4.00525e-06;-0.00346956173606616
4.00550e-06;-0.003438318541240213
4.00575e-06;-0.003402367504964848
4.00600e-06;-0.003364260113518019
4.00625e-06;-0.0033230974117766095
4.00650e-06;-0.0032787367058038767
4.00675e-06;-0.0032317560236116505
4.00700e-06;-0.0031819847977513707
4.00725e-06;-0.0031293269938783563
4.00750e-06;-0.0030739712153581363
4.00775e-06;-0.003016248150597857
4.00800e-06;-0.002956508515689311
4.00825e-06;-0.0028951029535822454
4.00850e-06;-0.002832372845322225
4.00875e-06;-0.002768546741849126
4.00900e-06;-0.002703694549888528
4.00925e-06;-0.0026379332234849192
4.00950e-06;-0.002571557932809628
4.00975e-06;-0.0025049526079119855
4.01000e-06;-0.002438514078753888
4.01025e-06;-0.002372638682831261
4.01050e-06;-0.0023077170356771053
4.01075e-06;-0.0022440690792028496
4.01100e-06;-0.002181915815699698
4.01125e-06;-0.0021215067985925714
4.01150e-06;-0.0020632039772147492
4.01175e-06;-0.0020074245741098866
4.01200e-06;-0.0019545937514357722
4.01225e-06;-0.0019051365714022198
4.01250e-06;-0.001859465893491065
4.01275e-06;-0.0018178316025558527
4.01300e-06;-0.001780195566632088
4.01325e-06;-0.001747790847909989
4.01350e-06;-0.0017172131412711616
4.01375e-06;-0.0016921927762618247
4.01400e-06;-0.0016697178670605603
4.01425e-06;-0.0016531329295698543
4.01450e-06;-0.0016392458040367802
4.01475e-06;-0.0016312933229292812
4.01500e-06;-0.0016260591154369417
4.01525e-06;-0.0016275671610675873
4.01550e-06;-0.001632163393193744
4.01575e-06;-0.0016367596253199159
4.01600e-06;-0.0016489847648210273
4.01625e-06;-0.0016647042093119965
4.01650e-06;-0.001680423653803019
4.01675e-06;-0.0017030160427287406
4.01700e-06;-0.0017287564793175521
4.01725e-06;-0.0017544969159062767
4.01750e-06;-0.0017856990543264062
4.01775e-06;-0.0018194028421997092
4.01800e-06;-0.0018531066300728977
4.01825e-06;-0.0018904850914138562
4.01850e-06;-0.001929546681046172
4.01875e-06;-0.001970839590949613
4.01900e-06;-0.0020131545231655717
4.01925e-06;-0.00205686588692409
4.01950e-06;-0.002101216864911141
4.01975e-06;-0.002146221365993459
4.02000e-06;-0.002191525203389817
4.02025e-06;-0.00223676915779012
4.02050e-06;-0.002281985683694954
4.02075e-06;-0.00232635841826569
4.02100e-06;-0.0023703446670494573
4.02125e-06;-0.0024125708348176826
4.02150e-06;-0.002453990824247237
4.02175e-06;-0.002491962431396638
4.02200e-06;-0.0025283545594917923
4.02225e-06;-0.002564746687586823
4.02250e-06;-0.002595543827608714
4.02275e-06;-0.0026237782684421394
4.02300e-06;-0.0026520127092754696
4.02325e-06;-0.0026722690104242974
4.02350e-06;-0.0026888710460362215
4.02375e-06;-0.0027054730816480892
4.02400e-06;-0.0027220751172599574
4.02425e-06;-0.0027386771528718815
4.02450e-06;-0.002744825405904537
4.02475e-06;-0.002746185462826377
4.02500e-06;-0.002747545519748221
4.02525e-06;-0.002748905576670061
4.02550e-06;-0.0027502656335919007
4.02575e-06;-0.0027438838464694543
4.02600e-06;-0.002733956025434268
4.02625e-06;-0.002724028204399048
4.02650e-06;-0.002709643358515386
4.02675e-06;-0.0026932170401902837
4.02700e-06;-0.002673671536374461
4.02725e-06;-0.002652697337086868
4.02750e-06;-0.0026290771876642427
4.02775e-06;-0.0026042451010265424
4.02800e-06;-0.0025776671456043255
4.02825e-06;-0.00254925123023465
4.02850e-06;-0.002519417741877249
4.02875e-06;-0.002488333425928645
4.02900e-06;-0.002456214463312511
4.02925e-06;-0.002423290477509927
4.02950e-06;-0.002389769768098596
4.02975e-06;-0.002355845889341769
4.03000e-06;-0.0023217099220551158
4.03025e-06;-0.0022875533395732856
4.03050e-06;-0.0022535685599557216
4.03075e-06;-0.002219964974526464
4.03100e-06;-0.002186983215267667
4.03125e-06;-0.002154872343954533
4.03150e-06;-0.0021238678695596246
4.03175e-06;-0.0020941960827923567
4.03200e-06;-0.0020667173032643104
4.03225e-06;-0.0020400410815136338
4.03250e-06;-0.002016869398986054
4.03275e-06;-0.0019953029173460394
4.03300e-06;-0.0019737364357060977
4.03325e-06;-0.001957848815594511
4.03350e-06;-0.0019445623116312934
4.03375e-06;-0.001931275807668121
4.03400e-06;-0.0019179893037049487
4.03425e-06;-0.0019047027997417313
4.03450e-06;-0.001898843272369361
4.03475e-06;-0.0018963855586610714
4.03500e-06;-0.00189392784495279
4.03525e-06;-0.0018914701312445082
4.03550e-06;-0.0018890124175362185
4.03575e-06;-0.001894719508126525
4.03600e-06;-0.001904166363140092
4.03625e-06;-0.0019136132181536913
4.03650e-06;-0.0019230600731672582
4.03675e-06;-0.0019325069281808252
4.03700e-06;-0.0019419537831944244
4.03725e-06;-0.0019514006382079915
4.03750e-06;-0.001962688136511369
4.03775e-06;-0.001982038660261426
4.03800e-06;-0.0020013891840114178
4.03825e-06;-0.0020207397077614095
4.03850e-06;-0.0020400902315114667
4.03875e-06;-0.002059440755261458
4.03900e-06;-0.0020787912790115153
4.03925e-06;-0.002098141802761507
4.03950e-06;-0.002119657876623299
4.03975e-06;-0.0021421658477760387
4.04000e-06;-0.002164673818928702
4.04025e-06;-0.002187154164059252
4.04050e-06;-0.0022096218555106395
4.04075e-06;-0.0022320895469619506
4.04100e-06;-0.0022535816512585616
4.04125e-06;-0.002274626902697648
4.04150e-06;-0.002295672154136663
4.04175e-06;-0.002315154752143734
4.04200e-06;-0.0023339216005142304
4.04225e-06;-0.0023503922420601395
4.04250e-06;-0.002365811140995259
4.04275e-06;-0.0023812300399304303
4.04300e-06;-0.0023927193368298858
4.04325e-06;-0.0024024087392860035
4.04350e-06;-0.0024120981417420887
4.04375e-06;-0.0024157997769003567
4.04400e-06;-0.0024167588063215705
4.04425e-06;-0.0024177178357427808
4.04450e-06;-0.002418676865163991
4.04475e-06;-0.0024196358945852044
4.04500e-06;-0.002412893427793004
4.04525e-06;-0.002402623407799818
4.04550e-06;-0.002392353387806597
4.04575e-06;-0.002382083367813411
4.04600e-06;-0.002371813347820225
4.04625e-06;-0.0023558912353280224
4.04650e-06;-0.002337380267834965
4.04675e-06;-0.002318869300341908
4.04700e-06;-0.00229725543553258
4.04725e-06;-0.0022742203358026842
4.04750e-06;-0.0022490304063477805
4.04775e-06;-0.0022228534899124196
4.04800e-06;-0.0021949376511197424
4.04825e-06;-0.002166225325390215
4.04850e-06;-0.0021364695184959994
4.04875e-06;-0.0021056643973006066
4.04900e-06;-0.0020741065311206315
4.04925e-06;-0.0020419357094644966
4.04950e-06;-0.002009325103167685
4.04975e-06;-0.0019764632062476014
4.05000e-06;-0.001943540227937653
4.05025e-06;-0.0019107463177309406
4.05050e-06;-0.00187827066029129
4.05075e-06;-0.001846293581236176
4.05100e-06;-0.0018149855778937863
4.05125e-06;-0.0017845286169738011
4.05150e-06;-0.0017551256266454807
4.05175e-06;-0.0017269889490277234
4.05200e-06;-0.001700331966704291
4.05225e-06;-0.0016753681920766562
4.05250e-06;-0.0016523391926583887
4.05275e-06;-0.0016318080926547773
4.05300e-06;-0.0016147639217460295
4.05325e-06;-0.0016019984931858152
4.05350e-06;-0.0015952601625639801
4.05375e-06;-0.0015906377757955198
4.05400e-06;-0.0015919852845778565
4.05425e-06;-0.0015960672132147352
4.05450e-06;-0.0016060231447649672
4.05475e-06;-0.0016186695740057135
4.05500e-06;-0.0016379634549350487
4.05525e-06;-0.0016603021000021147
4.05550e-06;-0.0016893538285214446
4.05575e-06;-0.0017214803828094147
4.05600e-06;-0.001760959158418798
4.05625e-06;-0.001803805507176343
4.05650e-06;-0.0018466518559338882
4.05675e-06;-0.0018974178506675613
4.05700e-06;-0.0019518113187817984
4.05725e-06;-0.0020062047868960355
4.05750e-06;-0.002067550191772459
4.05775e-06;-0.0021320798255428453
4.05800e-06;-0.002196609459313232
4.05825e-06;-0.002265256381736465
4.05850e-06;-0.002335789165602394
4.05875e-06;-0.002408595107993345
4.05900e-06;-0.002482442236071937
4.05925e-06;-0.0025578703550864987
4.05950e-06;-0.0026340226229523353
4.05975e-06;-0.0027105915966260242
4.06000e-06;-0.0027873514360564756
4.06025e-06;-0.002863274270892239
4.06050e-06;-0.0029388137285039787
4.06075e-06;-0.003012393016049328
4.06100e-06;-0.0030850744775104627
4.06125e-06;-0.003154768416226973
4.06150e-06;-0.003223093965591063
4.06175e-06;-0.003287109136909147
4.06200e-06;-0.00334915000512441
4.06225e-06;-0.0034055300139694744
4.06250e-06;-0.0034593171522827116
4.06275e-06;-0.0035080367519491067
4.06300e-06;-0.00355443524261645
4.06325e-06;-0.0035982197473607407
4.06350e-06;-0.003640806955611899
4.06375e-06;-0.0036833941638630577
4.06400e-06;-0.0037218839380015497
4.06425e-06;-0.0037584969447671934
4.06450e-06;-0.003795109951532961
4.06475e-06;-0.0038280344585112456
4.06500e-06;-0.003859269504264665
4.06525e-06;-0.0038890206721918456
4.06550e-06;-0.003918092172450618
4.06575e-06;-0.00394716367270939
4.06600e-06;-0.0039754718431171945
4.06625e-06;-0.0040004362108219385
4.06650e-06;-0.0040254005785266824
4.06675e-06;-0.004050364946231511
4.06700e-06;-0.004073142967378377
4.06725e-06;-0.004094919565739172
4.06750e-06;-0.004116696164100041
4.06775e-06;-0.0041384727624608365
4.06800e-06;-0.0041596602563452175
4.06825e-06;-0.0041782671500635304
4.06850e-06;-0.00419687404378178
4.06875e-06;-0.004215480937500092
4.06900e-06;-0.004234087831218342
4.06925e-06;-0.004249389902157655
4.06950e-06;-0.004263178249290206
4.06975e-06;-0.00427696659642271
4.07000e-06;-0.004290754943555214
4.07025e-06;-0.004304543290687765
4.07050e-06;-0.004318331637820269
4.07075e-06;-0.004332119984952773
4.07100e-06;-0.0043459083320853235
4.07125e-06;-0.0043596966792178275
4.07150e-06;-0.0043734850263503315
4.07175e-06;-0.004387273373482882
4.07200e-06;-0.004401061720615386
4.07225e-06;-0.004408940121728926
4.07250e-06;-0.004414111561960247
4.07275e-06;-0.0044192830021915494
4.07300e-06;-0.0044244544424228704
4.07325e-06;-0.004429625882654174
4.07350e-06;-0.004434797322885477
4.07375e-06;-0.004439968763116798
4.07400e-06;-0.004445140203348102
4.07425e-06;-0.004450311643579405
4.07450e-06;-0.004455483083810725
4.07475e-06;-0.004460654524042029
4.07500e-06;-0.004465825964273333
4.07525e-06;-0.004464997740450316
4.07550e-06;-0.004461421461763792
4.07575e-06;-0.004457845183077269
4.07600e-06;-0.004454268904390733
4.07625e-06;-0.00445069262570421
4.07650e-06;-0.004447116347017686
4.07675e-06;-0.004443540068331151
4.07700e-06;-0.004439963789644627
4.07725e-06;-0.004436387510958092
4.07750e-06;-0.004432811232271568
4.07775e-06;-0.004429234953585045
4.07800e-06;-0.004422457046853071
4.07825e-06;-0.004414212683092665
4.07850e-06;-0.004405968319332259
4.07875e-06;-0.004397723955571825
4.07900e-06;-0.004389479591811418
4.07925e-06;-0.004381235228051012
4.07950e-06;-0.004372990864290578
4.07975e-06;-0.004364746500530171
4.08000e-06;-0.004356502136769765
4.08025e-06;-0.0043482577730093305
4.08050e-06;-0.004340013409248925
4.08075e-06;-0.004331855160865933
4.08100e-06;-0.004323736356321695
4.08125e-06;-0.004315617551777485
4.08150e-06;-0.0043074987472332465
4.08175e-06;-0.004299379942689036
4.08200e-06;-0.004291261138144826
4.08225e-06;-0.004284142299788581
4.08250e-06;-0.004277481480734931
4.08275e-06;-0.00427072612639171
4.08300e-06;-0.004263927471596995
4.08325e-06;-0.00425548850177785
4.08350e-06;-0.004246298210611545
4.08375e-06;-0.004234645104818007
4.08400e-06;-0.004221863944244838
4.08425e-06;-0.004209082783671669
4.08450e-06;-0.004196301623098456
4.08475e-06;-0.004182445954115101
4.08500e-06;-0.004163883349959303
4.08525e-06;-0.004145320745803442
4.08550e-06;-0.004126758141647644
4.08575e-06;-0.004108195537491782
4.08600e-06;-0.0040854932528778636
4.08625e-06;-0.00406089485059627
4.08650e-06;-0.004036296448314595
4.08675e-06;-0.004011698046033001
4.08700e-06;-0.003986161857737604
4.08725e-06;-0.00395651765322691
4.08750e-06;-0.003926873448716316
4.08775e-06;-0.0038972292442057215
4.08800e-06;-0.003867585039695027
4.08825e-06;-0.0038362135523067322
4.08850e-06;-0.003804050909268996
4.08875e-06;-0.0037713500378637314
4.08900e-06;-0.0037384026391415596
4.08925e-06;-0.003705005958261923
4.08950e-06;-0.0036714034905237173
4.08975e-06;-0.003637820504720301
4.09000e-06;-0.0036042464423206213
4.09025e-06;-0.0035712382343106026
4.09050e-06;-0.003538489207296824
4.09075e-06;-0.0035067258543959577
4.09100e-06;-0.0034754139745301325
4.09125e-06;-0.0034453754466897833
4.09150e-06;-0.0034159201583763544
4.09175e-06;-0.0033888333889327627
4.09200e-06;-0.0033628314835312152
4.09225e-06;-0.0033368295781295793
4.09250e-06;-0.003313804230231137
4.09275e-06;-0.0032921422492221903
4.09300e-06;-0.003271535646133473
4.09325e-06;-0.0032514124428484345
4.09350e-06;-0.0032317514032186656
4.09375e-06;-0.0032123020506214027
4.09400e-06;-0.003192852698024206
4.09425e-06;-0.003174687875611691
4.09450e-06;-0.0031571114127120457
4.09475e-06;-0.003139534949812401
4.09500e-06;-0.0031223433172234516
4.09525e-06;-0.003105327950304947
4.09550e-06;-0.0030883125833864426
4.09575e-06;-0.0030712972164678807
4.09600e-06;-0.0030543699238516075
4.09625e-06;-0.0030378284449031406
4.09650e-06;-0.0030212869659546177
4.09675e-06;-0.0030047454870061508
4.09700e-06;-0.002988204008057684
4.09725e-06;-0.0029718757303178007
4.09750e-06;-0.002955645106148692
4.09775e-06;-0.002939414481979584
4.09800e-06;-0.0029231838578104206
4.09825e-06;-0.0029069532336413123
4.09850e-06;-0.002890722609472149
4.09875e-06;-0.0028744919853030404
4.09900e-06;-0.002858261361133932
4.09925e-06;-0.002842030736964769
4.09950e-06;-0.0028262421772550813
4.09975e-06;-0.002812390101924558
4.10000e-06;-0.0027985380265939876
4.10025e-06;-0.002784685951263464
4.10050e-06;-0.0027708338759329407
4.10075e-06;-0.0027569818006023704
4.10100e-06;-0.002743129725271847
4.10125e-06;-0.0027292776499413234
4.10150e-06;-0.002715425574610753
4.10175e-06;-0.00270157349928023
4.10200e-06;-0.00268946732635373
4.10225e-06;-0.002678664014321065
4.10250e-06;-0.0026685919563267544
4.10275e-06;-0.0026585253911360915
4.10300e-06;-0.002646664545386676
4.10325e-06;-0.002631476213848816
4.10350e-06;-0.0026125785401352355
4.10375e-06;-0.002590171090591953
4.10400e-06;-0.002563556915650785
4.10425e-06;-0.002535508157255674
4.10450e-06;-0.002504675158925585
4.10475e-06;-0.00247046363133786
4.10500e-06;-0.002429226134109754
4.10525e-06;-0.002385211751623212
4.10550e-06;-0.0023411973691366697
4.10575e-06;-0.0022912321072750563
4.10600e-06;-0.0022360086438121436
4.10625e-06;-0.002177369618144738
4.10650e-06;-0.0021156941666583906
4.10675e-06;-0.0020510667155897206
4.10700e-06;-0.0019831501130065715
4.10725e-06;-0.0019117123887357295
4.10750e-06;-0.0018369730091158851
4.10775e-06;-0.0017593793328947644
4.10800e-06;-0.0016794116598207616
4.10825e-06;-0.0015975499568628326
4.10850e-06;-0.0015142587213589774
4.10875e-06;-0.0014298176529486
4.10900e-06;-0.0013442426432408619
4.10925e-06;-0.0012576151236713762
4.10950e-06;-0.0011702995048460372
4.10975e-06;-0.0010828031704617888
4.11000e-06;-0.0009956536681335186
4.11025e-06;-0.0009093784973213511
4.11050e-06;-0.0008244953732445144
4.11075e-06;-0.0007414062901645459
4.11100e-06;-0.0006603479219627376
4.11125e-06;-0.0005815980514106509
4.11150e-06;-0.000505611623826026
4.11175e-06;-0.00043293308114297947
4.11200e-06;-0.000364119534676047
4.11225e-06;-0.0002997280317406438
4.11250e-06;-0.00024033357456975177
4.11275e-06;-0.00018669882877096706
4.11300e-06;-0.00013977651867567892
4.11325e-06;-0.00010026131222540336
4.11350e-06;-6.839596585426504e-05
4.11375e-06;-4.4223633631867935e-05
4.11400e-06;-2.776125366434787e-05
4.11425e-06;-1.9025686517536214e-05
4.11450e-06;-1.804503674115735e-05
4.11475e-06;-2.49649392076961e-05
4.11500e-06;-4.005004830453715e-05
4.11525e-06;-6.340333027741965e-05
4.11550e-06;-9.484467147135595e-05
4.11575e-06;-0.00013406893163578435
4.11600e-06;-0.00018075455511947012
4.11625e-06;-0.00023457995373888795
4.11650e-06;-0.00029523061632165376
4.11675e-06;-0.0003624656299409309
4.11700e-06;-0.0004361186728003143
4.11725e-06;-0.000515922104643348
4.11750e-06;-0.0006014310476267824
4.11775e-06;-0.0006921222543414478
4.11800e-06;-0.0007888160988402255
4.11825e-06;-0.00088753780514865
4.11850e-06;-0.0009909739799619695
4.11875e-06;-0.0010965695453629873
4.11900e-06;-0.001205603592391023
4.11925e-06;-0.0013162125836268922
4.11950e-06;-0.0014286727179549676
4.11975e-06;-0.0015419807402197426
4.12000e-06;-0.001655319981486019
4.12025e-06;-0.0017686735221412444
4.12050e-06;-0.0018802510129811679
4.12075e-06;-0.001991015011217675
4.12100e-06;-0.002098294018700264
4.12125e-06;-0.002203976779177688
4.12150e-06;-0.002304270868459769
4.12175e-06;-0.0024020967588667353
4.12200e-06;-0.0024924846222698295
4.12225e-06;-0.002579465610541364
4.12250e-06;-0.002657510219406182
4.12275e-06;-0.002731461655613131
4.12300e-06;-0.0027992203117552517
4.12325e-06;-0.002864142459185731
4.12350e-06;-0.0029230804855243583
4.12375e-06;-0.00297927757621966
4.12400e-06;-0.003035474666915152
4.12425e-06;-0.0030841205650511366
4.12450e-06;-0.0031293077542948705
4.12475e-06;-0.0031685952707782407
4.12500e-06;-0.0032051805318921824
4.12525e-06;-0.003237171542942547
4.12550e-06;-0.0032670582276335606
4.12575e-06;-0.0032969449123244733
4.12600e-06;-0.0033197018742887907
4.12625e-06;-0.0033391931752070184
4.12650e-06;-0.0033586844761251803
4.12675e-06;-0.003378175777043342
4.12700e-06;-0.0033911206289227516
4.12725e-06;-0.003401066979396662
4.12750e-06;-0.0034110133298705728
4.12775e-06;-0.003420959680344517
4.12800e-06;-0.0034265852065142504
4.12825e-06;-0.003430231644834741
4.12850e-06;-0.0034338780831552184
4.12875e-06;-0.0034342542711450533
4.12900e-06;-0.0034331325707141398
4.12925e-06;-0.00343201087028323
4.12950e-06;-0.003429234429678985
4.12975e-06;-0.003425700060508307
4.13000e-06;-0.0034221656913376412
4.13025e-06;-0.0034171184913866946
4.13050e-06;-0.0034113783623082473
4.13075e-06;-0.0034056382332298195
4.13100e-06;-0.0033994670530392286
4.13125e-06;-0.0033930984364433426
4.13150e-06;-0.0033867298198474783
4.13175e-06;-0.0033810702179236365
4.13200e-06;-0.003375735369385577
4.13225e-06;-0.003370400520847536
4.13250e-06;-0.0033650656723094767
4.13275e-06;-0.0033597308237714356
4.13300e-06;-0.003354026776602374
4.13325e-06;-0.003348153623616185
4.13350e-06;-0.0033422804706300163
4.13375e-06;-0.0033364073176438474
4.13400e-06;-0.0033305341646576586
4.13425e-06;-0.0033229028149728305
4.13450e-06;-0.0033144661500339057
4.13475e-06;-0.0033060294850949527
4.13500e-06;-0.003297592820156028
4.13525e-06;-0.003289156155217103
4.13550e-06;-0.0032807194902781498
4.13575e-06;-0.003272282825339225
4.13600e-06;-0.0032631856810236733
4.13625e-06;-0.0032511952754044854
4.13650e-06;-0.0032392048697853382
4.13675e-06;-0.0032272144641661503
4.13700e-06;-0.003215224058547003
4.13725e-06;-0.003203233652927856
4.13750e-06;-0.0031912432473086686
4.13775e-06;-0.0031792528416895215
4.13800e-06;-0.0031658124219163257
4.13825e-06;-0.0031517078452158683
4.13850e-06;-0.0031376032685154587
4.13875e-06;-0.003123498691815049
4.13900e-06;-0.0031093941151145916
4.13925e-06;-0.0030952895384141824
4.13950e-06;-0.0030811849617137727
4.13975e-06;-0.0030670803850133153
4.14000e-06;-0.0030529758083129056
4.14025e-06;-0.003038871231612496
4.14050e-06;-0.0030247666549120386
4.14075e-06;-0.0030113696164259835
4.14100e-06;-0.0030010719827184267
4.14125e-06;-0.0029907743490109047
4.14150e-06;-0.002980476715303383
4.14175e-06;-0.0029701790815958263
4.14200e-06;-0.0029598814478883043
4.14225e-06;-0.0029495838141807827
4.14250e-06;-0.002939286180473226
4.14275e-06;-0.002928988546765704
4.14300e-06;-0.0029186909130581823
4.14325e-06;-0.0029083932793506255
4.14350e-06;-0.0028980956456431035
4.14375e-06;-0.0028934115415633053
4.14400e-06;-0.0028912986293422108
4.14425e-06;-0.002889185717121123
