Time(s);Current(A)
1.25000e-05;-0.00019326148479950392
1.25003e-05;-0.0002367838192676704
1.25005e-05;-0.00027365380465401936
1.25008e-05;-0.0003036670776548424
1.25010e-05;-0.0003267748991200878
1.25012e-05;-0.00034294832934915833
1.25015e-05;-0.000352158509023149
1.25018e-05;-0.0003543676962435767
1.25020e-05;-0.00034945214514687
1.25023e-05;-0.00033721121147336125
1.25025e-05;-0.00031758557735230274
1.25028e-05;-0.00029074192449843073
1.25030e-05;-0.0002569444342371672
1.25033e-05;-0.00021646967908112754
1.25035e-05;-0.00016959425312366321
1.25038e-05;-0.00011658918065628402
1.25040e-05;-5.7671601460147756e-05
1.25043e-05;6.989487775209055e-06
1.25045e-05;7.713662203521468e-05
1.25048e-05;0.00015237073625627188
1.25050e-05;0.0002322317480555628
1.25053e-05;0.00031625183577965233
1.25055e-05;0.0004039631768860224
1.25058e-05;0.0004949015154737873
1.25060e-05;0.0005894085283733613
1.25063e-05;0.0006851301245268143
1.25065e-05;0.000783619378757159
1.25068e-05;0.0008834094451040733
1.25070e-05;0.0009831995114516637
1.25073e-05;0.001082831111108771
1.25075e-05;0.001181742125360576
1.25078e-05;0.0012806531396130515
1.25080e-05;0.0013795641538655269
1.25083e-05;0.0014736908189304592
1.25085e-05;0.0015655688177146436
1.25088e-05;0.001657446816498828
1.25090e-05;0.0017426563370001947
1.25093e-05;0.001824731641817603
1.25095e-05;0.0018993858892256232
1.25097e-05;0.001970552205272452
1.25100e-05;0.0020334254208651996
1.25103e-05;0.0020924008408261157
1.25105e-05;0.0021437243929108988
1.25108e-05;0.002191451531645929
1.25110e-05;0.0022312013157944296
1.25113e-05;0.0022672017063315127
1.25115e-05;0.0022946407668544755
1.25118e-05;0.002318055962610136
1.25120e-05;0.002332899612345694
1.25123e-05;0.0023437145957433793
1.25125e-05;0.0023450631690488605
1.25128e-05;0.0023419624857570934
1.25130e-05;0.0023388618024653474
1.25133e-05;0.0023249351091174865
1.25135e-05;0.0023059201408910904
1.25138e-05;0.0022869051726648226
1.25140e-05;0.002258106754978992
1.25143e-05;0.0022247100707247828
1.25145e-05;0.0021913133864707997
1.25148e-05;0.002150263884014447
1.25150e-05;0.002105617521550814
1.25153e-05;0.002060971159087483
1.25155e-05;0.002008826543692587
1.25158e-05;0.00195315771468365
1.25160e-05;0.0018974888856750905
1.25163e-05;0.0018418200566661536
1.25165e-05;0.0017861512276572166
1.25168e-05;0.0017266185466968825
1.25170e-05;0.0016652698374190738
1.25173e-05;0.001603921128141265
1.25175e-05;0.001542572418863872
1.25178e-05;0.0014812237095860633
1.25180e-05;0.0014212971950885174
1.25182e-05;0.001362039118726607
1.25185e-05;0.0013027810423642953
1.25188e-05;0.0012479060022548068
1.25190e-05;0.0011950910094892214
1.25193e-05;0.0011422760167239937
1.25195e-05;0.0010950019666457404
1.25198e-05;0.0010503321852998663
1.25200e-05;0.001011230840105422
1.25203e-05;0.000974746685698487
1.25205e-05;0.0009442221454494556
1.25208e-05;0.0009164986514638118
1.25210e-05;0.0008933775078906933
1.25213e-05;0.0008755617437902138
1.25215e-05;0.0008624207405066574
1.25218e-05;0.0008540340623758185
1.25220e-05;0.0008504472076981775
1.25223e-05;0.0008516228782461646
1.25225e-05;0.0008574520048688842
1.25228e-05;0.0008692881462201425
1.25230e-05;0.0008832544632758422
1.25233e-05;0.0009029800934522288
1.25235e-05;0.0009254126274763481
1.25238e-05;0.000953251091877544
1.25240e-05;0.0009836303686002136
1.25243e-05;0.0010189005781137076
1.25245e-05;0.0010564695486968323
1.25248e-05;0.0010991512212402597
1.25250e-05;0.0011442358873905714
1.25253e-05;0.0011893205535405775
1.25255e-05;0.0012391487463345853
1.25258e-05;0.0012912064186265794
1.25260e-05;0.0013432640909182207
1.25263e-05;0.0013987742117663664
1.25265e-05;0.0014559069994301945
1.25267e-05;0.0015130397870936356
1.25270e-05;0.001570172574757464
1.25273e-05;0.001627305362421292
1.25275e-05;0.0016840550377207808
1.25278e-05;0.0017390626107682302
1.25280e-05;0.0017940701838160523
1.25283e-05;0.0018490777568638745
1.25285e-05;0.001904085329911324
1.25288e-05;0.001959092902959146
1.25290e-05;0.0020080546497478783
1.25293e-05;0.002054174830185528
1.25295e-05;0.0021002950106234902
1.25298e-05;0.0021396095358386536
1.25300e-05;0.002175725371569637
1.25303e-05;0.0022118412073008653
1.25305e-05;0.0022417535778211576
1.25308e-05;0.002268750290952641
1.25310e-05;0.002295747004084307
1.25313e-05;0.002318479445336067
1.25315e-05;0.002334543827813106
1.25318e-05;0.002348416188002862
1.25320e-05;0.0023622885481926178
1.25323e-05;0.002369842876073037
1.25325e-05;0.0023744276994976756
1.25328e-05;0.0023790125229223138
1.25330e-05;0.002373708859450358
1.25333e-05;0.002363757561325261
1.25335e-05;0.0023538062632001647
1.25338e-05;0.0023438549650751355
1.25340e-05;0.0023339036669500386
1.25343e-05;0.002323952368824942
1.25345e-05;0.002314001070699913
1.25348e-05;0.0023040497725748165
1.25350e-05;0.002284195402686464
1.25352e-05;0.002259686543190046
1.25355e-05;0.0022351776836934613
1.25358e-05;0.002210668824196877
1.25360e-05;0.0021861599647002923
1.25363e-05;0.002161651105203874
1.25365e-05;0.0021371422457072894
1.25368e-05;0.002112633386210705
1.25370e-05;0.0020856395765298267
1.25373e-05;0.002057477828749597
1.25375e-05;0.0020293160809693677
1.25378e-05;0.002001154333189329
1.25380e-05;0.0019729925854091
1.25383e-05;0.0019448308376288706
1.25385e-05;0.001916669089848832
1.25388e-05;0.0018923205823634006
1.25390e-05;0.0018697643154829394
1.25393e-05;0.0018472080486026312
1.25395e-05;0.0018246517817221701
1.25398e-05;0.0018020955148417088
1.25400e-05;0.0017795392479614007
1.25403e-05;0.0017569829810809394
1.25405e-05;0.0017321834315821548
1.25408e-05;0.0017063295288599315
1.25410e-05;0.001680475626137533
1.25413e-05;0.0016507089138280992
1.25415e-05;0.0016191031628850897
1.25418e-05;0.001587497411941866
1.25420e-05;0.001551562951725744
1.25423e-05;0.0015135939780968246
1.25425e-05;0.001475625004467648
1.25428e-05;0.0014312807413784827
1.25430e-05;0.0013839400627068078
1.25433e-05;0.001336599384034812
1.25435e-05;0.0012846694483337508
1.25437e-05;0.0012305825405673578
1.25440e-05;0.0011764956328005984
1.25443e-05;0.0011176947904918738
1.25445e-05;0.001056678377108688
1.25448e-05;0.0009956619637259156
1.25450e-05;0.0009307252437383842
1.25453e-05;0.0008639459614839068
1.25455e-05;0.000797166679229882
1.25458e-05;0.0007284328890631935
1.25460e-05;0.0006587804711224406
1.25463e-05;0.0005891280531821598
1.25465e-05;0.0005192560237993224
1.25468e-05;0.0004483853694079314
1.25470e-05;0.00037751471501702076
1.25473e-05;0.0003066440606256298
1.25475e-05;0.00023668746444329737
1.25478e-05;0.00016810913304714792
1.25480e-05;0.00010109850833305887
1.25483e-05;3.5795664379105325e-05
1.25485e-05;-2.762279387570038e-05
1.25488e-05;-8.880753013817906e-05
1.25490e-05;-0.00014732158058297239
1.25493e-05;-0.00020271559801752126
1.25495e-05;-0.00025454029527704694
1.25498e-05;-0.00030238450099632044
1.25500e-05;-0.0003462851603399463
1.25503e-05;-0.00038696911499092913
1.25505e-05;-0.0004251330263340072
1.25508e-05;-0.00045905317399640795
1.25510e-05;-0.0004765026252843796
1.25513e-05;-0.0005176655362697268
1.25515e-05;-0.0005377359440598581
1.25518e-05;-0.000570529259349769
1.25520e-05;-0.0005825815073017129
1.25522e-05;-0.0006091157290115154
1.25525e-05;-0.0006183692342654935
1.25528e-05;-0.0006396776306792982
1.25530e-05;-0.0006463527233908274
1.25533e-05;-0.0006605286154157399
1.25535e-05;-0.0006700310787331529
1.25538e-05;-0.0006740302942838871
1.25540e-05;-0.0006779995165033984
1.25543e-05;-0.0006786165177090832
1.25545e-05;-0.0006792032022809106
1.25548e-05;-0.0006764015317432763
1.25550e-05;-0.000673599861205623
1.25553e-05;-0.0006707599060607503
1.25555e-05;-0.0006636410509234046
1.25558e-05;-0.0006565221957860105
1.25560e-05;-0.000649378670196798
1.25563e-05;-0.0006394778381137665
1.25565e-05;-0.0006295770060306678
1.25568e-05;-0.0006196605177147414
1.25570e-05;-0.0006079942020036136
1.25573e-05;-0.0005963278862924068
1.25575e-05;-0.0005846615705811999
1.25578e-05;-0.0005729952548700721
1.25580e-05;-0.0005612446866760559
1.25583e-05;-0.0005494128025071395
1.25585e-05;-0.0005375809183383035
1.25588e-05;-0.0005257490341693872
1.25590e-05;-0.0005139322009799829
1.25593e-05;-0.0005037975487230859
1.25595e-05;-0.0004936715076895207
1.25598e-05;-0.0004845079047357441
1.25600e-05;-0.00047532870866697505
1.25603e-05;-0.0004643744688578395
1.25605e-05;-0.00044977816528276877
1.25607e-05;-0.00043120297201285676
1.25610e-05;-0.00040894557252364586
1.25613e-05;-0.0003833055681303686
1.25615e-05;-0.00035455649332236593
1.25618e-05;-0.0003228834853870847
1.25620e-05;-0.0002881917727740394
1.25623e-05;-0.00024954323897724
1.25625e-05;-0.00020602944078938746
1.25628e-05;-0.00015767620698276173
1.25630e-05;-0.00010490612859359563
1.25633e-05;-4.814366293116994e-05
1.25635e-05;1.2203098222222817e-05
1.25638e-05;7.578149445931298e-05
1.25640e-05;0.00014241415128447366
1.25643e-05;0.0002124520097448882
1.25645e-05;0.0002862273559933638
1.25648e-05;0.0003634872369425342
1.25650e-05;0.00044373900151404325
1.25653e-05;0.0005274408030003566
1.25655e-05;0.0006111754805272141
1.25658e-05;0.0006985845667422134
1.25660e-05;0.0007859936529572128
1.25663e-05;0.0008734281672938458
1.25665e-05;0.0009637046695994875
1.25668e-05;0.0010539811719051293
1.25670e-05;0.0011442576742101594
1.25673e-05;0.0012345041287275711
1.25675e-05;0.0013213922757799486
1.25678e-05;0.0014082804228317373
1.25680e-05;0.0014951685698841148
1.25683e-05;0.0015819827535869066
1.25685e-05;0.001660530383114122
1.25688e-05;0.0017390780126418696
1.25690e-05;0.001817540731094302
1.25692e-05;0.0018865133168166387
1.25695e-05;0.001955394751843786
1.25698e-05;0.0020140886795565246
1.25700e-05;0.0020726815117914463
1.25703e-05;0.00211997535269864
1.25705e-05;0.0021671668241887094
1.25708e-05;0.0022029169217838646
1.25710e-05;0.002238559929983838
1.25713e-05;0.0022622340334152416
1.25715e-05;0.0022857964864585033
1.25718e-05;0.0022968802728342867
1.25720e-05;0.0023078540120864757
1.25723e-05;0.0023065282744015063
1.25725e-05;0.002305099524135131
1.25728e-05;0.002292157516392265
1.25730e-05;0.002279093831577979
1.25733e-05;0.0022524308423690037
1.25735e-05;0.002225767853159848
1.25738e-05;0.002198971515981086
1.25740e-05;0.002157271470092746
1.25743e-05;0.0021155714242041233
1.25745e-05;0.002073762946156454
1.25748e-05;0.0020198354885758558
1.25750e-05;0.0019659080309948917
1.25753e-05;0.0019118969617436044
1.25755e-05;0.0018485409884431993
1.25758e-05;0.0017851850151423647
1.25760e-05;0.00172176740488553
1.25763e-05;0.0016514609065356378
1.25765e-05;0.0015811544081852692
1.25768e-05;0.0015108479098349006
1.25770e-05;0.0014405414114850084
1.25773e-05;0.0013698478914562929
1.25775e-05;0.001298780838873393
1.25777e-05;0.0012277137862909749
1.25780e-05;0.001156646733708075
1.25783e-05;0.0010856215630111747
1.25785e-05;0.0010192773442169183
1.25788e-05;0.0009529832622800255
1.25790e-05;0.0008922927535902942
1.25793e-05;0.0008316504290371051
1.25795e-05;0.0007764311948208885
1.25798e-05;0.0007254809619199075
1.25800e-05;0.0006799281994618066
1.25803e-05;0.0006344000101548243
1.25805e-05;0.0005916290278189045
1.25808e-05;0.0005500840749041035
1.25810e-05;0.000510966649573454
1.25813e-05;0.00047187650128903874
1.25815e-05;0.0004358568744900548
1.25818e-05;0.0004023113627860559
1.25820e-05;0.00037187876784598956
1.25823e-05;0.00034145942203359656
1.25825e-05;0.0003125263639013714
1.25828e-05;0.00028421905942881815
1.25830e-05;0.00025725003859183155
1.25833e-05;0.0002302967286885465
1.25835e-05;0.00020511232355331115
1.25838e-05;0.00018138938061235168
1.25840e-05;0.00015907930691477144
1.25843e-05;0.00013766972575467057
1.25845e-05;0.00011667448080976052
1.25848e-05;9.604196062903565e-05
1.25850e-05;7.591862985185497e-05
1.25853e-05;5.645091017200053e-05
1.25855e-05;3.778525788864362e-05
1.25858e-05;2.0066550959718275e-05
1.25860e-05;3.2787980875011206e-06
1.25862e-05;-1.2884498407763878e-05
1.25865e-05;-2.8713406578252044e-05
1.25868e-05;-4.422575429344001e-05
1.25870e-05;-5.931530030702574e-05
1.25873e-05;-7.387585536516167e-05
1.25875e-05;-8.78011989565054e-05
1.25878e-05;-0.0001009861307511273
1.25880e-05;-0.00011342618984602714
1.25883e-05;-0.0001252989108602554
1.25885e-05;-0.0001367715037370439
1.25888e-05;-0.00014784065370401
1.25890e-05;-0.00015842532140348576
1.25893e-05;-0.0001684444964523656
1.25895e-05;-0.0001778171679211228
1.25898e-05;-0.00018645563375440687
1.25900e-05;-0.0001937027307771913
1.25903e-05;-0.0001979406242401498
1.25905e-05;-0.0001977861720851505
1.25908e-05;-0.00019296186893068116
1.25910e-05;-0.00018366345233057367
1.25913e-05;-0.0001700866311214751
1.25915e-05;-0.00015242711927218548
1.25918e-05;-0.0001308764490082294
1.25920e-05;-0.0001052694452197133
1.25923e-05;-7.483920961999117e-05
1.25925e-05;-3.8965946547642896e-05
1.25928e-05;2.2775407041787986e-06
1.25930e-05;4.852203015716636e-05
1.25933e-05;9.939831448158114e-05
1.25935e-05;0.0001545372176539503
1.25938e-05;0.00021357221069828443
1.25940e-05;0.0002763602295428216
1.25943e-05;0.0003431350897605069
1.25945e-05;0.0004140384007657123
1.25947e-05;0.0004887780151168101
1.25950e-05;0.0005668866939958451
1.25953e-05;0.0006490476222824572
1.25955e-05;0.0007312501569842349
1.25958e-05;0.000818102855571116
1.25960e-05;0.0009049555541579972
1.25963e-05;0.0009918404479971681
1.25965e-05;0.0010823236618748952
1.25968e-05;0.0011728068757532353
1.25970e-05;0.0012632900896315756
1.25973e-05;0.0013537733035093027
1.25975e-05;0.001442152732893097
1.25978e-05;0.0015285017023824333
1.25980e-05;0.001614850671871184
1.25983e-05;0.00170119964136052
1.25985e-05;0.0017874574047525757
1.25988e-05;0.0018635214686090593
1.25990e-05;0.0019395855324660584
1.25993e-05;0.0020155505889799074
1.25995e-05;0.002080450035422191
1.25998e-05;0.002145239029023836
1.26000e-05;0.0021976832001842955
1.26003e-05;0.0022501273713444
1.26005e-05;0.0023024631075953222
1.26008e-05;0.002342679556622582
1.26010e-05;0.00238289600564957
1.26013e-05;0.002422990452413088
1.26015e-05;0.0024494492491476992
1.26018e-05;0.002475908045882131
1.26020e-05;0.0025022533449843933
1.26023e-05;0.0025159135188475967
1.26025e-05;0.0025295736927107076
1.26028e-05;0.0025431378021624736
1.26030e-05;0.002545965219888798
1.26032e-05;0.002548792637615103
1.26035e-05;0.00255147537406098
1.26038e-05;0.002537987727704742
1.26040e-05;0.0025245000813485957
1.26043e-05;0.0025110124349923576
1.26045e-05;0.0024975247886361196
1.26048e-05;0.0024840371422798816
1.26050e-05;0.0024705494959237346
1.26053e-05;0.0024569333733857747
1.26055e-05;0.0024289580397972837
1.26058e-05;0.002400982706208982
1.26060e-05;0.002373007372620491
1.26063e-05;0.0023450320390320002
1.26065e-05;0.0023170567054436987
1.26068e-05;0.0022890813718552078
1.26070e-05;0.002261078094340556
1.26073e-05;0.002229951648560569
1.26075e-05;0.0021988252027803712
1.26078e-05;0.0021676987570001735
1.26080e-05;0.0021365723112201866
1.26083e-05;0.002105445865439989
1.26085e-05;0.002074319419659791
1.26088e-05;0.002043192973879804
1.26090e-05;0.0020152445106857704
1.26093e-05;0.0019903632657382576
1.26095e-05;0.001965482020790913
1.26098e-05;0.0019406007758434002
1.26100e-05;0.0019157195308958873
1.26103e-05;0.001890838285948543
1.26105e-05;0.00186595704100103
1.26108e-05;0.0018410035643168247
1.26110e-05;0.0018079770678512133
1.26113e-05;0.0017749505713853778
1.26115e-05;0.0017419240749195425
1.26117e-05;0.001708897578453931
1.26120e-05;0.0016758710819880958
1.26123e-05;0.0016428445855222605
1.26125e-05;0.0016098180890566488
1.26128e-05;0.0015767915925908136
1.26130e-05;0.0015436241747226647
1.26133e-05;0.0014947065987763802
1.26135e-05;0.0014457890228304268
1.26138e-05;0.0013968714468841422
1.26140e-05;0.0013479538709378577
1.26143e-05;0.0012990362949919043
1.26145e-05;0.0012501187190456196
1.26148e-05;0.0012012011430993352
1.26150e-05;0.001152283567153382
1.26153e-05;0.0011032925303357608
1.26155e-05;0.0010460910987889868
1.26158e-05;0.0009888896672426
1.26160e-05;0.000931688235695826
1.26163e-05;0.0008744868041490519
1.26165e-05;0.0008168209307915744
1.26168e-05;0.0007587068031216771
1.26170e-05;0.0007005926754517797
1.26173e-05;0.0006424785477822762
1.26175e-05;0.0005843866658506204
1.26178e-05;0.0005287810911067982
1.26180e-05;0.00047320103335401744
1.26183e-05;0.0004204728961197915
1.26185e-05;0.0003677676113395589
1.26188e-05;0.00031763577549742743
1.26190e-05;0.00026968716124050685
1.26193e-05;0.0002242890871100111
1.26195e-05;0.0001818087638475691
1.26198e-05;0.00014261034851028193
1.26200e-05;0.00010679767850157498
1.26202e-05;7.397598062647882e-05
1.26205e-05;4.371316117859847e-05
1.26208e-05;1.597160216543052e-05
1.26210e-05;-9.095762634208487e-06
1.26213e-05;-3.133605771415864e-05
1.26215e-05;-5.059646753745913e-05
1.26218e-05;-6.672607643551758e-05
1.26220e-05;-7.973710949534637e-05
1.26223e-05;-8.995404869533888e-05
1.26225e-05;-9.772476066359082e-05
1.26228e-05;-0.0001031499898278405
1.26230e-05;-0.00010621111012373389
1.26233e-05;-0.00010688953914264965
1.26235e-05;-0.00010516674058362779
1.26238e-05;-0.00010102539367167279
1.26240e-05;-9.455031723010078e-05
1.26243e-05;-8.602197480248772e-05
1.26245e-05;-7.573540277222862e-05
1.26248e-05;-6.383086002787363e-05
1.26250e-05;-5.0373819403160904e-05
1.26253e-05;-3.542976839636495e-05
1.26255e-05;-1.9064223291042027e-05
1.26258e-05;-1.3434580592854513e-06
1.26260e-05;1.7602262533157582e-05
1.26263e-05;3.7520158053771216e-05
1.26265e-05;5.8148323300839353e-05
1.26268e-05;7.932320867675971e-05
1.26270e-05;0.00010107635015865471
1.26273e-05;0.000122832760132677
1.26275e-05;0.0001449544749487953
1.26278e-05;0.00016707618976491358
1.26280e-05;0.00018919230803875073
1.26283e-05;0.00021068292569396838
1.26285e-05;0.00023216052431057155
1.26288e-05;0.00025218304289400926
1.26290e-05;0.00027218705734936415
1.26293e-05;0.00029012294770451157
1.26295e-05;0.0003080358542629718
1.26298e-05;0.00032337996411483874
1.26300e-05;0.0003387240739667057
1.26303e-05;0.00035433462176362375
1.26305e-05;0.00037020232116683204
1.26308e-05;0.00038608912605153325
1.26310e-05;0.00040411126560823925
1.26313e-05;0.00042213340516482307
1.26315e-05;0.0004401674993477429
1.26318e-05;0.0004595377089286511
1.26320e-05;0.0004789079185094281
1.26323e-05;0.0004983033045720093
1.26325e-05;0.0005205125540088646
1.26328e-05;0.0005427476110469701
1.26330e-05;0.000567867068906516
1.26333e-05;0.000592986526766062
1.26335e-05;0.0006181262052341027
1.26338e-05;0.0006455258511971655
1.26340e-05;0.0006729254971602283
1.26343e-05;0.0007003600948136316
1.26345e-05;0.0007317010874649383
1.26348e-05;0.0007630420801162449
1.26350e-05;0.0007943830727673392
1.26353e-05;0.0008257240654186459
1.26355e-05;0.0008570650580699524
1.26358e-05;0.0008884060507210468
1.26360e-05;0.0009206203689628859
1.26363e-05;0.0009536775741986147
1.26365e-05;0.0009867347794341196
1.26368e-05;0.0010197919846698484
1.26370e-05;0.0010528491899055772
1.26373e-05;0.0010859063951410822
1.26375e-05;0.0011189313062214613
1.26378e-05;0.001148346843179899
1.26380e-05;0.0011777623801381373
1.26383e-05;0.001207177917096575
1.26385e-05;0.0012365934540550126
1.26388e-05;0.0012660089910134504
1.26390e-05;0.0012954245279716888
1.26393e-05;0.001319809183112935
1.26395e-05;0.0013393383011006412
1.26398e-05;0.001358867419088215
1.26400e-05;0.0013783965370759211
1.26403e-05;0.0013979256550636272
1.26405e-05;0.001417454773051201
1.26408e-05;0.001436895777039868
1.26410e-05;0.0014464886711941585
1.26413e-05;0.001456081565348384
1.26415e-05;0.0014656144009230025
1.26418e-05;0.0014684347561198091
1.26420e-05;0.0014712551113165967
1.26423e-05;0.0014740179675130968
1.26425e-05;0.0014703544161403022
1.26428e-05;0.0014666908647675324
1.26430e-05;0.0014629743058747324
1.26433e-05;0.0014533333321925057
1.26435e-05;0.0014436923585103444
1.26438e-05;0.0014339778416313184
1.26440e-05;0.001416043728688674
1.26443e-05;0.001398109615746151
1.26445e-05;0.0013801755028035063
1.26448e-05;0.0013622413898608618
1.26450e-05;0.0013443072769183388
1.26453e-05;0.0013263731639756942
1.26455e-05;0.0013083780064947446
1.26458e-05;0.0012835601724188403
1.26460e-05;0.0012587423383427678
