Time(s);Current(A)
5.30000e-06;-0.0019108394405544552
5.30025e-06;-0.0018935188779346808
5.30050e-06;-0.0018763219406431576
5.30075e-06;-0.0018597032459987362
5.30100e-06;-0.0018433847496307557
5.30125e-06;-0.0018284703947004342
5.30150e-06;-0.0018135560397701128
5.30175e-06;-0.0017990494358531184
5.30200e-06;-0.001786450038402433
5.30225e-06;-0.0017739729642052495
5.30250e-06;-0.0017620680423568822
5.30275e-06;-0.0017499373899685833
5.30300e-06;-0.0017367509100498799
5.30325e-06;-0.0017233227682573698
5.30350e-06;-0.0017087642820308431
5.30375e-06;-0.0016942057958042672
5.30400e-06;-0.0016796473095777404
5.30425e-06;-0.0016650888233512137
5.30450e-06;-0.001648542699641415
5.30475e-06;-0.0016310445195781738
5.30500e-06;-0.0016135463395149329
5.30525e-06;-0.0015960481594516325
5.30550e-06;-0.001577973967971758
5.30575e-06;-0.0015572055521680397
5.30600e-06;-0.0015364371363642507
5.30625e-06;-0.0015156687205605324
5.30650e-06;-0.001494900304756814
5.30675e-06;-0.0014722010471093245
5.30700e-06;-0.0014485769375911365
5.30725e-06;-0.0014249528280728685
5.30750e-06;-0.0014013287185546805
5.30775e-06;-0.001377479658829968
5.30800e-06;-0.0013525784214911023
5.30825e-06;-0.001327677184152321
5.30850e-06;-0.0013026963869738498
5.30875e-06;-0.001277343458186294
5.30900e-06;-0.0012519905293988242
5.30925e-06;-0.0012266743970372116
5.30950e-06;-0.001201530375544675
5.30975e-06;-0.0011765409626066782
5.31000e-06;-0.0011522747126408018
5.31025e-06;-0.00112822643202947
5.31050e-06;-0.0011051976769346139
5.31075e-06;-0.0010825163365572757
5.31100e-06;-0.0010614599868575085
5.31125e-06;-0.0010404036371578125
5.31150e-06;-0.001019972696831949
5.31175e-06;-0.0010024670338505282
5.31200e-06;-0.0009849613708691075
5.31225e-06;-0.0009682333540579018
5.31250e-06;-0.0009551426839491066
5.31275e-06;-0.0009420520138403115
5.31300e-06;-0.000928961343731472
5.31325e-06;-0.0009158706736226768
5.31350e-06;-0.0009027800035138816
5.31375e-06;-0.0008904977543329288
5.31400e-06;-0.0008819967970922679
5.31425e-06;-0.0008734958398516068
5.31450e-06;-0.0008649948826109171
5.31475e-06;-0.0008564939253702561
5.31500e-06;-0.000847992968129595
5.31525e-06;-0.0008402769622499705
5.31550e-06;-0.0008362324722262334
5.31575e-06;-0.0008321879822024824
5.31600e-06;-0.0008281434921787452
5.31625e-06;-0.0008240990021550081
5.31650e-06;-0.0008200545121312571
5.31675e-06;-0.0008160100221075199
5.31700e-06;-0.0008119655320837826
5.31725e-06;-0.0008079210420600317
5.31750e-06;-0.0008038765520362945
5.31775e-06;-0.0007998320620125573
5.31800e-06;-0.000798001721097702
5.31825e-06;-0.0007972319330975013
5.31850e-06;-0.0007964621450973008
5.31875e-06;-0.0007956923570970975
5.31900e-06;-0.0007949225690968969
5.31925e-06;-0.0007941527810966963
5.31950e-06;-0.0007933829930964931
5.31975e-06;-0.0007926132050962926
5.32000e-06;-0.0007918434170960893
5.32025e-06;-0.0007910736290958887
5.32050e-06;-0.0007904503871128591
5.32075e-06;-0.0007905125965504606
5.32100e-06;-0.0007905748059880618
5.32125e-06;-0.0007906370154256631
5.32150e-06;-0.000790657561036118
5.32175e-06;-0.0007904832290916822
5.32200e-06;-0.0007903088971472463
5.32225e-06;-0.0007901345652028099
5.32250e-06;-0.0007894889095584083
5.32275e-06;-0.0007866386938315659
5.32300e-06;-0.0007837884781047137
5.32325e-06;-0.0007803406442673756
5.32350e-06;-0.0007740975233884407
5.32375e-06;-0.0007678544025094847
5.32400e-06;-0.000761039359844565
5.32425e-06;-0.0007515492216143084
5.32450e-06;-0.000742059083384084
5.32475e-06;-0.0007318303031264056
5.32500e-06;-0.0007181466133681777
5.32525e-06;-0.0007044629236099961
5.32550e-06;-0.000690158561158862
5.32575e-06;-0.0006729510766216889
5.32600e-06;-0.0006557435920845743
5.32625e-06;-0.0006379826916262239
5.32650e-06;-0.0006176332545656994
5.32675e-06;-0.0005972838175052439
5.32700e-06;-0.0005764332935727664
5.32725e-06;-0.0005532389958901938
5.32750e-06;-0.0005300446982076999
5.32775e-06;-0.0005065881708833499
5.32800e-06;-0.0004819050958575886
5.32825e-06;-0.0004570837061530612
5.32850e-06;-0.0004316153661258289
5.32875e-06;-0.0004060501778852693
5.32900e-06;-0.00038003199374121943
5.32925e-06;-0.00035401991755771575
5.32950e-06;-0.00032803641062765506
5.32975e-06;-0.00030216804503524285
5.33000e-06;-0.00027683823924098505
5.33025e-06;-0.000251706992148647
5.33050e-06;-0.0002275044795714709
5.33075e-06;-0.00020349328482790428
5.33100e-06;-0.00018054072039485185
5.33125e-06;-0.00015854731638837057
5.33150e-06;-0.000137680040202154
5.33175e-06;-0.00011810584682786604
5.33200e-06;-9.998549565375392e-05
5.33225e-06;-8.342400564014245e-05
5.33250e-06;-6.837998169614455e-05
5.33275e-06;-5.473180278731718e-05
5.33300e-06;-4.245002810947305e-05
5.33325e-06;-3.158613352040431e-05
5.33350e-06;-2.2196994974023537e-05
5.33375e-06;-1.4339466276066087e-05
5.33400e-06;-8.066518298707315e-06
5.33425e-06;-3.396198882643123e-06
5.33450e-06;-2.548399775961763e-07
5.33475e-06;1.4814657417316872e-06
5.33500e-06;1.878887059608365e-06
5.33525e-06;9.528987507899272e-07
5.33550e-06;-1.2844046660223228e-06
5.33575e-06;-4.820912502129008e-06
5.33600e-06;-9.642080910220373e-06
5.33625e-06;-1.571149350858657e-05
5.33650e-06;-2.2935282381002448e-05
5.33675e-06;-3.1188121526532666e-05
5.33700e-06;-4.038085732382741e-05
5.33725e-06;-5.04560968052555e-05
5.33750e-06;-6.13585645208526e-05
5.33775e-06;-7.303298309831094e-05
5.33800e-06;-8.542255071758561e-05
5.33825e-06;-9.849472054221332e-05
5.33850e-06;-0.00011220667739577245
5.33875e-06;-0.0001260573881403804
5.33900e-06;-0.0001405571035699851
5.33925e-06;-0.00015505681899963893
5.33950e-06;-0.0001695565344292436
5.33975e-06;-0.00018412554802305713
5.34000e-06;-0.0001987277546704956
5.34025e-06;-0.00021332996131788462
5.34050e-06;-0.00022775454156658857
5.34075e-06;-0.0002413482956380665
5.34100e-06;-0.0002549420497094983
5.34125e-06;-0.0002682642810507773
5.34150e-06;-0.00028031649738504577
5.34175e-06;-0.0002920862250253767
5.34200e-06;-0.0003025346456785318
5.34225e-06;-0.00031303430860989075
5.34250e-06;-0.00032377365115225594
5.34275e-06;-0.00033506125428890276
5.34300e-06;-0.0003489132806024461
5.34325e-06;-0.00036325770132893587
5.34350e-06;-0.0003799052378693962
5.34375e-06;-0.00039693355949083645
5.34400e-06;-0.0004157429576613971
5.34425e-06;-0.00043506415833476526
5.34450e-06;-0.00045677925383429564
5.34475e-06;-0.00047923939750083787
5.34500e-06;-0.0005051844146152074
5.34525e-06;-0.0005317613685650389
5.34550e-06;-0.0005612941312751439
5.34575e-06;-0.0005913108454177144
5.34600e-06;-0.0006235911843458179
5.34625e-06;-0.0006565035797227659
5.34650e-06;-0.00069237234333597
5.34675e-06;-0.0007282411069491743
5.34700e-06;-0.0007648342307789646
5.34725e-06;-0.0008048154626484733
5.34750e-06;-0.0008447966945179822
5.34775e-06;-0.0008851474490352024
5.34800e-06;-0.0009272266014193544
5.34825e-06;-0.0009693057538035064
5.34850e-06;-0.0010116049704817342
5.34875e-06;-0.0010549335115022866
5.34900e-06;-0.0010982620525228387
5.34925e-06;-0.0011415208829932027
5.34950e-06;-0.0011844536507246508
5.34975e-06;-0.0012273864184562443
5.35000e-06;-0.0012698746011551752
5.35025e-06;-0.001310283290683879
5.35050e-06;-0.0013506919802127196
5.35075e-06;-0.0013903993333496574
5.35100e-06;-0.0014268262696259144
5.35125e-06;-0.0014632532059022949
5.35150e-06;-0.0014985746841779083
5.35175e-06;-0.0015287255152340463
5.35200e-06;-0.0015588763462902862
5.35225e-06;-0.0015877574528827397
5.35250e-06;-0.001610699575575603
5.35275e-06;-0.0016336416982685438
5.35300e-06;-0.0016554040797701025
5.35325e-06;-0.0016716483633369748
5.35350e-06;-0.0016878926469039023
5.35375e-06;-0.001702829982391278
5.35400e-06;-0.0017116542249806825
5.35425e-06;-0.0017204784675700568
5.35450e-06;-0.0017281143773255887
5.35475e-06;-0.0017301920027691336
5.35500e-06;-0.0017322696282126718
5.35525e-06;-0.0017326111101198711
5.35550e-06;-0.001724831988853965
5.35575e-06;-0.0017170528675880853
5.35600e-06;-0.0017092737463222055
5.35625e-06;-0.0017014946250562995
5.35650e-06;-0.00169371550379042
5.35675e-06;-0.0016859363825245401
5.35700e-06;-0.001676390362005039
5.35725e-06;-0.0016585798821341748
5.35750e-06;-0.0016407694022633106
5.35775e-06;-0.0016229589223923859
5.35800e-06;-0.0016051484425215214
5.35825e-06;-0.001587337962650597
5.35850e-06;-0.0015695274827797325
5.35875e-06;-0.0015510972534336722
5.35900e-06;-0.001529768220245078
5.35925e-06;-0.0015083465141967685
5.35950e-06;-0.0014864913419612498
5.35975e-06;-0.0014646284495504805
5.36000e-06;-0.001442729446946294
5.36025e-06;-0.0014209316063188242
5.36050e-06;-0.0013996069387047986
5.36075e-06;-0.001378593289232639
5.36100e-06;-0.001359034389817603
5.36125e-06;-0.0013394754904025006
5.36150e-06;-0.001320380983959616
5.36175e-06;-0.001303458619948209
5.36200e-06;-0.001286921700804981
5.36225e-06;-0.001272187653805616
5.36250e-06;-0.0012573996783580837
5.36275e-06;-0.0012423594590623137
5.36300e-06;-0.001227108266072779
5.36325e-06;-0.0012108702689332305
5.36350e-06;-0.0011946322717937368
5.36375e-06;-0.0011783075790349872
5.36400e-06;-0.0011615773779147525
5.36425e-06;-0.0011448471767945747
5.36450e-06;-0.0011276466384976818
5.36475e-06;-0.0011082461544655075
5.36500e-06;-0.001088845670433399
5.36525e-06;-0.0010694451864012907
5.36550e-06;-0.0010500447023691166
5.36575e-06;-0.0010288088463418267
5.36600e-06;-0.001006693867445588
5.36625e-06;-0.0009845788885492744
5.36650e-06;-0.0009624639096530356
5.36675e-06;-0.0009399396976785951
5.36700e-06;-0.0009155013470619512
5.36725e-06;-0.0008910629964453074
5.36750e-06;-0.0008664516851974292
5.36775e-06;-0.0008410313713411753
5.36800e-06;-0.0008156110574849212
5.36825e-06;-0.0007901334865170543
5.36850e-06;-0.0007643881022771522
5.36875e-06;-0.0007386427180372502
5.36900e-06;-0.0007128851520511679
5.36925e-06;-0.0006870706074088238
5.36950e-06;-0.0006613702608690377
5.36975e-06;-0.0006362040622576931
5.37000e-06;-0.0006111895502224877
5.37025e-06;-0.000587059011963993
5.37050e-06;-0.0005637445736692946
5.37075e-06;-0.0005407842347597155
5.37100e-06;-0.0005194801532550997
5.37125e-06;-0.000498176071750556
5.37150e-06;-0.0004773824197609152
5.37175e-06;-0.000458976240609355
5.37200e-06;-0.0004410331976375699
5.37225e-06;-0.00042525641860060096
5.37250e-06;-0.00040965482499955274
5.37275e-06;-0.0003948726402646122
5.37300e-06;-0.000380220218722039
5.37325e-06;-0.00036617474894867893
5.37350e-06;-0.00035212927917536654
5.37375e-06;-0.00033837157987168546
5.37400e-06;-0.000325959892426127
5.37425e-06;-0.00031354820498061064
5.37450e-06;-0.00030122354465370786
5.37475e-06;-0.00028930594323653826
5.37500e-06;-0.00027738834181940904
5.37525e-06;-0.000265577767866675
5.37550e-06;-0.000254267802042585
5.37575e-06;-0.00024295783621849497
5.37600e-06;-0.00023164787039436663
5.37625e-06;-0.00022033790457027662
5.37650e-06;-0.0002090279387461866
5.37675e-06;-0.00019771797292205827
5.37700e-06;-0.00018640800709796826
5.37725e-06;-0.00017563332421563325
5.37750e-06;-0.0001651150359369582
5.37775e-06;-0.00015459674765831878
5.37800e-06;-0.00014407845937967935
5.37825e-06;-0.00013356017110100428
5.37850e-06;-0.00012304188282236486
5.37875e-06;-0.00011252359454372544
5.37900e-06;-0.00010210315478637594
5.37925e-06;-9.214038975208778e-05
5.37950e-06;-8.225975666776759e-05
5.37975e-06;-7.276328592909959e-05
5.38000e-06;-6.335411506978533e-05
5.38025e-06;-5.441095724653532e-05
5.38050e-06;-4.5785041295043004e-05
5.38075e-06;-3.742907246949603e-05
5.38100e-06;-2.9355165757944174e-05
5.38125e-06;-2.1619209148820666e-05
5.38150e-06;-1.4279815891114659e-05
5.38175e-06;-7.395580237797183e-06
5.38200e-06;-1.0217100752155272e-06
5.38225e-06;4.816546372432907e-06
5.38250e-06;1.0169684828390133e-05
5.38275e-06;1.5122046057915215e-05
5.38300e-06;1.9698295891233475e-05
5.38325e-06;2.387569359220565e-05
5.38350e-06;2.762845177178757e-05
5.38375e-06;3.0930796414697425e-05
5.38400e-06;3.3759082543973663e-05
5.38425e-06;3.6108429841433606e-05
5.38450e-06;3.802139974448717e-05
5.38475e-06;3.956175741803492e-05
5.38500e-06;4.075587742096821e-05
5.38525e-06;4.160043947470591e-05
5.38550e-06;4.2090222438870077e-05
5.38575e-06;4.222000537982077e-05
5.38600e-06;4.198590685204966e-05
5.38625e-06;4.13957974958025e-05
5.38650e-06;4.0487268985308474e-05
5.38675e-06;3.931118579574111e-05
5.38700e-06;3.789498462665527e-05
5.38725e-06;3.62475137435146e-05
5.38750e-06;3.4376417180570665e-05
5.38775e-06;3.228934357125112e-05
5.38800e-06;2.9994780139825422e-05
5.38825e-06;2.7508579651051748e-05
5.38850e-06;2.486520090135605e-05
5.38875e-06;2.2107421831911825e-05
5.38900e-06;1.925832835860627e-05
5.38925e-06;1.6325960097506943e-05
5.38950e-06;1.3377918614158542e-05
5.38975e-06;1.0356567513592056e-05
5.39000e-06;7.335216413025568e-06
5.39025e-06;4.315816969381668e-06
5.39050e-06;1.3167299041106014e-06
5.39075e-06;-1.6135714808553798e-06
5.39100e-06;-4.446586522198227e-06
5.39125e-06;-7.161116560475502e-06
5.39150e-06;-9.73643356291118e-06
5.39175e-06;-1.2151809235764844e-05
5.39200e-06;-1.440428937385421e-05
5.39225e-06;-1.664358317215676e-05
5.39250e-06;-1.9379187791765515e-05
5.39275e-06;-2.3210425890474854e-05
5.39300e-06;-2.8341796865323986e-05
5.39325e-06;-3.4701142673527186e-05
5.39350e-06;-4.219940623468828e-05
5.39375e-06;-5.074753474718974e-05
5.39400e-06;-6.026761311713068e-05
5.39425e-06;-7.077734700669743e-05
5.39450e-06;-8.251981175776738e-05
5.39475e-06;-9.579430646873097e-05
5.39500e-06;-0.00011065280995566543
5.39525e-06;-0.0001269739866388159
5.39550e-06;-0.0001446259191071647
5.39575e-06;-0.00016347673277868852
5.39600e-06;-0.00018340150852179125
5.39625e-06;-0.00020433524444265575
5.39650e-06;-0.00022645794738802662
5.39675e-06;-0.00025005524581093487
5.39700e-06;-0.00027401424161793925
5.39725e-06;-0.00029966503355830545
5.39750e-06;-0.0003256072057227374
5.39775e-06;-0.0003529122739380927
5.39800e-06;-0.0003802173421535405
5.39825e-06;-0.00040773531496103945
5.39850e-06;-0.0004362491234629238
5.39875e-06;-0.00046476293196490474
5.39900e-06;-0.0004933414511870741
5.39925e-06;-0.0005222226470420906
5.39950e-06;-0.000551103842897205
5.39975e-06;-0.0005797847806887425
5.40000e-06;-0.0006075290354069666
5.40025e-06;-0.0006352732901252849
5.40050e-06;-0.0006626208358325929
5.40075e-06;-0.000688112822721985
5.40100e-06;-0.0007136048096114635
5.40125e-06;-0.0007385862704406318
5.40150e-06;-0.0007611798068549143
5.40175e-06;-0.0007832059001404382
5.40200e-06;-0.000802577846249897
5.40225e-06;-0.000821106652855129
5.40250e-06;-0.0008356917755540469
5.40275e-06;-0.0008491652340364756
5.40300e-06;-0.0008574390164778962
5.40325e-06;-0.0008645947986227451
5.40350e-06;-0.0008665212684721677
5.40375e-06;-0.0008673478594189771
5.40400e-06;-0.0008630298987170943
5.40425e-06;-0.0008575435258974131
5.40450e-06;-0.0008465920455348116
5.40475e-06;-0.0008344081412167456
5.40500e-06;-0.0008164597216625865
5.40525e-06;-0.0007973790968944672
5.40550e-06;-0.0007730027180341426
5.40575e-06;-0.0007476096751474127
5.40600e-06;-0.0007174613082155868
5.40625e-06;-0.0006863575157785372
5.40650e-06;-0.0006507848351337258
5.40675e-06;-0.0006145241771775683
5.40700e-06;-0.0005746388586862124
5.40725e-06;-0.000532488910932308
5.40750e-06;-0.0004883271246612147
5.40775e-06;-0.00044240626664030777
5.40800e-06;-0.00039497596122831433
5.40825e-06;-0.00034625969269174155
5.40850e-06;-0.00029642397741497104
5.40875e-06;-0.00024563465830842454
5.40900e-06;-0.00019414119463390597
5.40925e-06;-0.0001422465208911936
5.40950e-06;-9.025671995653582e-05
5.40975e-06;-3.847779613888053e-05
5.41000e-06;1.2786220676817586e-05
5.41025e-06;6.324769358004999e-05
5.41050e-06;0.00011265465853024674
5.41075e-06;0.00016075562328786335
5.41100e-06;0.00020724674054772355
5.41125e-06;0.00025179065660499883
5.41150e-06;0.0002940480986825542
5.41175e-06;0.0003336798307960847
5.41200e-06;0.0003703439599780694
5.41225e-06;0.00040368120486619744
5.41250e-06;0.00043332351586532094
5.41275e-06;0.00045899428641024774
5.41300e-06;0.000480573292986061
5.41325e-06;0.0004980148685459618
5.41350e-06;0.0005112768912486375
5.41375e-06;0.0005203173351629275
5.41400e-06;0.000525092462180633
5.41425e-06;0.0005255476242176807
5.41450e-06;0.0005216228039408392
5.41475e-06;0.0005133151922994499
5.41500e-06;0.0005007199744313376
5.41525e-06;0.0004839789432100254
5.41550e-06;0.0004632362962089899
5.41575e-06;0.0004386360750651857
5.41600e-06;0.00041032140248769194
5.41625e-06;0.0003784284929891929
5.41650e-06;0.0003430901821097889
5.41675e-06;0.00030447519674246186
5.41700e-06;0.0002628135292888307
5.41725e-06;0.00021836451488894208
5.41750e-06;0.00017138880744867424
5.41775e-06;0.00012214706599972697
5.41800e-06;7.089929431944176e-05
5.41825e-06;1.790117664074982e-05
5.41850e-06;-3.659372877982562e-05
5.41875e-06;-9.236512374617622e-05
5.41900e-06;-0.00014919202254522123
5.41925e-06;-0.00020612421446090104
5.41950e-06;-0.00026354890229954856
5.41975e-06;-0.0003208441118813021
5.42000e-06;-0.0003775337024464231
5.42025e-06;-0.0004338607779855503
5.42050e-06;-0.0004884922329720703
5.42075e-06;-0.0005425132994329534
5.42100e-06;-0.000593679346775075
5.42125e-06;-0.0006439693951682832
5.42150e-06;-0.0006901620635467927
5.42175e-06;-0.0007352180617223059
5.42200e-06;-0.0007749574213581656
5.42225e-06;-0.0008134707290020502
5.42250e-06;-0.0008462493255075729
5.42275e-06;-0.000877883972495071
5.42300e-06;-0.0009041679328188518
5.42325e-06;-0.0009292433781487226
5.42350e-06;-0.0009486661395462246
5.42375e-06;-0.0009667980732983163
5.42400e-06;-0.0009788923155637642
5.42425e-06;-0.000989720751548494
5.42450e-06;-0.000994628530478413
5.42475e-06;-0.0009984028790133196
5.42500e-06;-0.000996875742821589
5.42525e-06;-0.0009942557250965521
5.42550e-06;-0.0009865238850820944
5.42575e-06;-0.0009777285832457115
5.42600e-06;-0.0009639590662915129
5.42625e-06;-0.000949222712735976
5.42650e-06;-0.0009299640969422505
5.42675e-06;-0.000909902536792265
5.42700e-06;-0.0008860853007225945
5.42725e-06;-0.0008615714393095827
5.42750e-06;-0.000833799196407736
5.42775e-06;-0.0008055656140859394
5.42800e-06;-0.0007749023151688304
5.42825e-06;-0.0007427368074454082
5.42850e-06;-0.0007093140116301855
5.42875e-06;-0.0006749220837039829
5.42900e-06;-0.0006398052480711193
5.42925e-06;-0.000604167890014931
5.42950e-06;-0.000568211757288387
5.42975e-06;-0.0005321385771389797
5.43000e-06;-0.0004961519391423206
5.43025e-06;-0.0004604731531841328
5.43050e-06;-0.00042537035372804946
5.43075e-06;-0.0003911386608579603
5.43100e-06;-0.0003580457798383648
5.43125e-06;-0.0003263344253676941
5.43150e-06;-0.00029624551548224244
5.43175e-06;-0.0002680200676006308
5.43200e-06;-0.00024190250447940942
5.43225e-06;-0.0002181630220116854
5.43250e-06;-0.00019710940010561086
5.43275e-06;-0.00017899184643159312
5.43300e-06;-0.00016391421128096376
5.43325e-06;-0.00015190293713122409
5.43350e-06;-0.00014298039796547607
5.43375e-06;-0.00013716899091752928
5.43400e-06;-0.00013449324722436003
5.43425e-06;-0.00013499384291969447
5.43450e-06;-0.00013873497747058841
5.43475e-06;-0.0001457447801047995
5.43500e-06;-0.00015595971601460625
5.43525e-06;-0.00016926772106239552
5.43550e-06;-0.00018555421603089426
5.43575e-06;-0.00020470463112825333
5.43600e-06;-0.00022660575585347614
5.43625e-06;-0.00025115448205806373
5.43650e-06;-0.0002782624492550232
5.43675e-06;-0.00030781868289250287
5.43700e-06;-0.0003396548020536327
5.43725e-06;-0.0003737231774616142
5.43750e-06;-0.00041007696126001825
5.43775e-06;-0.0004469650467982607
5.43800e-06;-0.0004863522646375092
5.43825e-06;-0.0005262093819272001
5.43850e-06;-0.0005682643975347691
5.43875e-06;-0.0006103194131421957
5.43900e-06;-0.0006526179713989299
5.43925e-06;-0.0006960556711863957
5.43950e-06;-0.0007394933709737145
5.43975e-06;-0.0007827749345752304
5.44000e-06;-0.0008253261898944979
5.44025e-06;-0.0008678774452137655
5.44050e-06;-0.0009100050392590266
5.44075e-06;-0.0009501510085101973
5.44100e-06;-0.0009895509487644833
5.44125e-06;-0.0010254614278681303
5.44150e-06;-0.0010613719069716557
5.44175e-06;-0.0010960462626542382
5.44200e-06;-0.001124938799301954
5.44225e-06;-0.0011538313359495719
5.44250e-06;-0.0011818310526197477
