Time(s);Current(A)
1.30000e-05;-0.003882069335427849
1.30003e-05;-0.0038769726514718433
1.30005e-05;-0.0038718759675158724
1.30008e-05;-0.0038667792835598673
1.30010e-05;-0.0038639909446047988
1.30013e-05;-0.003861688355371188
1.30015e-05;-0.003859385766137562
1.30018e-05;-0.0038570831769039362
1.30020e-05;-0.0038547805876703255
1.30023e-05;-0.0038524779984366996
1.30025e-05;-0.0038501754092030737
1.30028e-05;-0.0038478728199694634
1.30030e-05;-0.003845570230735837
1.30033e-05;-0.003843267641502211
1.30035e-05;-0.003840965052268601
1.30038e-05;-0.003839275598049786
1.30040e-05;-0.0038377151670760177
1.30043e-05;-0.0038361547361022603
1.30045e-05;-0.0038353155660359713
1.30048e-05;-0.0038346281723656873
1.30050e-05;-0.003833940778695408
1.30053e-05;-0.003834623224756605
1.30055e-05;-0.0038355939289715195
1.30058e-05;-0.003836564633186434
1.30060e-05;-0.0038375353374013417
1.30063e-05;-0.0038385060416162562
1.30065e-05;-0.0038394767458311708
1.30068e-05;-0.0038404474500460784
1.30070e-05;-0.0038433793614372986
1.30073e-05;-0.00384672397363339
1.30075e-05;-0.003850068585829458
1.30078e-05;-0.003853413198025549
1.30080e-05;-0.0038567578102216404
1.30083e-05;-0.0038601024224177087
1.30085e-05;-0.0038634470346138
1.30088e-05;-0.003868318956374198
1.30090e-05;-0.0038735122729846925
1.30093e-05;-0.0038787055895952226
1.30095e-05;-0.0038838989062057526
1.30098e-05;-0.0038890922228162475
1.30100e-05;-0.0038942855394267775
1.30103e-05;-0.0038994788560373075
1.30105e-05;-0.0039046721726478024
1.30108e-05;-0.003910167147383887
1.30110e-05;-0.003915725600651327
1.30113e-05;-0.003921284053918729
1.30115e-05;-0.00392684250718617
1.30118e-05;-0.00393240096045361
1.30120e-05;-0.003937959413721013
1.30123e-05;-0.003943517866988453
1.30125e-05;-0.003949076320255893
1.30128e-05;-0.003954039175449971
1.30130e-05;-0.003958876697733167
1.30133e-05;-0.003963368945770958
1.30135e-05;-0.003967511548239083
1.30138e-05;-0.003971285789805888
1.30140e-05;-0.0039749890113590924
1.30143e-05;-0.003979573920424051
1.30145e-05;-0.003986000782570366
1.30148e-05;-0.003994574658030214
1.30150e-05;-0.004005968537224032
1.30153e-05;-0.004017876194832341
1.30155e-05;-0.0040326120235995465
1.30158e-05;-0.004047942990161579
1.30160e-05;-0.004067235409644109
1.30163e-05;-0.004087361445701979
1.30165e-05;-0.004107487481759848
1.30168e-05;-0.004135445017351527
1.30170e-05;-0.004165050551279206
1.30173e-05;-0.0041946560852068855
1.30175e-05;-0.0042242616191343636
1.30178e-05;-0.004253867153062043
1.30180e-05;-0.004291334244938875
1.30183e-05;-0.00433045566040468
1.30185e-05;-0.00436957707587075
1.30188e-05;-0.00440869849133682
1.30190e-05;-0.004447819906802626
1.30193e-05;-0.004491857129874028
1.30195e-05;-0.004536928796313402
1.30198e-05;-0.004582000462752471
1.30200e-05;-0.004628893587086508
1.30203e-05;-0.004676170004500855
1.30205e-05;-0.0047234464219148824
1.30208e-05;-0.004771591378777304
1.30210e-05;-0.004819919104157963
1.30213e-05;-0.0048682468295382945
1.30215e-05;-0.0049153844006863375
1.30218e-05;-0.004962271525264495
1.30220e-05;-0.005009158649842336
1.30223e-05;-0.005053180094360579
1.30225e-05;-0.005096598508009582
1.30228e-05;-0.005140016921658585
1.30230e-05;-0.005172846711390051
1.30233e-05;-0.005203448315507338
1.30235e-05;-0.005234049919624627
1.30238e-05;-0.005264651523741707
1.30240e-05;-0.005295253127858994
1.30243e-05;-0.005325854731976281
1.30245e-05;-0.005356456336093361
1.30248e-05;-0.00538705794021065
1.30250e-05;-0.005417659544327937
1.30253e-05;-0.005433235616896448
1.30255e-05;-0.005445649836375214
1.30258e-05;-0.00545806405585398
1.30260e-05;-0.005470478275332662
1.30263e-05;-0.0054828924948114284
1.30265e-05;-0.005495306714290194
1.30268e-05;-0.005507720933768876
1.30270e-05;-0.005520135153247643
1.30273e-05;-0.005532549372726408
1.30275e-05;-0.005533828171860446
1.30278e-05;-0.005532763721897802
1.30280e-05;-0.005531699271935158
1.30283e-05;-0.005530634821972521
1.30285e-05;-0.005529570372009877
1.30288e-05;-0.005528505922047233
1.30290e-05;-0.005527441472084596
1.30293e-05;-0.0055263770221219526
1.30295e-05;-0.005525312572159308
1.30298e-05;-0.005518244389747731
1.30300e-05;-0.005509912829735351
1.30303e-05;-0.0055015812697229724
1.30305e-05;-0.005493249709710649
1.30308e-05;-0.0054849181496982695
1.30310e-05;-0.00547658658968589
1.30313e-05;-0.00546825502967351
1.30315e-05;-0.005459923469661187
1.30318e-05;-0.005451591909648807
1.30320e-05;-0.005442119706542987
1.30323e-05;-0.005432407475596717
1.30325e-05;-0.00542269524465038
1.30328e-05;-0.005413334975570106
1.30330e-05;-0.005404701881395644
1.30333e-05;-0.005396068787221122
1.30335e-05;-0.005387435693046601
1.30338e-05;-0.005379689897350613
1.30340e-05;-0.0053721308176737466
1.30343e-05;-0.00536457173799688
1.30345e-05;-0.005354362798707936
1.30348e-05;-0.005343596244084094
1.30350e-05;-0.005332829689460252
1.30353e-05;-0.005318932135403207
1.30355e-05;-0.0053043757187823965
1.30358e-05;-0.005289819302161586
1.30360e-05;-0.005270286191692373
1.30363e-05;-0.00524970582543852
1.30365e-05;-0.005229125459184667
1.30368e-05;-0.005208545092930954
1.30370e-05;-0.005187964726677101
1.30373e-05;-0.005164684473931458
1.30375e-05;-0.005135826089306176
1.30378e-05;-0.005106967704680698
1.30380e-05;-0.00507810932005522
1.30383e-05;-0.005049250935429937
1.30385e-05;-0.005020392550804459
1.30388e-05;-0.004987226108861377
1.30390e-05;-0.004953153113675756
1.30393e-05;-0.0049183800914630715
1.30395e-05;-0.004882160770271761
1.30398e-05;-0.00484594144908045
1.30400e-05;-0.0048090140367741405
1.30403e-05;-0.004771388835338362
1.30405e-05;-0.004733648152155288
1.30408e-05;-0.004695471403950671
1.30410e-05;-0.004657202893698434
1.30413e-05;-0.004619219643449429
1.30415e-05;-0.004581296421041987
1.30418e-05;-0.004544054321811253
1.30420e-05;-0.004507615709375635
1.30423e-05;-0.004472043495378281
1.30425e-05;-0.004437433404691141
1.30428e-05;-0.004403963791790135
1.30430e-05;-0.004371865546476099
1.30433e-05;-0.004341375933207652
1.30435e-05;-0.004312732358286942
1.30438e-05;-0.004286173463090711
1.30440e-05;-0.004261947749525976
1.30443e-05;-0.0042402988186452635
1.30445e-05;-0.004221392257688775
1.30448e-05;-0.004205302141420188
1.30450e-05;-0.0041932600328745614
1.30453e-05;-0.004181966349673563
1.30455e-05;-0.004175503428253205
1.30458e-05;-0.004170057053836836
1.30460e-05;-0.004170805482852969
1.30463e-05;-0.004172857496925714
1.30465e-05;-0.00417490951099846
1.30468e-05;-0.004186399585345884
1.30470e-05;-0.004199875729868331
1.30473e-05;-0.004213351874390777
1.30475e-05;-0.004226828018913133
1.30478e-05;-0.00424030416343558
1.30480e-05;-0.004263802455561387
1.30482e-05;-0.0042894097285438105
1.30485e-05;-0.0043150170015264075
1.30488e-05;-0.004340624274509005
1.30490e-05;-0.004366231547491602
1.30493e-05;-0.004399318403158485
1.30495e-05;-0.004433979202587306
1.30498e-05;-0.004468640002016126
1.30500e-05;-0.004503300801444712
1.30503e-05;-0.004537961600873532
1.30505e-05;-0.004572622400302353
1.30508e-05;-0.004610018528343435
1.30510e-05;-0.004647990257135228
1.30513e-05;-0.004685961985927022
1.30515e-05;-0.004723933714718557
1.30518e-05;-0.004761905443510351
1.30520e-05;-0.004799877172302144
1.30523e-05;-0.004835775203853017
1.30525e-05;-0.004871236863085792
1.30528e-05;-0.004906698522318568
1.30530e-05;-0.0049383515854193125
1.30533e-05;-0.004969203197907742
1.30535e-05;-0.005000054810396171
1.30538e-05;-0.005025237641719389
1.30540e-05;-0.005049227579918909
1.30543e-05;-0.005073217518118429
1.30545e-05;-0.005090504711832626
1.30548e-05;-0.005106381433423383
1.30550e-05;-0.005122258155014141
1.30553e-05;-0.00513103921836389
1.30555e-05;-0.00513832712795113
1.30558e-05;-0.005145615037538372
1.30560e-05;-0.005142629693312525
1.30563e-05;-0.005137482527439678
1.30565e-05;-0.005132335361566832
1.30567e-05;-0.00512718819569402
1.30570e-05;-0.005122041029821173
1.30573e-05;-0.005112214480427872
1.30575e-05;-0.005092720036295997
1.30578e-05;-0.005073225592164254
1.30580e-05;-0.0050537311480323786
1.30583e-05;-0.005034236703900503
1.30585e-05;-0.00501474225976876
1.30588e-05;-0.004986609842668882
1.30590e-05;-0.004956659719388595
1.30593e-05;-0.004926709596108511
1.30595e-05;-0.004896759472828224
1.30598e-05;-0.004866809349547937
1.30600e-05;-0.0048321347974139
1.30603e-05;-0.0047964660741287015
1.30605e-05;-0.004760797350843503
1.30608e-05;-0.004725128627558547
1.30610e-05;-0.004689459904273349
1.30613e-05;-0.004652730929378181
1.30615e-05;-0.004615778843585413
1.30618e-05;-0.004579061428867168
1.30620e-05;-0.0045427823349128435
1.30623e-05;-0.004507161761380047
1.30625e-05;-0.004472437338056855
1.30628e-05;-0.004438848880506477
1.30630e-05;-0.004408551878683955
1.30633e-05;-0.00437890442193581
1.30635e-05;-0.004349256965187665
1.30638e-05;-0.0043215181996775496
1.30640e-05;-0.004297722907896124
1.30643e-05;-0.004273927616114699
1.30645e-05;-0.0042501323243334345
1.30648e-05;-0.004229207713797752
1.30650e-05;-0.004208887186542217
1.30652e-05;-0.004188566659286819
1.30655e-05;-0.004168246132031284
1.30658e-05;-0.004147925604775749
1.30660e-05;-0.004127605077520214
1.30663e-05;-0.0041072845502648165
1.30665e-05;-0.004089436093176464
1.30668e-05;-0.004072107838830128
1.30670e-05;-0.004054779584483909
1.30673e-05;-0.004037451330137572
1.30675e-05;-0.004020123075791236
1.30678e-05;-0.004002794821445016
1.30680e-05;-0.00398546656709868
1.30683e-05;-0.0039692080594304
1.30685e-05;-0.003953174660726622
1.30688e-05;-0.003937141262022735
1.30690e-05;-0.003921107863318848
1.30693e-05;-0.0039050744646150696
1.30695e-05;-0.003889041065911183
1.30698e-05;-0.003873408094218311
1.30700e-05;-0.003858602429408561
1.30703e-05;-0.0038437967645987103
1.30705e-05;-0.00382899109978886
1.30708e-05;-0.0038141854349791095
1.30710e-05;-0.003799379770169259
1.30713e-05;-0.0037845741053594084
1.30715e-05;-0.0037709513839975775
1.30718e-05;-0.003757577591826099
1.30720e-05;-0.003744203799654621
1.30723e-05;-0.003731731663764278
1.30725e-05;-0.0037194492652349274
1.30728e-05;-0.003707843084872193
1.30730e-05;-0.0036963792024706853
1.30733e-05;-0.0036861246455173946
1.30735e-05;-0.003676124569372461
1.30737e-05;-0.0036661244932275953
1.30740e-05;-0.003657823217663347
1.30743e-05;-0.00364987942415295
1.30745e-05;-0.0036419356306425527
1.30748e-05;-0.0036364917252559954
1.30750e-05;-0.0036315738764007336
1.30753e-05;-0.003626656027545472
1.30755e-05;-0.0036217381786902434
1.30758e-05;-0.0036168203298349816
1.30760e-05;-0.0036119024809797198
1.30763e-05;-0.0036069846321244914
1.30765e-05;-0.0036054068066641238
1.30768e-05;-0.0036045318291052716
1.30770e-05;-0.0036036568515464256
1.30773e-05;-0.0036027818739875735
1.30775e-05;-0.0036019068964287214
1.30778e-05;-0.0036010319188698754
1.30780e-05;-0.0036001569413110232
1.30783e-05;-0.003601869321351375
1.30785e-05;-0.0036041261643023417
1.30788e-05;-0.0036063830072533237
1.30790e-05;-0.0036086398502043057
1.30793e-05;-0.003610896693155272
1.30795e-05;-0.003613153536106254
1.30798e-05;-0.003615410379057236
1.30800e-05;-0.003618200418271153
1.30803e-05;-0.0036220920738255307
1.30805e-05;-0.0036259837293799086
1.30808e-05;-0.0036298753849342597
1.30810e-05;-0.003633767040488637
1.30813e-05;-0.0036376586960430147
1.30815e-05;-0.003641550351597366
1.30818e-05;-0.0036454420071517436
1.30820e-05;-0.0036494493568283164
1.30822e-05;-0.0036534810522537995
1.30825e-05;-0.0036574000860356342
1.30828e-05;-0.00366108635391822
1.30830e-05;-0.0036647726218008055
1.30833e-05;-0.0036681531632848643
1.30835e-05;-0.003671254319108373
1.30838e-05;-0.0036740692025713844
1.30840e-05;-0.0036768570274336373
1.30843e-05;-0.0036804396338180547
1.30845e-05;-0.003685644554794863
1.30848e-05;-0.0036934697072868628
1.30850e-05;-0.003701781761265306
1.30853e-05;-0.003712812729703763
1.30855e-05;-0.003724415844830175
1.30858e-05;-0.0037383913498747635
1.30860e-05;-0.003752866081744759
1.30863e-05;-0.003771468363641854
1.30865e-05;-0.0037909392142684815
1.30868e-05;-0.003810410064895109
1.30870e-05;-0.003836779837096071
1.30873e-05;-0.003864601363366092
1.30875e-05;-0.0038924228896361135
1.30878e-05;-0.003920244415905946
1.30880e-05;-0.003948065942175967
1.30883e-05;-0.0039786930192352125
1.30885e-05;-0.004015116537134045
1.30888e-05;-0.004051540055033125
1.30890e-05;-0.004087963572932204
1.30893e-05;-0.004124387090831037
1.30895e-05;-0.0041608106087301176
1.30898e-05;-0.004200629582758938
1.30900e-05;-0.0042411630695123655
1.30903e-05;-0.004281696556266068
1.30905e-05;-0.0043233840348237676
1.30907e-05;-0.00436531435021868
1.30910e-05;-0.004407244665613876
1.30913e-05;-0.004448776553124308
1.30915e-05;-0.004490224598646283
1.30918e-05;-0.004531672644167977
1.30920e-05;-0.004571042247734302
1.30923e-05;-0.004609974480541382
1.30925e-05;-0.004648906713348198
1.30928e-05;-0.00468440005314416
1.30930e-05;-0.0047191697397039965
1.30933e-05;-0.004753939426263597
1.30935e-05;-0.004779234095064336
1.30938e-05;-0.004802534916646834
1.30940e-05;-0.004825835738229173
1.30943e-05;-0.0048491365598116705
1.30945e-05;-0.004872437381394167
1.30948e-05;-0.004895738202976507
1.30950e-05;-0.004919039024559004
1.30953e-05;-0.0049370348566979035
1.30955e-05;-0.004944070253691022
1.30958e-05;-0.004951105650684189
1.30960e-05;-0.004958141047677355
1.30963e-05;-0.004965176444670475
1.30965e-05;-0.004972211841663641
1.30968e-05;-0.004979247238656808
1.30970e-05;-0.004986282635649927
1.30973e-05;-0.004982129124642318
1.30975e-05;-0.00497562110901394
1.30978e-05;-0.0049691130933856055
1.30980e-05;-0.004962605077757228
1.30983e-05;-0.004956097062128849
1.30985e-05;-0.004949589046500515
1.30988e-05;-0.004943081030872137
1.30990e-05;-0.0049292528714980945
1.30992e-05;-0.004913884319417961
1.30995e-05;-0.004898515767337724
1.30998e-05;-0.004883147215257486
1.31000e-05;-0.004867778663177249
1.31003e-05;-0.004852410111097116
1.31005e-05;-0.004837041559016878
1.31008e-05;-0.004819065355144611
1.31010e-05;-0.004800540417813059
1.31013e-05;-0.004782015480481383
1.31015e-05;-0.004763176878970092
1.31018e-05;-0.004744272272468959
1.31020e-05;-0.004725367665967698
1.31023e-05;-0.004707149504418791
1.31025e-05;-0.004689075792874638
1.31028e-05;-0.004671002081330363
1.31030e-05;-0.004654332164460732
1.31033e-05;-0.004637957650953954
1.31035e-05;-0.004623181593701681
1.31038e-05;-0.0046087419028435555
1.31040e-05;-0.004597090309529659
1.31043e-05;-0.004586025421241082
1.31045e-05;-0.0045749605329525045
1.31048e-05;-0.004568110747519056
1.31050e-05;-0.004562147954735068
1.31053e-05;-0.004556185161951078
1.31055e-05;-0.00455719565122376
1.31058e-05;-0.004559673542393826
1.31060e-05;-0.0045621514335638935
1.31063e-05;-0.0045646293247339435
1.31065e-05;-0.00456710721590401
1.31068e-05;-0.004569585107074076
1.31070e-05;-0.00457565126820533
1.31073e-05;-0.004589131016229734
1.31075e-05;-0.004602610764254138
1.31077e-05;-0.004616090512278452
1.31080e-05;-0.004629570260302856
1.31083e-05;-0.00464305000832726
1.31085e-05;-0.004656529756351665
1.31088e-05;-0.004676873728430118
1.31090e-05;-0.00469866215310933
1.31093e-05;-0.004720450577788541
1.31095e-05;-0.004742239002467605
1.31098e-05;-0.004764027427146816
1.31100e-05;-0.004785815851826027
1.31103e-05;-0.004807604276505091
1.31105e-05;-0.004831949626652516
1.31108e-05;-0.0048568330358162975
1.31110e-05;-0.00488171644497991
1.31113e-05;-0.004906599854143692
1.31115e-05;-0.0049314832633074734
1.31118e-05;-0.004956366672471086
1.31120e-05;-0.004981250081634868
1.31123e-05;-0.005004707108346184
1.31125e-05;-0.005027863978502554
1.31128e-05;-0.00505102084865908
1.31130e-05;-0.005066771730523047
1.31133e-05;-0.005080964155237524
1.31135e-05;-0.005095156579952096
1.31138e-05;-0.005109349004666669
1.31140e-05;-0.005123541429381145
1.31143e-05;-0.005137733854095718
1.31145e-05;-0.00515192627881029
1.31148e-05;-0.005166118703524767
1.31150e-05;-0.00518031112823934
1.31153e-05;-0.005194503552953912
1.31155e-05;-0.005208695977668389
1.31158e-05;-0.005222888402382961
1.31160e-05;-0.005237080827097534
1.31162e-05;-0.005241933816525605
1.31165e-05;-0.0052448214896284985
1.31168e-05;-0.005247709162731392
1.31170e-05;-0.005250596835834286
1.31173e-05;-0.005253484508937161
1.31175e-05;-0.0052563721820400545
1.31178e-05;-0.005259259855142948
1.31180e-05;-0.005262147528245823
1.31183e-05;-0.005265035201348717
1.31185e-05;-0.0052679228744516105
1.31188e-05;-0.005270810547554484
1.31190e-05;-0.005273698220657378
1.31193e-05;-0.005276585893760273
1.31195e-05;-0.0052748602807578425
1.31198e-05;-0.005272163884595727
1.31200e-05;-0.005269467488433612
1.31203e-05;-0.005266771092271515
1.31205e-05;-0.005264074696109401
1.31208e-05;-0.0052613782999472855
1.31210e-05;-0.0052586819037851885
1.31213e-05;-0.005255985507623073
1.31215e-05;-0.005253289111460959
1.31218e-05;-0.005250592715298862
1.31220e-05;-0.005247896319136747
1.31223e-05;-0.005245199922974632
1.31225e-05;-0.005242503526812535
1.31228e-05;-0.00523980713065042
1.31230e-05;-0.005237110734488305
1.31233e-05;-0.005235590873941347
1.31235e-05;-0.0052343185941721646
1.31238e-05;-0.005233046314402981
1.31240e-05;-0.005231774034633806
1.31243e-05;-0.0052305017548646224
1.31245e-05;-0.00522922947509544
1.31247e-05;-0.005227957195326265
1.31250e-05;-0.005226684915557081
1.31253e-05;-0.005225412635787898
1.31255e-05;-0.005224140356018715
1.31258e-05;-0.00522286807624954
1.31260e-05;-0.005221595796480356
1.31263e-05;-0.005220323516711174
1.31265e-05;-0.005219051236941999
1.31268e-05;-0.005217778957172815
1.31270e-05;-0.005220208432794044
1.31273e-05;-0.0052234168763164775
1.31275e-05;-0.005226625319838933
1.31278e-05;-0.005229833763361388
1.31280e-05;-0.005233042206883821
1.31283e-05;-0.005236250650406276
1.31285e-05;-0.005239459093928731
1.31288e-05;-0.005242667537451164
1.31290e-05;-0.005245875980973619
1.31293e-05;-0.005249084424496074
1.31295e-05;-0.005252292868018507
1.31298e-05;-0.005255501311540962
1.31300e-05;-0.00525917362092787
1.31303e-05;-0.005263804305780439
1.31305e-05;-0.005268434990633039
1.31308e-05;-0.005273065675485638
1.31310e-05;-0.005277696360338207
1.31313e-05;-0.0052823270451908075
1.31315e-05;-0.005286957730043408
1.31318e-05;-0.005291588414895976
1.31320e-05;-0.005296219099748576
1.31323e-05;-0.005300849784601176
1.31325e-05;-0.005305480469453745
1.31328e-05;-0.005310111154306346
1.31330e-05;-0.005314741839158945
1.31332e-05;-0.005316691068625169
1.31335e-05;-0.005318076033991011
1.31338e-05;-0.005319460999356852
1.31340e-05;-0.005320845964722694
1.31343e-05;-0.005322230930088527
1.31345e-05;-0.005323615895454368
1.31348e-05;-0.00532500086082021
1.31350e-05;-0.005326385826186043
1.31353e-05;-0.005327770791551884
1.31355e-05;-0.005329155756917726
1.31358e-05;-0.005330540722283558
1.31360e-05;-0.0053319256876494
1.31363e-05;-0.005333310653015242
1.31365e-05;-0.005334695618381074
1.31368e-05;-0.005336080583746915
1.31370e-05;-0.0053374655491127574
1.31373e-05;-0.00533885051447859
1.31375e-05;-0.005340235479844431
1.31378e-05;-0.005341620445210273
1.31380e-05;-0.005343005410576106
1.31383e-05;-0.005344390375941947
1.31385e-05;-0.005343672424680313
1.31388e-05;-0.005342511952403655
1.31390e-05;-0.0053413514801269905
1.31393e-05;-0.005340191007850325
1.31395e-05;-0.005339030535573668
1.31398e-05;-0.005337870063297003
1.31400e-05;-0.005336709591020337
1.31403e-05;-0.00533554911874368
1.31405e-05;-0.005334388646467014
1.31408e-05;-0.005333228174190349
1.31410e-05;-0.0053320677019136915
1.31413e-05;-0.005330907229637027
1.31415e-05;-0.005329746757360361
1.31418e-05;-0.005328586285083704
1.31420e-05;-0.005327425812807038
1.31423e-05;-0.005326265340530373
1.31425e-05;-0.005325104868253707
1.31428e-05;-0.00532394439597705
1.31430e-05;-0.0053227839237003855
1.31433e-05;-0.00532162345142372
1.31435e-05;-0.005320462979147063
1.31438e-05;-0.005318835637835547
1.31440e-05;-0.0053171100523252135
1.31443e-05;-0.005315384466814892
1.31445e-05;-0.005309020784296809
1.31448e-05;-0.005301681097609306
1.31450e-05;-0.005294341410921852
1.31453e-05;-0.005287001724234348
1.31455e-05;-0.005279662037546845
1.31458e-05;-0.005272322350859391
1.31460e-05;-0.005264982664171887
