Time(s);Current(A)
1.35000e-05;-0.012456464574007902
1.35003e-05;-0.012475056208363835
1.35005e-05;-0.012493647842719894
1.35008e-05;-0.012512523165150143
1.35010e-05;-0.012531451054715769
1.35013e-05;-0.012550378944281269
1.35015e-05;-0.012568792836830154
1.35018e-05;-0.012587111486211553
1.35020e-05;-0.012604781124327873
1.35023e-05;-0.01262233050126264
1.35025e-05;-0.0126390018272427
1.35028e-05;-0.012655510451200223
1.35030e-05;-0.012670802768332018
1.35033e-05;-0.012685869704944147
1.35035e-05;-0.012699377757355631
1.35038e-05;-0.012712596949979723
1.35040e-05;-0.01272393982432211
1.35043e-05;-0.012734935018637946
1.35045e-05;-0.01274340226431415
1.35048e-05;-0.012751401083466663
1.35050e-05;-0.012759399902619123
1.35053e-05;-0.012764262357809746
1.35055e-05;-0.012768543647685263
1.35058e-05;-0.012772824937560752
1.35060e-05;-0.012772398145717755
1.35063e-05;-0.012771098950726164
1.35065e-05;-0.012769799755734583
1.35068e-05;-0.012768500560742992
1.35070e-05;-0.012767201365751402
1.35073e-05;-0.012765902170759822
1.35075e-05;-0.01275924025173471
1.35078e-05;-0.012751584624950933
1.35080e-05;-0.012743928998167207
1.35083e-05;-0.01273627337138343
1.35085e-05;-0.012728617744599654
1.35088e-05;-0.012720962117815928
1.35090e-05;-0.01270964827277436
1.35093e-05;-0.012697656563303612
1.35095e-05;-0.012685664853832945
1.35098e-05;-0.012673673144362196
1.35100e-05;-0.012661681434891447
1.35103e-05;-0.012649689725420698
1.35105e-05;-0.012637307485412703
1.35108e-05;-0.012624179419120527
1.35110e-05;-0.012611051352828351
1.35113e-05;-0.012597923286536266
1.35115e-05;-0.01258479522024409
1.35118e-05;-0.012571667153951914
1.35120e-05;-0.012558539087659826
1.35123e-05;-0.012546735879528079
1.35125e-05;-0.0125351781663771
1.35128e-05;-0.0125236204532262
1.35130e-05;-0.012517335465522559
1.35133e-05;-0.012512027508923856
1.35135e-05;-0.012506719552325189
1.35138e-05;-0.012501411595726484
1.35140e-05;-0.012496103639127782
1.35143e-05;-0.012490795682529114
1.35145e-05;-0.01248548772593041
1.35148e-05;-0.012480179769331707
1.35150e-05;-0.012474871812733039
1.35153e-05;-0.012469563856134335
1.35155e-05;-0.01246425589953563
1.35158e-05;-0.012458947942936964
1.35160e-05;-0.01245363998633826
1.35163e-05;-0.012448332029739556
1.35165e-05;-0.01244302407314089
1.35168e-05;-0.012437716116542185
1.35170e-05;-0.01243750227961207
1.35173e-05;-0.012438232378302903
1.35175e-05;-0.012438962476993741
1.35178e-05;-0.01243969257568458
1.35180e-05;-0.012440422674375413
1.35183e-05;-0.01244115277306625
1.35185e-05;-0.01244188287175709
1.35188e-05;-0.012442612970447927
1.35190e-05;-0.012443343069138761
1.35193e-05;-0.012444073167829599
1.35195e-05;-0.012444803266520437
1.35198e-05;-0.012445533365211271
1.35200e-05;-0.012446263463902109
1.35203e-05;-0.012446993562592948
1.35205e-05;-0.01244772366128378
1.35208e-05;-0.012448453759974618
1.35210e-05;-0.01245075996158399
1.35213e-05;-0.012453358213593436
1.35215e-05;-0.012455956465602897
1.35218e-05;-0.01245855471761236
1.35220e-05;-0.012461152969621804
1.35223e-05;-0.012463751221631268
1.35225e-05;-0.012466349473640729
1.35228e-05;-0.012468947725650175
1.35230e-05;-0.012471545977659636
1.35233e-05;-0.0124741442296691
1.35235e-05;-0.012476742481678543
1.35238e-05;-0.012479340733688006
1.35240e-05;-0.01248193898569747
1.35243e-05;-0.012484118519420809
1.35245e-05;-0.012485498394542103
1.35248e-05;-0.012486878269663397
1.35250e-05;-0.012488258144784681
1.35253e-05;-0.012489638019905975
1.35255e-05;-0.01249101789502727
1.35258e-05;-0.012492397770148553
1.35260e-05;-0.012493777645269847
1.35263e-05;-0.012495157520391141
1.35265e-05;-0.012496537395512427
1.35268e-05;-0.012497917270633721
1.35270e-05;-0.012499297145755013
1.35273e-05;-0.012500677020876308
1.35275e-05;-0.012502056895997593
1.35278e-05;-0.012501856334692698
1.35280e-05;-0.012501362919992666
1.35283e-05;-0.012500869505292637
1.35285e-05;-0.012500376090592605
1.35288e-05;-0.012499882675892573
1.35290e-05;-0.012499389261192545
1.35293e-05;-0.012498895846492513
1.35295e-05;-0.01249840243179248
1.35298e-05;-0.012497909017092452
1.35300e-05;-0.01249741560239242
1.35303e-05;-0.012496666904690038
1.35305e-05;-0.012495870903285518
1.35308e-05;-0.012495074901880994
1.35310e-05;-0.012494278900476467
1.35313e-05;-0.012493482899071947
1.35315e-05;-0.012492686897667422
1.35318e-05;-0.012491890896262896
1.35320e-05;-0.012491094894858376
1.35323e-05;-0.012490298893453851
1.35325e-05;-0.012489502892049325
1.35328e-05;-0.012489229949723483
1.35330e-05;-0.01248905392975688
1.35333e-05;-0.012489235415995472
1.35335e-05;-0.012489483147800318
1.35338e-05;-0.012490603037600252
1.35340e-05;-0.012491884537462928
1.35343e-05;-0.012495114642575874
1.35345e-05;-0.012498705822423604
1.35348e-05;-0.012504340680600357
1.35350e-05;-0.012510354230464609
1.35353e-05;-0.01251824331288229
1.35355e-05;-0.012526479929732189
1.35358e-05;-0.0125366914737178
1.35360e-05;-0.012547268969858923
1.35363e-05;-0.012560850958624895
1.35365e-05;-0.012574989677070991
1.35368e-05;-0.01258912839551699
1.35370e-05;-0.012606404001742946
1.35373e-05;-0.012624260870347766
1.35375e-05;-0.012642117738952463
1.35378e-05;-0.012662694797628365
1.35380e-05;-0.012683775904986504
1.35383e-05;-0.012704857012344499
1.35385e-05;-0.01272772276972615
1.35388e-05;-0.01275166880553109
1.35390e-05;-0.012776397249802377
1.35393e-05;-0.012801780016808997
1.35395e-05;-0.012827691726947187
1.35398e-05;-0.012854043726476248
1.35400e-05;-0.012880803559869147
1.35403e-05;-0.01290792201503987
1.35405e-05;-0.012935283002772946
1.35408e-05;-0.01296274400304548
1.35410e-05;-0.012990159729535652
1.35413e-05;-0.01301738253873786
1.35415e-05;-0.013044269064730657
1.35418e-05;-0.013070696458358027
1.35420e-05;-0.013096578510903026
1.35423e-05;-0.01312181784261028
1.35425e-05;-0.013146276155701221
1.35428e-05;-0.013169325334045105
1.35430e-05;-0.013192136683526449
1.35433e-05;-0.013212196806683887
1.35435e-05;-0.013231747130170083
1.35438e-05;-0.013251297453656411
1.35440e-05;-0.013267858082394095
1.35443e-05;-0.013283864723484012
1.35445e-05;-0.013299871364573819
1.35448e-05;-0.013313236126475883
1.35450e-05;-0.013326111350629085
1.35453e-05;-0.013338986574782198
1.35455e-05;-0.013347656583089286
1.35458e-05;-0.013355547368823153
1.35460e-05;-0.013363438154556968
1.35463e-05;-0.013371328940290835
1.35465e-05;-0.013379219726024703
1.35468e-05;-0.013387110511758516
1.35470e-05;-0.013390475111789578
1.35473e-05;-0.013393001013832364
1.35475e-05;-0.013395526915875134
1.35478e-05;-0.01339805281791792
1.35480e-05;-0.013400578719960705
1.35483e-05;-0.013403104622003476
1.35485e-05;-0.013402358360109277
1.35488e-05;-0.013401005769290077
1.35490e-05;-0.013399653178470885
1.35493e-05;-0.013398300587651686
1.35495e-05;-0.013396947996832486
1.35498e-05;-0.013395595406013296
1.35500e-05;-0.013392430533738807
1.35503e-05;-0.013388929847401252
1.35505e-05;-0.013385429161063722
1.35508e-05;-0.013381928474726168
1.35510e-05;-0.013378427788388613
1.35513e-05;-0.013374927102051083
1.35515e-05;-0.013371051492539426
1.35518e-05;-0.013367106410113355
1.35520e-05;-0.013363311401720675
1.35523e-05;-0.013359544201906355
1.35525e-05;-0.013356313654263697
1.35528e-05;-0.01335318254776784
1.35530e-05;-0.013350051441272005
1.35533e-05;-0.013347829421983481
1.35535e-05;-0.013345775855706454
1.35538e-05;-0.013343722289429441
1.35540e-05;-0.013341872750503178
1.35543e-05;-0.013340061017654694
1.35545e-05;-0.01333824928480622
1.35548e-05;-0.01333612954661178
1.35550e-05;-0.013333952735314045
1.35553e-05;-0.013331775924016326
1.35555e-05;-0.013329408049878564
1.35558e-05;-0.013327004771974769
1.35560e-05;-0.013324601494070991
1.35563e-05;-0.013322198216167196
1.35565e-05;-0.013319275964970035
1.35568e-05;-0.013315684027562303
1.35570e-05;-0.013311985817258702
1.35573e-05;-0.013308287606955101
1.35575e-05;-0.013304589396651526
1.35578e-05;-0.013300891186347927
1.35580e-05;-0.013297192976044326
1.35583e-05;-0.01329317110451021
1.35585e-05;-0.01328853111216308
1.35588e-05;-0.01328389111981595
1.35590e-05;-0.013279251127468852
1.35593e-05;-0.013274611135121722
1.35595e-05;-0.013269971142774591
1.35598e-05;-0.013265331150427492
1.35600e-05;-0.013260473108508208
1.35603e-05;-0.013255574662206589
1.35605e-05;-0.013250676215905003
1.35608e-05;-0.0132458558185771
1.35610e-05;-0.013241049883651225
1.35613e-05;-0.01323624394872535
1.35615e-05;-0.013231847901866161
1.35618e-05;-0.013227527806883379
1.35620e-05;-0.013223207711900595
1.35623e-05;-0.013219455960115688
1.35625e-05;-0.01321580952179521
1.35628e-05;-0.013212163083474731
1.35630e-05;-0.013209045701955956
1.35633e-05;-0.013206360288536449
1.35635e-05;-0.01320410133060016
1.35638e-05;-0.013202037216505674
1.35640e-05;-0.01319952132335111
1.35643e-05;-0.013196010615409023
1.35645e-05;-0.01319138823200347
1.35648e-05;-0.013185733760257338
1.35650e-05;-0.01317914964565386
1.35653e-05;-0.013171737547948372
1.35655e-05;-0.013163594266933868
1.35658e-05;-0.013154646797332081
1.35660e-05;-0.013144560612733206
1.35663e-05;-0.013133067743675727
1.35665e-05;-0.01312016717692276
1.35668e-05;-0.013105980617294465
1.35670e-05;-0.013090223673447608
1.35673e-05;-0.013074212375744819
1.35675e-05;-0.013056268973078879
1.35678e-05;-0.01303796755316511
1.35680e-05;-0.013019666133251341
1.35683e-05;-0.012998850645892639
1.35685e-05;-0.01297756930418096
1.35688e-05;-0.01295628796246928
1.35690e-05;-0.012933422331355198
1.35693e-05;-0.012910263132892235
1.35695e-05;-0.012886430172735101
1.35698e-05;-0.012862472365164405
1.35700e-05;-0.012837970048143075
1.35703e-05;-0.01281336683402817
1.35705e-05;-0.012788471329125826
1.35708e-05;-0.012763521663013335
1.35710e-05;-0.012738838358666646
1.35713e-05;-0.012714204410906779
1.35715e-05;-0.012692691401241999
1.35718e-05;-0.012671756698495457
1.35720e-05;-0.012650821995748913
1.35723e-05;-0.012629552898620265
1.35725e-05;-0.012607479613328797
1.35728e-05;-0.012585406328037329
1.35730e-05;-0.01256333304274601
1.35733e-05;-0.012544958121282463
1.35735e-05;-0.012528981338474542
1.35738e-05;-0.012514928040125328
1.35740e-05;-0.012502948806403891
1.35743e-05;-0.012493389420427756
1.35745e-05;-0.012486307802414382
1.35748e-05;-0.012481948319989679
1.35750e-05;-0.012480045276041067
1.35753e-05;-0.012480622186515862
1.35755e-05;-0.012483720813987841
1.35758e-05;-0.012489397046309974
1.35760e-05;-0.012497701432992378
1.35763e-05;-0.012508557583633194
1.35765e-05;-0.012520245153456266
1.35768e-05;-0.012533749130580196
1.35770e-05;-0.012548678049828059
1.35773e-05;-0.012569827746423073
1.35775e-05;-0.01259658943365055
1.35778e-05;-0.012623351120878208
1.35780e-05;-0.012650219051174584
1.35783e-05;-0.012681110754882475
1.35785e-05;-0.012712002458590157
1.35788e-05;-0.012742894162298048
1.35790e-05;-0.012777101707109738
1.35793e-05;-0.012814300593384778
1.35795e-05;-0.01285149947966007
1.35798e-05;-0.012889961093848424
1.35800e-05;-0.01292956186104338
1.35803e-05;-0.01296906960059088
1.35805e-05;-0.013008493416496928
1.35808e-05;-0.013048163021240376
1.35810e-05;-0.01308805436107888
1.35813e-05;-0.013128506314899712
1.35815e-05;-0.013169464019085874
1.35818e-05;-0.013209429999585687
1.35820e-05;-0.013248501309897243
1.35823e-05;-0.013285965200379774
1.35825e-05;-0.013321978978678867
1.35828e-05;-0.01335636869009645
1.35830e-05;-0.013389293271415319
1.35833e-05;-0.0134200066508307
1.35835e-05;-0.0134487252241824
1.35838e-05;-0.013477443797533907
1.35840e-05;-0.013502403074679422
1.35843e-05;-0.013523970953303226
1.35845e-05;-0.013545538831926884
1.35848e-05;-0.01356392467537959
1.35850e-05;-0.013579439888590967
1.35853e-05;-0.01359495510180224
1.35855e-05;-0.013605591749319764
1.35858e-05;-0.013611827264397688
1.35860e-05;-0.013618062779475568
1.35863e-05;-0.013624298294553491
1.35865e-05;-0.013630533809631414
1.35868e-05;-0.013636769324709336
1.35870e-05;-0.013637257771238406
1.35873e-05;-0.013632561577155903
1.35875e-05;-0.013627865383073399
1.35878e-05;-0.013623169188990926
1.35880e-05;-0.013618472994908423
1.35883e-05;-0.013613776800825919
1.35885e-05;-0.013605205613520806
1.35888e-05;-0.013593138653186027
1.35890e-05;-0.01358107169285125
1.35893e-05;-0.013569004732516553
1.35895e-05;-0.013556937772181775
1.35898e-05;-0.013542847999090364
1.35900e-05;-0.013526933372670929
1.35903e-05;-0.013511018746251383
1.35905e-05;-0.01349510411983184
1.35908e-05;-0.013479189493412404
1.35910e-05;-0.01346278950748141
1.35913e-05;-0.01344595166099365
1.35915e-05;-0.013429299135372623
1.35918e-05;-0.013412813794479355
1.35920e-05;-0.01339666041540265
1.35923e-05;-0.013380806511215078
1.35925e-05;-0.013365479437284944
1.35928e-05;-0.01335107710661174
1.35930e-05;-0.013337600724845897
1.35933e-05;-0.013325201001574903
1.35935e-05;-0.013314430804109337
1.35938e-05;-0.013304636550253459
1.35940e-05;-0.013296430865886888
1.35943e-05;-0.013289658288124284
1.35945e-05;-0.01328466009033688
1.35948e-05;-0.013281262625584671
1.35950e-05;-0.013280147928742046
1.35953e-05;-0.013281092600273568
1.35955e-05;-0.013282037271805084
1.35958e-05;-0.013285772609561415
1.35960e-05;-0.013292025509327397
1.35963e-05;-0.013298278409093338
1.35965e-05;-0.01330847184577169
1.35968e-05;-0.013322220184838592
1.35970e-05;-0.013335968523905402
1.35973e-05;-0.013349716862972304
1.35975e-05;-0.013363465202039208
1.35978e-05;-0.013377213541106017
1.35980e-05;-0.013395158732735581
1.35983e-05;-0.01341689005847123
1.35985e-05;-0.01343862138420673
1.35988e-05;-0.01346035270994238
1.35990e-05;-0.013482084035678028
1.35993e-05;-0.01350381536141353
1.35995e-05;-0.013527942211849194
1.35998e-05;-0.013554230152681479
1.36000e-05;-0.013580518093513586
1.36003e-05;-0.01360680603434587
1.36005e-05;-0.013633093975178156
1.36008e-05;-0.013659381916010262
1.36010e-05;-0.013685657269724632
1.36013e-05;-0.013711455908004254
1.36015e-05;-0.013737254546283701
1.36018e-05;-0.013763053184563322
1.36020e-05;-0.013788851822842943
1.36023e-05;-0.01381465046112239
1.36025e-05;-0.013840449099402012
1.36028e-05;-0.01386448360204676
1.36030e-05;-0.013886926613449693
1.36033e-05;-0.013907957318274992
1.36035e-05;-0.013927713929711597
1.36038e-05;-0.013945307648339273
1.36040e-05;-0.013960950142302407
1.36043e-05;-0.013973560914189198
1.36045e-05;-0.01398343665877042
1.36048e-05;-0.013989495005668158
1.36050e-05;-0.013992109538575973
1.36053e-05;-0.01399472407148379
1.36055e-05;-0.01399273781599067
1.36058e-05;-0.013986601021105657
1.36060e-05;-0.013980464226220643
1.36063e-05;-0.013969293656356997
1.36065e-05;-0.013953581934082375
1.36068e-05;-0.013937870211807753
1.36070e-05;-0.013917007736367807
1.36073e-05;-0.013891498578218446
1.36075e-05;-0.013865989420069084
1.36078e-05;-0.013840480261919894
1.36080e-05;-0.013809896935208114
1.36083e-05;-0.013774736015556725
1.36085e-05;-0.013739575095905574
1.36088e-05;-0.013704414176254185
1.36090e-05;-0.013666309788386968
1.36093e-05;-0.01362554999024791
1.36095e-05;-0.013583760767744008
1.36098e-05;-0.013540482249909414
1.36100e-05;-0.01349620003898458
1.36103e-05;-0.013451080347701497
1.36105e-05;-0.013405368513757055
1.36108e-05;-0.013359349367650953
1.36110e-05;-0.013313312013168254
1.36113e-05;-0.013267545697842416
1.36115e-05;-0.01322233658774424
1.36118e-05;-0.013177944840749295
1.36120e-05;-0.013134596539125387
1.36123e-05;-0.013092533843274806
1.36125e-05;-0.01305204847582083
1.36128e-05;-0.013013457278101569
1.36130e-05;-0.012977080135463767
1.36133e-05;-0.012943236491550741
1.36135e-05;-0.012912218371330015
1.36138e-05;-0.012884109457181367
1.36140e-05;-0.012858656425998977
1.36143e-05;-0.012835561522814445
1.36145e-05;-0.012814778157871042
1.36148e-05;-0.012796415274988156
1.36150e-05;-0.012780600071570707
1.36153e-05;-0.012767460580514927
1.36155e-05;-0.012757817938608002
1.36158e-05;-0.012750159207415625
1.36160e-05;-0.012745034500384183
1.36163e-05;-0.012742195829176765
1.36165e-05;-0.012743246980629676
1.36168e-05;-0.012747807283292613
1.36170e-05;-0.01275236758595552
1.36173e-05;-0.01275692788861846
1.36175e-05;-0.012761795835771625
1.36178e-05;-0.012770996845774372
1.36180e-05;-0.012780197855777184
1.36183e-05;-0.012789398865779993
1.36185e-05;-0.012798599875782742
1.36188e-05;-0.012815524190267182
1.36190e-05;-0.012837451854430797
1.36193e-05;-0.01285937951859426
1.36195e-05;-0.012881307182757875
1.36198e-05;-0.012903234846921489
1.36200e-05;-0.012925162511084954
1.36203e-05;-0.01294695842266296
1.36205e-05;-0.012968742520532898
1.36208e-05;-0.012990526618402836
1.36210e-05;-0.013012310716272627
1.36213e-05;-0.013034094814142565
1.36215e-05;-0.01305580941149309
1.36218e-05;-0.013077289435353875
1.36220e-05;-0.013098354048747022
1.36223e-05;-0.013118016596603591
1.36225e-05;-0.013137310139056039
1.36228e-05;-0.013155358239229512
1.36230e-05;-0.013173018708113304
1.36233e-05;-0.013189370869878292
1.36235e-05;-0.013204891039937912
1.36238e-05;-0.013217603127420126
1.36240e-05;-0.013229217919628791
1.36243e-05;-0.013237129194459291
1.36245e-05;-0.013245040469289792
1.36248e-05;-0.013251773807631238
1.36250e-05;-0.013254531453774686
1.36253e-05;-0.013257289099918135
1.36255e-05;-0.013258656864732285
1.36258e-05;-0.013255333595345191
1.36260e-05;-0.013252010325958097
1.36263e-05;-0.013247002538564619
1.36265e-05;-0.013236309279027398
1.36268e-05;-0.013225616019490178
1.36270e-05;-0.01321492275995303
1.36273e-05;-0.01320422950041581
1.36275e-05;-0.013191723974130896
1.36278e-05;-0.01317310180672253
1.36280e-05;-0.01315447963931404
1.36283e-05;-0.013135857471905548
1.36285e-05;-0.013117235304497182
1.36288e-05;-0.013097542783715478
1.36290e-05;-0.013074237678049157
1.36293e-05;-0.013050932572382839
1.36295e-05;-0.013027137801051348
1.36298e-05;-0.013001690343022555
1.36300e-05;-0.012975972117832638
1.36303e-05;-0.012949340017489116
1.36305e-05;-0.012922605740858198
1.36308e-05;-0.012895503616014057
1.36310e-05;-0.012868343907519574
1.36313e-05;-0.012841307079312915
1.36315e-05;-0.012814509840568476
1.36318e-05;-0.012787970391098111
1.36320e-05;-0.012761835240361171
1.36323e-05;-0.01273633399975188
1.36325e-05;-0.012711642210342234
1.36328e-05;-0.012688075559378146
1.36330e-05;-0.012665862118989705
1.36333e-05;-0.012644432917083556
1.36335e-05;-0.012625650624280426
1.36338e-05;-0.012606868331477297
1.36340e-05;-0.012589126193277967
1.36343e-05;-0.01257489471510344
1.36345e-05;-0.012560663236928912
1.36348e-05;-0.012546431758754481
1.36350e-05;-0.012532200280579954
1.36353e-05;-0.012517968802405426
1.36355e-05;-0.012503737324230995
1.36358e-05;-0.012489505846056468
1.36360e-05;-0.012479261220714247
1.36363e-05;-0.012470501945635534
1.36365e-05;-0.012461742670556759
1.36368e-05;-0.012452983395477986
1.36370e-05;-0.012444224120399272
1.36373e-05;-0.012435464845320498
1.36375e-05;-0.012426705570241725
1.36378e-05;-0.01241882529328187
1.36380e-05;-0.012413911751793554
1.36383e-05;-0.012408998210305205
1.36385e-05;-0.012404084668816855
1.36388e-05;-0.01239917112732854
1.36390e-05;-0.012394257585840191
1.36393e-05;-0.012389344044351842
1.36395e-05;-0.012384430502863525
1.36398e-05;-0.012380028587846485
1.36400e-05;-0.012377353480166223
1.36403e-05;-0.01237467837248598
1.36405e-05;-0.012372003264805718
1.36408e-05;-0.012369328157125457
1.36410e-05;-0.012366653049445214
1.36413e-05;-0.012363977941764952
1.36415e-05;-0.012361302834084691
1.36418e-05;-0.012358787073517296
1.36420e-05;-0.012356809130633327
1.36423e-05;-0.012354831187749358
1.36425e-05;-0.012352853244865404
1.36428e-05;-0.012350875301981435
1.36430e-05;-0.012348884970222648
1.36433e-05;-0.012346846864081433
1.36435e-05;-0.012344799497422041
1.36438e-05;-0.012342872428818551
1.36440e-05;-0.012341499970383623
1.36443e-05;-0.012341046416289784
1.36445e-05;-0.01234097080802482
1.36448e-05;-0.012342170817162207
1.36450e-05;-0.012343703112100153
1.36453e-05;-0.012346356915776529
1.36455e-05;-0.012349445217018475
1.36458e-05;-0.01235400000529006
1.36460e-05;-0.012358554793561648
1.36463e-05;-0.012364012538968953
1.36465e-05;-0.012372517884714416
1.36468e-05;-0.012381023230459936
1.36470e-05;-0.012389528576205455
1.36473e-05;-0.012398033921950918
