Time(s);Current(A)
1.32500e-05;0.007393160573866352
1.32503e-05;0.007377635426547512
1.32505e-05;0.007362110279228672
1.32508e-05;0.007346585131909937
1.32510e-05;0.007331059984591097
1.32513e-05;0.007315534837272257
1.32515e-05;0.007300009689953522
1.32518e-05;0.007284484542634682
1.32520e-05;0.007268959395315842
1.32523e-05;0.007253434247997108
1.32525e-05;0.007237909100678268
1.32528e-05;0.0072222164980599406
1.32530e-05;0.007204170327054779
1.32533e-05;0.007186124156049497
1.32535e-05;0.007168077985044213
1.32538e-05;0.00715003181403893
1.32540e-05;0.00713198564303377
1.32543e-05;0.007113939472028486
1.32545e-05;0.007095893301023204
1.32548e-05;0.007077847130018042
1.32550e-05;0.00705980095901276
1.32553e-05;0.007041754788007476
1.32555e-05;0.007023708617002316
1.32558e-05;0.007005662445997033
1.32560e-05;0.006987616274991749
1.32563e-05;0.00697065182512307
1.32565e-05;0.006968890863465848
1.32568e-05;0.006967129901808624
1.32570e-05;0.006965368940151414
1.32573e-05;0.00696360797849419
1.32575e-05;0.006961847016836968
1.32578e-05;0.006960086055179757
1.32580e-05;0.006958325093522534
1.32583e-05;0.006956564131865311
1.32585e-05;0.0069548031702081
1.32588e-05;0.0069530422085508775
1.32590e-05;0.006952844608238281
1.32593e-05;0.006974619903688089
1.32595e-05;0.0069963951991380445
1.32598e-05;0.0070181704945880006
1.32600e-05;0.007039945790037808
1.32603e-05;0.0070617210854877635
1.32605e-05;0.00708349638093772
1.32608e-05;0.007105271676387527
1.32610e-05;0.0071270469718374835
1.32613e-05;0.007148822267287439
1.32615e-05;0.007170597562737247
1.32618e-05;0.007193210419970995
1.32620e-05;0.0072275951288225705
1.32623e-05;0.007261979837674146
1.32625e-05;0.007296364546525489
1.32628e-05;0.007330749255377065
1.32630e-05;0.007365133964228641
1.32633e-05;0.007399518673079984
1.32635e-05;0.00743390338193156
1.32638e-05;0.007468288090783135
1.32640e-05;0.007502672799634479
1.32643e-05;0.007536645994942258
1.32645e-05;0.007564835406329106
1.32648e-05;0.007593024817715762
1.32650e-05;0.00762121422910261
1.32653e-05;0.007649403640489457
1.32655e-05;0.0076775930518761136
1.32658e-05;0.007705782463262961
1.32660e-05;0.007733971874649808
1.32663e-05;0.007762161286036465
1.32665e-05;0.007790350697423312
1.32668e-05;0.007817562425576128
1.32670e-05;0.007831032908377729
1.32673e-05;0.007844503391179421
1.32675e-05;0.007857973873981116
1.32678e-05;0.007871444356782716
1.32680e-05;0.007884914839584409
1.32683e-05;0.007898385322386101
1.32685e-05;0.007911855805187704
1.32688e-05;0.007925326287989396
1.32690e-05;0.007938796770791089
1.32693e-05;0.007952267253592691
1.32695e-05;0.007965737736394383
1.32698e-05;0.007979208219196076
1.32700e-05;0.007992678701997678
1.32703e-05;0.00800614918479937
1.32705e-05;0.008019619667601063
1.32708e-05;0.008033090150402756
1.32710e-05;0.008046560633204358
1.32713e-05;0.00806003111600605
1.32715e-05;0.008073501598807743
1.32718e-05;0.008086972081609346
1.32720e-05;0.008100442564411038
1.32723e-05;0.00811391304721273
1.32725e-05;0.008127383530014333
1.32728e-05;0.008140854012816025
1.32730e-05;0.008154324495617718
1.32733e-05;0.008167794978419319
1.32735e-05;0.008177746281402736
1.32738e-05;0.00818438618498732
1.32740e-05;0.008191026088571859
1.32743e-05;0.008197665992156442
1.32745e-05;0.008204305895741027
1.32748e-05;0.008210945799325565
1.32750e-05;0.008217585702910148
1.32753e-05;0.008224225606494733
1.32755e-05;0.008230865510079271
1.32758e-05;0.008237505413663854
1.32760e-05;0.008244145317248439
1.32763e-05;0.008250785220832977
1.32765e-05;0.00825742512441756
1.32768e-05;0.008264065028002145
1.32770e-05;0.008270704931586683
1.32773e-05;0.008277344835171266
1.32775e-05;0.008283984738755851
1.32778e-05;0.008290624642340389
1.32780e-05;0.008297264545924972
1.32783e-05;0.008303904449509557
1.32785e-05;0.008310544353094095
1.32788e-05;0.008317184256678678
1.32790e-05;0.008323824160263263
1.32793e-05;0.008330464063847846
1.32795e-05;0.008337103967432384
1.32798e-05;0.00834374387101697
1.32800e-05;0.008350383774601552
1.32803e-05;0.008359557902739881
1.32805e-05;0.008368826681919031
1.32808e-05;0.00837809546109818
1.32810e-05;0.008387364240277268
1.32813e-05;0.008396633019456418
1.32815e-05;0.008405901798635568
1.32818e-05;0.008415170577814655
1.32820e-05;0.008424439356993805
1.32823e-05;0.008433708136172955
1.32825e-05;0.008442976915352042
1.32828e-05;0.008452245694531192
1.32830e-05;0.008461514473710342
1.32833e-05;0.008470783252889429
1.32835e-05;0.008480052032068579
1.32838e-05;0.008487972984144035
1.32840e-05;0.008494336936098343
1.32843e-05;0.008500700888052694
1.32845e-05;0.008507064840007045
1.32848e-05;0.008513428791961354
1.32850e-05;0.008519792743915705
1.32853e-05;0.008526156695870056
1.32855e-05;0.008532520647824364
1.32858e-05;0.008538884599778716
1.32860e-05;0.008545248551733067
1.32863e-05;0.008551612503687375
1.32865e-05;0.008557976455641726
1.32868e-05;0.008564340407596079
1.32870e-05;0.008570704359550386
1.32873e-05;0.008577068311504737
1.32875e-05;0.008569193981169834
1.32878e-05;0.008560787863611355
1.32880e-05;0.008552381746052932
1.32883e-05;0.008543975628494453
1.32885e-05;0.008535569510935974
1.32888e-05;0.00852716339337755
1.32890e-05;0.00851875727581907
1.32893e-05;0.008510351158260591
1.32895e-05;0.008495279721333668
1.32898e-05;0.008472508555682217
1.32900e-05;0.008449737390030765
1.32903e-05;0.008426966224379467
1.32905e-05;0.008404195058728015
1.32908e-05;0.008381423893076565
1.32910e-05;0.008358652727425267
1.32913e-05;0.008335881561773815
1.32915e-05;0.008313110396122363
1.32918e-05;0.008284163643868562
1.32920e-05;0.008252236210955853
1.32923e-05;0.008220206066935723
1.32925e-05;0.008188175922915809
1.32928e-05;0.008156145778895677
1.32930e-05;0.008124115634875547
1.32933e-05;0.008092085490855633
1.32935e-05;0.008060055346835503
1.32938e-05;0.008028025202815372
1.32940e-05;0.007995995058795459
1.32943e-05;0.007966103728827017
1.32945e-05;0.007938683141381457
1.32948e-05;0.007911262553936082
1.32950e-05;0.007883841966490522
1.32953e-05;0.007856421379044961
1.32955e-05;0.007829000791599587
1.32958e-05;0.007801580204154027
1.32960e-05;0.0077741596167084665
1.32963e-05;0.007746739029262906
1.32965e-05;0.007719318441817532
1.32968e-05;0.00769579767084003
1.32970e-05;0.007672422554551368
1.32973e-05;0.007649047438262864
1.32975e-05;0.0076256723219742025
1.32978e-05;0.007602297205685541
1.32980e-05;0.007578922089397038
1.32983e-05;0.007555546973108375
1.32985e-05;0.007532171856819713
1.32988e-05;0.00750879674053121
1.32990e-05;0.007485421624242548
1.32993e-05;0.0074620465079538855
1.32995e-05;0.007438671391665382
1.32998e-05;0.007412454452888031
1.33000e-05;0.007382954661325473
1.33003e-05;0.007353454869763116
1.33005e-05;0.007323955078200559
1.33008e-05;0.0072944552866380016
1.33010e-05;0.0072649554950756446
1.33013e-05;0.007235455703513087
1.33015e-05;0.00720595591195053
1.33018e-05;0.007176456120388173
1.33020e-05;0.0071469563288256155
1.33023e-05;0.007117456537263058
1.33025e-05;0.0070879567457007
1.33028e-05;0.007058456954138144
1.33030e-05;0.007030476235386435
1.33033e-05;0.0070025522526581995
1.33035e-05;0.006974628269929775
1.33038e-05;0.00694670428720135
1.33040e-05;0.0069187803044731145
1.33043e-05;0.00689085632174469
1.33045e-05;0.006862932339016265
1.33048e-05;0.00683500835628784
1.33050e-05;0.006807084373559605
1.33053e-05;0.00677916039083118
1.33055e-05;0.0067512364081027555
1.33058e-05;0.006723312425374521
1.33060e-05;0.006695388442646096
1.33063e-05;0.006677187903930067
1.33065e-05;0.006670219817413692
1.33068e-05;0.006663251730897269
1.33070e-05;0.006656283644380847
1.33073e-05;0.006649315557864471
1.33075e-05;0.006642347471348049
1.33078e-05;0.006635379384831626
1.33080e-05;0.006628411298315251
1.33083e-05;0.006621443211798828
1.33085e-05;0.006614475125282406
1.33088e-05;0.00660750703876603
1.33090e-05;0.006600538952249608
1.33093e-05;0.006593570865733185
1.33095e-05;0.0065866027792168096
1.33098e-05;0.006603093004121797
1.33100e-05;0.006620459376170662
1.33103e-05;0.006637825748219408
1.33105e-05;0.0066551921202682735
1.33108e-05;0.006672558492317138
1.33110e-05;0.006689924864365885
1.33113e-05;0.0067072912364147495
1.33115e-05;0.006724657608463614
1.33118e-05;0.006742023980512361
1.33120e-05;0.0067593903525612255
1.33123e-05;0.00677675672461009
1.33125e-05;0.006794123096658837
1.33128e-05;0.00681874380606417
1.33130e-05;0.006843635458541455
1.33133e-05;0.006868527111018739
1.33135e-05;0.006893418763495854
1.33138e-05;0.006918310415973138
1.33140e-05;0.006943202068450422
1.33143e-05;0.006968093720927538
1.33145e-05;0.006992985373404823
1.33148e-05;0.007017877025882107
1.33150e-05;0.0070427686783592226
1.33153e-05;0.0070676603308365065
1.33155e-05;0.0070925519833137905
1.33158e-05;0.007103978797171001
1.33160e-05;0.00711490271123718
1.33163e-05;0.007125826625303358
1.33165e-05;0.007136750539369463
1.33168e-05;0.007147674453435641
1.33170e-05;0.00715859836750182
1.33173e-05;0.007169522281567925
1.33175e-05;0.007180446195634104
1.33178e-05;0.007191370109700283
1.33180e-05;0.007202294023766387
1.33183e-05;0.007213217937832566
1.33185e-05;0.007224141851898745
1.33188e-05;0.007235065765964849
1.33190e-05;0.0072459896800310284
1.33193e-05;0.007256913594097207
1.33195e-05;0.007267837508163312
1.33198e-05;0.00727876142222949
1.33200e-05;0.007289685336295669
1.33203e-05;0.007300609250361773
1.33205e-05;0.007311533164427952
1.33208e-05;0.007317676586898356
1.33210e-05;0.007318297620049327
1.33213e-05;0.007318918653200303
1.33215e-05;0.007319539686351278
1.33218e-05;0.007320160719502254
1.33220e-05;0.007320781752653225
1.33223e-05;0.007321402785804201
1.33225e-05;0.007322023818955176
1.33228e-05;0.0073226448521061475
1.33230e-05;0.007323265885257123
1.33233e-05;0.007323886918408098
1.33235e-05;0.0073245079515590695
1.33238e-05;0.007325128984710045
1.33240e-05;0.007325750017861021
1.33243e-05;0.007326371051011991
1.33245e-05;0.0073269920841629674
1.33248e-05;0.007327613117313943
1.33250e-05;0.007328234150464914
1.33253e-05;0.007328855183615889
1.33255e-05;0.007329476216766865
1.33258e-05;0.007330097249917836
1.33260e-05;0.0073245613864904345
1.33263e-05;0.00731879556843099
1.33265e-05;0.007313029750371585
1.33268e-05;0.00730726393231214
1.33270e-05;0.007301498114252696
1.33273e-05;0.0072957322961932905
1.33275e-05;0.007289966478133846
1.33278e-05;0.007284200660074402
1.33280e-05;0.007278434842014996
1.33283e-05;0.007272669023955552
1.33285e-05;0.007266903205896107
1.33288e-05;0.007261137387836702
1.33290e-05;0.0072411908880013085
1.33293e-05;0.0072207147522655975
1.33295e-05;0.007200238616530026
1.33298e-05;0.007179762480794316
1.33300e-05;0.007159286345058605
1.33303e-05;0.007138810209322895
1.33305e-05;0.007118334073587323
1.33308e-05;0.007097857937851612
1.33310e-05;0.007077381802115902
1.33313e-05;0.007056905666380331
1.33315e-05;0.00703642953064462
1.33318e-05;0.0070159533949089095
1.33320e-05;0.00698771805387732
1.33323e-05;0.006959192913402176
1.33325e-05;0.006930667772927034
1.33328e-05;0.006902142632452084
1.33330e-05;0.00687361749197694
1.33333e-05;0.006845092351501798
1.33335e-05;0.006816567211026848
1.33338e-05;0.0067880420705517044
1.33340e-05;0.006759516930076562
1.33343e-05;0.006730991789601612
1.33345e-05;0.0067024666491264685
1.33348e-05;0.006682136992705026
1.33350e-05;0.006662113430352383
1.33353e-05;0.006642089867999605
1.33355e-05;0.0066220663056468275
1.33358e-05;0.006602042743294185
1.33360e-05;0.0065820191809414065
1.33363e-05;0.006561995618588629
1.33365e-05;0.006541972056235986
1.33368e-05;0.006521948493883208
1.33370e-05;0.00650192493153043
1.33373e-05;0.006481901369177788
1.33375e-05;0.006491975103454138
1.33378e-05;0.006503172945095723
1.33380e-05;0.006514370786737232
1.33383e-05;0.006525568628378817
1.33385e-05;0.006536766470020401
1.33388e-05;0.006547964311661986
1.33390e-05;0.006559162153303494
1.33393e-05;0.006570359994945079
1.33395e-05;0.006581557836586664
1.33398e-05;0.006592755678228173
1.33400e-05;0.0066039535198697576
1.33403e-05;0.006644833389049125
1.33405e-05;0.006686821855661209
1.33408e-05;0.0067288103222735785
1.33410e-05;0.006770798788885948
1.33413e-05;0.006812787255498032
1.33415e-05;0.0068547757221104014
1.33418e-05;0.00689676418872277
1.33420e-05;0.006938752655334854
1.33423e-05;0.0069807411219472235
1.33425e-05;0.007022729588559593
1.33428e-05;0.007064718055171677
1.33430e-05;0.007114711833324462
1.33433e-05;0.007165004602771431
1.33435e-05;0.007215297372218059
1.33438e-05;0.0072655901416650275
1.33440e-05;0.007315882911111997
1.33443e-05;0.007366175680558625
1.33445e-05;0.007416468450005594
1.33448e-05;0.0074667612194525635
1.33450e-05;0.007517053988899192
1.33453e-05;0.007567346758346161
1.33455e-05;0.0075987689061643125
1.33458e-05;0.007629486252981359
1.33460e-05;0.007660203599798614
1.33463e-05;0.007690920946615869
1.33465e-05;0.007721638293432916
1.33468e-05;0.007752355640250171
1.33470e-05;0.007783072987067426
1.33473e-05;0.007813790333884681
1.33475e-05;0.007844507680701728
1.33478e-05;0.007875225027518983
1.33480e-05;0.007873536845928958
1.33483e-05;0.007870638346559352
1.33485e-05;0.007867739847189727
1.33488e-05;0.007864841347820103
1.33490e-05;0.007861942848450498
1.33493e-05;0.007859044349080874
1.33495e-05;0.00785614584971125
1.33498e-05;0.007853247350341645
1.33500e-05;0.00785034885097202
1.33503e-05;0.007847450351602395
1.33505e-05;0.007844551852232791
1.33508e-05;0.007841653352863166
1.33510e-05;0.007827534798742736
1.33513e-05;0.00780045491850531
1.33515e-05;0.007773375038267701
1.33518e-05;0.007746295158030093
1.33520e-05;0.007719215277792668
1.33523e-05;0.007692135397555059
1.33525e-05;0.00766505551731745
1.33528e-05;0.007637975637080025
1.33530e-05;0.007610895756842416
1.33533e-05;0.007583815876604808
1.33535e-05;0.007556735996367382
1.33538e-05;0.007529656116129773
1.33540e-05;0.007502576235892165
1.33543e-05;0.0074760623828785625
1.33545e-05;0.007449569670480193
1.33548e-05;0.007423076958081823
1.33550e-05;0.007396584245683632
1.33553e-05;0.007370091533285262
1.33555e-05;0.007343598820886892
1.33557e-05;0.007317106108488701
1.33560e-05;0.007290613396090331
1.33563e-05;0.007264120683691961
1.33565e-05;0.007237627971293591
1.33568e-05;0.007218180967291349
1.33570e-05;0.007206873114682532
1.33573e-05;0.007195565262073714
1.33575e-05;0.007184257409464974
1.33578e-05;0.007172949556856157
1.33580e-05;0.00716164170424734
1.33583e-05;0.0071503338516386
1.33585e-05;0.007139025999029783
1.33588e-05;0.007127718146420966
1.33590e-05;0.0071164102938122255
1.33593e-05;0.007105102441203409
1.33595e-05;0.007108531259802694
1.33598e-05;0.007112510480018287
1.33600e-05;0.0071164897002339075
1.33603e-05;0.007120468920449528
1.33605e-05;0.007124448140665121
1.33608e-05;0.007128427360880742
1.33610e-05;0.007132406581096362
1.33613e-05;0.0071363858013119555
1.33615e-05;0.007140365021527575
1.33618e-05;0.007144344241743195
1.33620e-05;0.007148323461958789
1.33623e-05;0.007152302682174409
1.33625e-05;0.0071562819023900295
1.33628e-05;0.007160261122605623
1.33630e-05;0.007166499203412746
1.33633e-05;0.007175346703642458
1.33635e-05;0.00718419420387211
1.33638e-05;0.007193041704101822
1.33640e-05;0.007201889204331535
1.33642e-05;0.007210736704561187
1.33645e-05;0.007219584204790899
1.33648e-05;0.007228431705020611
1.33650e-05;0.007237279205250323
1.33653e-05;0.007246126705479976
1.33655e-05;0.007254974205709688
1.33658e-05;0.0072638217059394
1.33660e-05;0.007272669206169052
1.33663e-05;0.007281516706398765
1.33665e-05;0.007290364206628477
1.33668e-05;0.00728431443740271
1.33670e-05;0.007277708268357731
1.33673e-05;0.007271102099312752
1.33675e-05;0.007264495930267819
1.33678e-05;0.00725788976122284
1.33680e-05;0.007251283592177861
1.33683e-05;0.007244677423132927
1.33685e-05;0.007238071254087949
1.33688e-05;0.00723146508504297
1.33690e-05;0.007224858915998036
1.33693e-05;0.007218252746953057
1.33695e-05;0.0072116465779080785
1.33698e-05;0.007195438005319147
1.33700e-05;0.007168136805584906
1.33703e-05;0.0071408356058506655
1.33705e-05;0.00711353440611661
1.33708e-05;0.0070862332063823695
1.33710e-05;0.0070589320066481295
1.33713e-05;0.007031630806914073
1.33715e-05;0.007004329607179833
1.33718e-05;0.006977028407445593
1.33720e-05;0.0069497272077115365
1.33723e-05;0.0069224260079772965
1.33725e-05;0.006895124808243056
1.33727e-05;0.0068678236085090005
1.33730e-05;0.0068353315631725555
1.33733e-05;0.006802645644350381
1.33735e-05;0.006769959725528206
1.33738e-05;0.006737273806706252
1.33740e-05;0.006704587887884077
1.33743e-05;0.006671901969061902
1.33745e-05;0.006639216050239948
1.33748e-05;0.006606530131417774
1.33750e-05;0.006573844212595599
1.33753e-05;0.006541158293773645
1.33755e-05;0.00651396801391781
1.33758e-05;0.006493126256461349
1.33760e-05;0.006472284499005028
1.33763e-05;0.006451442741548566
1.33765e-05;0.0064306009840921045
1.33768e-05;0.006409759226635785
1.33770e-05;0.006388917469179323
1.33773e-05;0.006368075711722861
1.33775e-05;0.006347233954266541
1.33778e-05;0.00632639219681008
1.33780e-05;0.006305550439353618
1.33783e-05;0.006300377919652069
1.33785e-05;0.006295790632103135
1.33788e-05;0.006291203344554202
1.33790e-05;0.0062866160570053
1.33793e-05;0.006282028769456366
1.33795e-05;0.006277441481907433
1.33798e-05;0.006272854194358531
1.33800e-05;0.006268266906809598
1.33803e-05;0.006263679619260664
1.33805e-05;0.006259092331711762
1.33808e-05;0.006254505044162828
1.33810e-05;0.0062499177566138955
1.33812e-05;0.006245330469064993
1.33815e-05;0.00624074318151606
1.33818e-05;0.006236155893967126
1.33820e-05;0.006231568606418193
1.33823e-05;0.0062350161264088585
1.33825e-05;0.006238763739345284
1.33828e-05;0.00624251135228171
1.33830e-05;0.00624625896521811
1.33833e-05;0.006250006578154535
1.33835e-05;0.00625375419109096
1.33838e-05;0.006257501804027361
1.33840e-05;0.0062612494169637855
1.33843e-05;0.006264997029900211
1.33845e-05;0.006268744642836611
1.33848e-05;0.006272492255773037
1.33850e-05;0.006276239868709462
1.33853e-05;0.006279987481645862
1.33855e-05;0.006283735094582288
1.33858e-05;0.0062874827075187125
1.33860e-05;0.006291230320455113
1.33863e-05;0.006296667204866094
1.33865e-05;0.0063021671820706286
1.33868e-05;0.006307667159275126
1.33870e-05;0.0063131671364796615
1.33873e-05;0.006318667113684196
1.33875e-05;0.006324167090888694
1.33878e-05;0.006329667068093228
1.33880e-05;0.006335167045297763
1.33883e-05;0.00634066702250226
1.33885e-05;0.006346166999706795
1.33888e-05;0.006351666976911329
1.33890e-05;0.006357166954115827
1.33893e-05;0.006362666931320362
1.33895e-05;0.0063681669085248966
1.33897e-05;0.006373666885729394
1.33900e-05;0.006379166862933929
1.33903e-05;0.006384666840138464
1.33905e-05;0.006390166817342998
1.33908e-05;0.0064003309678023765
1.33910e-05;0.006410669321002468
1.33913e-05;0.0064210076742025595
1.33915e-05;0.00643134602740258
1.33918e-05;0.006441684380602671
1.33920e-05;0.006452022733802763
1.33923e-05;0.006462361087002784
1.33925e-05;0.006472699440202875
1.33928e-05;0.006483037793402966
1.33930e-05;0.006493376146602988
1.33933e-05;0.006503714499803079
1.33935e-05;0.00651405285300317
1.33938e-05;0.006524391206203192
1.33940e-05;0.006534729559403283
1.33943e-05;0.006545067912603374
1.33945e-05;0.0065554062658033955
1.33948e-05;0.006565744619003487
1.33950e-05;0.006576082972203578
1.33953e-05;0.006585239613578919
1.33955e-05;0.006594352119064102
1.33958e-05;0.006603464624549284
1.33960e-05;0.006612577130034405
1.33963e-05;0.006621689635519587
1.33965e-05;0.0066308021410047685
1.33968e-05;0.00663991464648989
1.33970e-05;0.0066490271519750715
1.33973e-05;0.006658139657460254
1.33975e-05;0.0066672521629453745
1.33978e-05;0.006676364668430556
1.33980e-05;0.0066907167452298685
1.33983e-05;0.006711121536932125
1.33985e-05;0.0067315263286345205
1.33988e-05;0.006751931120336915
1.33990e-05;0.00677233591203931
1.33993e-05;0.006792740703741567
1.33995e-05;0.0068131454954439615
1.33998e-05;0.006833550287146356
1.34000e-05;0.006853955078848613
1.34003e-05;0.006874359870551008
1.34005e-05;0.0068947646622534026
1.34008e-05;0.006915169453955659
1.34010e-05;0.006947123222610426
