Time(s);Current(A)
7.00000e-06;3.916809221443317e-05
7.00025e-06;2.7431683622632114e-05
7.00050e-06;1.645005358584896e-05
7.00075e-06;6.189525575044422e-06
7.00100e-06;-3.5545594499297656e-06
7.00125e-06;-1.2985799909183967e-05
7.00150e-06;-2.214276749819611e-05
7.00175e-06;-3.096874625331712e-05
7.00200e-06;-3.939886449851558e-05
7.00225e-06;-4.736827966158513e-05
7.00250e-06;-5.482365319956785e-05
7.00275e-06;-6.178209921614334e-05
7.00300e-06;-6.836782676014948e-05
7.00325e-06;-7.47043702765793e-05
7.00350e-06;-8.081188650778085e-05
7.00375e-06;-8.665084261430544e-05
7.00400e-06;-9.208809796390395e-05
7.00425e-06;-9.724217897301695e-05
7.00450e-06;-0.00010210562428363404
7.00475e-06;-0.00010638624629625219
7.00500e-06;-0.0001100835096012787
7.00525e-06;-0.00011311512367443107
7.00550e-06;-0.00011545417117400918
7.00575e-06;-0.00011710146455142656
7.00600e-06;-0.0001180600116224225
7.00625e-06;-0.00011833283190941357
7.00650e-06;-0.00011792015822743122
7.00675e-06;-0.00011680685807576161
7.00700e-06;-0.00011495944997500375
7.00725e-06;-0.00011235736751821108
7.00750e-06;-0.00010901472244182305
7.00775e-06;-0.00010496299833205146
7.00800e-06;-0.00010023505447047394
7.00825e-06;-9.486375477217475e-05
7.00850e-06;-8.888022210070896e-05
7.00875e-06;-8.230594417504142e-05
7.00900e-06;-7.515092245321486e-05
7.00925e-06;-6.743324027193035e-05
7.00950e-06;-5.9192709113036924e-05
7.00975e-06;-5.04800189609653e-05
7.01000e-06;-4.13467163374015e-05
7.01025e-06;-3.184434607725649e-05
7.01050e-06;-2.2023360503513325e-05
7.01075e-06;-1.1928177551105232e-05
7.01100e-06;-1.5960097292207085e-06
7.01125e-06;8.930863436501128e-06
7.01150e-06;1.9607545934455006e-05
7.01175e-06;3.0353489225560506e-05
7.01200e-06;4.109943251670241e-05
7.01225e-06;5.171929112081323e-05
7.01250e-06;6.233439814211496e-05
7.01275e-06;7.275000694159558e-05
7.01300e-06;8.293486694407789e-05
7.01325e-06;9.282426511621447e-05
7.01350e-06;0.00010237191857875179
7.01375e-06;0.00011149562140895403
7.01400e-06;0.00012012896348574548
7.01425e-06;0.00012821276248215724
7.01450e-06;0.00013566093473711078
7.01475e-06;0.00014258967620788373
7.01500e-06;0.00014891762020070618
7.01525e-06;0.0001548837375680049
7.01550e-06;0.00016043134965861876
7.01575e-06;0.00016558031077623962
7.01600e-06;0.00017026817388726993
7.01625e-06;0.00017449498199829876
7.01650e-06;0.00017818851274177476
7.01675e-06;0.00018137789123471952
7.01700e-06;0.00018398414410276728
7.01725e-06;0.00018659039697080618
7.01750e-06;0.00018872658470989084
7.01775e-06;0.00019031907355291256
7.01800e-06;0.00019191156239592889
7.01825e-06;0.00019300230671257621
7.01850e-06;0.0001935127102885745
7.01875e-06;0.00019402311386457105
7.01900e-06;0.00019414877863745673
7.01925e-06;0.00019382943685776913
7.01950e-06;0.00019351009507808262
7.01975e-06;0.0001927359874645512
7.02000e-06;0.000191435876821681
7.02025e-06;0.00019013576617881077
7.02050e-06;0.00018883565553593613
7.02075e-06;0.0001875355448930659
7.02100e-06;0.00018623543425019568
7.02125e-06;0.00018493532360732104
7.02150e-06;0.00018295492327999446
7.02175e-06;0.00018094888579685988
7.02200e-06;0.0001789428483137185
7.02225e-06;0.00017693681083058395
7.02250e-06;0.00017493077334744937
7.02275e-06;0.000172924735864308
7.02300e-06;0.00017091890876399864
7.02325e-06;0.00016891332500211783
7.02350e-06;0.00016690774124023024
7.02375e-06;0.00016497895499518805
7.02400e-06;0.00016318856998419784
7.02425e-06;0.00016151175090522727
7.02450e-06;0.00016002635993344824
7.02475e-06;0.00015918656263014534
7.02500e-06;0.0001599795587946438
7.02525e-06;0.00016328965431085962
7.02550e-06;0.0001693546787934088
7.02575e-06;0.0001780598572868717
7.02600e-06;0.00018926114038241896
7.02625e-06;0.00020281449891368155
7.02650e-06;0.0002186156967479903
7.02675e-06;0.00023679620914145164
7.02700e-06;0.00025782136466727737
7.02725e-06;0.0002820919887377104
7.02750e-06;0.00030960393686924287
7.02775e-06;0.00034013219464611746
7.02800e-06;0.0003734334270556055
7.02825e-06;0.0004092642948575545
7.02850e-06;0.0004474064556884063
7.02875e-06;0.0004883682675269434
7.02900e-06;0.0005312206892839225
7.02925e-06;0.0005762924232034323
7.02950e-06;0.0006239311153980283
7.02975e-06;0.0006736118050962927
7.03000e-06;0.0007256543627990028
7.03025e-06;0.0007776969205017131
7.03050e-06;0.0008314843963578937
7.03075e-06;0.0008872901246112638
7.03100e-06;0.0009430958528646339
7.03125e-06;0.000998901581118193
7.03150e-06;0.0010547073093715629
7.03175e-06;0.0011110302467683254
7.03200e-06;0.0011673726755256223
7.03225e-06;0.001223715104282728
7.03250e-06;0.0012800575330400251
7.03275e-06;0.0013345481966197071
7.03300e-06;0.0013868970236315904
7.03325e-06;0.001439245850643651
7.03350e-06;0.0014887600901929078
7.03375e-06;0.001534995715825015
7.03400e-06;0.001581231341457279
7.03425e-06;0.0016231675116949074
7.03450e-06;0.0016601307345537138
7.03475e-06;0.0016970939574126455
7.03500e-06;0.0017291523593694132
7.03525e-06;0.001755537620425737
7.03550e-06;0.0017819228814821503
7.03575e-06;0.0018031991340314928
7.03600e-06;0.00181856607292797
7.03625e-06;0.0018339330118244993
7.03650e-06;0.0018439165808639719
7.03675e-06;0.0018476734973248761
7.03700e-06;0.0018514304137857678
7.03725e-06;0.0018501841761350637
7.03750e-06;0.0018431510608821874
7.03775e-06;0.001836117945629335
7.03800e-06;0.0018244414876444246
7.03825e-06;0.0018073943264079616
7.03850e-06;0.0017903471651715562
7.03875e-06;0.0017691613363830549
7.03900e-06;0.0017431885348118759
7.03925e-06;0.0017172157332407847
7.03950e-06;0.001686674296986176
7.03975e-06;0.0016508485682368193
7.04000e-06;0.0016150228394875839
7.04025e-06;0.0015791971107383482
7.04050e-06;0.0015433713819889914
7.04075e-06;0.001507545653239756
7.04100e-06;0.0014686480148196602
7.04125e-06;0.0014261972647282367
7.04150e-06;0.0013837465146368131
7.04175e-06;0.0013412957645452456
7.04200e-06;0.0012988450144538221
7.04225e-06;0.0012563942643623984
7.04250e-06;0.0012146327673925685
7.04275e-06;0.0011736684922079791
7.04300e-06;0.0011327042170233897
7.04325e-06;0.0010917399418386615
7.04350e-06;0.0010507756666540721
7.04375e-06;0.0010171866826638478
7.04400e-06;0.0009838756412812704
7.04425e-06;0.0009505645998988061
7.04450e-06;0.0009172535585163417
7.04475e-06;0.0008881739624741099
7.04500e-06;0.0008639886502607337
7.04525e-06;0.0008430891157012449
7.04550e-06;0.0008259900623351352
7.04575e-06;0.0008122623446121939
7.04600e-06;0.000802434068378413
7.04625e-06;0.0007960301764401525
7.04650e-06;0.0007935870844962925
7.04675e-06;0.0007946685768589475
7.04700e-06;0.0007998267651461163
7.04725e-06;0.0008084987957588301
7.04750e-06;0.0008212350976280272
7.04775e-06;0.0008372580408280852
7.04800e-06;0.0008570824641896547
7.04825e-06;0.0008799460044913781
7.04850e-06;0.000906324726887126
7.04875e-06;0.0009355244878151533
7.04900e-06;0.0009679871913450085
7.04925e-06;0.0010035293437250198
7.04950e-06;0.0010426333279370341
7.04975e-06;0.001081737312148916
7.05000e-06;0.00112368023819475
7.05025e-06;0.0011689068146225217
7.05050e-06;0.0012141333910501405
7.05075e-06;0.001261596249337301
7.05100e-06;0.0013116456938286683
7.05125e-06;0.001361695138319866
7.05150e-06;0.0014117445828110634
7.05175e-06;0.0014617940273024307
7.05200e-06;0.0015118434717936282
7.05225e-06;0.0015609684915746734
7.05250e-06;0.001610058673814214
7.05275e-06;0.001659148856053588
7.05300e-06;0.0017082390382929624
7.05325e-06;0.0017573292205325028
7.05350e-06;0.0018032775557217705
7.05375e-06;0.00184559188645871
7.05400e-06;0.001887906217195506
7.05425e-06;0.0019261912074757383
7.05450e-06;0.0019598156777097695
7.05475e-06;0.001993440147943687
7.05500e-06;0.002021408434390584
7.05525e-06;0.002042834519152475
7.05550e-06;0.002064260603914293
7.05575e-06;0.002079459614482828
7.05600e-06;0.0020874561053289328
7.05625e-06;0.0020954525961750107
7.05650e-06;0.002097052552229996
7.05675e-06;0.002091253982659991
7.05700e-06;0.002085455413090006
7.05725e-06;0.002073166995641177
7.05750e-06;0.0020533721223687305
7.05775e-06;0.0020335772490963516
7.05800e-06;0.002007915436889024
7.05825e-06;0.001975467653922916
7.05850e-06;0.0019430198709569184
7.05875e-06;0.0019053533925210348
7.05900e-06;0.001861650731461238
7.05925e-06;0.0018179480704014412
7.05950e-06;0.0017699186401651035
7.05975e-06;0.0017168846701791614
7.06000e-06;0.0016638507001932193
7.06025e-06;0.0016071794330706126
7.06050e-06;0.0015463011011941264
7.06075e-06;0.00148542276931764
7.06100e-06;0.0014245444374409474
7.06125e-06;0.0013636661055644612
7.06150e-06;0.0012991328307364863
7.06175e-06;0.0012344618170250642
7.06200e-06;0.0011697908033138612
7.06225e-06;0.0011051197896026583
7.06250e-06;0.0010415056524699412
7.06275e-06;0.0009791139472797993
7.06300e-06;0.000916722242089446
7.06325e-06;0.0008564055025687569
7.06350e-06;0.000798488763544535
7.06375e-06;0.000743131395953341
7.06400e-06;0.0006907343147905605
7.06425e-06;0.0006407499419337499
7.06450e-06;0.0005954413548952056
7.06475e-06;0.0005544568764118664
7.06500e-06;0.0005183359404533447
7.06525e-06;0.000487466007166135
7.06550e-06;0.0004619978141834676
7.06575e-06;0.0004419770401068657
7.06600e-06;0.00042744181306811693
7.06625e-06;0.0004184302164864354
7.06650e-06;0.0004149888739709224
7.06675e-06;0.00041720414249696097
7.06700e-06;0.0004251854600489412
7.06725e-06;0.0004389470620632007
7.06750e-06;0.0004583549335221767
7.06775e-06;0.00048320920187434885
7.06800e-06;0.0005133053097904988
7.06825e-06;0.0005484386480752162
7.06850e-06;0.0005884099679542376
7.06875e-06;0.0006330449880439524
7.06900e-06;0.0006821838503355582
7.06925e-06;0.0007364842164221041
7.06950e-06;0.0007940166975730007
7.06975e-06;0.0008547274151141194
7.07000e-06;0.0009191142266871778
7.07025e-06;0.000986517987495084
7.07050e-06;0.001057411290210157
7.07075e-06;0.00112830459292523
7.07100e-06;0.0012017398915748333
7.07125e-06;0.0012781153793527263
7.07150e-06;0.0013544908671308782
7.07175e-06;0.0014308663549087715
7.07200e-06;0.0015072418426866647
7.07225e-06;0.0015824613757577147
7.07250e-06;0.0016576373459296317
7.07275e-06;0.0017328133161015487
7.07300e-06;0.0018079892862737203
7.07325e-06;0.0018795464144038582
7.07350e-06;0.0019469178237902546
7.07375e-06;0.002014289233176879
7.07400e-06;0.0020763760197588365
7.07425e-06;0.002132350369138376
7.07450e-06;0.002188324718518105
7.07475e-06;0.00223949281411557
7.07500e-06;0.002285101776070283
7.07525e-06;0.0023307107380251503
7.07550e-06;0.002372612296176122
7.07575e-06;0.0024102257009864154
7.07600e-06;0.0024478391057965814
7.07625e-06;0.0024854525106067474
7.07650e-06;0.0025230659154170405
7.07675e-06;0.0025525927836171245
7.07700e-06;0.0025783419857691495
7.07725e-06;0.0026040911879212617
7.07750e-06;0.002629840390073287
7.07775e-06;0.002655589592225312
7.07800e-06;0.002674585588036965
7.07825e-06;0.002692827052422425
7.07850e-06;0.0027110685168078848
7.07875e-06;0.002729309981193406
7.07900e-06;0.0027475514455788655
7.07925e-06;0.0027657929099643252
7.07950e-06;0.0027840343743498466
7.07975e-06;0.0028022758387353064
7.08000e-06;0.0028205173031208277
7.08025e-06;0.002835551380088773
7.08050e-06;0.0028452468310945786
7.08075e-06;0.002854942282100417
7.08100e-06;0.0028646377331062226
7.08125e-06;0.002874333184112028
7.08150e-06;0.0028840286351178666
7.08175e-06;0.002893724086123672
7.08200e-06;0.0029034195371294776
7.08225e-06;0.002913114988135316
7.08250e-06;0.0029228104391411215
7.08275e-06;0.0029285645265179254
7.08300e-06;0.0029336291621589877
7.08325e-06;0.0029386937978000327
7.08350e-06;0.002943758433441078
7.08375e-06;0.0029488230690821403
7.08400e-06;0.0029538877047231853
7.08425e-06;0.0029589523403642476
7.08450e-06;0.0029640169760052925
7.08475e-06;0.0029690816116463375
7.08500e-06;0.0029661114960855303
7.08525e-06;0.0029617358839292714
7.08550e-06;0.002957360271773013
7.08575e-06;0.0029529846596167393
7.08600e-06;0.0029486090474604805
7.08625e-06;0.002944233435304222
7.08650e-06;0.0029398578231479484
7.08675e-06;0.0029354822109916895
7.08700e-06;0.002931106598835431
7.08725e-06;0.0029131449656814314
7.08750e-06;0.0028928067678054637
7.08775e-06;0.002872468569929496
7.08800e-06;0.0028521303720534593
7.08825e-06;0.002831792174177492
7.08850e-06;0.0028114539763014553
7.08875e-06;0.0027911157784254875
7.08900e-06;0.00277077758054952
7.08925e-06;0.0027504393826734835
7.08950e-06;0.0027262500472907156
7.08975e-06;0.0026949435899280443
7.09000e-06;0.002663637132565267
7.09025e-06;0.0026323306752025957
7.09050e-06;0.0026010242178399244
7.09075e-06;0.002569717760477147
7.09100e-06;0.0025384113031144753
7.09125e-06;0.002507104845751804
7.09150e-06;0.0024757983883890266
7.09175e-06;0.0024444919310263554
7.09200e-06;0.0024130766090024523
7.09225e-06;0.0023816422435871984
7.09250e-06;0.002350207878172051
7.09275e-06;0.002318773512756797
7.09300e-06;0.00228733914734165
7.09325e-06;0.0022559047819265023
7.09350e-06;0.0022244704165112483
7.09375e-06;0.002199147009762601
7.09400e-06;0.0021748925759518902
7.09425e-06;0.0021506381421410974
7.09450e-06;0.0021263837083303865
7.09475e-06;0.0021021292745196755
7.09500e-06;0.0020778748407088822
7.09525e-06;0.0020536204068981713
7.09550e-06;0.0020231424504620586
7.09575e-06;0.0019915758305889047
7.09600e-06;0.001960009210715858
7.09625e-06;0.001928442590842811
7.09650e-06;0.0018968759709696572
7.09675e-06;0.0018653093510966102
7.09700e-06;0.0018337427312234565
7.09725e-06;0.0018021761113504095
7.09750e-06;0.0017706094914773627
7.09775e-06;0.0017390428716042088
7.09800e-06;0.001693547301197479
7.09825e-06;0.0016456151783634523
7.09850e-06;0.001597683055529263
7.09875e-06;0.001549750932695236
7.09900e-06;0.0015018188098612094
7.09925e-06;0.00145388668702702
7.09950e-06;0.0014059545641929934
7.09975e-06;0.0013580224413589665
7.10000e-06;0.0013100903185247774
7.10025e-06;0.0012621581956907505
7.10050e-06;0.0012078927552491583
7.10075e-06;0.001152519445240967
7.10100e-06;0.0010971461352329635
7.10125e-06;0.0010417728252247723
7.10150e-06;0.0009864706019868932
7.10175e-06;0.000931299751158624
7.10200e-06;0.0008761289003301678
7.10225e-06;0.0008209580495018987
7.10250e-06;0.0007657871986736294
7.10275e-06;0.0007135463314717035
7.10300e-06;0.0006618179981251578
7.10325e-06;0.0006127152654048977
7.10350e-06;0.0005640718216712791
7.10375e-06;0.0005190860891012696
7.10400e-06;0.00047474018973263333
7.10425e-06;0.00043388581455230756
7.10450e-06;0.0003963515524886873
7.10475e-06;0.0003618092260299289
7.10500e-06;0.0003293709693675394
7.10525e-06;0.00029825398737224896
7.10550e-06;0.0002683370634066328
7.10575e-06;0.00023980234561977296
7.10600e-06;0.0002128660377018707
7.10625e-06;0.0001877443767800569
7.10650e-06;0.00016464264325705155
7.10675e-06;0.00014346776855919622
7.10700e-06;0.00012365950515698905
7.10725e-06;0.00010472350907866785
7.10750e-06;8.657984992648698e-05
7.10775e-06;6.933861661243912e-05
7.10800e-06;5.3131254113432604e-05
7.10825e-06;3.808917071046186e-05
7.10850e-06;2.433693138064115e-05
7.10875e-06;1.1812202985255394e-05
7.10900e-06;1.6003095446814707e-07
7.10925e-06;-1.093322450008112e-05
7.10950e-06;-2.1521604081063877e-05
7.10975e-06;-3.154011265406825e-05
7.11000e-06;-4.091039607156668e-05
7.11025e-06;-4.955412249781021e-05
7.11050e-06;-5.739725131838267e-05
7.11075e-06;-6.448282145614624e-05
7.11100e-06;-7.103716306035979e-05
7.11125e-06;-7.726069412112112e-05
7.11150e-06;-8.31912183057258e-05
7.11175e-06;-8.86295726667799e-05
7.11200e-06;-9.398942139520151e-05
7.11225e-06;-9.86242364059628e-05
7.11250e-06;-0.00010313222329285526
7.11275e-06;-0.00010696779882834663
7.11300e-06;-0.00011068575132355464
7.11325e-06;-0.00011412102618990227
7.11350e-06;-0.00011750685304790713
7.11375e-06;-0.00012070976338427813
7.11400e-06;-0.00012373112942188594
7.11425e-06;-0.0001265560862030941
7.11450e-06;-0.00012915335581299188
7.11475e-06;-0.0001313052205269805
7.11500e-06;-0.0001325260045601811
7.11525e-06;-0.00013242733237760348
7.11550e-06;-0.0001309233810217711
7.11575e-06;-0.00012805946345298083
7.11600e-06;-0.00012389531528324407
7.11625e-06;-0.00011849065354649035
7.11650e-06;-0.00011190083856723333
7.11675e-06;-0.00010406448627795388
7.11700e-06;-9.475233991412543e-05
7.11725e-06;-8.379611675196363e-05
7.11750e-06;-7.121708360717379e-05
7.11775e-06;-5.711863426159521e-05
7.11800e-06;-4.1613186981707776e-05
7.11825e-06;-2.481315275784045e-05
7.11850e-06;-6.8282043291713125e-06
7.11875e-06;1.2305123817370773e-05
7.11900e-06;3.265544380579936e-05
7.11925e-06;5.425316611903789e-05
7.11950e-06;7.700996640436389e-05
7.11975e-06;0.00010078608167253788
7.12000e-06;0.00012543610701989952
7.12025e-06;0.0001510544577448284
7.12050e-06;0.00017681999881272826
7.12075e-06;0.00020359542073211773
7.12100e-06;0.0002305474982891401
7.12125e-06;0.00025749957584625383
7.12150e-06;0.000284968016242072
7.12175e-06;0.00031252678254751863
7.12200e-06;0.00034008554885305866
7.12225e-06;0.0003676443151585053
7.12250e-06;0.00039390692090339685
7.12275e-06;0.0004199427929004068
7.12300e-06;0.0004459786648974168
7.12325e-06;0.00047201453689451494
7.12350e-06;0.0004954233034417535
7.12375e-06;0.0005183725177679713
7.12400e-06;0.0005413217320942669
7.12425e-06;0.0005613157213973219
7.12450e-06;0.00058079276143856
7.12475e-06;0.0005973788813288232
7.12500e-06;0.0006134593006289472
7.12525e-06;0.0006266670805929899
7.12550e-06;0.00063937235777892
7.12575e-06;0.0006491063832650913
7.12600e-06;0.0006583206559876932
7.12625e-06;0.0006643986542609231
7.12650e-06;0.000669928032801737
7.12675e-06;0.0006722703816223514
7.12700e-06;0.0006740552322327715
7.12725e-06;0.000672880250460114
7.12750e-06;0.0006711875134730837
7.12775e-06;0.0006660107702203649
7.12800e-06;0.0006602245794796008
7.12825e-06;0.0006544383887388171
7.12850e-06;0.0006447441329723158
7.12875e-06;0.0006343662503029465
7.12900e-06;0.0006239883676335419
7.12925e-06;0.0006103703550085925
7.12950e-06;0.0005961855554976068
7.12975e-06;0.0005820007559865732
7.13000e-06;0.0005652713066663696
7.13025e-06;0.0005480967288602246
7.13050e-06;0.0005309221510540216
7.13075e-06;0.0005116814998714874
7.13100e-06;0.000492079436242066
7.13125e-06;0.00047247737261271104
7.13150e-06;0.0004528753089833561
7.13175e-06;0.00043301718401349824
7.13200e-06;0.0004126858430680613
7.13225e-06;0.0003923545021226244
7.13250e-06;0.00037202316117711855
7.13275e-06;0.0003516918202316816
7.13300e-06;0.0003324430739922532
7.13325e-06;0.00031338370302183517
7.13350e-06;0.0002943243320514817
7.13375e-06;0.0002769286390962741
7.13400e-06;0.00025982396869082824
7.13425e-06;0.0002440648455329291
7.13450e-06;0.0002300645274080875
7.13475e-06;0.00021633069902594006
7.13500e-06;0.00020385047505267552
7.13525e-06;0.00019158954059824508
7.13550e-06;0.00018003946479877358
7.13575e-06;0.00016861373751891678
7.13600e-06;0.00015815594595066865
7.13625e-06;0.00014786747267378156
7.13650e-06;0.00013877449162159785
7.13675e-06;0.00012989063468614117
7.13700e-06;0.00012174776073638838
7.13725e-06;0.0001137345048713081
7.13750e-06;0.00010600980039966352
7.13775e-06;9.872013734207352e-05
7.13800e-06;9.149774532784571e-05
7.13825e-06;8.475679145637701e-05
7.13850e-06;7.848279329647033e-05
7.13875e-06;7.273617606414764e-05
7.13900e-06;6.707010046963804e-05
7.13925e-06;6.162834261238597e-05
7.13950e-06;5.6342921567831375e-05
7.13975e-06;5.131817366509628e-05
7.14000e-06;4.6335441457814765e-05
7.14025e-06;4.165741117427457e-05
7.14050e-06;3.7277069786494186e-05
7.14075e-06;3.3166768778445947e-05
7.14100e-06;2.9240052193902288e-05
7.14125e-06;2.542172117658727e-05
7.14150e-06;2.170362459973007e-05
7.14175e-06;1.8108326659690925e-05
7.14200e-06;1.4661836815158477e-05
7.14225e-06;1.1390150862053499e-05
7.14250e-06;8.318166827253242e-06
7.14275e-06;5.4407698582698446e-06
7.14300e-06;2.7060655504630987e-06
7.14325e-06;6.921230002646115e-08
7.14350e-06;-2.4726335057006184e-06
7.14375e-06;-4.903069167308279e-06
7.14400e-06;-7.20354108158386e-06
7.14425e-06;-9.35550399046171e-06
7.14450e-06;-1.1336143153120246e-05
7.14475e-06;-1.3009109318599837e-05
7.14500e-06;-1.40753379639699e-05
7.14525e-06;-1.4296356328540665e-05
7.14550e-06;-1.3619041648167885e-05
7.14575e-06;-1.2070381553715546e-05
