Time(s);Current(A)
7.50000e-07;0.006160897104033751
7.50250e-07;0.006188169813411144
7.50500e-07;0.00621445406477323
7.50750e-07;0.006237069571800583
7.51000e-07;0.006257701626457327
7.51250e-07;0.006271953024018913
7.51500e-07;0.006282754813680162
7.51750e-07;0.00629355660334141
7.52000e-07;0.006294795786478878
7.52250e-07;0.00629086508781257
7.52500e-07;0.006286934389146265
7.52750e-07;0.006283003690479958
7.53000e-07;0.0062762750017279064
7.53250e-07;0.006253576290537946
7.53500e-07;0.006230877579347986
7.53750e-07;0.006208178868158026
7.54000e-07;0.006185480156968077
7.54250e-07;0.006150413647925345
7.54500e-07;0.006108660671870398
7.54750e-07;0.006066907695815452
7.55000e-07;0.006025154719760505
7.55250e-07;0.005983401743705558
7.55500e-07;0.00594164876765063
7.55750e-07;0.005890028195217508
7.56000e-07;0.00583307285272604
7.56250e-07;0.005776117510234572
7.56500e-07;0.005719162167743105
7.56750e-07;0.005662206825251661
7.57000e-07;0.005605251482760193
7.57250e-07;0.005544884008550596
7.57500e-07;0.005482671815786711
7.57750e-07;0.005420459623022826
7.58000e-07;0.005358386970295839
7.58250e-07;0.005296389757826287
7.58500e-07;0.005235663216075374
7.58750e-07;0.005175623643657638
7.59000e-07;0.0051176944002022514
7.59250e-07;0.005060906074892498
7.59500e-07;0.005007246670438981
7.59750e-07;0.004955278870775459
7.60000e-07;0.004907570870772594
7.60250e-07;0.004862165868461722
7.60500e-07;0.004822055428229545
7.60750e-07;0.004784807414688443
7.61000e-07;0.00475323676638142
7.61250e-07;0.004724735501630463
7.61500e-07;0.004703579584121406
7.61750e-07;0.004686394819974601
7.62000e-07;0.004669210055827796
7.62250e-07;0.004661321680666224
7.62500e-07;0.004658459260733145
7.62750e-07;0.004655596840800065
7.63000e-07;0.004664683078062549
7.63250e-07;0.004680229180139318
7.63500e-07;0.0046957752822160866
7.63750e-07;0.0047113213842928554
7.64000e-07;0.004726867486369618
7.64250e-07;0.004755508690464942
7.64500e-07;0.004791229567814318
7.64750e-07;0.004826950445163695
7.65000e-07;0.004862671322513072
7.65250e-07;0.004898392199862434
7.65500e-07;0.0049415146434721715
7.65750e-07;0.00498863863442514
7.66000e-07;0.00503829187670393
7.66250e-07;0.0050907905374399775
7.66500e-07;0.005145406087893583
7.66750e-07;0.005201862711314849
7.67000e-07;0.005259835958184132
7.67250e-07;0.0053189847764663865
7.67500e-07;0.0053789790443553665
7.67750e-07;0.005439496009450542
7.68000e-07;0.00550021329529681
7.68250e-07;0.005560808803127614
7.68500e-07;0.005620957436212814
7.68750e-07;0.005680314165161445
7.69000e-07;0.00573850450964139
7.69250e-07;0.005795143065515258
7.69500e-07;0.005849851217051248
7.69750e-07;0.005898296590265246
7.70000e-07;0.005943747273948403
7.70250e-07;0.00598919795763156
7.70500e-07;0.006034648641314717
7.70750e-07;0.0060800993249978735
7.71000e-07;0.0061192234749850695
7.71250e-07;0.006154927278087245
7.71500e-07;0.00619063108118942
7.71750e-07;0.006221107502932497
7.72000e-07;0.006248757818247028
7.72250e-07;0.006276408133561548
7.72500e-07;0.006304058448876079
7.72750e-07;0.00633170876419061
7.73000e-07;0.006353679326474086
7.73250e-07;0.006372579214274302
7.73500e-07;0.006391479102074518
7.73750e-07;0.006410378989874728
7.74000e-07;0.006429278877674944
7.74250e-07;0.006441498852713696
7.74500e-07;0.006450107431701439
7.74750e-07;0.006458716010689183
7.75000e-07;0.006467324589676926
7.75250e-07;0.006475933168664666
7.75500e-07;0.0064845417476524095
7.75750e-07;0.006493150326640153
7.76000e-07;0.006501758905627896
7.76250e-07;0.00651036748461564
7.76500e-07;0.006518976063603379
7.76750e-07;0.006527584642591122
7.77000e-07;0.00653518740337527
7.77250e-07;0.00653704927917107
7.77500e-07;0.00653891115496687
7.77750e-07;0.00654077303076267
7.78000e-07;0.006542634906558468
7.78250e-07;0.0065444967823542685
7.78500e-07;0.006546358658150068
7.78750e-07;0.006548220533945868
7.79000e-07;0.006550082409741667
7.79250e-07;0.0065519442855374675
7.79500e-07;0.006553806161333267
7.79750e-07;0.006555668037129066
7.80000e-07;0.006557480742090957
7.80250e-07;0.0065592668635686404
7.80500e-07;0.006561052985046324
7.80750e-07;0.006561956629135435
7.81000e-07;0.0065623831748746085
7.81250e-07;0.006562809720613782
7.81500e-07;0.006559785950032711
7.81750e-07;0.006554896816956838
7.82000e-07;0.006550007683880965
7.82250e-07;0.006545118550805094
7.82500e-07;0.006540229417729221
7.82750e-07;0.0065353402846533475
7.83000e-07;0.006525374010003976
7.83250e-07;0.006512662853844337
7.83500e-07;0.006499951697684698
7.83750e-07;0.0064872405415250635
7.84000e-07;0.006474529385365424
7.84250e-07;0.006461818229205785
7.84500e-07;0.006443738192340936
7.84750e-07;0.00642275554951853
7.85000e-07;0.006401772906696134
7.85250e-07;0.006380790263873728
7.85500e-07;0.0063598076210513235
7.85750e-07;0.006338824978228918
7.86000e-07;0.006317842335406512
7.86250e-07;0.006296859692584107
7.86500e-07;0.006275272783087056
7.86750e-07;0.006250236914852562
7.87000e-07;0.006225201046618067
7.87250e-07;0.006200165178383572
7.87500e-07;0.006175129310149077
7.87750e-07;0.006150093441914593
7.88000e-07;0.006125057573680099
7.88250e-07;0.006100021705445604
7.88500e-07;0.006074985837211109
7.88750e-07;0.006051357192763434
7.89000e-07;0.006028489343045896
7.89250e-07;0.006005621493328369
7.89500e-07;0.005984843217881741
7.89750e-07;0.005965194639863791
7.90000e-07;0.005945546061845841
7.90250e-07;0.005928772109338867
7.90500e-07;0.005913552280604072
7.90750e-07;0.0058983324518692825
7.91000e-07;0.005884016761972827
7.91250e-07;0.005870189881368798
7.91500e-07;0.005856363000764769
7.91750e-07;0.0058429434360171735
7.92000e-07;0.005829744080563927
7.92250e-07;0.005816544725110674
7.92500e-07;0.005803345369657421
7.92750e-07;0.005790146014204168
7.93000e-07;0.005776673966286034
7.93250e-07;0.005763054491219372
7.93500e-07;0.005749435016152716
7.93750e-07;0.0057358155410860544
7.94000e-07;0.005722196066019392
7.94250e-07;0.005707800058203728
7.94500e-07;0.00569298422944078
7.94750e-07;0.005678168400677831
7.95000e-07;0.0056633525719148895
7.95250e-07;0.005648536743151941
7.95500e-07;0.0056337209143889925
7.95750e-07;0.005618905085626044
7.96000e-07;0.0056040892568630955
7.96250e-07;0.0055889839077113285
7.96500e-07;0.0055737220336428
7.96750e-07;0.005558460159574272
7.97000e-07;0.005543198285505743
7.97250e-07;0.005527936411437215
7.97500e-07;0.005512674537368686
7.97750e-07;0.005497412663300164
7.98000e-07;0.005482150789231636
7.98250e-07;0.005468991041073663
7.98500e-07;0.0054569677762027384
7.98750e-07;0.005444944511331815
7.99000e-07;0.00543292124646089
7.99250e-07;0.005420897981589971
7.99500e-07;0.005408874716719046
7.99750e-07;0.005396851451848122
8.00000e-07;0.005384828186977197
8.00250e-07;0.005374148420270498
8.00500e-07;0.005371136906549959
8.00750e-07;0.005368125392829418
8.01000e-07;0.005365113879108878
8.01250e-07;0.005362102365388337
8.01500e-07;0.005359090851667797
8.01750e-07;0.005356079337947257
8.02000e-07;0.005353067824226718
8.02250e-07;0.005350056310506177
8.02500e-07;0.005354840332367453
8.02750e-07;0.005363838895259731
8.03000e-07;0.0053728374581520095
8.03250e-07;0.005381836021044288
8.03500e-07;0.005390834583936562
8.03750e-07;0.0053998331468288405
8.04000e-07;0.005408831709721119
8.04250e-07;0.005419276798683948
8.04500e-07;0.005437978190599427
8.04750e-07;0.005456679582514899
8.05000e-07;0.005475380974430379
8.05250e-07;0.005494082366345859
8.05500e-07;0.0055127837582613385
8.05750e-07;0.005531485150176818
8.06000e-07;0.0055501865420922985
8.06250e-07;0.0055718601065683415
8.06500e-07;0.005595140532186433
8.06750e-07;0.005618420957804526
8.07000e-07;0.005642576808246137
8.07250e-07;0.0056672059441727025
8.07500e-07;0.005691835080099256
8.07750e-07;0.005716677304241006
8.08000e-07;0.005741634731375123
8.08250e-07;0.005766592158509239
8.08500e-07;0.005791068096952874
8.08750e-07;0.0058152837256563086
8.09000e-07;0.005839499354359734
8.09250e-07;0.005862511815467075
8.09500e-07;0.005884873801806167
8.09750e-07;0.005907235788145259
8.10000e-07;0.005925933181088003
8.10250e-07;0.005942649365803433
8.10500e-07;0.005959365550518856
8.10750e-07;0.005976081735234286
8.11000e-07;0.0059927979199497165
8.11250e-07;0.006009514104665148
8.11500e-07;0.006026230289380578
8.11750e-07;0.006041672587012782
8.12000e-07;0.006049843949194286
8.12250e-07;0.0060580153113757905
8.12500e-07;0.0060661866735572945
8.12750e-07;0.006074358035738799
8.13000e-07;0.006082529397920303
8.13250e-07;0.0060907007601018045
8.13500e-07;0.0060988721222833085
8.13750e-07;0.006101200820685784
8.14000e-07;0.006100370769318087
8.14250e-07;0.006099540717950389
8.14500e-07;0.006098710666582692
8.14750e-07;0.006097880615214994
8.15000e-07;0.0060970505638472975
8.15250e-07;0.0060962205124796
8.15500e-07;0.006095390461111902
8.15750e-07;0.0060945604097442044
8.16000e-07;0.006093730358376508
8.16250e-07;0.00609290030700881
8.16500e-07;0.006091348633584359
8.16750e-07;0.006085678174858098
8.17000e-07;0.006080007716131837
8.17250e-07;0.006074337257405576
8.17500e-07;0.0060686667986793175
8.17750e-07;0.006062996339953056
8.18000e-07;0.006057325881226795
8.18250e-07;0.006051655422500534
8.18500e-07;0.006045984963774273
8.18750e-07;0.006040314505048012
8.19000e-07;0.006034644046321753
8.19250e-07;0.006028973587595492
8.19500e-07;0.006025552343926048
8.19750e-07;0.006023347105115442
8.20000e-07;0.006021141866304834
8.20250e-07;0.0060189366274942275
8.20500e-07;0.00601673138868362
8.20750e-07;0.0060145261498730125
8.21000e-07;0.006012320911062405
8.21250e-07;0.006010115672251798
8.21500e-07;0.006007910433441191
8.21750e-07;0.006005705194630584
8.22000e-07;0.006003499955819977
8.22250e-07;0.006001294717009369
8.22500e-07;0.005999089478198762
8.22750e-07;0.005996884239388154
8.23000e-07;0.005996806924969964
8.23250e-07;0.0059978800414065645
8.23500e-07;0.005998953157843165
8.23750e-07;0.006000026274279766
8.24000e-07;0.006001099390716367
8.24250e-07;0.006002172507152967
8.24500e-07;0.006003245623589567
8.24750e-07;0.006004318740026168
8.25000e-07;0.0060053918564627684
8.25250e-07;0.006006464972899369
8.25500e-07;0.00600753808933597
8.25750e-07;0.0060086112057725705
8.26000e-07;0.006009684322209171
8.26250e-07;0.006010757438645772
8.26500e-07;0.006012622877181145
8.26750e-07;0.0060149166729422795
8.27000e-07;0.006017210468703415
8.27250e-07;0.0060195042644645485
8.27500e-07;0.006021798060225683
8.27750e-07;0.006024091855986818
8.28000e-07;0.006026385651747953
8.28250e-07;0.006028679447509088
8.28500e-07;0.006030973243270223
8.28750e-07;0.00603373462409361
8.29000e-07;0.0060367487978662095
8.29250e-07;0.006039762971638809
8.29500e-07;0.0060427771454114095
8.29750e-07;0.006045791319184009
8.30000e-07;0.0060488054929566095
8.30250e-07;0.006051819666729208
8.30500e-07;0.006054833840501808
8.30750e-07;0.006057848014274408
8.31000e-07;0.006062394213746124
8.31250e-07;0.0060677686802563194
8.31500e-07;0.006073143146766513
8.31750e-07;0.006078517613276708
8.32000e-07;0.006083892079786904
8.32250e-07;0.0060892665462971
8.32500e-07;0.006094641012807295
8.32750e-07;0.0061000154793174905
8.33000e-07;0.006105389945827684
8.33250e-07;0.00611128242576002
8.33500e-07;0.00612013155876215
8.33750e-07;0.006128980691764281
8.34000e-07;0.0061378298247664114
8.34250e-07;0.006146678957768542
8.34500e-07;0.006155528090770668
8.34750e-07;0.006164377223772798
8.35000e-07;0.0061732263567749295
8.35250e-07;0.00618207548977706
8.35500e-07;0.00619092462277919
8.35750e-07;0.00620120203775999
8.36000e-07;0.0062122516322709945
8.36250e-07;0.006223301226781998
8.36500e-07;0.006234350821293003
8.36750e-07;0.0062454004158040075
8.37000e-07;0.006256450010315011
8.37250e-07;0.0062674996048260115
8.37500e-07;0.006278549199337015
8.37750e-07;0.0062895734915184185
8.38000e-07;0.006300453366186119
8.38250e-07;0.006311333240853819
8.38500e-07;0.00632221311552152
8.38750e-07;0.006333092990189215
8.39000e-07;0.006343972864856915
8.39250e-07;0.006354852739524615
8.39500e-07;0.006365732614192316
8.39750e-07;0.006376612488860016
8.40000e-07;0.006386626755993274
8.40250e-07;0.006396173045213727
8.40500e-07;0.006404903705287132
8.40750e-07;0.006413193407523784
8.41000e-07;0.006418606368480016
8.41250e-07;0.006422464061804503
8.41500e-07;0.006426321755128988
8.41750e-07;0.006425089954816199
8.42000e-07;0.006421106595032311
8.42250e-07;0.0064171232352484234
8.42500e-07;0.006413139875464535
8.42750e-07;0.0064091565156806475
8.43000e-07;0.006398240323259507
8.43250e-07;0.006383575997396384
8.43500e-07;0.006368911671533262
8.43750e-07;0.006354247345670139
8.44000e-07;0.006339583019807016
8.44250e-07;0.00631753080678139
8.44500e-07;0.006291484441814078
8.44750e-07;0.006265438076846766
8.45000e-07;0.006239391711879454
8.45250e-07;0.006213345346912142
8.45500e-07;0.006187298981944829
8.45750e-07;0.006161252616977529
8.46000e-07;0.006129820668663727
8.46250e-07;0.006095477084356125
8.46500e-07;0.006061133500048522
8.46750e-07;0.00602678991574092
8.47000e-07;0.0059924463314333315
8.47250e-07;0.005958102747125729
8.47500e-07;0.005923759162818127
8.47750e-07;0.0058885389302828816
8.48000e-07;0.00585284475084731
8.48250e-07;0.005817150571411739
8.48500e-07;0.005782721319891833
8.48750e-07;0.005748975932943644
8.49000e-07;0.005715230545995456
8.49250e-07;0.0056833284980472455
8.49500e-07;0.005652423024069918
8.49750e-07;0.005623723693188487
8.50000e-07;0.00559621708094723
8.50250e-07;0.005571616780384079
8.50500e-07;0.0055485877342509185
8.50750e-07;0.00552970801438443
8.51000e-07;0.00551307156640343
8.51250e-07;0.005503129665037099
8.51500e-07;0.005496807071298464
8.51750e-07;0.005490484477559829
8.52000e-07;0.005493622824261094
8.52250e-07;0.005501876088502015
8.52500e-07;0.0055101293527429355
8.52750e-07;0.0055183826169838525
8.53000e-07;0.0055380032307462985
8.53250e-07;0.005563769433926254
8.53500e-07;0.0055895356371062094
8.53750e-07;0.005615301840286165
8.54000e-07;0.00564911235027878
8.54250e-07;0.005687271895789772
8.54500e-07;0.00572899107237905
8.54750e-07;0.00577492639150543
8.55000e-07;0.005824374219344929
8.55250e-07;0.005877202036755835
8.55500e-07;0.005933142501783518
8.55750e-07;0.005991880206869003
8.56000e-07;0.006053096337438961
8.56250e-07;0.006116472217764374
8.56500e-07;0.00618170051887786
8.56750e-07;0.0062485262026030185
8.57000e-07;0.0063167334381449
8.57250e-07;0.006386050299569977
8.57500e-07;0.006456119603282874
8.57750e-07;0.0065265542950379745
8.58000e-07;0.006596965106563301
8.58250e-07;0.006666962883866954
8.58500e-07;0.006736166053840899
8.58750e-07;0.006804225376943214
8.59000e-07;0.006870816948372858
8.59250e-07;0.006935580242671849
8.59500e-07;0.006998102399827561
8.59750e-07;0.007057952127772057
8.60000e-07;0.007114696222663906
8.60250e-07;0.007167901456097384
8.60500e-07;0.007217178287476695
8.60750e-07;0.007261121108567444
8.61000e-07;0.0073029498321917925
8.61250e-07;0.007338536683126222
8.61500e-07;0.007370748957896163
8.61750e-07;0.007402961232666106
8.62000e-07;0.007425709947472031
8.62250e-07;0.007443342328531261
8.62500e-07;0.00746097470959049
8.62750e-07;0.007478607090649712
8.63000e-07;0.00748582754324872
8.63250e-07;0.007487418940698094
8.63500e-07;0.007489010338147468
8.63750e-07;0.0074906017355968425
8.64000e-07;0.007483963948278584
8.64250e-07;0.007472877173909503
8.64500e-07;0.007461790399540423
8.64750e-07;0.007444454548790012
8.65000e-07;0.007423740227305844
8.65250e-07;0.007403025905821676
8.65500e-07;0.007377398969031536
8.65750e-07;0.007349116099424326
8.66000e-07;0.0073208332298171155
8.66250e-07;0.007288691095868323
8.66500e-07;0.007254462507724339
8.66750e-07;0.007220233919580369
8.67000e-07;0.0071838686561061646
8.67250e-07;0.007146348230711987
8.67500e-07;0.007107971825423643
8.67750e-07;0.00706913264726381
8.68000e-07;0.0070300729756955045
8.68250e-07;0.006990894097626597
8.68500e-07;0.006952158775523312
8.68750e-07;0.006913663255393512
8.69000e-07;0.00687643508120165
8.69250e-07;0.006839892078849531
8.69500e-07;0.006806100634748311
8.69750e-07;0.006773796779925212
8.70000e-07;0.0067414929251021
8.70250e-07;0.0067137791818607075
8.70500e-07;0.00668854701456708
8.70750e-07;0.006663314847273452
8.71000e-07;0.006641939400360446
8.71250e-07;0.006622649032287757
8.71500e-07;0.0066033586642150685
8.71750e-07;0.00658406829614238
8.72000e-07;0.006569042412648355
8.72250e-07;0.006556322059678292
8.72500e-07;0.006543601706708233
8.72750e-07;0.0065308813537381695
8.73000e-07;0.006522107439851134
8.73250e-07;0.0065154671098941255
8.73500e-07;0.006508826779937117
8.73750e-07;0.006502186449980109
8.74000e-07;0.006495546120023103
8.74250e-07;0.006492584387841488
8.74500e-07;0.006491611435147787
8.74750e-07;0.006490638482454087
8.75000e-07;0.006489665529760386
8.75250e-07;0.006488692577066685
8.75500e-07;0.0064912276609003965
8.75750e-07;0.006495659312805576
8.76000e-07;0.006500090964710755
8.76250e-07;0.006504522616615934
8.76500e-07;0.006508954268521112
8.76750e-07;0.00651338592042629
8.77000e-07;0.006517817572331469
8.77250e-07;0.006522249224236648
8.77500e-07;0.006526680876141827
8.77750e-07;0.006531112528047006
8.78000e-07;0.006537298636482431
8.78250e-07;0.006544433265895914
8.78500e-07;0.0065515678953094
8.78750e-07;0.006558702524722885
8.79000e-07;0.006565837154136371
8.79250e-07;0.0065729717835498564
8.79500e-07;0.0065801064129633385
8.79750e-07;0.006587241042376824
8.80000e-07;0.0065943756717903096
8.80250e-07;0.006601510301203795
8.80500e-07;0.00660787363187908
8.80750e-07;0.006613819971297571
8.81000e-07;0.006619766310716059
8.81250e-07;0.006623262646611144
8.81500e-07;0.006625434424332107
8.81750e-07;0.006627606202053069
8.82000e-07;0.006629777979774032
8.82250e-07;0.006631949757494993
8.82500e-07;0.006634121535215955
8.82750e-07;0.006636293312936917
8.83000e-07;0.00663476901403559
8.83250e-07;0.00663124648596623
8.83500e-07;0.00662772395789687
8.83750e-07;0.006624201429827512
8.84000e-07;0.006620678901758152
8.84250e-07;0.006617156373688792
8.84500e-07;0.006613633845619432
8.84750e-07;0.006606590245291739
8.85000e-07;0.006597643029317409
8.85250e-07;0.006588695813343082
8.85500e-07;0.0065797485973687515
8.85750e-07;0.006570801381394421
8.86000e-07;0.00656185416542009
8.86250e-07;0.006552906949445759
8.86500e-07;0.006543959733471432
8.86750e-07;0.006535012517497101
8.87000e-07;0.0065258248305241325
8.87250e-07;0.006515264612867545
8.87500e-07;0.006504704395210957
8.87750e-07;0.006494144177554369
8.88000e-07;0.0064835839598977865
8.88250e-07;0.006473023742241199
8.88500e-07;0.006462463524584612
8.88750e-07;0.006451903306928024
8.89000e-07;0.006441343089271436
8.89250e-07;0.006430782871614848
8.89500e-07;0.006421746681447613
8.89750e-07;0.006413534434205082
8.90000e-07;0.006405322186962552
8.90250e-07;0.006398792480237022
8.90500e-07;0.006393172414160505
8.90750e-07;0.006387552348083991
8.91000e-07;0.006385745365786753
8.91250e-07;0.006385999870846689
8.91500e-07;0.0063862543759066245
8.91750e-07;0.006386508880966561
8.92000e-07;0.0063867633860264965
8.92250e-07;0.006388275997043561
8.92500e-07;0.006396969469949154
8.92750e-07;0.006405662942854746
8.93000e-07;0.006414356415760338
8.93250e-07;0.00642304988866593
8.93500e-07;0.006431743361571522
8.93750e-07;0.006445938664114702
8.94000e-07;0.006463108449490098
8.94250e-07;0.006480278234865495
8.94500e-07;0.006497448020240891
8.94750e-07;0.0065146178056162875
8.95000e-07;0.0065317875909916764
8.95250e-07;0.006553288054306149
8.95500e-07;0.006577129834606091
8.95750e-07;0.006600971614906032
8.96000e-07;0.006624813395205974
8.96250e-07;0.006648655175505916
8.96500e-07;0.006672496955805848
8.96750e-07;0.006698121322295442
8.97000e-07;0.006724709417647495
8.97250e-07;0.006751755577098981
8.97500e-07;0.00677904938213195
8.97750e-07;0.006806456834213013
8.98000e-07;0.006833925727889997
8.98250e-07;0.006861154783980124
8.98500e-07;0.006888254175425642
8.98750e-07;0.0069147859361362645
8.99000e-07;0.006941010815684218
8.99250e-07;0.006966334075167097
8.99500e-07;0.006991169887095011
8.99750e-07;0.007014714475114796
9.00000e-07;0.007037560982023332
9.00250e-07;0.007059191979347001
9.00500e-07;0.0070793174058141626
9.00750e-07;0.0070985467848388205
