Time(s);Current(A)
4.25000e-06;-0.0003905449000436245
4.25025e-06;-0.0003624061879485755
4.25050e-06;-0.0003363804569654957
4.25075e-06;-0.0003125896364212899
4.25100e-06;-0.00029093435477563234
4.25125e-06;-0.00027122557119779755
4.25150e-06;-0.0002534229083699353
4.25175e-06;-0.00023760291617752673
4.25200e-06;-0.00022385194246545259
4.25225e-06;-0.00021225629019981643
4.25250e-06;-0.00020289313070542936
4.25275e-06;-0.00019577408716852003
4.25300e-06;-0.00019077217000258148
4.25325e-06;-0.00018770421603020164
4.25350e-06;-0.00018648021940342624
4.25375e-06;-0.00018708341668541368
4.25400e-06;-0.00018950316154007333
4.25425e-06;-0.00019372878297051684
4.25450e-06;-0.00019974389502548756
4.25475e-06;-0.00020749105645812842
4.25500e-06;-0.00021682598639234947
4.25525e-06;-0.0002275692579774377
4.25550e-06;-0.0002397772405123065
4.25575e-06;-0.0002532461148978869
4.25600e-06;-0.00026738127436251705
4.25625e-06;-0.0002830323830595738
4.25650e-06;-0.0002992466764151988
4.25675e-06;-0.00031674234223085765
4.25700e-06;-0.0003346147766592329
4.25725e-06;-0.0003533444448863208
4.25750e-06;-0.00037228395723573653
4.25775e-06;-0.0003917009124189967
4.25800e-06;-0.0004111936567414247
4.25825e-06;-0.00043085883849465034
4.25850e-06;-0.00045045630853021175
4.25875e-06;-0.00046989971909542293
4.25900e-06;-0.0004890797648458499
4.25925e-06;-0.0005076605960839185
4.25950e-06;-0.0005257946410611087
4.25975e-06;-0.000542912146255728
4.26000e-06;-0.0005595927686945685
4.26025e-06;-0.0005749339654442148
4.26050e-06;-0.0005891506625843735
4.26075e-06;-0.0006024800232825063
4.26100e-06;-0.0006157795754827759
4.26125e-06;-0.0006300001209062507
4.26150e-06;-0.0006454378582657915
4.26175e-06;-0.0006620710387050674
4.26200e-06;-0.0006796384018070566
4.26225e-06;-0.0006975095434891868
4.26250e-06;-0.0007162329009490159
4.26275e-06;-0.0007355945808470297
4.26300e-06;-0.0007565520894076978
4.26325e-06;-0.0007797329605230744
4.26350e-06;-0.000802913831638451
4.26375e-06;-0.0008271823673897492
4.26400e-06;-0.0008539255861581373
4.26425e-06;-0.0008814029527861681
4.26450e-06;-0.0009105506718193293
4.26475e-06;-0.0009396983908523918
4.26500e-06;-0.000969885327764892
4.26525e-06;-0.001002436720367316
4.26550e-06;-0.0010349881129697396
4.26575e-06;-0.0010682675102078618
4.26600e-06;-0.0011032032826268376
4.26625e-06;-0.0011384187168802739
4.26650e-06;-0.0011742704450515055
4.26675e-06;-0.0012102985791306534
4.26700e-06;-0.0012467280765439907
4.26725e-06;-0.0012833149992580173
4.26750e-06;-0.001320260100131726
4.26775e-06;-0.001357114367779967
4.26800e-06;-0.0013937619692988713
4.26825e-06;-0.0014300440164027295
4.26850e-06;-0.0014654943445441804
4.26875e-06;-0.0015004026412743644
4.26900e-06;-0.0015340776939656155
4.26925e-06;-0.0015670870569433326
4.26950e-06;-0.001598581825279748
4.26975e-06;-0.0016291435936805815
4.27000e-06;-0.0016575825762344578
4.27025e-06;-0.0016851430125804573
4.27050e-06;-0.0017100619183303628
4.27075e-06;-0.0017330205933587153
4.27100e-06;-0.0017546106477291335
4.27125e-06;-0.0017754554094408215
4.27150e-06;-0.0017958229102787828
4.27175e-06;-0.0018157613747448965
4.27200e-06;-0.0018347236844406768
4.27225e-06;-0.001853070741655068
4.27250e-06;-0.0018700179603376849
4.27275e-06;-0.0018864955867063285
4.27300e-06;-0.0019019047843646811
4.27325e-06;-0.001917165715280191
4.27350e-06;-0.0019320893058260946
4.27375e-06;-0.0019470128963719475
4.27400e-06;-0.0019615497185342537
4.27425e-06;-0.001975206555158247
4.27450e-06;-0.0019888633917821935
4.27475e-06;-0.0020021805205549833
4.27500e-06;-0.0020147247371431654
4.27525e-06;-0.0020271995003473932
4.27550e-06;-0.002039516241396683
4.27575e-06;-0.0020518329824460147
4.27600e-06;-0.002063845109626253
4.27625e-06;-0.0020751641713674857
4.27650e-06;-0.0020864832331087568
4.27675e-06;-0.0020978022948499896
4.27700e-06;-0.0021088229629587
4.27725e-06;-0.002119164718073231
4.27750e-06;-0.0021295064731877266
4.27775e-06;-0.0021398482283022575
4.27800e-06;-0.002149830258252011
4.27825e-06;-0.0021589938321019573
4.27850e-06;-0.002168157405951935
4.27875e-06;-0.002177320979801881
4.27900e-06;-0.0021860549663447653
4.27925e-06;-0.0021938115446151376
4.27950e-06;-0.0022015681228854836
4.27975e-06;-0.0022093247011558295
4.28000e-06;-0.0022167819083279217
4.28025e-06;-0.002223400375528539
4.28050e-06;-0.002229453677272505
4.28075e-06;-0.002234647604844584
4.28100e-06;-0.0022383121778887165
4.28125e-06;-0.0022397618244360375
4.28150e-06;-0.002238769517122118
4.28175e-06;-0.0022354014822527665
4.28200e-06;-0.0022297463572147733
4.28225e-06;-0.002221892759829603
4.28250e-06;-0.002211910224265131
4.28275e-06;-0.0021997406712592977
4.28300e-06;-0.002184656395991044
4.28325e-06;-0.0021666694138615297
4.28350e-06;-0.002147427472353201
4.28375e-06;-0.002124565587437059
4.28400e-06;-0.002099254896171862
4.28425e-06;-0.0020713724121558604
4.28450e-06;-0.0020413093194472727
4.28475e-06;-0.0020099946262876456
4.28500e-06;-0.0019758322590591113
4.28525e-06;-0.0019407069814432094
4.28550e-06;-0.0019028253565774253
4.28575e-06;-0.0018631650693649573
4.28600e-06;-0.001821966688970572
4.28625e-06;-0.0017794704868355445
4.28650e-06;-0.0017359094771870111
4.28675e-06;-0.0016914666254210856
4.28700e-06;-0.0016462324318786518
4.28725e-06;-0.001600293776339134
4.28750e-06;-0.0015538500645827743
4.28775e-06;-0.001507172784968561
4.28800e-06;-0.001460538970418551
4.28825e-06;-0.0014142255729832124
4.28850e-06;-0.0013685048173332527
4.28875e-06;-0.00132361759218493
4.28900e-06;-0.0012797469787190663
4.28925e-06;-0.001237073568426709
4.28950e-06;-0.0011958484802634714
4.28975e-06;-0.0011563681777499724
4.29000e-06;-0.001118932304141777
4.29025e-06;-0.0010838406386755373
4.29050e-06;-0.0010513390462188453
4.29075e-06;-0.0010213036042123398
4.29100e-06;-0.0009928841587927906
4.29125e-06;-0.0009650794581884332
4.29150e-06;-0.0009375914668217765
4.29175e-06;-0.0009106045769592421
4.29200e-06;-0.0008843413262711109
4.29225e-06;-0.000859024098675111
4.29250e-06;-0.0008348417310402614
4.29275e-06;-0.000811751229275105
4.29300e-06;-0.0007892548987025013
4.29325e-06;-0.0007667603602549745
4.29350e-06;-0.0007441157266291546
4.29375e-06;-0.0007214713159404004
4.29400e-06;-0.0006990013259456449
4.29425e-06;-0.0006768799139662674
4.29450e-06;-0.0006552601240638627
4.29475e-06;-0.0006341498383081149
4.29500e-06;-0.000613272121053614
4.29525e-06;-0.000592290738032484
4.29550e-06;-0.0005711453312400413
4.29575e-06;-0.000549964940382266
4.29600e-06;-0.0005288935987669864
4.29625e-06;-0.0005080751375242499
4.29650e-06;-0.0004876402275410182
4.29675e-06;-0.00046762869217270553
4.29700e-06;-0.00044791279137722863
4.29725e-06;-0.00042830878587562306
4.29750e-06;-0.00040877176787846935
4.29775e-06;-0.00038948133598383153
4.29800e-06;-0.0003705375120786063
4.29825e-06;-0.00035216545180880054
4.29850e-06;-0.00033440920484708713
4.29875e-06;-0.0003169452379141504
4.29900e-06;-0.00030030508566860974
4.29925e-06;-0.0002841855213836583
4.29950e-06;-0.00026861952796394155
4.29975e-06;-0.0002537143757313994
4.30000e-06;-0.00023958315206239794
4.30025e-06;-0.00022633894111296252
4.30050e-06;-0.00021410155899818215
4.30075e-06;-0.00020303305676922607
4.30100e-06;-0.0001933633402229083
4.30125e-06;-0.00018529540005669394
4.30150e-06;-0.0001789046633410972
4.30175e-06;-0.00017419303087188283
4.30200e-06;-0.00017115711327563325
4.30225e-06;-0.0001697934952953142
4.30250e-06;-0.0001701029882145159
4.30275e-06;-0.00017211283127851717
4.30300e-06;-0.00017589279163130868
4.30325e-06;-0.0001814957473198235
4.30350e-06;-0.00018889466979309043
4.30375e-06;-0.00019801647598897593
4.30400e-06;-0.0002087847752412713
4.30425e-06;-0.00022112314855433703
4.30450e-06;-0.00023495785774853875
4.30475e-06;-0.00025023169685058175
4.30500e-06;-0.00026711449579637666
4.30525e-06;-0.00028541988838300277
4.30550e-06;-0.000304453626237732
4.30575e-06;-0.0003251445142877443
4.30600e-06;-0.00034641509728167857
4.30625e-06;-0.0003690046173673581
4.30650e-06;-0.0003920313312208867
4.30675e-06;-0.000416052759764961
4.30700e-06;-0.00044039016743907273
4.30725e-06;-0.000465446499090358
4.30750e-06;-0.0004906573503033263
4.30775e-06;-0.0005162197684624237
4.30800e-06;-0.0005417529959400645
4.30825e-06;-0.0005672198080161979
4.30850e-06;-0.0005924775934864877
4.30875e-06;-0.000617259796158701
4.30900e-06;-0.0006416664920373841
4.30925e-06;-0.0006652188250421567
4.30950e-06;-0.0006882039968795949
4.30975e-06;-0.0007098987488017096
4.31000e-06;-0.0007308207607388994
4.31025e-06;-0.0007499846144605925
4.31050e-06;-0.000768184064937714
4.31075e-06;-0.0007841892799399379
4.31100e-06;-0.000798871672782272
4.31125e-06;-0.0008105443460635936
4.31150e-06;-0.0008222170193448758
4.31175e-06;-0.0008322257912008661
4.31200e-06;-0.0008384488110342322
4.31225e-06;-0.0008446718308675982
4.31250e-06;-0.0008491557081096873
4.31275e-06;-0.0008496826426613832
4.31300e-06;-0.0008502095772130792
4.31325e-06;-0.0008493410165079637
4.31350e-06;-0.000845297388511966
4.31375e-06;-0.0008404616222791333
4.31400e-06;-0.0008333143027696002
4.31425e-06;-0.0008245131715596037
4.31450e-06;-0.0008141055700658109
4.31475e-06;-0.0008021480014658224
4.31500e-06;-0.0007887210201165439
4.31525e-06;-0.0007739264737734678
4.31550e-06;-0.0007578676016290813
4.31575e-06;-0.0007406430545812732
4.31600e-06;-0.0007223508316674524
4.31625e-06;-0.0007030889950242792
4.31650e-06;-0.0006829562416926378
4.31675e-06;-0.0006620569994811847
4.31700e-06;-0.0006405107483424924
4.31725e-06;-0.0006184503740845577
4.31750e-06;-0.0005960095353545418
4.31775e-06;-0.0005733189990051569
4.31800e-06;-0.0005505091906323298
4.31825e-06;-0.00052771049539643
4.31850e-06;-0.0005050537427606678
4.31875e-06;-0.00048267335003207194
4.31900e-06;-0.0004607130810058309
4.31925e-06;-0.0004393251580095657
4.31950e-06;-0.0004186622433508282
4.31975e-06;-0.00039887516930205434
4.32000e-06;-0.00038011457084944315
4.32025e-06;-0.00036253102876597927
4.32050e-06;-0.00034626716037309207
4.32075e-06;-0.0003314075434825827
4.32100e-06;-0.0003181015513332718
4.32125e-06;-0.0003061174379622721
4.32150e-06;-0.00029491729210321017
4.32175e-06;-0.0002855008496223087
4.32200e-06;-0.00027670998965904805
4.32225e-06;-0.0002697800294904201
4.32250e-06;-0.00026429356771836605
4.32275e-06;-0.00026025968601788534
4.32300e-06;-0.00025760946975857373
4.32325e-06;-0.00025642498598664427
4.32350e-06;-0.00025651701229854846
4.32375e-06;-0.00025734257333317833
4.32400e-06;-0.00025983709174546383
4.32425e-06;-0.00026304848353260707
4.32450e-06;-0.0002678909243631507
4.32475e-06;-0.0002733862634357985
4.32500e-06;-0.0002803670936572354
4.32525e-06;-0.00028788686294439986
4.32550e-06;-0.0002966328404830377
4.32575e-06;-0.0003058476328064725
4.32600e-06;-0.0003161290847842968
4.32625e-06;-0.00032681529199660473
4.32650e-06;-0.0003384224088997831
4.32675e-06;-0.00035034059983224267
4.32700e-06;-0.00036296655452821994
4.32725e-06;-0.00037577859648626956
4.32750e-06;-0.00038901402904780135
4.32775e-06;-0.000402338051106662
4.32800e-06;-0.00041586363430588737
4.32825e-06;-0.0004293841035821194
4.32850e-06;-0.0004428929375269169
4.32875e-06;-0.0004562844222664052
4.32900e-06;-0.0004694089110262356
4.32925e-06;-0.0004822842215533459
4.32950e-06;-0.000494592595251421
4.32975e-06;-0.0005064229600626198
4.33000e-06;-0.0005171657465582557
4.33025e-06;-0.000527908533053928
4.33050e-06;-0.0005380729412221507
4.33075e-06;-0.0005469214078997419
4.33100e-06;-0.0005555097117031549
4.33125e-06;-0.0005635060861339106
4.33150e-06;-0.0005715024605646665
4.33175e-06;-0.0005792183971121417
4.33200e-06;-0.0005862962740562366
4.33225e-06;-0.0005933741510003315
4.33250e-06;-0.0006001138484939619
4.33275e-06;-0.0006060841112610881
4.33300e-06;-0.0006120543740282143
4.33325e-06;-0.0006178811541336761
4.33350e-06;-0.0006233814787363168
4.33375e-06;-0.000628881803338976
4.33400e-06;-0.0006343821279416167
4.33425e-06;-0.0006393218699359234
4.33450e-06;-0.0006441260974370913
4.33475e-06;-0.0006489303249382429
4.33500e-06;-0.0006534960756793591
4.33525e-06;-0.0006575192378617932
4.33550e-06;-0.0006615424000442137
4.33575e-06;-0.0006655655622266342
4.33600e-06;-0.0006695887244090684
4.33625e-06;-0.0006736118865914888
4.33650e-06;-0.0006776350487739093
4.33675e-06;-0.0006816582109563435
4.33700e-06;-0.0006856813731387639
4.33725e-06;-0.0006897045353211844
4.33750e-06;-0.0006933869813814031
4.33775e-06;-0.0006962942212133871
4.33800e-06;-0.000699201461045381
4.33825e-06;-0.000702108700877365
4.33850e-06;-0.0007050159407093491
4.33875e-06;-0.000707923180541343
4.33900e-06;-0.000710830420373327
4.33925e-06;-0.0007137376602053111
4.33950e-06;-0.0007166449000373049
4.33975e-06;-0.0007195521398692889
4.34000e-06;-0.0007221975373631648
4.34025e-06;-0.000724247184324364
4.34050e-06;-0.0007262968312855563
4.34075e-06;-0.0007279690224455021
4.34100e-06;-0.0007287824162991097
4.34125e-06;-0.0007295958101527145
4.34150e-06;-0.0007304092040063193
4.34175e-06;-0.0007312225978599268
4.34200e-06;-0.0007320359917135316
4.34225e-06;-0.0007322364286484946
4.34250e-06;-0.0007310422499784706
4.34275e-06;-0.0007298480713084467
4.34300e-06;-0.0007286538926384188
4.34325e-06;-0.000727459713968395
4.34350e-06;-0.0007262655352983711
4.34375e-06;-0.0007246530427590656
4.34400e-06;-0.0007220887915690142
4.34425e-06;-0.0007191365207542123
4.34450e-06;-0.0007153014175457341
4.34475e-06;-0.0007114663143372688
4.34500e-06;-0.0007076312111288036
4.34525e-06;-0.0007037961079203254
4.34550e-06;-0.0006999610047118602
4.34575e-06;-0.0006961259015033949
4.34600e-06;-0.0006918909513346763
4.34625e-06;-0.0006867462589094594
4.34650e-06;-0.000681601566484225
4.34675e-06;-0.0006764568740590081
4.34700e-06;-0.0006713121816337911
4.34725e-06;-0.0006661674892085568
4.34750e-06;-0.0006610227967833398
4.34775e-06;-0.0006557914856601558
4.34800e-06;-0.0006503630974110083
4.34825e-06;-0.0006449618471652963
4.34850e-06;-0.0006396223420143822
4.34875e-06;-0.0006343445416099234
4.34900e-06;-0.0006292071334577007
4.34925e-06;-0.000624198697467102
4.34950e-06;-0.0006194837023101125
4.34975e-06;-0.0006147687071531389
4.35000e-06;-0.000610329597258807
4.35025e-06;-0.0006065181887260107
4.35050e-06;-0.0006027067801932274
4.35075e-06;-0.0005988953716604311
4.35100e-06;-0.0005952920655841153
4.35125e-06;-0.0005921622396567981
4.35150e-06;-0.0005890324137294704
4.35175e-06;-0.0005859025878021532
4.35200e-06;-0.0005829500046876618
4.35225e-06;-0.0005804006890542323
4.35250e-06;-0.0005778513734208115
4.35275e-06;-0.0005753020577873907
4.35300e-06;-0.0005727527421539613
4.35325e-06;-0.0005702034265205405
4.35350e-06;-0.0005679999274429035
4.35375e-06;-0.0005658800255988494
4.35400e-06;-0.0005637601237548024
4.35425e-06;-0.0005616402219107554
4.35450e-06;-0.0005595203200667012
4.35475e-06;-0.0005575235511170421
4.35500e-06;-0.000555806937347505
4.35525e-06;-0.0005540903235779738
4.35550e-06;-0.0005523737098084425
4.35575e-06;-0.0005506570960389054
4.35600e-06;-0.0005489404822693742
4.35625e-06;-0.000547223868499843
4.35650e-06;-0.0005455072547303058
4.35675e-06;-0.0005437906409607746
4.35700e-06;-0.0005420740271912434
4.35725e-06;-0.0005404843684494978
4.35750e-06;-0.000539183561105702
4.35775e-06;-0.000537882753761906
4.35800e-06;-0.0005365819464181057
4.35825e-06;-0.0005352811390743099
4.35850e-06;-0.000533980331730514
4.35875e-06;-0.0005326795243867136
4.35900e-06;-0.0005313787170429178
4.35925e-06;-0.0005300779096991175
4.35950e-06;-0.0005287771023553216
4.35975e-06;-0.000527550896974174
4.36000e-06;-0.0005265117201861744
4.36025e-06;-0.0005255314365095061
4.36050e-06;-0.0005246376096555984
4.36075e-06;-0.0005239930380613526
4.36100e-06;-0.0005240137648638383
4.36125e-06;-0.0005251358967669298
4.36150e-06;-0.0005276768554016374
4.36175e-06;-0.0005314602369456909
4.36200e-06;-0.0005360605902810624
4.36225e-06;-0.0005425197391922227
4.36250e-06;-0.0005489788881033611
4.36275e-06;-0.000556317341500002
4.36300e-06;-0.000565656411447634
4.36325e-06;-0.0005760857526080798
4.36350e-06;-0.000588995707332336
4.36375e-06;-0.0006019056620565485
4.36400e-06;-0.0006159018122576753
4.36425e-06;-0.0006323693028016529
4.36450e-06;-0.0006488367933455746
4.36475e-06;-0.0006662680117949792
4.36500e-06;-0.000685891929167322
4.36525e-06;-0.0007055158465395984
4.36550e-06;-0.0007260129666415711
4.36575e-06;-0.0007484968204201387
4.36600e-06;-0.0007709806741986301
4.36625e-06;-0.0007939907599885176
4.36650e-06;-0.0008181981426067388
4.36675e-06;-0.000842405525224878
4.36700e-06;-0.00086689974664608
4.36725e-06;-0.000892046591210171
4.36750e-06;-0.0009172846244418745
4.36775e-06;-0.0009427301325141135
4.36800e-06;-0.0009680796712224826
4.36825e-06;-0.0009932108579257025
4.36850e-06;-0.0010180712244160387
4.36875e-06;-0.0010423154136784288
4.36900e-06;-0.0010661696474259738
4.36925e-06;-0.0010891366441926785
4.36950e-06;-0.0011115480316592988
4.36975e-06;-0.001132695282322788
4.37000e-06;-0.0011533004660298927
4.37025e-06;-0.0011722438393906565
4.37050e-06;-0.0011894823659526666
4.37075e-06;-0.0012050601013609192
4.37100e-06;-0.0012175539964870872
4.37125e-06;-0.0012292957786513947
4.37150e-06;-0.0012378284109361968
4.37175e-06;-0.0012441889319169989
4.37200e-06;-0.0012476600402155848
4.37225e-06;-0.00124871671014747
4.37250e-06;-0.001248221787673445
4.37275e-06;-0.0012440461574161987
4.37300e-06;-0.0012388827583167906
4.37325e-06;-0.0012292533333782179
4.37350e-06;-0.001217808004874566
4.37375e-06;-0.0012027892354956196
4.37400e-06;-0.0011874705320509035
4.37425e-06;-0.001166204133392938
4.37450e-06;-0.0011444395960308208
4.37475e-06;-0.0011207431070825943
4.37500e-06;-0.001095006594514645
4.37525e-06;-0.0010671838121616558
4.37550e-06;-0.0010373777440096533
4.37575e-06;-0.0010057330413159754
4.37600e-06;-0.0009724712202539573
4.37625e-06;-0.0009378976220828898
4.37650e-06;-0.000902196669000278
4.37675e-06;-0.0008655104791770367
4.37700e-06;-0.0008279734468483257
4.37725e-06;-0.0007896885634170303
4.37750e-06;-0.000750833016416536
4.37775e-06;-0.0007116099482785844
4.37800e-06;-0.0006722707196348134
4.37825e-06;-0.0006331192137823124
4.37850e-06;-0.000594383497017259
4.37875e-06;-0.0005562650859056278
4.37900e-06;-0.00051896063949654
4.37925e-06;-0.00048264722587367214
4.37950e-06;-0.00044754831480669984
4.37975e-06;-0.00041390364660721224
4.38000e-06;-0.00038198312419116627
4.38025e-06;-0.0003520895208951835
4.38050e-06;-0.0003244617622734965
4.38075e-06;-0.00029913850174453053
4.38100e-06;-0.000275819314569737
4.38125e-06;-0.00025412309632861255
4.38150e-06;-0.00023394518103640854
4.38175e-06;-0.00021536670598729037
4.38200e-06;-0.00019851635968655447
4.38225e-06;-0.00018354339594673649
4.38250e-06;-0.00017055705117731884
4.38275e-06;-0.0001595411311973941
4.38300e-06;-0.00015026704484410883
4.38325e-06;-0.0001424556810639025
4.38350e-06;-0.00013600111076336925
4.38375e-06;-0.00013091377318831033
4.38400e-06;-0.00012723390878155774
4.38425e-06;-0.0001250146351593791
4.38450e-06;-0.0001242839987718067
4.38475e-06;-0.00012499146573569754
4.38500e-06;-0.0001269534607903153
4.38525e-06;-0.00012995480051235087
4.38550e-06;-0.00013388877298896914
4.38575e-06;-0.00013872158090255787
4.38600e-06;-0.00014443808836563497
4.38625e-06;-0.00015103122249356888
4.38650e-06;-0.00015867626049358955
4.38675e-06;-0.00016687610465370675
4.38700e-06;-0.00017566504863456546
4.38725e-06;-0.00018495682485767363
4.38750e-06;-0.00019458954524184842
4.38775e-06;-0.00020451328203952772
4.38800e-06;-0.00021466621091063203
4.38825e-06;-0.00022501476904549704
4.38850e-06;-0.0002354651205393463
4.38875e-06;-0.00024600235880706234
4.38900e-06;-0.00025636883844039804
4.38925e-06;-0.00026658956527593947
4.38950e-06;-0.00027639721488068465
4.38975e-06;-0.00028585227814460236
4.39000e-06;-0.0002948983701414969
4.39025e-06;-0.00030327345094064947
4.39050e-06;-0.00031104654017227355
4.39075e-06;-0.0003185629973408849
4.39100e-06;-0.00032681425225879494
4.39125e-06;-0.00033678117717247664
4.39150e-06;-0.00034877967417963493
4.39175e-06;-0.0003631513098565476
4.39200e-06;-0.00037875559049045237
4.39225e-06;-0.00039561926364857584
