Time(s);Current(A)
4.55000e-06;-0.01428868914866401
4.55025e-06;-0.014313060298223183
4.55050e-06;-0.014337431447782354
4.55075e-06;-0.01436180259734161
4.55100e-06;-0.014386173746900781
4.55125e-06;-0.014408553033209615
4.55150e-06;-0.014420110325763302
4.55175e-06;-0.01443166761831699
4.55200e-06;-0.014443224910870717
4.55225e-06;-0.014454782203424403
4.55250e-06;-0.014466339495978092
4.55275e-06;-0.014477896788531818
4.55300e-06;-0.014489454081085505
4.55325e-06;-0.014501011373639194
4.55350e-06;-0.01451256866619292
4.55375e-06;-0.014524125958746607
4.55400e-06;-0.014535683251300295
4.55425e-06;-0.014547240543854022
4.55450e-06;-0.014558797836407709
4.55475e-06;-0.014570355128961397
4.55500e-06;-0.014581912421515124
4.55525e-06;-0.014590931407835192
4.55550e-06;-0.014598616060839228
4.55575e-06;-0.014606300713843239
4.55600e-06;-0.01461398536684725
4.55625e-06;-0.014621670019851285
4.55650e-06;-0.014629354672855296
4.55675e-06;-0.014635529728295293
4.55700e-06;-0.0146409112205723
4.55725e-06;-0.014646292712849285
4.55750e-06;-0.014651674205126272
4.55775e-06;-0.014657055697403276
4.55800e-06;-0.014662437189680263
4.55825e-06;-0.014666600362046934
4.55850e-06;-0.01467012308968543
4.55875e-06;-0.01467058521457968
4.55900e-06;-0.014669438446049472
4.55925e-06;-0.014668291677519258
4.55950e-06;-0.014661292903874893
4.55975e-06;-0.014651217856262668
4.56000e-06;-0.014641142808650478
4.56025e-06;-0.014625637360743177
4.56050e-06;-0.014607277267507145
4.56075e-06;-0.014588917174271175
4.56100e-06;-0.014561896764593301
4.56125e-06;-0.01453032381172664
4.56150e-06;-0.014498750858860085
4.56175e-06;-0.014467177905993531
4.56200e-06;-0.01443560495312687
4.56225e-06;-0.014394555414565316
4.56250e-06;-0.014348524237521402
4.56275e-06;-0.014302493060477331
4.56300e-06;-0.014256461883433416
4.56325e-06;-0.0142104307063895
4.56350e-06;-0.014158083351975641
4.56375e-06;-0.014102415718164008
4.56400e-06;-0.014046748084352186
4.56425e-06;-0.013988542072105167
4.56450e-06;-0.013929001688587425
4.56475e-06;-0.013868100958053058
4.56500e-06;-0.013806485122177786
4.56525e-06;-0.013744057717373487
4.56550e-06;-0.013680939371214201
4.56575e-06;-0.013617653389011839
4.56600e-06;-0.013554561703006741
4.56625e-06;-0.013492026918571107
4.56650e-06;-0.013430398501121446
4.56675e-06;-0.013369958134196211
4.56700e-06;-0.01331091939677562
4.56725e-06;-0.013253543472332147
4.56750e-06;-0.013198183902022978
4.56775e-06;-0.01314522866377049
4.56800e-06;-0.013095068592165502
4.56825e-06;-0.01304809484268901
4.56850e-06;-0.013004663776216467
4.56875e-06;-0.012964936437652804
4.56900e-06;-0.012928808061378179
4.56925e-06;-0.01289616608836172
4.56950e-06;-0.01286705086800491
4.56975e-06;-0.012841573618675136
4.57000e-06;-0.012821133304020751
4.57025e-06;-0.012802674490591873
4.57050e-06;-0.012789400683919927
4.57075e-06;-0.012778852524439832
4.57100e-06;-0.012774260550415778
4.57125e-06;-0.01277279961573706
4.57150e-06;-0.012771338681058345
4.57175e-06;-0.012778602198844885
4.57200e-06;-0.012790451974755302
4.57225e-06;-0.01280230175066568
4.57250e-06;-0.012814151526576098
4.57275e-06;-0.012826001302486475
4.57300e-06;-0.012846797565214809
4.57325e-06;-0.012872296804778837
4.57350e-06;-0.012897796044342779
4.57375e-06;-0.01292329528390672
4.57400e-06;-0.012948794523470749
4.57425e-06;-0.01297936710148838
4.57450e-06;-0.013012606625058123
4.57475e-06;-0.013045846148627978
4.57500e-06;-0.013081301132270398
4.57525e-06;-0.013117920735904278
4.57550e-06;-0.013154540339538282
4.57575e-06;-0.013191907518512635
4.57600e-06;-0.01322966768185956
4.57625e-06;-0.013267427845206615
4.57650e-06;-0.013304523858877083
4.57675e-06;-0.013341270743262952
4.57700e-06;-0.013378017627648696
4.57725e-06;-0.0134129584481471
4.57750e-06;-0.01344694985947553
4.57775e-06;-0.013478642690282951
4.57800e-06;-0.013509127206456552
4.57825e-06;-0.013536601683977066
4.57850e-06;-0.013562493848535239
4.57875e-06;-0.013583590970446093
4.57900e-06;-0.013602167440960294
4.57925e-06;-0.013620743911474432
4.57950e-06;-0.01363290942492465
4.57975e-06;-0.013641704835319348
4.58000e-06;-0.013650500245714016
4.58025e-06;-0.013652652735003315
4.58050e-06;-0.013651313182700155
4.58075e-06;-0.013649973630397
4.58100e-06;-0.013639748349576002
4.58125e-06;-0.013624852031259542
4.58150e-06;-0.013609955712943083
4.58175e-06;-0.013595059394626572
4.58200e-06;-0.013580163076310112
4.58225e-06;-0.013555527564585126
4.58250e-06;-0.013525772367119606
4.58275e-06;-0.013496017169654186
4.58300e-06;-0.013466261972188765
4.58325e-06;-0.013436506774723246
4.58350e-06;-0.01340054373116401
4.58375e-06;-0.013361317355643781
4.58400e-06;-0.01332209098012342
4.58425e-06;-0.013280063333587156
4.58450e-06;-0.013236563118772016
4.58475e-06;-0.013191443733904415
4.58500e-06;-0.013145473185960108
4.58525e-06;-0.013098653222321843
4.58550e-06;-0.013051046728564764
4.58575e-06;-0.01300309301943794
4.58600e-06;-0.01295505623831143
4.58625e-06;-0.01290719998082426
4.58650e-06;-0.012859786269510622
4.58675e-06;-0.012813076195582137
4.58700e-06;-0.012767333581518455
4.58725e-06;-0.01272283972547707
4.58750e-06;-0.012679889762663736
4.58775e-06;-0.012638783547597687
4.58800e-06;-0.01259981945574362
4.58825e-06;-0.012563298241592849
4.58850e-06;-0.012529543339659761
4.58875e-06;-0.012498984932523532
4.58900e-06;-0.012472113959971267
4.58925e-06;-0.012449245518724098
4.58950e-06;-0.012430473041550063
4.58975e-06;-0.012415812549033572
4.59000e-06;-0.012405274896154563
4.59025e-06;-0.012398871258783915
4.59050e-06;-0.012398034508193888
4.59075e-06;-0.01239937468137876
4.59100e-06;-0.012406463289769423
4.59125e-06;-0.012416573727639449
4.59150e-06;-0.012435387429213848
4.59175e-06;-0.012458776250431684
4.59200e-06;-0.012482165071649442
4.59225e-06;-0.0125055538928672
4.59250e-06;-0.012531405580312748
4.59275e-06;-0.012570638268130412
4.59300e-06;-0.012609870955948078
4.59325e-06;-0.012649103643765876
4.59350e-06;-0.01268833633158354
4.59375e-06;-0.012735799771983532
4.59400e-06;-0.012787589943032406
4.59425e-06;-0.01283938011408128
4.59450e-06;-0.01289117028513033
4.59475e-06;-0.012942960456179204
4.59500e-06;-0.012995655731773236
4.59525e-06;-0.013053268531558767
4.59550e-06;-0.013110881331344105
4.59575e-06;-0.01316849413112944
4.59600e-06;-0.013226106930914971
4.59625e-06;-0.013283719730700307
4.59650e-06;-0.013340459141474586
4.59675e-06;-0.013396739430320078
4.59700e-06;-0.013451135926976169
4.59725e-06;-0.013504542154356206
4.59750e-06;-0.013555077826723525
4.59775e-06;-0.013604104509696433
4.59800e-06;-0.013648028797666576
4.59825e-06;-0.013689270865679132
4.59850e-06;-0.013730512933691688
4.59875e-06;-0.013764394619887429
4.59900e-06;-0.013794407110736128
4.59925e-06;-0.01382441960158483
4.59950e-06;-0.013846896720199404
4.59975e-06;-0.013865412654746194
4.60000e-06;-0.013883928589292981
4.60025e-06;-0.013894360983949717
4.60050e-06;-0.013900544034522589
4.60075e-06;-0.01390672708509546
4.60100e-06;-0.01390211076670021
4.60125e-06;-0.01389181745094281
4.60150e-06;-0.013881524135185409
4.60175e-06;-0.013871230819427972
4.60200e-06;-0.01386093750367057
4.60225e-06;-0.013847794474701388
4.60250e-06;-0.01381916866672249
4.60275e-06;-0.01379054285874359
4.60300e-06;-0.013761917050764594
4.60325e-06;-0.013733291242785694
4.60350e-06;-0.013704665434806796
4.60375e-06;-0.013669051441858922
4.60400e-06;-0.013629763909489627
4.60425e-06;-0.013590476377120332
4.60450e-06;-0.013547795861951501
4.60475e-06;-0.013503331728271634
4.60500e-06;-0.013458867594591768
4.60525e-06;-0.013412751937979726
4.60550e-06;-0.013365768111074237
4.60575e-06;-0.013318279762378572
4.60600e-06;-0.013270526197365002
4.60625e-06;-0.01322281475213807
4.60650e-06;-0.013175381829691132
4.60675e-06;-0.013128536011297562
4.60700e-06;-0.01308260066877117
4.60725e-06;-0.013037902242654234
4.60750e-06;-0.012995391699521538
4.60775e-06;-0.012953787191807028
4.60800e-06;-0.012916002867334898
4.60825e-06;-0.01288022673151276
4.60850e-06;-0.012844450595690624
4.60875e-06;-0.012812068663531248
4.60900e-06;-0.012781470991664831
4.60925e-06;-0.012750873319798415
4.60950e-06;-0.012721180104216386
4.60975e-06;-0.01269196234196469
4.61000e-06;-0.012662744579712995
4.61025e-06;-0.012635534730760505
4.61050e-06;-0.012609380398897578
4.61075e-06;-0.012583226067034563
4.61100e-06;-0.012557071735171637
4.61125e-06;-0.01253091740330871
4.61150e-06;-0.012504763071445695
4.61175e-06;-0.012479326912463794
4.61200e-06;-0.012454268281609903
4.61225e-06;-0.012429209650755927
4.61250e-06;-0.012404151019902035
4.61275e-06;-0.012379092389048144
4.61300e-06;-0.012354033758194168
4.61325e-06;-0.012329148917241874
4.61350e-06;-0.012304355433924977
4.61375e-06;-0.012279561950607995
4.61400e-06;-0.012254768467291096
4.61425e-06;-0.012229974983974198
4.61450e-06;-0.012205860300694375
4.61475e-06;-0.012182102448080448
4.61500e-06;-0.012158344595466442
4.61525e-06;-0.012134586742852517
4.61550e-06;-0.01211082889023859
4.61575e-06;-0.012087635564849738
4.61600e-06;-0.012064738999352816
4.61625e-06;-0.012042592349184724
4.61650e-06;-0.012020839913470643
4.61675e-06;-0.011999935977803099
4.61700e-06;-0.011979478080467808
4.61725e-06;-0.011959579033342908
4.61750e-06;-0.011940421818683747
4.61775e-06;-0.01192202999264056
4.61800e-06;-0.011904528352438286
4.61825e-06;-0.01188804047443867
4.61850e-06;-0.011872761324160694
4.61875e-06;-0.011859247261042666
4.61900e-06;-0.011848400521019061
4.61925e-06;-0.011840847666291563
4.61950e-06;-0.011836703726947917
4.61975e-06;-0.011835890300361324
4.62000e-06;-0.01183831396473353
4.62025e-06;-0.011843881877347863
4.62050e-06;-0.011853650669706476
4.62075e-06;-0.011865064027858427
4.62100e-06;-0.011881375489875822
4.62125e-06;-0.011900261780366449
4.62150e-06;-0.011926643968510084
4.62175e-06;-0.011956966589776142
4.62200e-06;-0.011987289211042201
4.62225e-06;-0.012017611832308362
4.62250e-06;-0.01205001013941019
4.62275e-06;-0.012093685856790486
4.62300e-06;-0.012137361574170929
4.62325e-06;-0.012181037291551225
4.62350e-06;-0.012224713008931668
4.62375e-06;-0.012275396765726684
4.62400e-06;-0.01232976449899934
4.62425e-06;-0.01238413223227218
4.62450e-06;-0.012438499965544837
4.62475e-06;-0.012492867698817493
4.62500e-06;-0.01254791916953252
4.62525e-06;-0.012606685454659362
4.62550e-06;-0.012665451739786202
4.62575e-06;-0.012724218024913242
4.62600e-06;-0.012782984310040085
4.62625e-06;-0.012841750595166925
4.62650e-06;-0.012899198458835161
4.62675e-06;-0.012955953256532229
4.62700e-06;-0.013010732392070611
4.62725e-06;-0.013064472964255117
4.62750e-06;-0.013115328636281247
4.62775e-06;-0.013164667777977939
4.62800e-06;-0.013210074823955562
4.62825e-06;-0.013253414851287868
4.62850e-06;-0.01329063184183366
4.62875e-06;-0.013324630082860858
4.62900e-06;-0.013358628323888053
4.62925e-06;-0.013385033405146357
4.62950e-06;-0.013407446924667912
4.62975e-06;-0.013429860444189465
4.63000e-06;-0.013444204056793594
4.63025e-06;-0.013454305491878732
4.63050e-06;-0.013464406926963868
4.63075e-06;-0.013463170666321307
4.63100e-06;-0.013455974421452941
4.63125e-06;-0.013448778176584573
4.63150e-06;-0.013441581931716181
4.63175e-06;-0.013434385686847813
4.63200e-06;-0.01342415663369084
4.63225e-06;-0.013397450027541086
4.63250e-06;-0.01337074342139142
4.63275e-06;-0.013344036815241664
4.63300e-06;-0.013317330209092
4.63325e-06;-0.013290623602942333
4.63350e-06;-0.013256188524665783
4.63375e-06;-0.01321769075383976
4.63400e-06;-0.01317919298301374
4.63425e-06;-0.01313679475717734
4.63450e-06;-0.013092346145540383
4.63475e-06;-0.013047897533903426
4.63500e-06;-0.013001285755840624
4.63525e-06;-0.012953536847440088
4.63550e-06;-0.012904931503381031
4.63575e-06;-0.012855875949408143
4.63600e-06;-0.012806615290388191
4.63625e-06;-0.012757343260237133
4.63650e-06;-0.01270839662510565
4.63675e-06;-0.012660069917158324
4.63700e-06;-0.012612690906630966
4.63725e-06;-0.012566594321919242
4.63750e-06;-0.012522100436548361
4.63775e-06;-0.012479521885362454
4.63800e-06;-0.012439169440560928
4.63825e-06;-0.01240135445342436
4.63850e-06;-0.012366390137878509
4.63875e-06;-0.012334571426248924
4.63900e-06;-0.012306127143528
4.63925e-06;-0.012281187003534168
4.63950e-06;-0.012259817889962473
4.63975e-06;-0.01224327910121546
4.64000e-06;-0.012228629397116709
4.64025e-06;-0.012218881764690147
4.64050e-06;-0.012211711046526895
4.64075e-06;-0.012210763984640759
4.64100e-06;-0.012213088565787
4.64125e-06;-0.012215413146933246
4.64150e-06;-0.012226996023408269
4.64175e-06;-0.012243445787779188
4.64200e-06;-0.01225989555215016
4.64225e-06;-0.01227634531652108
4.64250e-06;-0.012292795080891997
4.64275e-06;-0.012318981230690062
4.64300e-06;-0.012350285590126096
4.64325e-06;-0.012381589949562132
4.64350e-06;-0.012412894308998274
4.64375e-06;-0.012444198668434308
4.64400e-06;-0.01248253623865253
4.64425e-06;-0.012524571017396655
4.64450e-06;-0.012566605796140638
4.64475e-06;-0.01260864057488462
4.64500e-06;-0.012650675353628744
4.64525e-06;-0.012692710132372727
4.64550e-06;-0.012736942770410329
4.64575e-06;-0.012782330776084214
4.64600e-06;-0.0128277187817581
4.64625e-06;-0.012873106787432139
4.64650e-06;-0.012918494793106024
4.64675e-06;-0.01296388279877991
4.64700e-06;-0.013007329936901197
4.64725e-06;-0.013049756802449092
4.64750e-06;-0.01308988081445311
4.64775e-06;-0.013128794265588401
4.64800e-06;-0.013163607447073646
4.64825e-06;-0.013196265204475113
4.64850e-06;-0.013228922961876688
4.64875e-06;-0.013255361844715555
4.64900e-06;-0.013278531598167696
4.64925e-06;-0.013301701351619916
4.64950e-06;-0.013318134380960562
4.64975e-06;-0.013331026058479292
4.65000e-06;-0.013343917735997978
4.65025e-06;-0.013349706226914951
4.65050e-06;-0.013351760724514562
4.65075e-06;-0.013353815222114164
4.65100e-06;-0.013346101147888015
4.65125e-06;-0.013333251944323072
4.65150e-06;-0.013320402740758172
4.65175e-06;-0.013307553537193272
4.65200e-06;-0.013294704333628329
4.65225e-06;-0.013279275163587142
4.65250e-06;-0.013249828775754317
4.65275e-06;-0.013220382387921394
4.65300e-06;-0.01319093600008857
4.65325e-06;-0.013161489612255745
4.65350e-06;-0.013132043224422822
4.65375e-06;-0.013096236841319608
4.65400e-06;-0.013057087144691223
4.65425e-06;-0.01301793744806297
4.65450e-06;-0.012975785851869039
4.65475e-06;-0.012932056221259538
4.65500e-06;-0.012888326590650184
4.65525e-06;-0.012843122055343348
4.65550e-06;-0.01279714219417314
4.65575e-06;-0.012750760363736357
4.65600e-06;-0.012704167226650919
4.65625e-06;-0.012657688240291032
4.65650e-06;-0.012611567761622615
4.65675e-06;-0.012566079114451099
4.65700e-06;-0.012521506711792602
4.65725e-06;-0.012478144209799237
4.65750e-06;-0.01243628468554105
4.65775e-06;-0.012396220574306338
4.65800e-06;-0.012359056795960912
4.65825e-06;-0.012323074216967947
4.65850e-06;-0.012290541492661464
4.65875e-06;-0.01225982228319906
4.65900e-06;-0.01223215462174632
4.65925e-06;-0.012206091093834418
4.65950e-06;-0.012183743365347761
4.65975e-06;-0.012163348953167905
4.66000e-06;-0.012142954540988116
4.66025e-06;-0.01212752415929754
4.66050e-06;-0.012114703262294482
4.66075e-06;-0.012101882365291467
4.66100e-06;-0.0120955976655909
4.66125e-06;-0.01209274890505557
4.66150e-06;-0.01208990014452025
4.66175e-06;-0.01208705138398493
4.66200e-06;-0.012084202623449601
4.66225e-06;-0.012081353862914281
4.66250e-06;-0.012085802101042362
4.66275e-06;-0.012094086215343566
4.66300e-06;-0.012102370329644771
4.66325e-06;-0.012110654443946003
4.66350e-06;-0.012118938558247208
4.66375e-06;-0.012127222672548413
4.66400e-06;-0.012140445413989523
4.66425e-06;-0.012156264286120362
4.66450e-06;-0.0121720831582512
4.66475e-06;-0.012187902030382091
4.66500e-06;-0.01220372090251293
4.66525e-06;-0.012219539774643769
4.66550e-06;-0.012235737566595035
4.66575e-06;-0.012253994068104623
4.66600e-06;-0.012272250569614212
4.66625e-06;-0.012290507071123861
4.66650e-06;-0.01230876357263345
4.66675e-06;-0.0123270200741431
4.66700e-06;-0.01234527657565269
4.66725e-06;-0.012362242765442009
4.66750e-06;-0.012378530665949515
4.66775e-06;-0.012394818566456965
4.66800e-06;-0.012409019197544788
4.66825e-06;-0.012422122595728814
4.66850e-06;-0.012435225993912795
4.66875e-06;-0.012445117504030002
4.66900e-06;-0.012453320593267243
4.66925e-06;-0.012461523682504456
4.66950e-06;-0.01246572111900281
4.66975e-06;-0.012467812869505403
4.67000e-06;-0.01246990462000799
4.67025e-06;-0.012467939848464336
4.67050e-06;-0.012463842650017732
4.67075e-06;-0.01245974545157114
4.67100e-06;-0.012449687369189917
4.67125e-06;-0.012436495777580313
4.67150e-06;-0.012423304185970709
4.67175e-06;-0.012410112594361061
4.67200e-06;-0.012396921002751457
4.67225e-06;-0.012382152098139695
4.67250e-06;-0.0123588134930825
4.67275e-06;-0.012335474888025383
4.67300e-06;-0.012312136282968266
4.67325e-06;-0.01228879767791107
4.67350e-06;-0.012265459072853953
4.67375e-06;-0.012238188862271451
4.67400e-06;-0.012208851890730106
4.67425e-06;-0.01217951491918886
4.67450e-06;-0.012148434961700124
4.67475e-06;-0.012116438753767384
4.67500e-06;-0.012084442545834751
4.67525e-06;-0.012051571691031202
4.67550e-06;-0.012018241053069575
4.67575e-06;-0.01198473827337183
4.67600e-06;-0.01195114500244405
4.67625e-06;-0.011917721736741592
4.67650e-06;-0.0118846582603889
4.67675e-06;-0.011852115406345497
4.67700e-06;-0.011820254356117176
4.67725e-06;-0.011789251457951363
4.67750e-06;-0.011759303032810696
4.67775e-06;-0.011730613619420823
4.67800e-06;-0.011703387819207255
4.67825e-06;-0.011677830202245436
4.67850e-06;-0.01165414810122871
4.67875e-06;-0.011632552574140458
4.67900e-06;-0.011613224830511517
4.67925e-06;-0.011596270502563958
4.67950e-06;-0.011582543006938008
4.67975e-06;-0.01157007725427678
4.68000e-06;-0.011560874564205802
4.68025e-06;-0.011553387196367155
4.68050e-06;-0.011550089322944544
4.68075e-06;-0.011548993777155937
4.68100e-06;-0.011547898231367327
4.68125e-06;-0.011553272488262175
4.68150e-06;-0.011562047782089233
4.68175e-06;-0.01157082307591632
4.68200e-06;-0.011579598369743375
4.68225e-06;-0.011588373663570432
4.68250e-06;-0.011604083705550368
4.68275e-06;-0.011623439196354087
4.68300e-06;-0.011642794687157804
4.68325e-06;-0.01166215017796159
4.68350e-06;-0.011681505668765307
4.68375e-06;-0.011706165831289026
4.68400e-06;-0.01173361454631024
4.68425e-06;-0.011761063261331452
4.68450e-06;-0.011788511976352759
4.68475e-06;-0.01181596069137397
4.68500e-06;-0.011843409406395184
4.68525e-06;-0.011873029223454928
4.68550e-06;-0.01190379034243319
4.68575e-06;-0.011934551461411452
4.68600e-06;-0.011965312580389818
4.68625e-06;-0.01199607369936808
4.68650e-06;-0.012026834818346342
4.68675e-06;-0.012056460025691183
4.68700e-06;-0.012085488108578516
4.68725e-06;-0.012114516191465847
4.68750e-06;-0.01214116277685953
4.68775e-06;-0.01216655745994243
4.68800e-06;-0.012191952143025413
4.68825e-06;-0.012213718420152338
4.68850e-06;-0.012233577321851723
4.68875e-06;-0.012253436223551174
4.68900e-06;-0.012269239620589898
4.68925e-06;-0.012282911125544397
4.68950e-06;-0.01229658263049894
4.68975e-06;-0.012303481458478717
4.69000e-06;-0.012306820034988118
4.69025e-06;-0.01231015861149753
4.69050e-06;-0.01231349718800693
4.69075e-06;-0.012316835764516334
4.69100e-06;-0.012320174341025746
4.69125e-06;-0.012321431096894613
4.69150e-06;-0.012311377111500646
4.69175e-06;-0.012301323126106645
4.69200e-06;-0.012291269140712678
4.69225e-06;-0.012281215155318678
4.69250e-06;-0.01227116116992471
4.69275e-06;-0.012261107184530743
4.69300e-06;-0.01224467802987028
4.69325e-06;-0.01222489758504234
4.69350e-06;-0.012205117140214399
4.69375e-06;-0.01218533669538639
4.69400e-06;-0.01216555625055845
4.69425e-06;-0.012144944586730962
4.69450e-06;-0.012119816826342234
4.69475e-06;-0.012094689065953594
4.69500e-06;-0.012069561305564951
4.69525e-06;-0.012044433545176224
4.69550e-06;-0.012019305784787581
4.69575e-06;-0.011993231078368785
4.69600e-06;-0.011966658582669766
4.69625e-06;-0.011940168190032935
4.69650e-06;-0.011913720957220202
4.69675e-06;-0.011887759628031572
4.69700e-06;-0.011862053727988323
4.69725e-06;-0.01183729308141457
4.69750e-06;-0.011813029334378113
