Time(s);Current(A)
3.05000e-06;0.00544741464853326
3.05025e-06;0.0054366227929794715
3.05050e-06;0.0054258309374256835
3.05075e-06;0.005415039081871895
3.05100e-06;0.005404247226318125
3.05125e-06;0.005393455370764336
3.05150e-06;0.005382663515210548
3.05175e-06;0.005371871659656778
3.05200e-06;0.005361079804102989
3.05225e-06;0.0053502879485492014
3.05250e-06;0.005339496092995431
3.05275e-06;0.005328704237441643
3.05300e-06;0.005317912381887854
3.05325e-06;0.005308439729847443
3.05350e-06;0.0053018698151815775
3.05375e-06;0.0052952999005157
3.05400e-06;0.0052887299858498235
3.05425e-06;0.005282160071183957
3.05450e-06;0.005275590156518081
3.05475e-06;0.005269020241852204
3.05500e-06;0.005262450327186327
3.05525e-06;0.0052558804125204615
3.05550e-06;0.005249310497854585
3.05575e-06;0.0052427405831887075
3.05600e-06;0.005236170668522842
3.05625e-06;0.005229600753856965
3.05650e-06;0.005223030839191088
3.05675e-06;0.005216460924525223
3.05700e-06;0.0052098910098593455
3.05725e-06;0.005203321095193469
3.05750e-06;0.0051967511805275915
3.05775e-06;0.005190181265861726
3.05800e-06;0.00518361135119585
3.05825e-06;0.005177041436529972
3.05850e-06;0.005170471521864107
3.05875e-06;0.0051639016071982295
3.05900e-06;0.005157331692532353
3.05925e-06;0.005150761777866476
3.05950e-06;0.00514419186320061
3.05975e-06;0.005140951975542822
3.06000e-06;0.00513848073848292
3.06025e-06;0.0051360095014230224
3.06050e-06;0.00513353826436312
3.06075e-06;0.005131067027303218
3.06100e-06;0.00512859579024332
3.06125e-06;0.0051261245531834185
3.06150e-06;0.005123653316123517
3.06175e-06;0.005121182079063614
3.06200e-06;0.005118710842003717
3.06225e-06;0.0051162396049438145
3.06250e-06;0.005113768367883913
3.06275e-06;0.005111297130824015
3.06300e-06;0.005108825893764113
3.06325e-06;0.0051063546567042106
3.06350e-06;0.005103883419644309
3.06375e-06;0.005101412182584411
3.06400e-06;0.005098940945524509
3.06425e-06;0.0050964697084646075
3.06450e-06;0.005093998471404709
3.06475e-06;0.005091527234344808
3.06500e-06;0.005089055997284905
3.06525e-06;0.005086584760225008
3.06550e-06;0.005084113523165105
3.06575e-06;0.005081642286105204
3.06600e-06;0.005079975813572134
3.06625e-06;0.005081105507100051
3.06650e-06;0.0050844914290967035
3.06675e-06;0.005087877351093355
3.06700e-06;0.005091263273090001
3.06725e-06;0.005094649195086653
3.06750e-06;0.005098035117083305
3.06775e-06;0.005101421039079956
3.06800e-06;0.005104806961076603
3.06825e-06;0.005108192883073254
3.06850e-06;0.005111578805069906
3.06875e-06;0.005114964727066552
3.06900e-06;0.005118350649063204
3.06925e-06;0.005121736571059856
3.06950e-06;0.005125122493056502
3.06975e-06;0.005128508415053154
3.07000e-06;0.005131894337049805
3.07025e-06;0.005135280259046457
3.07050e-06;0.0051404530818141515
3.07075e-06;0.005146038364403602
3.07100e-06;0.005151623646993053
3.07125e-06;0.005157208929582494
3.07150e-06;0.005162794212171945
3.07175e-06;0.005168379494761397
3.07200e-06;0.005173964777350847
3.07225e-06;0.005179550059940289
3.07250e-06;0.005185135342529739
3.07275e-06;0.00519072062511919
3.07300e-06;0.005196305907708631
3.07325e-06;0.005201891190298083
3.07350e-06;0.005207476472887534
3.07375e-06;0.005213061755476975
3.07400e-06;0.005218647038066426
3.07425e-06;0.0052242323206558765
3.07450e-06;0.005225785640490295
3.07475e-06;0.005218467145729834
3.07500e-06;0.00521114865096936
3.07525e-06;0.0052038301562088865
3.07550e-06;0.0051965116614484256
3.07575e-06;0.005189193166687952
3.07600e-06;0.0051818746719274784
3.07625e-06;0.0051745561771670175
3.07650e-06;0.0051672376824065435
3.07675e-06;0.00515991918764607
3.07700e-06;0.005152600692885597
3.07725e-06;0.005145282198125136
3.07750e-06;0.005119145522661871
3.07775e-06;0.0050886651569475635
3.07800e-06;0.005058184791233307
3.07825e-06;0.0050277044255189985
3.07850e-06;0.0049972240598046905
3.07875e-06;0.004966743694090383
3.07900e-06;0.004936263328376126
3.07925e-06;0.004905782962661818
3.07950e-06;0.00487530259694751
3.07975e-06;0.004844822231233254
3.08000e-06;0.004814341865518946
3.08025e-06;0.00478039455270827
3.08050e-06;0.004738818669467084
3.08075e-06;0.004697242786225827
3.08100e-06;0.00465566690298457
3.08125e-06;0.004614091019743314
3.08150e-06;0.004572515136502127
3.08175e-06;0.004530939253260871
3.08200e-06;0.0044893633700196145
3.08225e-06;0.004447787486778428
3.08250e-06;0.004410696139411902
3.08275e-06;0.004374639931151979
3.08300e-06;0.004338583722892056
3.08325e-06;0.004302527514632195
3.08350e-06;0.004266471306372272
3.08375e-06;0.004230415098112349
3.08400e-06;0.004194358889852487
3.08425e-06;0.0041583026815925645
3.08450e-06;0.004130886936313973
3.08475e-06;0.0041224834166553185
3.08500e-06;0.00411407989699665
3.08525e-06;0.004105676377337982
3.08550e-06;0.004097272857679314
3.08575e-06;0.00408886933802066
3.08600e-06;0.004080465818361992
3.08625e-06;0.004072062298703324
3.08650e-06;0.00406365877904467
3.08675e-06;0.004055255259386002
3.08700e-06;0.00407977498719222
3.08725e-06;0.004111894195060684
3.08750e-06;0.004144013402929095
3.08775e-06;0.00417613261079756
3.08800e-06;0.004208251818666024
3.08825e-06;0.004240371026534435
3.08850e-06;0.0042724902344029
3.08875e-06;0.0043046094422713645
3.08900e-06;0.004336728650139775
3.08925e-06;0.004377502773689953
3.08950e-06;0.004437320924165575
3.08975e-06;0.004497139074641196
3.09000e-06;0.004556957225116716
3.09025e-06;0.004616775375592337
3.09050e-06;0.004676593526067958
3.09075e-06;0.004736411676543479
3.09100e-06;0.0047962298270191
3.09125e-06;0.004857764740655373
3.09150e-06;0.004923077170452277
3.09175e-06;0.00498838960024907
3.09200e-06;0.005053702030045975
3.09225e-06;0.005119014459842879
3.09250e-06;0.005184326889639673
3.09275e-06;0.005249639319436577
3.09300e-06;0.005314951749233482
3.09325e-06;0.005373357888061644
3.09350e-06;0.005416567623365776
3.09375e-06;0.005459777358669908
3.09400e-06;0.0055029870939740395
3.09425e-06;0.005546196829278098
3.09450e-06;0.00558940656458223
3.09475e-06;0.005632616299886362
3.09500e-06;0.005675826035190421
3.09525e-06;0.005719035770494553
3.09550e-06;0.005762245505798684
3.09575e-06;0.005792794069597223
3.09600e-06;0.005795483356663679
3.09625e-06;0.005798172643730139
3.09650e-06;0.0058008619307965996
3.09675e-06;0.0058035512178630545
3.09700e-06;0.005806240504929515
3.09725e-06;0.005808929791995975
3.09750e-06;0.005811619079062431
3.09775e-06;0.005814308366128891
3.09800e-06;0.005816997653195351
3.09825e-06;0.005809400514627854
3.09850e-06;0.005779169421674886
3.09875e-06;0.005748938328721866
3.09900e-06;0.005718707235768846
3.09925e-06;0.0056884761428158785
3.09950e-06;0.005658245049862859
3.09975e-06;0.005628013956909839
3.10000e-06;0.005597782863956819
3.10025e-06;0.005567551771003851
3.10050e-06;0.005532898411225317
3.10075e-06;0.00548851442302701
3.10100e-06;0.005444130434828778
3.10125e-06;0.005399746446630472
3.10150e-06;0.005355362458432165
3.10175e-06;0.0053109784702339334
3.10200e-06;0.005266594482035626
3.10225e-06;0.00522221049383732
3.10250e-06;0.005177826505639013
3.10275e-06;0.005136876273493805
3.10300e-06;0.005103481579165495
3.10325e-06;0.005070086884837184
3.10350e-06;0.00503669219050893
3.10375e-06;0.00500329749618062
3.10400e-06;0.00496990280185231
3.10425e-06;0.004936508107523999
3.10450e-06;0.004903113413195746
3.10475e-06;0.0048697187188674355
3.10500e-06;0.0048363240245391246
3.10525e-06;0.004802929330210871
3.10550e-06;0.004769534635882561
3.10575e-06;0.004736139941554251
3.10600e-06;0.004719563749612747
3.10625e-06;0.004706869673909128
3.10650e-06;0.004694175598205508
3.10675e-06;0.004681481522501888
3.10700e-06;0.004668787446798289
3.10725e-06;0.004656093371094669
3.10750e-06;0.004643399295391049
3.10775e-06;0.00463070521968745
3.10800e-06;0.00461801114398383
3.10825e-06;0.00460531706828021
3.10850e-06;0.00459262299257659
3.10875e-06;0.004579928916872991
3.10900e-06;0.004570965501405468
3.10925e-06;0.004570210923159457
3.10950e-06;0.004569456344913447
3.10975e-06;0.004568701766667436
3.11000e-06;0.004567947188421425
3.11025e-06;0.004567192610175416
3.11050e-06;0.004566438031929404
3.11075e-06;0.004565683453683393
3.11100e-06;0.0045649288754373825
3.11125e-06;0.004564174297191373
3.11150e-06;0.0045634197189453616
3.11175e-06;0.00456266514069935
3.11200e-06;0.004561910562453341
3.11225e-06;0.00456115598420733
3.11250e-06;0.004561954981050543
3.11275e-06;0.004563112580517362
3.11300e-06;0.004564270179984179
3.11325e-06;0.004565427779450998
3.11350e-06;0.004566585378917817
3.11375e-06;0.004567742978384633
3.11400e-06;0.004568900577851452
3.11425e-06;0.004570058177318271
3.11450e-06;0.0045712157767850885
3.11475e-06;0.0045723733762519075
3.11500e-06;0.0045735309757187256
3.11525e-06;0.0045746885751855445
3.11550e-06;0.004575846174652362
3.11575e-06;0.00457406180916426
3.11600e-06;0.004565804028811717
3.11625e-06;0.004557546248459186
3.11650e-06;0.004549288468106643
3.11675e-06;0.004541030687754099
3.11700e-06;0.004532772907401556
3.11725e-06;0.0045245151270490265
3.11750e-06;0.004516257346696482
3.11775e-06;0.004507999566343939
3.11800e-06;0.004499741785991409
3.11825e-06;0.004491484005638866
3.11850e-06;0.0044832262252863225
3.11875e-06;0.004474968444933792
3.11900e-06;0.004466710664581249
3.11925e-06;0.004458452884228705
3.11950e-06;0.004444096585955348
3.11975e-06;0.0044283326025680025
3.12000e-06;0.00441256861918063
3.12025e-06;0.004396804635793257
3.12050e-06;0.0043810406524059115
3.12075e-06;0.004365276669018539
3.12100e-06;0.004349512685631166
3.12125e-06;0.004333748702243794
3.12150e-06;0.004317984718856448
3.12175e-06;0.004302220735469075
3.12200e-06;0.0042864567520817035
3.12225e-06;0.004270692768694357
3.12250e-06;0.004254928785306985
3.12275e-06;0.0042391648019196124
3.12300e-06;0.0042255093200658225
3.12325e-06;0.0042164933241946815
3.12350e-06;0.004207477328323541
3.12375e-06;0.0041984613324524
3.12400e-06;0.004189445336581275
3.12425e-06;0.004180429340710135
3.12450e-06;0.004171413344838994
3.12475e-06;0.004162397348967869
3.12500e-06;0.004153381353096728
3.12525e-06;0.004144365357225588
3.12550e-06;0.004135349361354447
3.12575e-06;0.004126333365483322
3.12600e-06;0.004117317369612182
3.12625e-06;0.0041083013737410416
3.12650e-06;0.004114878607340878
3.12675e-06;0.004125055134620274
3.12700e-06;0.004135231661899671
3.12725e-06;0.00414540818917905
3.12750e-06;0.004155584716458447
3.12775e-06;0.004165761243737843
3.12800e-06;0.00417593777101724
3.12825e-06;0.004186114298296619
3.12850e-06;0.004196290825576016
3.12875e-06;0.004206467352855412
3.12900e-06;0.004216643880134791
3.12925e-06;0.004226820407414188
3.12950e-06;0.0042369969346935845
3.12975e-06;0.004250843317285229
3.13000e-06;0.004272764743697799
3.13025e-06;0.004294686170110406
3.13050e-06;0.0043166075965230125
3.13075e-06;0.004338529022935582
3.13100e-06;0.004360450449348189
3.13125e-06;0.004382371875760796
3.13150e-06;0.004404293302173366
3.13175e-06;0.004426214728585973
3.13200e-06;0.00444813615499858
3.13225e-06;0.004470057581411187
3.13250e-06;0.00448934483785066
3.13275e-06;0.004508024064288863
3.13300e-06;0.004526703290727066
3.13325e-06;0.0045453825171652374
3.13350e-06;0.0045640617436034404
3.13375e-06;0.0045827409700416434
3.13400e-06;0.0046014201964798464
3.13425e-06;0.004620099422918017
3.13450e-06;0.00463877864935622
3.13475e-06;0.004657457875794423
3.13500e-06;0.004676225602259471
3.13525e-06;0.004695188061632093
3.13550e-06;0.004714150521004715
3.13575e-06;0.0047331129803773065
3.13600e-06;0.004752075439749929
3.13625e-06;0.004771037899122551
3.13650e-06;0.004790000358495174
3.13675e-06;0.004808962817867765
3.13700e-06;0.004827925277240387
3.13725e-06;0.0048468877366130095
3.13750e-06;0.004865850195985601
3.13775e-06;0.004884812655358223
3.13800e-06;0.0049037751147308455
3.13825e-06;0.004922737574103468
3.13850e-06;0.004944217773671416
3.13875e-06;0.00497123793617505
3.13900e-06;0.004998258098678684
3.13925e-06;0.005025278261182272
3.13950e-06;0.005052298423685907
3.13975e-06;0.005079318586189541
3.14000e-06;0.005106338748693129
3.14025e-06;0.005133358911196763
3.14050e-06;0.005160379073700398
3.14075e-06;0.005187399236204032
3.14100e-06;0.00521441939870762
3.14125e-06;0.005241439561211254
3.14150e-06;0.005268459723714889
3.14175e-06;0.005295479886218477
3.14200e-06;0.005320595808478218
3.14225e-06;0.0053415216954072545
3.14250e-06;0.0053624475823362905
3.14275e-06;0.005383373469265292
3.14300e-06;0.005404299356194328
3.14325e-06;0.005425225243123364
3.14350e-06;0.005446151130052365
3.14375e-06;0.005467077016981401
3.14400e-06;0.005488002903910438
3.14425e-06;0.005508928790839439
3.14450e-06;0.005529854677768475
3.14475e-06;0.005550780564697512
3.14500e-06;0.005571706451626548
3.14525e-06;0.005592632338555548
3.14550e-06;0.005613558225484585
3.14575e-06;0.005634484112413621
3.14600e-06;0.005647450753433496
3.14625e-06;0.005658580208413469
3.14650e-06;0.005669709663393442
3.14675e-06;0.005680839118373414
3.14700e-06;0.005691968573353369
3.14725e-06;0.005703098028333342
3.14750e-06;0.005714227483313314
3.14775e-06;0.005725356938293269
3.14800e-06;0.005736486393273241
3.14825e-06;0.005747615848253214
3.14850e-06;0.005758745303233168
3.14875e-06;0.005769874758213141
3.14900e-06;0.0057810042131931135
3.14925e-06;0.005792133668173087
3.14950e-06;0.005803263123153041
3.14975e-06;0.005813495454478182
3.15000e-06;0.005821753780778443
3.15025e-06;0.005830012107078689
3.15050e-06;0.0058382704333789495
3.15075e-06;0.00584652875967921
3.15100e-06;0.005854787085979457
3.15125e-06;0.005863045412279718
3.15150e-06;0.005871303738579979
3.15175e-06;0.00587956206488024
3.15200e-06;0.005887820391180487
3.15225e-06;0.005896078717480747
3.15250e-06;0.005904337043781007
3.15275e-06;0.005912595370081254
3.15300e-06;0.005920853696381515
3.15325e-06;0.005929112022681776
3.15350e-06;0.005930722465571206
3.15375e-06;0.005930798416532894
3.15400e-06;0.0059308743674945825
3.15425e-06;0.005930950318456271
3.15450e-06;0.005931026269417959
3.15475e-06;0.005931102220379647
3.15500e-06;0.005931178171341337
3.15525e-06;0.005931254122303025
3.15550e-06;0.005931330073264713
3.15575e-06;0.0059314060242264014
3.15600e-06;0.00593148197518809
3.15625e-06;0.005931557926149779
3.15650e-06;0.005931633877111467
3.15675e-06;0.0059317098280731555
3.15700e-06;0.005926303313905612
3.15725e-06;0.005908833341533556
3.15750e-06;0.0058913633691615
3.15775e-06;0.005873893396789443
3.15800e-06;0.0058564234244174165
3.15825e-06;0.00583895345204536
3.15850e-06;0.005821483479673304
3.15875e-06;0.005804013507301278
3.15900e-06;0.0057865435349292215
3.15925e-06;0.005769073562557165
3.15950e-06;0.005751603590185139
3.15975e-06;0.005734133617813083
3.16000e-06;0.0057166636454410264
3.16025e-06;0.005692650541433186
3.16050e-06;0.005667127124735252
3.16075e-06;0.005641603708037275
3.16100e-06;0.005616080291339297
3.16125e-06;0.005590556874641364
3.16150e-06;0.005565033457943386
3.16175e-06;0.005539510041245409
3.16200e-06;0.005513986624547431
3.16225e-06;0.005488463207849498
3.16250e-06;0.00546293979115152
3.16275e-06;0.005437416374453543
3.16300e-06;0.005411892957755609
3.16325e-06;0.00538977812392261
3.16350e-06;0.005375163437552711
3.16375e-06;0.005360548751182836
3.16400e-06;0.005345934064812937
3.16425e-06;0.005331319378443038
3.16450e-06;0.0053167046920731395
3.16475e-06;0.005302090005703266
3.16500e-06;0.005287475319333367
3.16525e-06;0.005272860632963468
3.16550e-06;0.005258245946593593
3.16575e-06;0.0052436312602236945
3.16600e-06;0.005229016573853796
3.16625e-06;0.005214401887483897
3.16650e-06;0.005218706026265795
3.16675e-06;0.005227377086470304
3.16700e-06;0.005236048146674813
3.16725e-06;0.005244719206879307
3.16750e-06;0.005253390267083816
3.16775e-06;0.005262061327288325
3.16800e-06;0.005270732387492819
3.16825e-06;0.005279403447697327
3.16850e-06;0.005288074507901836
3.16875e-06;0.005296745568106345
3.16900e-06;0.005305416628310839
3.16925e-06;0.005314087688515348
3.16950e-06;0.005327426163303673
3.16975e-06;0.005351034682576004
3.17000e-06;0.005374643201848375
3.17025e-06;0.005398251721120745
3.17050e-06;0.005421860240393117
3.17075e-06;0.005445468759665447
3.17100e-06;0.005469077278937818
3.17125e-06;0.005492685798210189
3.17150e-06;0.005516294317482519
3.17175e-06;0.00553990283675489
3.17200e-06;0.005563511356027261
3.17225e-06;0.005586270578517932
3.17250e-06;0.005607161032856287
3.17275e-06;0.005628051487194643
3.17300e-06;0.0056489419415329985
3.17325e-06;0.005669832395871319
3.17350e-06;0.005690722850209674
3.17375e-06;0.00571161330454803
3.17400e-06;0.00573250375888635
3.17425e-06;0.0057533942132247055
3.17450e-06;0.0057742846675630614
3.17475e-06;0.0057951751219014165
3.17500e-06;0.005813275422103723
3.17525e-06;0.00582523634758775
3.17550e-06;0.005837197273071777
3.17575e-06;0.005849158198555782
3.17600e-06;0.0058611191240398085
3.17625e-06;0.005873080049523835
3.17650e-06;0.005885040975007841
3.17675e-06;0.0058970019004918675
3.17700e-06;0.005908962825975894
3.17725e-06;0.00592092375145992
3.17750e-06;0.0059328846769439265
3.17775e-06;0.005944845602427953
3.17800e-06;0.005956806527911979
3.17825e-06;0.0059687674533959855
3.17850e-06;0.005980728378880012
3.17875e-06;0.005992689304364038
3.17900e-06;0.0060046502298480645
3.17925e-06;0.00601661115533207
3.17950e-06;0.006028572080816096
3.17975e-06;0.006037436811492136
3.18000e-06;0.006045586865684342
3.18025e-06;0.0060537369198765635
3.18050e-06;0.006061886974068784
3.18075e-06;0.00607003702826099
3.18100e-06;0.006078187082453211
3.18125e-06;0.006086337136645431
3.18150e-06;0.006094487190837651
3.18175e-06;0.0061026372450298585
3.18200e-06;0.006110787299222079
3.18225e-06;0.006118937353414299
3.18250e-06;0.006127087407606506
3.18275e-06;0.006135237461798726
3.18300e-06;0.006143387515990947
3.18325e-06;0.0061515375701831675
3.18350e-06;0.006159687624375374
3.18375e-06;0.006167837678567594
3.18400e-06;0.006175987732759815
3.18425e-06;0.006179979714407449
3.18450e-06;0.0061748223931080695
3.18475e-06;0.0061696650718086905
3.18500e-06;0.006164507750509319
3.18525e-06;0.00615935042920994
3.18550e-06;0.00615419310791056
3.18575e-06;0.0061490357866111804
3.18600e-06;0.00614387846531181
3.18625e-06;0.00613872114401243
3.18650e-06;0.006133563822713051
3.18675e-06;0.006105658657199198
3.18700e-06;0.0060725027402542585
3.18725e-06;0.006039346823309319
3.18750e-06;0.00600619090636438
3.18775e-06;0.005973034989419497
3.18800e-06;0.005939879072474558
3.18825e-06;0.005906723155529619
3.18850e-06;0.005873567238584735
3.18875e-06;0.005840411321639796
3.18900e-06;0.005800428766776593
3.18925e-06;0.005745425074654614
3.18950e-06;0.005690421382532541
3.18975e-06;0.0056354176904104695
3.19000e-06;0.0055804139982883975
3.19025e-06;0.005525410306166418
3.19050e-06;0.005470406614044346
3.19075e-06;0.0054154029219222735
3.19100e-06;0.005360399229800295
3.19125e-06;0.00530203389390819
3.19150e-06;0.005242892609505516
3.19175e-06;0.005183751325102843
3.19200e-06;0.00512461004070027
3.19225e-06;0.0050654687562975975
3.19250e-06;0.005006327471894925
3.19275e-06;0.004947186187492352
3.19300e-06;0.004888044903089679
3.19325e-06;0.004834033185635417
3.19350e-06;0.004791308419406158
3.19375e-06;0.004748583653176826
3.19400e-06;0.004705858886947493
3.19425e-06;0.004663134120718161
3.19450e-06;0.004620409354488902
3.19475e-06;0.004577684588259569
3.19500e-06;0.004534959822030237
3.19525e-06;0.004492235055800977
3.19550e-06;0.004449510289571645
3.19575e-06;0.004417694374730545
3.19600e-06;0.004388396486059451
3.19625e-06;0.004359098597388407
3.19650e-06;0.004329800708717311
3.19675e-06;0.004300502820046217
3.19700e-06;0.004271204931375173
3.19725e-06;0.004241907042704079
3.19750e-06;0.004212609154032984
3.19775e-06;0.004183311265361939
3.19800e-06;0.004155725724576095
3.19825e-06;0.004131907984709163
3.19850e-06;0.004108090244842231
3.19875e-06;0.004084272504975338
3.19900e-06;0.004060454765108406
3.19925e-06;0.004036637025241474
3.19950e-06;0.004012819285374582
3.19975e-06;0.00398900154550765
3.20000e-06;0.003965183805640718
3.20025e-06;0.003941366065773786
3.20050e-06;0.003917548325906893
3.20075e-06;0.003893730586039961
