Time(s);Current(A)
1.25000e-06;0.016019701088679967
1.25025e-06;0.01600607142788536
1.25050e-06;0.015984509596529622
1.25075e-06;0.015961115361659013
1.25100e-06;0.015937721126788384
1.25125e-06;0.015914326891917775
1.25150e-06;0.01589093265704717
1.25175e-06;0.01586753842217654
1.25200e-06;0.015844144187305932
1.25225e-06;0.015820749952435303
1.25250e-06;0.015797355717564694
1.25275e-06;0.015773694455088996
1.25300e-06;0.015749445298772854
1.25325e-06;0.015725196142456734
1.25350e-06;0.015701526634665963
1.25375e-06;0.01567913329380019
1.25400e-06;0.01565673995293442
1.25425e-06;0.015635347373599305
1.25450e-06;0.01561615809283107
1.25475e-06;0.015596968812062819
1.25500e-06;0.015580511141939046
1.25525e-06;0.015570067445807727
1.25550e-06;0.015559623749676418
1.25575e-06;0.01554918005354511
1.25600e-06;0.015538736357413792
1.25625e-06;0.015528292661282483
1.25650e-06;0.015522332029678877
1.25675e-06;0.015526241411406254
1.25700e-06;0.015530150793133633
1.25725e-06;0.015534060174861013
1.25750e-06;0.01553796955658839
1.25775e-06;0.015541878938315773
1.25800e-06;0.015550950155583608
1.25825e-06;0.015571385783352628
1.25850e-06;0.015591821411121665
1.25875e-06;0.015612257038890685
1.25900e-06;0.015632692666659724
1.25925e-06;0.015653128294428744
1.25950e-06;0.01567356392219778
1.25975e-06;0.0156939995499668
1.26000e-06;0.01571443517773582
1.26025e-06;0.015744621249611887
1.26050e-06;0.01577705976272255
1.26075e-06;0.015809498275833247
1.26100e-06;0.015841936788943915
1.26125e-06;0.015874375302054582
1.26150e-06;0.015906813815165278
1.26175e-06;0.015939252328275946
1.26200e-06;0.015971690841386638
1.26225e-06;0.01600435985983902
1.26250e-06;0.016037536363914546
1.26275e-06;0.0160707128679901
1.26300e-06;0.016103889372065628
1.26325e-06;0.016137065876141183
1.26350e-06;0.01617024238021671
1.26375e-06;0.016200906653839848
1.26400e-06;0.01622603994572014
1.26425e-06;0.016251173237600426
1.26450e-06;0.016276306529480738
1.26475e-06;0.01630143982136103
1.26500e-06;0.01632657311324134
1.26525e-06;0.016346885188397674
1.26550e-06;0.016356582766921143
1.26575e-06;0.01636628034544462
1.26600e-06;0.016375977923968093
1.26625e-06;0.016385675502491568
1.26650e-06;0.01639537308101504
1.26675e-06;0.016405070659538508
1.26700e-06;0.016414768238061987
1.26725e-06;0.016424465816585458
1.26750e-06;0.016434163395108933
1.26775e-06;0.016443860973632405
1.26800e-06;0.01645355855215588
1.26825e-06;0.016450508029593094
1.26850e-06;0.01644451257978058
1.26875e-06;0.016438517129968057
1.26900e-06;0.01643252168015554
1.26925e-06;0.01642652623034302
1.26950e-06;0.016420530780530504
1.26975e-06;0.01641453533071799
1.27000e-06;0.016408539880905466
1.27025e-06;0.01640254443109295
1.27050e-06;0.01639654898128043
1.27075e-06;0.016390553531467913
1.27100e-06;0.016382512216708507
1.27125e-06;0.01636996668074671
1.27150e-06;0.01635742114478492
1.27175e-06;0.016344875608823122
1.27200e-06;0.016332330072861338
1.27225e-06;0.01631978453689955
1.27250e-06;0.016307045752441407
1.27275e-06;0.016293881507849217
1.27300e-06;0.016280717263257014
1.27325e-06;0.016267553018664824
1.27350e-06;0.016254388774072624
1.27375e-06;0.016241224529480434
1.27400e-06;0.016228378228601
1.27425e-06;0.01621657323152824
1.27450e-06;0.016205519674330985
1.27475e-06;0.016194466117133724
1.27500e-06;0.01618295508557331
1.27525e-06;0.016170436868407047
1.27550e-06;0.016157918651240773
1.27575e-06;0.016142789891325296
1.27600e-06;0.016121913703155452
1.27625e-06;0.01610103751498563
1.27650e-06;0.016080161326815806
1.27675e-06;0.016059285138645962
1.27700e-06;0.01603840895047614
1.27725e-06;0.016007760584519044
1.27750e-06;0.015974854756649972
1.27775e-06;0.015941948928780873
1.27800e-06;0.0159090431009118
1.27825e-06;0.015876137273042733
1.27850e-06;0.015839259234838064
1.27875e-06;0.015793635891113596
1.27900e-06;0.015748012547389088
1.27925e-06;0.01570238920366462
1.27950e-06;0.015656765859940153
1.27975e-06;0.015611142516215646
1.28000e-06;0.01556551917249118
1.28025e-06;0.01551253958123201
1.28050e-06;0.01545786062991356
1.28075e-06;0.015403181678595107
1.28100e-06;0.01534850272727661
1.28125e-06;0.01529382377595816
1.28150e-06;0.015239144824639662
1.28175e-06;0.015183826808472408
1.28200e-06;0.01512710181309768
1.28225e-06;0.015070376817723
1.28250e-06;0.01501410997545684
1.28275e-06;0.014958851813137133
1.28300e-06;0.014904332222717495
1.28325e-06;0.014851438688414738
1.28350e-06;0.014799512657120881
1.28375e-06;0.01474971670170134
1.28400e-06;0.014701287933335763
1.28425e-06;0.014655869194016916
1.28450e-06;0.014612250196464659
1.28475e-06;0.014572593549914957
1.28500e-06;0.014535971864697917
1.28525e-06;0.014506032017010012
1.28550e-06;0.01447609216932213
1.28575e-06;0.014452233641932466
1.28600e-06;0.014441763882880017
1.28625e-06;0.014431294123827558
1.28650e-06;0.01442082436477511
1.28675e-06;0.014410354605722661
1.28700e-06;0.014399884846670203
1.28725e-06;0.014410516840181811
1.28750e-06;0.01442602353038055
1.28775e-06;0.014441530220579276
1.28800e-06;0.014457036910778003
1.28825e-06;0.014472543600976742
1.28850e-06;0.01449658613975718
1.28875e-06;0.014539421390254081
1.28900e-06;0.014582256640750945
1.28925e-06;0.01462509189124781
1.28950e-06;0.01466792714174471
1.28975e-06;0.014710762392241575
1.29000e-06;0.014753597642738476
1.29025e-06;0.01479643289323534
1.29050e-06;0.014845017674353518
1.29075e-06;0.0149062607483683
1.29100e-06;0.014967503822383084
1.29125e-06;0.015028746896397919
1.29150e-06;0.015089989970412701
1.29175e-06;0.015151233044427536
1.29200e-06;0.01521247611844232
1.29225e-06;0.015273719192457102
1.29250e-06;0.015335353538922993
1.29275e-06;0.015397849319410848
1.29300e-06;0.015460345099898756
1.29325e-06;0.015521395249763276
1.29350e-06;0.015579262667496152
1.29375e-06;0.015637130085229076
1.29400e-06;0.015690309535655776
1.29425e-06;0.015733167854296445
1.29450e-06;0.01577602617293708
1.29475e-06;0.01581888449157775
1.29500e-06;0.01586174281021838
1.29525e-06;0.015904601128859015
1.29550e-06;0.015947459447499684
1.29575e-06;0.015970431152721294
1.29600e-06;0.015988808869446
1.29625e-06;0.01600718658617069
1.29650e-06;0.01602556430289538
1.29675e-06;0.01604394201962009
1.29700e-06;0.01606231973634478
1.29725e-06;0.01607228886439361
1.29750e-06;0.016063745458930898
1.29775e-06;0.016055202053468182
1.29800e-06;0.01604665864800546
1.29825e-06;0.016038115242542745
1.29850e-06;0.016029571837080026
1.29875e-06;0.01602102843161731
1.29900e-06;0.01601248502615459
1.29925e-06;0.016003941620691874
1.29950e-06;0.0159775341498416
1.29975e-06;0.015946999917477594
1.30000e-06;0.015916465685113613
1.30025e-06;0.015885931452749608
1.30050e-06;0.015855397220385627
1.30075e-06;0.01582486298802165
1.30100e-06;0.015794328755657644
1.30125e-06;0.015763794523293663
1.30150e-06;0.01573085594676438
1.30175e-06;0.01569262391331298
1.30200e-06;0.015654391879861583
1.30225e-06;0.01561592257642991
1.30250e-06;0.015576930894198484
1.30275e-06;0.015537939211967024
1.30300e-06;0.015499369224522715
1.30325e-06;0.015461727649583592
1.30350e-06;0.0154240860746445
1.30375e-06;0.015387982027600479
1.30400e-06;0.015355263035739704
1.30425e-06;0.015322544043878956
1.30450e-06;0.015289825052018181
1.30475e-06;0.015259155240838889
1.30500e-06;0.01523299695085502
1.30525e-06;0.015206838660871129
1.30550e-06;0.01518068037088726
1.30575e-06;0.015156033580992228
1.30600e-06;0.015134714542890622
1.30625e-06;0.015113395504789016
1.30650e-06;0.015092076466687393
1.30675e-06;0.015070757428585787
1.30700e-06;0.015049438390484162
1.30725e-06;0.015028119352382557
1.30750e-06;0.015006800314280934
1.30775e-06;0.014985481276179326
1.30800e-06;0.01496416223807772
1.30825e-06;0.014942843199976097
1.30850e-06;0.014924438400755885
1.30875e-06;0.014906706817211684
1.30900e-06;0.014888975233667499
1.30925e-06;0.014871243650123314
1.30950e-06;0.014853512066579113
1.30975e-06;0.014835780483034928
1.31000e-06;0.014818048899490727
1.31025e-06;0.014800317315946542
1.31050e-06;0.014782585732402357
1.31075e-06;0.014764854148858156
1.31100e-06;0.014747875839669395
1.31125e-06;0.014732555955845989
1.31150e-06;0.014717236072022593
1.31175e-06;0.014701916188199198
1.31200e-06;0.014686596304375792
1.31225e-06;0.014671276420552395
1.31250e-06;0.014655956536728989
1.31275e-06;0.014640636652905594
1.31300e-06;0.014625316769082186
1.31325e-06;0.014609996885258792
1.31350e-06;0.014596219799303327
1.31375e-06;0.014585839371018912
1.31400e-06;0.014575458942734506
1.31425e-06;0.01456507851445009
1.31450e-06;0.014554698086165684
1.31475e-06;0.014544317657881277
1.31500e-06;0.01453393722959686
1.31525e-06;0.014523556801312454
1.31550e-06;0.014513176373028038
1.31575e-06;0.014502795944743633
1.31600e-06;0.014495735482963115
1.31625e-06;0.014495984332355051
1.31650e-06;0.01449623318174699
1.31675e-06;0.014496482031138926
1.31700e-06;0.014496730880530865
1.31725e-06;0.014496979729922801
1.31750e-06;0.01449722857931474
1.31775e-06;0.014497477428706676
1.31800e-06;0.014497726278098614
1.31825e-06;0.01449797512749055
1.31850e-06;0.014501473431441328
1.31875e-06;0.014512125805917523
1.31900e-06;0.014522778180393717
1.31925e-06;0.01453343055486992
1.31950e-06;0.014544082929346116
1.31975e-06;0.014554735303822319
1.32000e-06;0.014565387678298512
1.32025e-06;0.014576040052774707
1.32050e-06;0.01458669242725091
1.32075e-06;0.014597344801727105
1.32100e-06;0.014609268504140464
1.32125e-06;0.01462399119006274
1.32150e-06;0.014638713875985027
1.32175e-06;0.014653436561907304
1.32200e-06;0.01466815924782958
1.32225e-06;0.014682881933751868
1.32250e-06;0.014697604619674143
1.32275e-06;0.014712327305596433
1.32300e-06;0.014727049991518708
1.32325e-06;0.014741772677440984
1.32350e-06;0.014756495363363271
1.32375e-06;0.014769075638082456
1.32400e-06;0.014776939133242696
1.32425e-06;0.014784802628402928
1.32450e-06;0.014792666123563163
1.32475e-06;0.014800529618723402
1.32500e-06;0.014808393113883635
1.32525e-06;0.014816256609043874
1.32550e-06;0.014824120104204107
1.32575e-06;0.014831983599364346
1.32600e-06;0.014839847094524579
1.32625e-06;0.014847710589684811
1.32650e-06;0.014851238174874786
1.32675e-06;0.014845219725443904
1.32700e-06;0.01483920127601302
1.32725e-06;0.014833182826582138
1.32750e-06;0.014827164377151258
1.32775e-06;0.014821145927720372
1.32800e-06;0.014815127478289492
1.32825e-06;0.014809109028858606
1.32850e-06;0.014803090579427726
1.32875e-06;0.014797072129996845
1.32900e-06;0.01479105368056596
1.32925e-06;0.014785035231135078
1.32950e-06;0.01477068707674641
1.32975e-06;0.014754414684784443
1.33000e-06;0.014738142292822462
1.33025e-06;0.014721869900860494
1.33050e-06;0.014705597508898527
1.33075e-06;0.014689325116936543
1.33100e-06;0.014673052724974576
1.33125e-06;0.014656780333012594
1.33150e-06;0.014640507941050627
1.33175e-06;0.01462423554908866
1.33200e-06;0.014607963157126678
1.33225e-06;0.014591427104881973
1.33250e-06;0.01457431057236799
1.33275e-06;0.01455719403985402
1.33300e-06;0.014540077507340052
1.33325e-06;0.014522960974826069
1.33350e-06;0.014505844442312099
1.33375e-06;0.014488727909798115
1.33400e-06;0.014471611377284147
1.33425e-06;0.014454494844770164
1.33450e-06;0.014437378312256194
1.33475e-06;0.014426542357142648
1.33500e-06;0.014417157272507305
1.33525e-06;0.014407772187871972
1.33550e-06;0.014398387103236631
1.33575e-06;0.014389002018601297
1.33600e-06;0.014379616933965963
1.33625e-06;0.014370231849330622
1.33650e-06;0.01436084676469529
1.33675e-06;0.014351461680059947
1.33700e-06;0.014345922710835473
1.33725e-06;0.014348851433771846
1.33750e-06;0.014351780156708223
1.33775e-06;0.014354708879644596
1.33800e-06;0.014357637602580972
1.33825e-06;0.014360566325517346
1.33850e-06;0.01436349504845372
1.33875e-06;0.014366423771390096
1.33900e-06;0.014369352494326469
1.33925e-06;0.014372281217262844
1.33950e-06;0.014375209940199217
1.33975e-06;0.014378138663135594
1.34000e-06;0.014381067386071967
1.34025e-06;0.014386377990520192
1.34050e-06;0.01439693259761812
1.34075e-06;0.01440748720471604
1.34100e-06;0.014418041811813968
1.34125e-06;0.014428596418911886
1.34150e-06;0.014439151026009806
1.34175e-06;0.014449705633107733
1.34200e-06;0.014460260240205653
1.34225e-06;0.014470814847303582
1.34250e-06;0.0144813694544015
1.34275e-06;0.014491924061499429
1.34300e-06;0.014502478668597347
1.34325e-06;0.014513033275695267
1.34350e-06;0.014522716493108592
1.34375e-06;0.014530481239854018
1.34400e-06;0.014538245986599453
1.34425e-06;0.014546010733344881
1.34450e-06;0.01455377548009031
1.34475e-06;0.014561540226835744
1.34500e-06;0.014569304973581172
1.34525e-06;0.014577069720326605
1.34550e-06;0.014575846930151579
1.34575e-06;0.014572547937239605
1.34600e-06;0.014569248944327628
1.34625e-06;0.014565949951415653
1.34650e-06;0.014562650958503676
1.34675e-06;0.014559351965591702
1.34700e-06;0.014556052972679727
1.34725e-06;0.014547682763003061
1.34750e-06;0.014528147651118786
1.34775e-06;0.014508612539234493
1.34800e-06;0.014489077427350217
1.34825e-06;0.014469542315465924
1.34850e-06;0.014450007203581649
1.34875e-06;0.014430472091697372
1.34900e-06;0.014410936979813079
1.34925e-06;0.014391401867928803
1.34950e-06;0.014367849003770939
1.34975e-06;0.01433545056796636
1.35000e-06;0.01430305213216178
1.35025e-06;0.014270653696357175
1.35050e-06;0.014238255260552595
1.35075e-06;0.014205856824747988
1.35100e-06;0.014173458388943409
1.35125e-06;0.014141059953138831
1.35150e-06;0.014108661517334224
1.35175e-06;0.0140753405596956
1.35200e-06;0.014039988557725935
1.35225e-06;0.014004636555756303
1.35250e-06;0.013969284553786638
1.35275e-06;0.013933932551817007
1.35300e-06;0.013898580549847373
1.35325e-06;0.01386322854787771
1.35350e-06;0.013832671922612394
1.35375e-06;0.013803223072961841
1.35400e-06;0.013773774223311315
1.35425e-06;0.013744325373660786
1.35450e-06;0.013714876524010234
1.35475e-06;0.013685427674359705
1.35500e-06;0.013660939404490844
1.35525e-06;0.01364737245601739
1.35550e-06;0.013633805507543938
1.35575e-06;0.013620238559070472
1.35600e-06;0.013606671610597018
1.35625e-06;0.013593104662123554
1.35650e-06;0.0135795377136501
1.35675e-06;0.013565970765176636
1.35700e-06;0.013552403816703182
1.35725e-06;0.013538836868229728
1.35750e-06;0.013525269919756264
1.35775e-06;0.01351170297128281
1.35800e-06;0.013498136022809346
1.35825e-06;0.013484569074335892
1.35850e-06;0.013471002125862438
1.35875e-06;0.013462041841446268
1.35900e-06;0.013463223689793455
1.35925e-06;0.013464405538140642
1.35950e-06;0.013465587386487829
1.35975e-06;0.013466769234835016
1.36000e-06;0.013467951083182205
1.36025e-06;0.013469132931529392
1.36050e-06;0.01347031477987658
1.36075e-06;0.013471496628223768
1.36100e-06;0.013472678476570955
1.36125e-06;0.013473860324918142
1.36150e-06;0.013475042173265329
1.36175e-06;0.013476224021612518
1.36200e-06;0.013477405869959705
1.36225e-06;0.013478587718306892
1.36250e-06;0.013480818228213955
1.36275e-06;0.01348535749444263
1.36300e-06;0.01348989676067131
1.36325e-06;0.013494436026899984
1.36350e-06;0.013498975293128664
1.36375e-06;0.013502755821612275
1.36400e-06;0.013506361074778898
1.36425e-06;0.013509966327945523
1.36450e-06;0.013513571581112147
1.36475e-06;0.013517163808832368
1.36500e-06;0.013520727359443704
1.36525e-06;0.013524290910055045
1.36550e-06;0.013531230174540151
1.36575e-06;0.01354560148482924
1.36600e-06;0.013559972795118341
1.36625e-06;0.01357434410540743
1.36650e-06;0.01358871541569653
1.36675e-06;0.01360308672598562
1.36700e-06;0.013617458036274708
1.36725e-06;0.013645779353460787
1.36750e-06;0.013677323249063015
1.36775e-06;0.01370886714466527
1.36800e-06;0.013740411040267499
1.36825e-06;0.013771954935869727
1.36850e-06;0.013803498831471982
1.36875e-06;0.013840761059652462
1.36900e-06;0.01389061289442652
1.36925e-06;0.013940464729200538
1.36950e-06;0.013990316563974599
1.36975e-06;0.014040168398748616
1.37000e-06;0.014090020233522633
1.37025e-06;0.014139872068296692
1.37050e-06;0.01418972390307071
1.37075e-06;0.014239575737844769
1.37100e-06;0.014291916596445802
1.37125e-06;0.01434973734456966
1.37150e-06;0.014407558092693567
1.37175e-06;0.014465378840817425
1.37200e-06;0.014523199588941332
1.37225e-06;0.01458102033706519
1.37250e-06;0.014638841085189046
1.37275e-06;0.014696661833312953
1.37300e-06;0.014754482581436811
1.37325e-06;0.014809023440606736
1.37350e-06;0.014856343224220971
1.37375e-06;0.014903663007835246
1.37400e-06;0.01495098279144948
1.37425e-06;0.014998302575063715
1.37450e-06;0.015045622358677992
1.37475e-06;0.015092942142292226
1.37500e-06;0.015122884970555181
1.37525e-06;0.015148813564154059
1.37550e-06;0.015174742157752935
1.37575e-06;0.015200670751351836
1.37600e-06;0.015226599344950712
1.37625e-06;0.015252527938549613
1.37650e-06;0.015269687157192546
1.37675e-06;0.015267539527335483
1.37700e-06;0.015265391897478418
1.37725e-06;0.015263244267621354
1.37750e-06;0.01526109663776429
1.37775e-06;0.015258949007907226
1.37800e-06;0.015256801378050161
1.37825e-06;0.015254653748193098
1.37850e-06;0.015252506118336036
1.37875e-06;0.015229225227739696
1.37900e-06;0.015201062361785408
1.37925e-06;0.015172899495831097
1.37950e-06;0.015144736629876808
1.37975e-06;0.015116573763922518
1.38000e-06;0.015088410897968207
1.38025e-06;0.01506024803201392
1.38050e-06;0.015032085166059606
1.38075e-06;0.014999788987348309
1.38100e-06;0.014958392816493743
1.38125e-06;0.014916996645639143
1.38150e-06;0.014875600474784575
1.38175e-06;0.014834204303929975
1.38200e-06;0.01479280813307541
1.38225e-06;0.014751411962220807
1.38250e-06;0.014710015791366242
1.38275e-06;0.014669961037910413
1.38300e-06;0.014630216164068774
1.38325e-06;0.014590471290227168
1.38350e-06;0.014550726416385528
1.38375e-06;0.014510981542543922
1.38400e-06;0.014471236668702316
1.38425e-06;0.014431491794860677
1.38450e-06;0.014394612312372861
1.38475e-06;0.014364041338420223
1.38500e-06;0.014333470364467613
1.38525e-06;0.014303289099170623
1.38550e-06;0.014273965825008736
1.38575e-06;0.014244642550846873
1.38600e-06;0.014215319276684986
1.38625e-06;0.01418900581369144
1.38650e-06;0.014166556710529746
1.38675e-06;0.014144107607368034
1.38700e-06;0.01412165850420634
1.38725e-06;0.014090582027992387
1.38750e-06;0.01405957986420415
1.38775e-06;0.014034872887418122
1.38800e-06;0.014004231282315335
1.38825e-06;0.01397577528630153
1.38850e-06;0.013946409138313102
1.38875e-06;0.013916699741222298
1.38900e-06;0.01388699034413147
1.38925e-06;0.013857280947040668
1.38950e-06;0.013827160102386715
1.38975e-06;0.013795631314906225
1.39000e-06;0.013764102527425761
1.39025e-06;0.013732573739945271
1.39050e-06;0.013701044952464807
1.39075e-06;0.013670471092847863
1.39100e-06;0.013640257368835878
1.39125e-06;0.013610043644823919
1.39150e-06;0.013579829920811934
1.39175e-06;0.013549616196799974
1.39200e-06;0.013519402472787989
1.39225e-06;0.013489188748776032
1.39250e-06;0.013458975024764072
1.39275e-06;0.013428761300752087
1.39300e-06;0.013398547576740128
1.39325e-06;0.013368333852728143
1.39350e-06;0.013340480826737345
1.39375e-06;0.013320705933033675
1.39400e-06;0.01330093103932999
1.39425e-06;0.013281156145626322
1.39450e-06;0.013261381251922636
1.39475e-06;0.013241606358218968
1.39500e-06;0.0132218314645153
1.39525e-06;0.013202056570811613
1.39550e-06;0.013182281677107945
1.39575e-06;0.013162506783404259
1.39600e-06;0.01314273188970059
1.39625e-06;0.013122956995996905
1.39650e-06;0.013116256582598788
1.39675e-06;0.01311448699806682
1.39700e-06;0.013112717413534852
1.39725e-06;0.013110947829002883
1.39750e-06;0.013109178244470915
1.39775e-06;0.013107408659938948
1.39800e-06;0.01310563907540698
1.39825e-06;0.013103869490875011
1.39850e-06;0.013102099906343043
1.39875e-06;0.013100330321811075
1.39900e-06;0.013098560737279108
1.39925e-06;0.01309679115274714
1.39950e-06;0.013095021568215171
1.39975e-06;0.013102097725925799
1.40000e-06;0.013112509912310008
1.40025e-06;0.01312292209869421
1.40050e-06;0.01313333428507842
1.40075e-06;0.01314374647146262
1.40100e-06;0.013154158657846821
1.40125e-06;0.013164570844231033
1.40150e-06;0.013174983030615234
1.40175e-06;0.013185395216999444
1.40200e-06;0.013195807403383645
1.40225e-06;0.013206219589767846
