Time(s);Current(A)
1.75000e-06;-0.013318424791286972
1.75025e-06;-0.013309799108355232
1.75050e-06;-0.013296932824898747
1.75075e-06;-0.013284066541442251
1.75100e-06;-0.013271200257985765
1.75125e-06;-0.01325833397452927
1.75150e-06;-0.013245467691072784
1.75175e-06;-0.013232601407616288
1.75200e-06;-0.013216249395429645
1.75225e-06;-0.013189087239494903
1.75250e-06;-0.013161925083560138
1.75275e-06;-0.013134762927625394
1.75300e-06;-0.01310760077169063
1.75325e-06;-0.013080438615755887
1.75350e-06;-0.013053276459821144
1.75375e-06;-0.013024123928598268
1.75400e-06;-0.01298879873029702
1.75425e-06;-0.012953473531995743
1.75450e-06;-0.012918148333694496
1.75475e-06;-0.012882823135393249
1.75500e-06;-0.012847497937091971
1.75525e-06;-0.012812172738790725
1.75550e-06;-0.01277651678989081
1.75575e-06;-0.01273983509808529
1.75600e-06;-0.012703153406279736
1.75625e-06;-0.012666874633951634
1.75650e-06;-0.01263184541883434
1.75675e-06;-0.012596816203717014
1.75700e-06;-0.01256261122121096
1.75725e-06;-0.012530962396598634
1.75750e-06;-0.012499313571986335
1.75775e-06;-0.01247030166346933
1.75800e-06;-0.012449467511813875
1.75825e-06;-0.01242863336015844
1.75850e-06;-0.012407799208502986
1.75875e-06;-0.01238696505684755
1.75900e-06;-0.012366130905192115
1.75925e-06;-0.012345296753536662
1.75950e-06;-0.012324462601881227
1.75975e-06;-0.012303628450225774
1.76000e-06;-0.012282794298570338
1.76025e-06;-0.01226534780425935
1.76050e-06;-0.012258407309036544
1.76075e-06;-0.012251466813813736
1.76100e-06;-0.012244526318590923
1.76125e-06;-0.012237585823368117
1.76150e-06;-0.012230645328145304
1.76175e-06;-0.012223704832922497
1.76200e-06;-0.01221676433769969
1.76225e-06;-0.012209823842476876
1.76250e-06;-0.01220288334725407
1.76275e-06;-0.012198206388796495
1.76300e-06;-0.012200549241604675
1.76325e-06;-0.012202892094412856
1.76350e-06;-0.012205234947221038
1.76375e-06;-0.012207577800029219
1.76400e-06;-0.012209920652837401
1.76425e-06;-0.012212263505645582
1.76450e-06;-0.012214606358453763
1.76475e-06;-0.012216949211261945
1.76500e-06;-0.012219292064070124
1.76525e-06;-0.012221634916878306
1.76550e-06;-0.012225869421175154
1.76575e-06;-0.012230755405493756
1.76600e-06;-0.012235641389812353
1.76625e-06;-0.01224052737413095
1.76650e-06;-0.01224541335844955
1.76675e-06;-0.012250299342768146
1.76700e-06;-0.012255185327086748
1.76725e-06;-0.012260071311405345
1.76750e-06;-0.012264957295723942
1.76775e-06;-0.012269843280042542
1.76800e-06;-0.012274739771417461
1.76825e-06;-0.01227966884788376
1.76850e-06;-0.012284597924350056
1.76875e-06;-0.01228952700081635
1.76900e-06;-0.012294456077282651
1.76925e-06;-0.012299385153748945
1.76950e-06;-0.012304314230215246
1.76975e-06;-0.01230924330668154
1.77000e-06;-0.012314172383147842
1.77025e-06;-0.012320724113162538
1.77050e-06;-0.012332308110306178
1.77075e-06;-0.012343892107449827
1.77100e-06;-0.012355476104593466
1.77125e-06;-0.012367060101737116
1.77150e-06;-0.012378644098880755
1.77175e-06;-0.012390228096024395
1.77200e-06;-0.012401812093168044
1.77225e-06;-0.012413396090311684
1.77250e-06;-0.012426527879579147
1.77275e-06;-0.012444459771391365
1.77300e-06;-0.012462391663203584
1.77325e-06;-0.012480323555015818
1.77350e-06;-0.012498255446828036
1.77375e-06;-0.01251618733864027
1.77400e-06;-0.012534119230452489
1.77425e-06;-0.012552051122264722
1.77450e-06;-0.01256998301407694
1.77475e-06;-0.012588176756871506
1.77500e-06;-0.012607182567092558
1.77525e-06;-0.012626188377313595
1.77550e-06;-0.012645194187534648
1.77575e-06;-0.012664199997755685
1.77600e-06;-0.01268320580797672
1.77625e-06;-0.012702211618197772
1.77650e-06;-0.012721217428418809
1.77675e-06;-0.012740223238639862
1.77700e-06;-0.012758450459767298
1.77725e-06;-0.012774263075320836
1.77750e-06;-0.012790075690874387
1.77775e-06;-0.01280522950318311
1.77800e-06;-0.01281834019672727
1.77825e-06;-0.012830049376917087
1.77850e-06;-0.012837412102751146
1.77875e-06;-0.012844774828585197
1.77900e-06;-0.012849301903571033
1.77925e-06;-0.012845034893975
1.77950e-06;-0.012840767884378969
1.77975e-06;-0.012833741372158322
1.78000e-06;-0.012818156930635564
1.78025e-06;-0.012802572489112807
1.78050e-06;-0.012782845538808553
1.78075e-06;-0.012750271600438802
1.78100e-06;-0.012717697662069023
1.78125e-06;-0.012685123723699272
1.78150e-06;-0.012652549785329521
1.78175e-06;-0.01261527365630401
1.78200e-06;-0.012563414821381695
1.78225e-06;-0.012511555986459338
1.78250e-06;-0.012459697151537025
1.78275e-06;-0.012407838316614666
1.78300e-06;-0.012352833712283249
1.78325e-06;-0.012288073265734787
1.78350e-06;-0.01222331281918627
1.78375e-06;-0.012157182953564561
1.78400e-06;-0.012086806166229822
1.78425e-06;-0.012015695903460832
1.78450e-06;-0.011942310944210143
1.78475e-06;-0.011868479882021095
1.78500e-06;-0.011793073228050151
1.78525e-06;-0.011716985857968942
1.78550e-06;-0.011640657128950637
1.78575e-06;-0.011564526602256528
1.78600e-06;-0.011489035520698606
1.78625e-06;-0.011414607299709863
1.78650e-06;-0.011341597371031553
1.78675e-06;-0.011270296554526665
1.78700e-06;-0.011201051270629602
1.78725e-06;-0.011134308051167762
1.78750e-06;-0.011070546073102655
1.78775e-06;-0.01101024401324372
1.78800e-06;-0.010953882229951245
1.78825e-06;-0.010901891008536894
1.78850e-06;-0.010854463388420431
1.78875e-06;-0.010811483256056666
1.78900e-06;-0.010772821686608768
1.78925e-06;-0.010738538572215982
1.78950e-06;-0.010709354805104685
1.78975e-06;-0.010685471503339958
1.79000e-06;-0.010663966206141276
1.79025e-06;-0.01064983571437791
1.79050e-06;-0.010638523653064476
1.79075e-06;-0.010635952271435961
1.79100e-06;-0.010633380889807448
1.79125e-06;-0.010634890810744348
1.79150e-06;-0.010649057903484884
1.79175e-06;-0.010663224996225419
1.79200e-06;-0.010677392088965967
1.79225e-06;-0.010691559181706504
1.79250e-06;-0.010709995328557114
1.79275e-06;-0.010741670913171391
1.79300e-06;-0.010773346497785666
1.79325e-06;-0.010805022082399971
1.79350e-06;-0.010836697667014247
1.79375e-06;-0.010870830871206195
1.79400e-06;-0.010912585787516506
1.79425e-06;-0.010954340703826816
1.79450e-06;-0.010997241930970788
1.79475e-06;-0.011043698163637757
1.79500e-06;-0.011090154396304765
1.79525e-06;-0.011137062598199653
1.79550e-06;-0.011185372473231007
1.79575e-06;-0.011233682348262318
1.79600e-06;-0.01128179852219595
1.79625e-06;-0.011329313979071156
1.79650e-06;-0.011376829435946322
1.79675e-06;-0.011423386984501419
1.79700e-06;-0.011466973812315998
1.79725e-06;-0.011510560640130577
1.79750e-06;-0.011551289134110241
1.79775e-06;-0.011583153197717563
1.79800e-06;-0.011615017261324913
1.79825e-06;-0.011646881324932233
1.79850e-06;-0.011678745388539555
1.79875e-06;-0.011710609452146905
1.79900e-06;-0.011742473515754227
1.79925e-06;-0.011774337579361575
1.79950e-06;-0.011806201642968897
1.79975e-06;-0.011836878924652227
1.80000e-06;-0.011863875689524036
1.80025e-06;-0.011890872454395844
1.80050e-06;-0.011917869219267676
1.80075e-06;-0.011944865984139486
1.80100e-06;-0.011971862749011318
1.80125e-06;-0.011998859513883128
1.80150e-06;-0.012025856278754937
1.80175e-06;-0.01205285304362677
1.80200e-06;-0.01208006412361174
1.80225e-06;-0.012107939850033438
1.80250e-06;-0.012135815576455112
1.80275e-06;-0.012163691302876787
1.80300e-06;-0.012191567029298484
1.80325e-06;-0.012219442755720159
1.80350e-06;-0.012247318482141856
1.80375e-06;-0.01227519420856353
1.80400e-06;-0.012303069934985204
1.80425e-06;-0.012330704701984871
1.80450e-06;-0.012357592191674592
1.80475e-06;-0.012384479681364335
1.80500e-06;-0.012411367171054056
1.80525e-06;-0.012438254660743801
1.80550e-06;-0.012465142150433522
1.80575e-06;-0.012492029640123243
1.80600e-06;-0.012518917129812986
1.80625e-06;-0.012545804619502707
1.80650e-06;-0.012570958087605078
1.80675e-06;-0.012590733907569785
1.80700e-06;-0.012610509727534492
1.80725e-06;-0.012630285547499216
1.80750e-06;-0.012650061367463923
1.80775e-06;-0.012669837187428647
1.80800e-06;-0.012689613007393354
1.80825e-06;-0.01270938882735806
1.80850e-06;-0.012724261432168402
1.80875e-06;-0.012723927902271368
1.80900e-06;-0.012723594372374332
1.80925e-06;-0.012723260842477298
1.80950e-06;-0.012722927312580264
1.80975e-06;-0.01272259378268323
1.81000e-06;-0.012722260252786196
1.81025e-06;-0.012721926722889161
1.81050e-06;-0.012715584461801118
1.81075e-06;-0.012690607575669548
1.81100e-06;-0.012665630689537999
1.81125e-06;-0.01264065380340645
1.81150e-06;-0.01261567691727488
1.81175e-06;-0.012590700031143333
1.81200e-06;-0.012552168548512588
1.81225e-06;-0.012508968896891988
1.81250e-06;-0.012465769245271386
1.81275e-06;-0.012422569593650748
1.81300e-06;-0.012379369942030146
1.81325e-06;-0.01233304179576044
1.81350e-06;-0.012277011380761909
1.81375e-06;-0.01222098096576333
1.81400e-06;-0.012164950550764799
1.81425e-06;-0.012108920135766267
1.81450e-06;-0.012051481992930798
1.81475e-06;-0.01198967812302771
1.81500e-06;-0.01192787425312457
1.81525e-06;-0.011866070383221483
1.81550e-06;-0.011804266513318395
1.81575e-06;-0.011742467957138217
1.81600e-06;-0.011680685880183376
1.81625e-06;-0.011619243972330896
1.81650e-06;-0.011559173114984389
1.81675e-06;-0.011500468827054704
1.81700e-06;-0.01144343750795593
1.81725e-06;-0.011388450117280173
1.81750e-06;-0.011336279445102418
1.81775e-06;-0.011287355673274005
1.81800e-06;-0.011240120711602212
1.81825e-06;-0.011198123185761215
1.81850e-06;-0.011157827073137748
1.81875e-06;-0.011122807481687027
1.81900e-06;-0.011089394269562444
1.81925e-06;-0.011060962854004559
1.81950e-06;-0.011034707339874859
1.81975e-06;-0.011015199857226963
1.82000e-06;-0.01099569237457905
1.82025e-06;-0.010980053766689264
1.82050e-06;-0.010976413537185946
1.82075e-06;-0.010972773307682633
1.82100e-06;-0.01096913307817932
1.82125e-06;-0.010965492848676003
1.82150e-06;-0.010961852619172688
1.82175e-06;-0.010962591063916801
1.82200e-06;-0.010976908906738083
1.82225e-06;-0.010991226749559374
1.82250e-06;-0.011005544592380654
1.82275e-06;-0.011019862435201935
1.82300e-06;-0.011034180278023227
1.82325e-06;-0.011051674063070888
1.82350e-06;-0.011079017264020436
1.82375e-06;-0.01110636046496996
1.82400e-06;-0.011133703665919484
1.82425e-06;-0.01116104686686903
1.82450e-06;-0.011188390067818554
1.82475e-06;-0.011215733268768102
1.82500e-06;-0.011247157901062543
1.82525e-06;-0.011279988168060905
1.82550e-06;-0.011312818435059295
1.82575e-06;-0.011345648702057658
1.82600e-06;-0.011378478969056048
1.82625e-06;-0.01141130923605441
1.82650e-06;-0.01144372479859245
1.82675e-06;-0.011474854255648972
1.82700e-06;-0.011505983712705494
1.82725e-06;-0.01153629828536679
1.82750e-06;-0.011564085691364304
1.82775e-06;-0.011590948872897947
1.82800e-06;-0.011614945796016777
1.82825e-06;-0.011637615877970362
1.82850e-06;-0.011656171083285729
1.82875e-06;-0.011672763730878907
1.82900e-06;-0.011683269980843153
1.82925e-06;-0.0116911972585134
1.82950e-06;-0.01169112647799773
1.82975e-06;-0.011691055697482059
1.83000e-06;-0.011687915749944442
1.83025e-06;-0.011675257523951117
1.83050e-06;-0.0116625992979578
1.83075e-06;-0.011645797352076846
1.83100e-06;-0.011616144662182804
1.83125e-06;-0.01158649197228876
1.83150e-06;-0.011556839282394692
1.83175e-06;-0.01152718659250065
1.83200e-06;-0.011484350224749343
1.83225e-06;-0.011436973431457515
1.83250e-06;-0.011389596638165685
1.83275e-06;-0.011342219844873816
1.83300e-06;-0.011291821067190275
1.83325e-06;-0.011232050336555695
1.83350e-06;-0.011172279605921164
1.83375e-06;-0.011111059485439358
1.83400e-06;-0.01104534443325186
1.83425e-06;-0.010978995367623806
1.83450e-06;-0.010910326268774858
1.83475e-06;-0.01084026430239225
1.83500e-06;-0.010769078997313337
1.83525e-06;-0.01069714817158331
1.83550e-06;-0.010624886036665636
1.83575e-06;-0.010552706326865561
1.83600e-06;-0.01048102279948238
1.83625e-06;-0.010410238015806832
1.83650e-06;-0.010340712515501189
1.83675e-06;-0.010272771600357378
1.83700e-06;-0.01020678336416159
1.83725e-06;-0.01014318184636498
1.83750e-06;-0.010082424780515933
1.83775e-06;-0.010024970854479481
1.83800e-06;-0.009971277120557533
1.83825e-06;-0.00992175064997901
1.83850e-06;-0.009876550773456512
1.83875e-06;-0.00983552382847806
1.83900e-06;-0.00979851653785682
1.83925e-06;-0.00976558315980874
1.83950e-06;-0.009736863369726205
1.83975e-06;-0.009712498751634388
1.84000e-06;-0.009692628526761251
1.84025e-06;-0.009677896538921767
1.84050e-06;-0.00966831043566124
1.84075e-06;-0.009660744341914038
1.84100e-06;-0.009659442818616013
1.84125e-06;-0.009661212291613236
1.84150e-06;-0.009672505716113595
1.84175e-06;-0.009683799140613967
1.84200e-06;-0.009695092565114326
1.84225e-06;-0.009706385989614687
1.84250e-06;-0.009728933570507513
1.84275e-06;-0.009755357054594502
1.84300e-06;-0.009781780538681511
1.84325e-06;-0.0098082040227685
1.84350e-06;-0.009836919750053078
1.84375e-06;-0.009872744314649127
1.84400e-06;-0.009908568879245143
1.84425e-06;-0.00994567623106405
1.84450e-06;-0.009986761836884071
1.84475e-06;-0.010027847442704125
1.84500e-06;-0.010069561990462824
1.84525e-06;-0.01011322704937367
1.84550e-06;-0.010156892108284554
1.84575e-06;-0.010199832294729585
1.84600e-06;-0.010240524464717958
1.84625e-06;-0.010281216634706295
1.84650e-06;-0.010321908804694633
1.84675e-06;-0.010362600974683006
1.84700e-06;-0.010401370904039767
1.84725e-06;-0.010439888675112106
1.84750e-06;-0.010478406446184411
1.84775e-06;-0.010516924217256718
1.84800e-06;-0.010549059845400553
1.84825e-06;-0.01057540349742855
1.84850e-06;-0.01060174714945657
1.84875e-06;-0.01062809080148457
1.84900e-06;-0.01065443445351259
1.84925e-06;-0.010680778105540587
1.84950e-06;-0.010707121757568584
1.84975e-06;-0.010733465409596604
1.85000e-06;-0.010759809061624603
1.85025e-06;-0.010785330829243963
1.85050e-06;-0.010807054703929637
1.85075e-06;-0.010828778578615313
1.85100e-06;-0.010850502453301004
1.85125e-06;-0.01087222632798668
1.85150e-06;-0.010893950202672373
1.85175e-06;-0.010915674077358047
1.85200e-06;-0.010937397952043721
1.85225e-06;-0.010959121826729415
1.85250e-06;-0.010980845701415089
1.85275e-06;-0.011001338000551744
1.85300e-06;-0.011021580855504556
1.85325e-06;-0.011041823710457385
1.85350e-06;-0.011062066565410197
1.85375e-06;-0.011082309420363009
1.85400e-06;-0.011102552275315838
1.85425e-06;-0.01112279513026865
1.85450e-06;-0.01114303798522148
1.85475e-06;-0.011163280840174292
1.85500e-06;-0.011183523695127104
1.85525e-06;-0.011200796641631105
1.85550e-06;-0.01121746806077478
1.85575e-06;-0.011234139479918472
1.85600e-06;-0.01125081089906215
1.85625e-06;-0.011267482318205825
1.85650e-06;-0.011284153737349516
1.85675e-06;-0.011300825156493194
1.85700e-06;-0.011317496575636883
1.85725e-06;-0.011334167994780561
1.85750e-06;-0.011350839413924252
1.85775e-06;-0.011361495500127893
1.85800e-06;-0.011370933236538254
1.85825e-06;-0.011380370972948623
1.85850e-06;-0.011389808709358984
1.85875e-06;-0.011399246445769354
1.85900e-06;-0.011408684182179715
1.85925e-06;-0.011418121918590075
1.85950e-06;-0.011427559655000445
1.85975e-06;-0.011436997391410806
1.86000e-06;-0.011446435127821175
1.86025e-06;-0.011455872864231536
1.86050e-06;-0.011465310600641897
1.86075e-06;-0.011474748337052266
1.86100e-06;-0.011482411065193543
1.86125e-06;-0.01148971428190309
1.86150e-06;-0.01149701749861263
1.86175e-06;-0.011504320715322177
1.86200e-06;-0.011511623932031718
1.86225e-06;-0.011518927148741257
1.86250e-06;-0.011526230365450805
1.86275e-06;-0.011533533582160345
1.86300e-06;-0.011540836798869891
1.86325e-06;-0.011548140015579432
1.86350e-06;-0.011555443232288973
1.86375e-06;-0.01156274644899852
1.86400e-06;-0.011570049665708059
1.86425e-06;-0.011575979868881557
1.86450e-06;-0.011581631980921209
1.86475e-06;-0.011587284092960861
1.86500e-06;-0.011592936205000518
1.86525e-06;-0.011598588317040172
1.86550e-06;-0.011604240429079829
1.86575e-06;-0.011609892541119481
1.86600e-06;-0.011615544653159138
1.86625e-06;-0.011621196765198792
1.86650e-06;-0.011626848877238444
1.86675e-06;-0.011632500989278101
1.86700e-06;-0.011638153101317755
1.86725e-06;-0.011643805213357412
1.86750e-06;-0.011649457325397064
1.86775e-06;-0.011655109437436717
1.86800e-06;-0.011660761549476375
1.86825e-06;-0.011664221023824963
1.86850e-06;-0.011663260294034507
1.86875e-06;-0.01166229956424405
1.86900e-06;-0.011661338834453593
1.86925e-06;-0.011660378104663137
1.86950e-06;-0.01165941737487268
1.86975e-06;-0.011658456645082223
1.87000e-06;-0.011657495915291766
1.87025e-06;-0.01165653518550131
1.87050e-06;-0.011655574455710853
1.87075e-06;-0.011654613725920396
1.87100e-06;-0.01165365299612994
1.87125e-06;-0.011652692266339483
1.87150e-06;-0.011651731536549026
1.87175e-06;-0.01165077080675857
1.87200e-06;-0.011649810076968112
1.87225e-06;-0.011648849347177656
1.87250e-06;-0.011642979875151454
1.87275e-06;-0.011636116182996962
1.87300e-06;-0.011629252490842474
1.87325e-06;-0.011622388798687986
1.87350e-06;-0.011615525106533494
1.87375e-06;-0.011608661414379008
1.87400e-06;-0.011601797722224515
1.87425e-06;-0.011594934030070028
1.87450e-06;-0.011588070337915535
1.87475e-06;-0.011581206645761047
1.87500e-06;-0.011574342953606561
1.87525e-06;-0.011567479261452069
1.87550e-06;-0.011560131078521746
1.87575e-06;-0.011552684766486616
1.87600e-06;-0.011545238454451491
1.87625e-06;-0.011537792142416368
1.87650e-06;-0.011530345830381239
1.87675e-06;-0.011522899518346116
1.87700e-06;-0.011515453206310986
1.87725e-06;-0.011508006894275861
1.87750e-06;-0.011500560582240738
1.87775e-06;-0.011493114270205608
1.87800e-06;-0.011485667958170485
1.87825e-06;-0.011478221646135356
1.87850e-06;-0.011470583995786068
1.87875e-06;-0.011462907591639147
1.87900e-06;-0.01145523118749222
1.87925e-06;-0.011447554783345297
1.87950e-06;-0.01143987837919837
1.87975e-06;-0.011432201975051449
1.88000e-06;-0.01142452557090452
1.88025e-06;-0.011416849166757599
1.88050e-06;-0.011409172762610678
1.88075e-06;-0.011401496358463749
1.88100e-06;-0.011392489697900554
1.88125e-06;-0.011380801333496957
1.88150e-06;-0.011369112969093369
1.88175e-06;-0.01135742460468978
1.88200e-06;-0.011345736240286182
1.88225e-06;-0.011334047875882594
1.88250e-06;-0.011322359511478997
1.88275e-06;-0.011310671147075409
1.88300e-06;-0.01129898278267182
1.88325e-06;-0.011287294418268222
1.88350e-06;-0.011275606053864635
1.88375e-06;-0.011261896290506848
1.88400e-06;-0.011247777111573593
1.88425e-06;-0.011233657932640325
1.88450e-06;-0.01121953875370707
1.88475e-06;-0.011205419574773815
1.88500e-06;-0.011191300395840547
1.88525e-06;-0.011177181216907292
1.88550e-06;-0.011163062037974026
1.88575e-06;-0.011149326499023497
1.88600e-06;-0.011136364351429999
1.88625e-06;-0.011123402203836489
1.88650e-06;-0.01111044005624299
1.88675e-06;-0.01109747790864948
1.88700e-06;-0.011084515761055982
1.88725e-06;-0.011071553613462482
1.88750e-06;-0.011058591465868973
1.88775e-06;-0.011045629318275473
1.88800e-06;-0.011034892975647649
1.88825e-06;-0.011024607449133595
1.88850e-06;-0.011014321922619533
1.88875e-06;-0.011002359943142458
1.88900e-06;-0.010990058413695221
1.88925e-06;-0.010977756884247973
1.88950e-06;-0.010960827445452076
1.88975e-06;-0.010942960666619844
1.89000e-06;-0.010925093887787627
1.89025e-06;-0.010907227108955411
1.89050e-06;-0.01088936033012318
1.89075e-06;-0.010871493551290962
1.89100e-06;-0.010850704896237936
1.89125e-06;-0.01082402594320471
1.89150e-06;-0.010797346990171486
1.89175e-06;-0.010770668037138238
1.89200e-06;-0.010743989084105012
1.89225e-06;-0.010717310131071764
1.89250e-06;-0.010690631178038538
1.89275e-06;-0.01065793165171645
1.89300e-06;-0.010624012714217576
1.89325e-06;-0.0105900937767187
1.89350e-06;-0.010556174839219796
1.89375e-06;-0.01052225590172092
1.89400e-06;-0.010487189515396568
1.89425e-06;-0.010449809952541805
1.89450e-06;-0.010412430389687042
1.89475e-06;-0.010375050826832245
1.89500e-06;-0.010337671263977482
1.89525e-06;-0.010300291701122686
1.89550e-06;-0.010262562855721108
1.89575e-06;-0.01022476326638519
1.89600e-06;-0.01018779119013409
1.89625e-06;-0.010150986718969149
1.89650e-06;-0.010115531748553223
1.89675e-06;-0.010080350106974549
1.89700e-06;-0.010046888933639178
1.89725e-06;-0.010013776225160012
