Time(s);Current(A)
1.37500e-05;-0.010345889014443922
1.37503e-05;-0.010336622354826498
1.37505e-05;-0.010327355695209074
1.37508e-05;-0.010318089035591714
1.37510e-05;-0.01030882237597429
1.37513e-05;-0.010299555716356866
1.37515e-05;-0.010290289056739505
1.37518e-05;-0.010279164271058544
1.37520e-05;-0.010266999867773244
1.37523e-05;-0.010254835464488028
1.37525e-05;-0.010242671061202729
1.37528e-05;-0.01023050665791743
1.37530e-05;-0.010218342254632213
1.37533e-05;-0.010206177851346915
1.37535e-05;-0.01019215785515013
1.37538e-05;-0.010177099658642264
1.37540e-05;-0.010162041462134296
1.37543e-05;-0.010146983265626328
1.37545e-05;-0.010131925069118464
1.37548e-05;-0.010116866872610496
1.37550e-05;-0.010101585252837452
1.37553e-05;-0.010084945097476315
1.37555e-05;-0.010068304942115067
1.37558e-05;-0.010051664786753818
1.37560e-05;-0.010035024631392681
1.37563e-05;-0.010018384476031433
1.37565e-05;-0.010001744320670183
1.37568e-05;-0.009985145310435282
1.37570e-05;-0.009968569320811417
1.37573e-05;-0.009951993331187554
1.37575e-05;-0.009936015530754745
1.37578e-05;-0.009920372415909894
1.37580e-05;-0.009904729301064934
1.37583e-05;-0.009889773357297349
1.37585e-05;-0.009875201884295014
1.37588e-05;-0.009861424977733861
1.37590e-05;-0.009848092629416954
1.37593e-05;-0.009835791634910041
1.37595e-05;-0.009824067680679494
1.37598e-05;-0.009813842185395879
1.37600e-05;-0.009804455074725535
1.37603e-05;-0.009795067964055128
1.37605e-05;-0.00978756579629649
1.37608e-05;-0.00978111825011247
1.37610e-05;-0.009774670703928408
1.37613e-05;-0.009771351397038433
1.37615e-05;-0.009769782333420806
1.37618e-05;-0.00976821326980317
1.37620e-05;-0.009766644206185534
1.37623e-05;-0.009765075142567909
1.37625e-05;-0.009763506078950272
1.37628e-05;-0.009762778844084281
1.37630e-05;-0.009767170388224564
1.37633e-05;-0.009771561932364876
1.37635e-05;-0.009775953476505186
1.37638e-05;-0.009780345020645469
1.37640e-05;-0.00978473656478578
1.37643e-05;-0.009789128108926091
1.37645e-05;-0.009796282127522756
1.37648e-05;-0.00980498174473832
1.37650e-05;-0.009813681361953886
1.37653e-05;-0.009822380979169392
1.37655e-05;-0.009831080596384958
1.37658e-05;-0.009839780213600524
1.37660e-05;-0.009848479830816088
1.37663e-05;-0.009858160125676084
1.37665e-05;-0.00986838910760525
1.37668e-05;-0.009878618089534415
1.37670e-05;-0.009888847071463511
1.37673e-05;-0.009899076053392679
1.37675e-05;-0.009909305035321845
1.37678e-05;-0.009919534017250941
1.37680e-05;-0.009929069486472679
1.37683e-05;-0.009938216936800552
1.37685e-05;-0.009947364387128363
1.37688e-05;-0.009956229004827283
1.37690e-05;-0.00996337384552757
1.37693e-05;-0.009970518686227807
1.37695e-05;-0.009977663526928093
1.37698e-05;-0.009984303113178359
1.37700e-05;-0.009990660010631784
1.37703e-05;-0.00999701690808525
1.37705e-05;-0.010004467028633224
1.37708e-05;-0.010012528805191727
1.37710e-05;-0.010020590581750284
1.37713e-05;-0.010028652358308843
1.37715e-05;-0.010036714134867347
1.37718e-05;-0.010044775911425904
1.37720e-05;-0.010052837687984463
1.37723e-05;-0.01006134404466517
1.37725e-05;-0.01007255369152593
1.37728e-05;-0.01008376333838669
1.37730e-05;-0.01009497298524737
1.37733e-05;-0.01010618263210813
1.37735e-05;-0.010117392278968887
1.37738e-05;-0.01012860192582957
1.37740e-05;-0.01013981157269033
1.37743e-05;-0.01015285265389202
1.37745e-05;-0.010166918418736438
1.37748e-05;-0.01018098418358076
1.37750e-05;-0.010195049948425178
1.37753e-05;-0.010209115713269596
1.37755e-05;-0.010223181478113918
1.37758e-05;-0.010237247242958335
1.37760e-05;-0.010251313007802753
1.37763e-05;-0.010265303824816666
1.37765e-05;-0.01027925270867797
1.37768e-05;-0.010293201592539273
1.37770e-05;-0.01030715047640048
1.37773e-05;-0.010321099360261784
1.37775e-05;-0.010335048244123088
1.37778e-05;-0.010348997127984297
1.37780e-05;-0.0103629460118456
1.37783e-05;-0.010375445406657448
1.37785e-05;-0.010387133815409651
1.37788e-05;-0.010398822224161932
1.37790e-05;-0.010409290665374629
1.37793e-05;-0.010419076537327335
1.37795e-05;-0.010426834836566675
1.37798e-05;-0.010433458713158213
1.37800e-05;-0.010440082589749707
1.37803e-05;-0.01044287427329166
1.37805e-05;-0.010443521852921878
1.37808e-05;-0.010444169432552091
1.37810e-05;-0.010440926692262917
1.37813e-05;-0.010435507326201205
1.37815e-05;-0.01043008796013953
1.37818e-05;-0.010419079934424268
1.37820e-05;-0.010404945065444815
1.37823e-05;-0.010390810196465455
1.37825e-05;-0.010376675327486002
1.37828e-05;-0.010362540458506549
1.37830e-05;-0.0103419654508569
1.37833e-05;-0.010317787199232957
1.37835e-05;-0.010293608947608848
1.37838e-05;-0.010269430695984742
1.37840e-05;-0.010245252444360798
1.37843e-05;-0.010216367230109682
1.37845e-05;-0.01018484848021697
1.37848e-05;-0.010153329730324472
1.37850e-05;-0.01012181098043176
1.37853e-05;-0.010087676969293633
1.37855e-05;-0.01005207972501628
1.37858e-05;-0.010016482480738682
1.37860e-05;-0.009980885236461085
1.37863e-05;-0.009944308146345214
1.37865e-05;-0.009907007259556198
1.37868e-05;-0.00986956633535662
1.37870e-05;-0.009832195184391187
1.37873e-05;-0.009795104285561249
1.37875e-05;-0.009758495757054777
1.37878e-05;-0.009722545540278594
1.37880e-05;-0.009687410978872792
1.37883e-05;-0.009653276795143557
1.37885e-05;-0.009620361210324228
1.37888e-05;-0.009588895050285765
1.37890e-05;-0.009559109354090453
1.37893e-05;-0.009531234755608268
1.37895e-05;-0.009506050446807909
1.37898e-05;-0.009481971101641225
1.37900e-05;-0.009459900716645722
1.37903e-05;-0.009438954340620045
1.37905e-05;-0.00941988584071142
1.37908e-05;-0.009401868008521743
1.37910e-05;-0.00938658124342132
1.37913e-05;-0.009372822504585668
1.37915e-05;-0.009359063765750015
1.37918e-05;-0.009348374205265237
1.37920e-05;-0.009339401843581391
1.37923e-05;-0.009330429481897546
1.37925e-05;-0.009326900922350334
1.37928e-05;-0.009326418158593927
1.37930e-05;-0.00932593539483752
1.37933e-05;-0.009325452631081118
1.37935e-05;-0.009324969867324711
1.37938e-05;-0.009324487103568304
1.37940e-05;-0.009324004339811901
1.37943e-05;-0.009323521576055496
1.37945e-05;-0.00932303881229909
1.37948e-05;-0.009322556048542686
1.37950e-05;-0.00932207328478628
1.37953e-05;-0.009326141998595083
1.37955e-05;-0.00933275725448273
1.37958e-05;-0.009339372510370422
1.37960e-05;-0.009345987766258113
1.37963e-05;-0.00935260302214576
1.37965e-05;-0.009359218278033453
1.37968e-05;-0.009366012843181887
1.37970e-05;-0.00937389770665932
1.37973e-05;-0.009381782570136808
1.37975e-05;-0.009389667433614293
1.37978e-05;-0.009397552297091726
1.37980e-05;-0.009405437160569213
1.37983e-05;-0.0094133220240467
1.37985e-05;-0.009420414426574389
1.37988e-05;-0.009427063448875428
1.37990e-05;-0.009433712471176465
1.37993e-05;-0.009439501335243388
1.37995e-05;-0.009444808942596122
1.37998e-05;-0.009450213295355418
1.38000e-05;-0.00945567177696524
1.38003e-05;-0.009462324646310355
1.38005e-05;-0.009469645773069408
1.38008e-05;-0.009478212646236408
1.38010e-05;-0.009487476511886046
1.38013e-05;-0.009496740377535746
1.38015e-05;-0.009508536942378187
1.38018e-05;-0.009521750547066742
1.38020e-05;-0.009534964151755386
1.38023e-05;-0.00954817775644403
1.38025e-05;-0.009561391361132586
1.38028e-05;-0.00957460496582123
1.38030e-05;-0.009591608661390891
1.38033e-05;-0.009610732904799203
1.38035e-05;-0.009629857148207644
1.38038e-05;-0.009648981391616086
1.38040e-05;-0.0096681056350244
1.38043e-05;-0.00968722987843284
1.38045e-05;-0.009709240880786132
1.38048e-05;-0.00973286701866876
1.38050e-05;-0.00975649315655155
1.38053e-05;-0.009780119294434337
1.38055e-05;-0.009803745432316964
1.38058e-05;-0.009827371570199752
1.38060e-05;-0.009850997708082539
1.38063e-05;-0.009873912029427978
1.38065e-05;-0.00989673822351618
1.38068e-05;-0.009919564417604382
1.38070e-05;-0.00994239061169243
1.38073e-05;-0.009965216805780632
1.38075e-05;-0.009988042999868836
1.38078e-05;-0.010010651096850788
1.38080e-05;-0.010031653085109659
1.38083e-05;-0.010051234711128145
1.38085e-05;-0.0100708163371465
1.38088e-05;-0.010090397963164988
1.38090e-05;-0.010109979589183474
1.38093e-05;-0.010129561215201961
1.38095e-05;-0.010149142841220316
1.38098e-05;-0.010166033952725091
1.38100e-05;-0.010176177473533273
1.38103e-05;-0.010186320994341387
1.38105e-05;-0.01019646451514957
1.38108e-05;-0.010206608035957753
1.38110e-05;-0.010216751556765866
1.38113e-05;-0.010226895077574048
1.38115e-05;-0.010233305300818094
1.38118e-05;-0.01023458338583132
1.38120e-05;-0.010235861470844553
1.38123e-05;-0.010237139555857786
1.38125e-05;-0.010238417640871012
1.38128e-05;-0.010239695725884245
1.38130e-05;-0.010240973810897478
1.38133e-05;-0.010242251895910704
1.38135e-05;-0.010243529980923937
1.38138e-05;-0.010241796073561859
1.38140e-05;-0.01023592160120207
1.38143e-05;-0.01023004712884224
1.38145e-05;-0.01022417265648241
1.38148e-05;-0.01021829818412262
1.38150e-05;-0.010212423711762791
1.38153e-05;-0.010206549239402962
1.38155e-05;-0.010200674767043172
1.38158e-05;-0.010194800294683342
1.38160e-05;-0.01018769089237676
1.38163e-05;-0.010178883840449968
1.38165e-05;-0.010170076788523117
1.38168e-05;-0.010161269736596265
1.38170e-05;-0.010152462684669475
1.38173e-05;-0.010143655632742624
1.38175e-05;-0.010134885119525358
1.38178e-05;-0.010126164835818375
1.38180e-05;-0.010117444552111452
1.38183e-05;-0.010108724268404468
1.38185e-05;-0.010100003984697487
1.38188e-05;-0.010091283700990562
1.38190e-05;-0.010083075155311025
1.38193e-05;-0.010075570092343486
1.38195e-05;-0.010068126798750878
1.38198e-05;-0.010060768419088841
1.38200e-05;-0.010052409179460507
1.38203e-05;-0.010042674064588118
1.38205e-05;-0.010031501324709237
1.38208e-05;-0.0100183522917191
1.38210e-05;-0.010005203258729051
1.38213e-05;-0.009990592154440233
1.38215e-05;-0.009973971150891927
1.38218e-05;-0.009957350147343736
1.38220e-05;-0.009938105677520266
1.38223e-05;-0.009915254746829501
1.38225e-05;-0.00989240381613889
1.38228e-05;-0.009869552885448125
1.38230e-05;-0.00984670195475736
1.38233e-05;-0.009818014799571869
1.38235e-05;-0.009788827770965137
1.38238e-05;-0.009759640742358404
1.38240e-05;-0.009730453713751868
1.38243e-05;-0.009699260912618829
1.38245e-05;-0.009665310789924655
1.38248e-05;-0.00963136066723071
1.38250e-05;-0.009596523484021836
1.38253e-05;-0.00956046686488431
1.38255e-05;-0.009524106889483772
1.38258e-05;-0.009487144388116915
1.38260e-05;-0.009449742547731786
1.38263e-05;-0.009411961813712654
1.38265e-05;-0.009373976396858597
1.38268e-05;-0.009336004422263296
1.38270e-05;-0.009298258378423576
1.38273e-05;-0.009260957127107762
1.38275e-05;-0.009224307419037799
1.38278e-05;-0.009188449585208397
1.38280e-05;-0.00915347607179162
1.38283e-05;-0.009119517415712196
1.38285e-05;-0.009086776255994232
1.38288e-05;-0.009055482677976043
1.38290e-05;-0.009025862993042835
1.38293e-05;-0.008998147434445524
1.38295e-05;-0.008972532015958441
1.38298e-05;-0.00894906927227547
1.38300e-05;-0.008927659940215663
1.38303e-05;-0.008908218050944425
1.38305e-05;-0.008890768754986195
1.38308e-05;-0.008875386852046202
1.38310e-05;-0.008862144200912333
1.38313e-05;-0.008851114719592134
1.38315e-05;-0.00884280706387348
1.38318e-05;-0.008836443802382441
1.38320e-05;-0.008831786748290394
1.38323e-05;-0.008829475205660192
1.38325e-05;-0.008829749915162775
1.38328e-05;-0.008833579927510745
1.38330e-05;-0.008837409939858713
1.38333e-05;-0.008841239952206656
1.38335e-05;-0.008845069964554626
1.38338e-05;-0.00885573740508952
1.38340e-05;-0.008866990472278255
1.38343e-05;-0.008878243539467064
1.38345e-05;-0.008889496606655873
1.38348e-05;-0.008902693785936524
1.38350e-05;-0.008918563522607866
1.38353e-05;-0.008934433259279314
1.38355e-05;-0.008951410269189051
1.38358e-05;-0.00896990943992937
1.38360e-05;-0.008988408610669817
1.38363e-05;-0.00900746285604659
1.38365e-05;-0.00902728015867084
1.38368e-05;-0.009047097461295225
1.38370e-05;-0.009067018235793055
1.38373e-05;-0.009087081252356573
1.38375e-05;-0.009106967981085307
1.38378e-05;-0.009126612368151672
1.38380e-05;-0.009145797308724902
1.38383e-05;-0.009164350651395104
1.38385e-05;-0.009181950523302267
1.38388e-05;-0.00919823966557304
1.38390e-05;-0.009214528807843922
1.38393e-05;-0.009229243713475558
1.38395e-05;-0.00924179452693185
1.38398e-05;-0.009254345340388225
1.38400e-05;-0.009264325464668759
1.38403e-05;-0.009270771680391964
1.38405e-05;-0.00927721789611521
1.38408e-05;-0.009283664111838459
1.38410e-05;-0.009290110327561664
1.38413e-05;-0.009296556543284913
1.38415e-05;-0.009303002759008161
1.38418e-05;-0.009305930893683477
1.38420e-05;-0.009304022746774169
1.38423e-05;-0.00930211459986486
1.38425e-05;-0.009300206452955564
1.38428e-05;-0.009298298306046256
1.38430e-05;-0.009296390159136947
1.38433e-05;-0.009294482012227639
1.38435e-05;-0.009289905306933532
1.38438e-05;-0.00928166015296003
1.38440e-05;-0.009273414998986531
1.38443e-05;-0.009265169845013087
1.38445e-05;-0.009256924691039586
1.38448e-05;-0.009248679537066087
1.38450e-05;-0.009238886684407165
1.38453e-05;-0.009226966221113374
1.38455e-05;-0.009215045757819583
1.38458e-05;-0.009203125294525872
1.38460e-05;-0.009191204831232081
1.38463e-05;-0.00917928436793829
1.38465e-05;-0.009166855434838264
1.38468e-05;-0.009153727511826484
1.38470e-05;-0.009140599588814705
1.38473e-05;-0.009127456762715749
1.38475e-05;-0.009114293449446134
1.38478e-05;-0.009101281912354722
1.38480e-05;-0.00908847902092157
1.38483e-05;-0.00907598732948162
1.38485e-05;-0.009063923442511338
1.38488e-05;-0.009052175461772505
1.38490e-05;-0.00904111549980609
1.38493e-05;-0.009030690655025528
1.38495e-05;-0.009021037055180621
1.38498e-05;-0.009012485824704654
1.38500e-05;-0.009005509289166495
1.38503e-05;-0.009000818228346424
1.38505e-05;-0.008997808193785256
1.38508e-05;-0.00899636239510716
1.38510e-05;-0.008997066940634851
1.38513e-05;-0.008999274737043761
1.38515e-05;-0.009003549041999973
1.38518e-05;-0.009009974163124851
1.38520e-05;-0.009019355996300627
1.38523e-05;-0.009028737829476465
1.38525e-05;-0.00904161417515827
1.38528e-05;-0.00905929440291465
1.38530e-05;-0.00907697463067115
1.38533e-05;-0.00909465485842765
1.38535e-05;-0.009112335086184031
1.38538e-05;-0.009130015313940532
1.38540e-05;-0.00915565215797504
1.38543e-05;-0.009181970487276609
1.38545e-05;-0.009208288816578356
1.38548e-05;-0.009234607145880104
1.38550e-05;-0.009260925475181673
1.38553e-05;-0.009289080247513307
1.38555e-05;-0.009319759565325431
1.38558e-05;-0.009350438883137349
1.38560e-05;-0.009381780473230864
1.38563e-05;-0.009414032484430655
1.38565e-05;-0.009446284495630229
1.38568e-05;-0.009478528793828718
1.38570e-05;-0.009510762489017876
1.38573e-05;-0.009542996184206816
1.38575e-05;-0.009574500673950756
1.38578e-05;-0.009605002730032846
1.38580e-05;-0.009635504786114728
1.38583e-05;-0.00966461758686046
1.38585e-05;-0.009691820587942403
1.38588e-05;-0.009719023589024163
1.38590e-05;-0.009741986313169602
1.38593e-05;-0.009759119958055102
1.38595e-05;-0.009776253602940486
1.38598e-05;-0.009793387247825986
1.38600e-05;-0.009810520892711486
1.38603e-05;-0.009827654537596986
1.38605e-05;-0.00984478818248237
1.38608e-05;-0.00986192182736787
1.38610e-05;-0.00987905547225337
1.38613e-05;-0.009890637978591186
1.38615e-05;-0.009894589373314711
1.38618e-05;-0.009898540768038236
1.38620e-05;-0.009902492162761733
1.38623e-05;-0.009906443557485257
1.38625e-05;-0.009910394952208782
1.38628e-05;-0.009914346346932279
1.38630e-05;-0.009918297741655804
1.38633e-05;-0.009922249136379327
1.38635e-05;-0.009922166657054874
1.38638e-05;-0.00991653883908751
1.38640e-05;-0.009910911021120147
1.38643e-05;-0.009905283203152822
1.38645e-05;-0.009899655385185458
1.38648e-05;-0.009894027567218095
1.38650e-05;-0.00988839974925077
1.38653e-05;-0.009882771931283407
1.38655e-05;-0.009877144113316043
1.38658e-05;-0.009867354219697868
1.38660e-05;-0.009857207843733198
1.38663e-05;-0.009847061467768528
1.38665e-05;-0.009836915091803927
1.38668e-05;-0.009826768715839257
1.38670e-05;-0.009816622339874587
1.38673e-05;-0.009806475963909987
1.38675e-05;-0.009796329587945317
1.38678e-05;-0.009786147884435303
1.38680e-05;-0.00977591761639408
1.38683e-05;-0.009765687348352788
1.38685e-05;-0.009755457080311494
1.38688e-05;-0.009745226812270202
1.38690e-05;-0.009736657718824161
1.38693e-05;-0.009728230905208468
1.38695e-05;-0.009719804091592775
1.38698e-05;-0.00971137727797714
1.38700e-05;-0.009702933818223045
1.38703e-05;-0.009694467475138073
1.38705e-05;-0.00968600113205316
1.38708e-05;-0.00967753478896819
1.38710e-05;-0.009669068445883217
1.38713e-05;-0.009660602102798304
1.38715e-05;-0.009652135759713333
1.38718e-05;-0.009643669416628363
1.38720e-05;-0.009635203073543448
1.38723e-05;-0.00962604556710461
1.38725e-05;-0.009615937923202308
1.38728e-05;-0.009605830279300074
1.38730e-05;-0.009595722635397772
1.38733e-05;-0.00958561499149547
1.38735e-05;-0.009575507347593238
1.38738e-05;-0.009565399703690936
1.38740e-05;-0.009555292059788634
1.38743e-05;-0.0095451844158864
1.38745e-05;-0.00953449229873998
1.38748e-05;-0.009522996710283097
1.38750e-05;-0.00951150112182629
1.38753e-05;-0.009500005533369408
1.38755e-05;-0.009488509944912524
1.38758e-05;-0.00947701435645572
1.38760e-05;-0.009465518767998836
1.38763e-05;-0.009454023179541953
1.38765e-05;-0.009442527591085147
1.38768e-05;-0.009431696885130327
1.38770e-05;-0.00942092312645245
1.38773e-05;-0.009410149367774576
1.38775e-05;-0.009399375609096773
1.38778e-05;-0.009388601850418898
1.38780e-05;-0.009377828091741022
1.38783e-05;-0.00936705433306322
1.38785e-05;-0.009356280574385345
1.38788e-05;-0.009346207549181007
1.38790e-05;-0.009337097817417468
1.38793e-05;-0.009328456944622712
1.38795e-05;-0.009320460608997064
1.38798e-05;-0.009313585403865472
1.38800e-05;-0.009308251409039778
1.38803e-05;-0.009302917414214086
1.38805e-05;-0.009299262762010404
1.38808e-05;-0.009297916690449222
1.38810e-05;-0.009296570618888042
1.38813e-05;-0.009297936768422764
1.38815e-05;-0.009303031389466709
1.38818e-05;-0.009308126010510653
1.38820e-05;-0.009313220631554563
1.38823e-05;-0.009318315252598507
1.38825e-05;-0.009323409873642451
1.38828e-05;-0.009328504494686361
1.38830e-05;-0.009341425855050213
1.38833e-05;-0.009355017576704167
1.38835e-05;-0.009368609298358027
1.38838e-05;-0.00938220102001198
1.38840e-05;-0.009395792741665932
1.38843e-05;-0.009409384463319792
1.38845e-05;-0.009425548144085026
1.38848e-05;-0.009445247479183292
1.38850e-05;-0.009464946814281425
1.38853e-05;-0.009484646149379692
1.38855e-05;-0.009504345484477959
1.38858e-05;-0.009524044819576225
1.38860e-05;-0.009543744154674358
1.38863e-05;-0.009564089813135732
1.38865e-05;-0.009585323967836965
1.38868e-05;-0.009606558122538056
1.38870e-05;-0.009627792277239288
1.38873e-05;-0.009649026431940521
1.38875e-05;-0.00967026058664161
1.38878e-05;-0.009691494741342843
1.38880e-05;-0.00971176490161054
1.38883e-05;-0.009730709865423239
1.38885e-05;-0.009749654829236067
1.38888e-05;-0.009767274333385012
1.38890e-05;-0.00978307173733639
1.38893e-05;-0.009798869141287875
1.38895e-05;-0.009812803005688287
1.38898e-05;-0.009824175075205981
1.38900e-05;-0.009835547144723752
1.38903e-05;-0.009843289826930703
1.38905e-05;-0.009846043215599499
1.38908e-05;-0.009848796604268314
1.38910e-05;-0.00985154999293713
1.38913e-05;-0.009854303381605926
1.38915e-05;-0.009857056770274741
1.38918e-05;-0.009859810158943555
1.38920e-05;-0.009857482883471297
1.38923e-05;-0.00984817125427811
1.38925e-05;-0.009838859625084921
1.38928e-05;-0.009829547995891797
1.38930e-05;-0.00982023636669861
1.38933e-05;-0.009810924737505422
1.38935e-05;-0.009801613108312297
1.38938e-05;-0.009788468294891476
1.38940e-05;-0.00977005402972575
1.38943e-05;-0.009751639764560024
1.38945e-05;-0.009733225499394422
1.38948e-05;-0.009714811234228696
1.38950e-05;-0.00969639696906297
1.38953e-05;-0.009675933137213407
1.38955e-05;-0.009652651780272739
1.38958e-05;-0.009629370423332072
1.38960e-05;-0.009606089066391564
1.38963e-05;-0.009582807709450896
1.38965e-05;-0.00955952635251023
1.38968e-05;-0.009535810256827069
1.38970e-05;-0.009511496528812441
1.38973e-05;-0.009487182800797812
1.38975e-05;-0.009463130530454463
