Time(s);Current(A)
1.37500e-05;-0.00023963184589876214
1.37503e-05;-0.00027960769355963645
1.37505e-05;-0.00031958354122051076
1.37508e-05;-0.0003597760051250286
1.37510e-05;-0.0004000252929743208
1.37513e-05;-0.00044027458082361294
1.37515e-05;-0.00048052386867263237
1.37518e-05;-0.000518543540878447
1.37520e-05;-0.0005559783282515055
1.37523e-05;-0.0005934131156243102
1.37525e-05;-0.0006308479029973687
1.37528e-05;-0.0006652364408634212
1.37530e-05;-0.0006988258700852409
1.37533e-05;-0.000729374756092833
1.37535e-05;-0.0007591260303619072
1.37538e-05;-0.0007849866736923993
1.37540e-05;-0.0008098267056757301
1.37543e-05;-0.000829924312872904
1.37545e-05;-0.0008487778615541397
1.37548e-05;-0.0008625648449782596
1.37550e-05;-0.0008750227396052644
1.37553e-05;-0.0008823188718766813
1.37555e-05;-0.0008882609427333918
1.37558e-05;-0.0008889305145759516
1.37560e-05;-0.0008882169759646463
1.37563e-05;-0.000882119279451521
1.37565e-05;-0.0008746091815212877
1.37568e-05;-0.0008619337475977814
1.37570e-05;-0.0008479033148034907
1.37573e-05;-0.0008290697976043636
1.37575e-05;-0.0008089763093302215
1.37578e-05;-0.0007844322356671776
1.37580e-05;-0.0007587206603769894
1.37583e-05;-0.0007289103531531917
1.37585e-05;-0.000698024844403767
1.37588e-05;-0.0006635994745520582
1.37590e-05;-0.0006282455091932496
1.37593e-05;-0.0005900003095107896
1.37595e-05;-0.0005509966656050457
1.37598e-05;-0.0005093125090383475
1.37600e-05;-0.00046692518589505324
1.37603e-05;-0.0004245378627514717
1.37605e-05;-0.000382014357111548
1.37608e-05;-0.0003715837021707163
1.37610e-05;-0.00032574931997524315
1.37613e-05;-0.0002800049630664196
1.37615e-05;-0.0002246222075613401
1.37618e-05;-0.0001714955727791336
1.37620e-05;-0.00012617164758944123
1.37623e-05;-8.335603379982776e-05
1.37625e-05;-4.216442417676057e-05
1.37628e-05;-2.415395722289916e-06
1.37630e-05;3.5569354085722424e-05
1.37633e-05;7.180335534093414e-05
1.37635e-05;0.00010675849672710793
1.37638e-05;0.00013979839909855805
1.37640e-05;0.0001691123707325123
1.37643e-05;0.00019460359597256986
1.37645e-05;0.00021737200439765622
1.37648e-05;0.00023768857791959543
1.37650e-05;0.0002554394822646518
1.37653e-05;0.0002707208853571316
1.37655e-05;0.0002839160311764542
1.37658e-05;0.00029471393199891223
1.37660e-05;0.0003020681216241099
1.37663e-05;0.0003060057379097469
1.37665e-05;0.00030730349829388807
1.37668e-05;0.00030621883685288563
1.37670e-05;0.00030276816810525945
1.37673e-05;0.00029709942110940624
1.37675e-05;0.00028954031619094357
1.37678e-05;0.0002799837263010716
1.37680e-05;0.00026786181030432086
1.37683e-05;0.00025327933209929774
1.37685e-05;0.00023681052958421833
1.37688e-05;0.0002187043182284839
1.37690e-05;0.0001990586212966569
1.37693e-05;0.00017805373307747425
1.37695e-05;0.00015598258507212843
1.37698e-05;0.0001328656788403275
1.37700e-05;0.00010843497559456446
1.37703e-05;8.28437098195733e-05
1.37705e-05;5.65392063032035e-05
1.37708e-05;2.9764989699808843e-05
1.37710e-05;2.669963143411716e-06
1.37713e-05;-2.4545364188023932e-05
1.37715e-05;-5.1609959594034116e-05
1.37718e-05;-7.842344156771236e-05
1.37720e-05;-0.00010506618020358166
1.37723e-05;-0.00013135463920652845
1.37725e-05;-0.00015692111096333322
1.37728e-05;-0.00018152557178707521
1.37730e-05;-0.0002049872513840618
1.37733e-05;-0.00022709309757501807
1.37735e-05;-0.0002475858871688617
1.37738e-05;-0.00026636098588144125
1.37740e-05;-0.0002836152711603306
1.37743e-05;-0.0002995921924788202
1.37745e-05;-0.00031416111285193844
1.37748e-05;-0.000327517748315272
1.37750e-05;-0.0003399472355317221
1.37753e-05;-0.00035056876576839845
1.37755e-05;-0.00036014661481034146
1.37758e-05;-0.00036768926537491517
1.37760e-05;-0.00037436681763958706
1.37763e-05;-0.0003793574115190369
1.37765e-05;-0.00038359416686139977
1.37768e-05;-0.00038636092250377853
1.37770e-05;-0.0003883564316860334
1.37773e-05;-0.00038884799538244926
1.37775e-05;-0.0003885429628550207
1.37778e-05;-0.00038668455231313385
1.37780e-05;-0.0003841890482930843
1.37783e-05;-0.00038045119969176765
1.37785e-05;-0.0003760722307866643
1.37788e-05;-0.00037044306491249105
1.37790e-05;-0.0003648138990383178
1.37793e-05;-0.00035848235874167626
1.37795e-05;-0.0003507811747619663
1.37798e-05;-0.00034307999078225635
1.37800e-05;-0.0003348331369012308
1.37803e-05;-0.0003255222161784482
1.37805e-05;-0.0003162112954556656
1.37808e-05;-0.00030690037473294604
1.37810e-05;-0.00029758945401016346
1.37813e-05;-0.0002881156002584442
1.37815e-05;-0.0002783240239549689
1.37818e-05;-0.00026853244765142725
1.37820e-05;-0.0002587408713478856
1.37823e-05;-0.0002489492950444103
1.37825e-05;-0.00023942532177785708
1.37828e-05;-0.00023042317959949673
1.37830e-05;-0.00022164331770484878
1.37833e-05;-0.0002134725939838035
1.37835e-05;-0.00020584131800755007
1.37838e-05;-0.00019888243191267557
1.37840e-05;-0.00019298124919122796
1.37843e-05;-0.0001887229407423861
1.37845e-05;-0.00018650709048540873
1.37848e-05;-0.00018639749765407164
1.37850e-05;-0.00018832940449979
1.37853e-05;-0.00019223609518895823
1.37855e-05;-0.00019804818421162071
1.37858e-05;-0.0002057419509169343
1.37860e-05;-0.00021545178744397024
1.37863e-05;-0.0002274372223669826
1.37865e-05;-0.00024184153441103598
1.37868e-05;-0.0002585976409965747
1.37870e-05;-0.0002775579551199401
1.37873e-05;-0.00029857362154805055
1.37875e-05;-0.0003214941626216882
1.37878e-05;-0.00034650337227518595
1.37880e-05;-0.0003732575049799953
1.37883e-05;-0.0004012320864961208
1.37885e-05;-0.0004315865667550356
1.37888e-05;-0.0004629699050834908
1.37890e-05;-0.0004963595365094527
1.37893e-05;-0.0005306446096570764
1.37895e-05;-0.0005666758114493363
1.37898e-05;-0.0006027070132415964
1.37900e-05;-0.0006395296893454801
1.37903e-05;-0.0006778957556374084
1.37905e-05;-0.0007162618219293367
1.37908e-05;-0.000754627888221005
1.37910e-05;-0.0007929939545129333
1.37913e-05;-0.0008309486867287347
1.37915e-05;-0.0008681013095551322
1.37918e-05;-0.0009052539323812778
1.37920e-05;-0.0009424065552076752
1.37923e-05;-0.0009795591780340728
1.37925e-05;-0.001015189969222859
1.37928e-05;-0.001047853159339344
1.37930e-05;-0.001080516349455829
1.37933e-05;-0.0011111934414078863
1.37935e-05;-0.0011379976035972507
1.37938e-05;-0.0011648017657866151
1.37940e-05;-0.0011900095094641505
1.37943e-05;-0.001212104206224328
1.37945e-05;-0.0012341989029845057
1.37948e-05;-0.0012544573616018588
1.37950e-05;-0.001271135120391347
1.37953e-05;-0.0012878128791808353
1.37955e-05;-0.0013044906379702105
1.37958e-05;-0.0013211683967596986
1.37960e-05;-0.001337846155549187
1.37963e-05;-0.0013545239143385622
1.37965e-05;-0.001369087635456553
1.37968e-05;-0.001379528942301971
1.37970e-05;-0.0013899702491473184
1.37973e-05;-0.0014004115559927363
1.37975e-05;-0.0014108528628381544
1.37978e-05;-0.0014212941696835017
1.37980e-05;-0.0014317354765289196
1.37983e-05;-0.001441271546011041
1.37985e-05;-0.0014482233998028534
1.37988e-05;-0.0014535782163403812
1.37990e-05;-0.001458933032877909
1.37993e-05;-0.0014642878494154005
1.37995e-05;-0.0014696426659529284
1.37998e-05;-0.0014749974824904563
1.38000e-05;-0.0014803522990279841
1.38003e-05;-0.0014857071155654755
1.38005e-05;-0.0014910619321030034
1.38008e-05;-0.0014964167486405313
1.38010e-05;-0.0015017715651780227
1.38013e-05;-0.0015046428976849835
1.38015e-05;-0.0015070375941164855
1.38018e-05;-0.0015094322905479713
1.38020e-05;-0.0015118269869794736
1.38023e-05;-0.0015142216834109757
1.38025e-05;-0.0015166163798424614
1.38028e-05;-0.0015190110762739637
1.38030e-05;-0.0015214057727054658
1.38033e-05;-0.0015238004691369516
1.38035e-05;-0.0015261951655684539
1.38038e-05;-0.001527277883298372
1.38040e-05;-0.0015258022172308166
1.38043e-05;-0.001524326551163251
1.38045e-05;-0.0015228508850956854
1.38048e-05;-0.00152137521902813
1.38050e-05;-0.0015198995529605646
1.38053e-05;-0.001518423886892999
1.38055e-05;-0.0015169482208254436
1.38058e-05;-0.0015129687340800025
1.38060e-05;-0.0015041067486731565
1.38063e-05;-0.0014952447632663709
1.38065e-05;-0.001486382777859525
1.38068e-05;-0.0014775207924526792
1.38070e-05;-0.0014686588070458933
1.38073e-05;-0.0014597968216390473
1.38075e-05;-0.0014509348362322016
1.38078e-05;-0.0014398387074354509
1.38080e-05;-0.001424385955894872
1.38083e-05;-0.001408933204354293
1.38085e-05;-0.0013934804528138189
1.38088e-05;-0.00137802770127324
1.38090e-05;-0.001362574949732661
1.38093e-05;-0.0013471221981920822
1.38095e-05;-0.001331669446651608
1.38098e-05;-0.0013152194514877038
1.38100e-05;-0.0012968248120049822
1.38103e-05;-0.0012784301725223852
1.38105e-05;-0.0012600355330396635
1.38108e-05;-0.0012416408935569418
1.38110e-05;-0.0012232462540743448
1.38113e-05;-0.001204851614591623
1.38115e-05;-0.0011864569751089014
1.38118e-05;-0.0011686239103152866
1.38120e-05;-0.0011518859270072315
1.38123e-05;-0.0011351479436991763
1.38125e-05;-0.0011184099603912345
1.38128e-05;-0.0011016719770831792
1.38130e-05;-0.001084933993775124
1.38133e-05;-0.001071775535371061
1.38135e-05;-0.001059304067775852
1.38138e-05;-0.0010468326001806434
1.38140e-05;-0.001034361132585519
1.38143e-05;-0.0010218896649903104
1.38145e-05;-0.0010108195028575187
1.38148e-05;-0.001002481913431366
1.38150e-05;-0.0009941443240051569
1.38153e-05;-0.000985806734578948
1.38155e-05;-0.0009774691451527953
1.38158e-05;-0.0009691315557265862
1.38160e-05;-0.0009607939663003771
1.38163e-05;-0.0009524563768742245
1.38165e-05;-0.0009441187874480153
1.38168e-05;-0.0009357811980218063
1.38170e-05;-0.0009274436085956537
1.38173e-05;-0.0009191060191694445
1.38175e-05;-0.0009133790189309885
1.38178e-05;-0.00090815304908807
1.38180e-05;-0.0009029270792451868
1.38183e-05;-0.0008977011094022683
1.38185e-05;-0.0008924751395593497
1.38188e-05;-0.0008872491697164666
1.38190e-05;-0.0008820231998735481
1.38193e-05;-0.0008767972300306295
1.38195e-05;-0.0008715712601877464
1.38198e-05;-0.0008663452903448279
1.38200e-05;-0.0008611193205019093
1.38203e-05;-0.0008563824998755735
1.38205e-05;-0.000852599529665657
1.38208e-05;-0.0008488165594557406
1.38210e-05;-0.0008450335892458498
1.38213e-05;-0.0008412506190359334
1.38215e-05;-0.0008374676488260169
1.38218e-05;-0.0008336846786161262
1.38220e-05;-0.0008299017084062097
1.38223e-05;-0.0008269963442233632
1.38225e-05;-0.0008242594122462091
1.38228e-05;-0.0008215224802690364
1.38230e-05;-0.0008187855482918638
1.38233e-05;-0.0008160486163147095
1.38235e-05;-0.0008133116843375369
1.38238e-05;-0.0008105747523603642
1.38240e-05;-0.0008069228760991536
1.38243e-05;-0.000801486840818572
1.38245e-05;-0.0007960508055379904
1.38248e-05;-0.0007906147702574457
1.38250e-05;-0.0007851787349768642
1.38253e-05;-0.0007797426996962826
1.38255e-05;-0.0007743066644157379
1.38258e-05;-0.0007688706291351564
1.38260e-05;-0.0007611851759874691
1.38263e-05;-0.0007491133145676424
1.38265e-05;-0.0007370414531478974
1.38268e-05;-0.0007249695917280706
1.38270e-05;-0.0007128977303082439
1.38273e-05;-0.000700825868888499
1.38275e-05;-0.0006887540074686722
1.38278e-05;-0.0006766821460488455
1.38280e-05;-0.0006627950100346924
1.38283e-05;-0.0006453680535121035
1.38285e-05;-0.0006279410969895145
1.38288e-05;-0.0006105141404670437
1.38290e-05;-0.0005930871839444548
1.38293e-05;-0.0005756602274218658
1.38295e-05;-0.0005574117787322654
1.38298e-05;-0.0005375614044552051
1.38300e-05;-0.0005177110301781449
1.38303e-05;-0.0004978606559012192
1.38305e-05;-0.00047801028162415896
1.38308e-05;-0.0004581599073470987
1.38310e-05;-0.00043837001712074053
1.38313e-05;-0.0004186980719606926
1.38315e-05;-0.00039902612680064477
1.38318e-05;-0.00037935418164073017
1.38320e-05;-0.0003596822364806823
1.38323e-05;-0.0003419625725847124
1.38325e-05;-0.00032461759508511977
1.38328e-05;-0.00030727261758540955
1.38330e-05;-0.00028992764008569933
1.38333e-05;-0.00027357802077526423
1.38335e-05;-0.00025916936915232065
1.38338e-05;-0.0002451713600236738
1.38340e-05;-0.00023197411168783555
1.38343e-05;-0.0002181897689414758
1.38345e-05;-0.00020264943884934128
1.38348e-05;-0.00018537488825003833
1.38350e-05;-0.00016656866525176423
1.38353e-05;-0.0001464333080966827
1.38355e-05;-0.00012517133578915113
1.38358e-05;-0.00010289127984133926
1.38360e-05;-7.933094470130368e-05
1.38363e-05;-5.386705133951717e-05
1.38365e-05;-2.6080328326127578e-05
1.38368e-05;3.970168233299876e-06
1.38370e-05;3.6035419136220146e-05
1.38373e-05;6.986643739769604e-05
1.38375e-05;0.00010521426871366326
1.38378e-05;0.00014188884837647468
1.38380e-05;0.00017993232018359434
1.38383e-05;0.00021961299902621006
1.38385e-05;0.0002613145705157107
1.38388e-05;0.000304622598186136
1.38390e-05;0.00034871480123797015
1.38393e-05;0.0003943361614244576
1.38395e-05;0.0004404616887341003
1.38398e-05;0.00048757035166969504
1.38400e-05;0.0005346790146052898
1.38403e-05;0.000582178955426436
1.38405e-05;0.0006304418956804984
1.38408e-05;0.0006787333180391609
1.38410e-05;0.0007270802810514244
1.38413e-05;0.0007751976212775402
1.38415e-05;0.0008225802406118721
1.38418e-05;0.0008690391176981046
1.38420e-05;0.0009143924016375488
1.38423e-05;0.0009585469049309341
1.38425e-05;0.001001359450858726
1.38428e-05;0.0010425691607347707
1.38430e-05;0.0010818685057272534
1.38433e-05;0.0011189501099239886
1.38435e-05;0.0011535065993849344
1.38438e-05;0.0011852292150363107
1.38440e-05;0.0012138180354148214
1.38443e-05;0.001239032727755465
1.38445e-05;0.0012607366577475907
1.38448e-05;0.0012782462721595473
1.38450e-05;0.0012921646552064379
1.38453e-05;0.0013035745807269466
1.38455e-05;0.0013100929656343634
1.38458e-05;0.0013140412130298134
1.38460e-05;0.0013129776426495988
1.38463e-05;0.001309358516174312
1.38465e-05;0.0013007560059679396
1.38468e-05;0.0012897342236265709
1.38470e-05;0.001273994813907855
1.38473e-05;0.0012559938639172714
1.38475e-05;0.00123358286672769
1.38478e-05;0.001208583914679104
1.38480e-05;0.0011785384006843158
1.38483e-05;0.001148492886689324
1.38485e-05;0.0011158143252804516
1.38488e-05;0.0010780012705725647
1.38490e-05;0.0010401882158644217
1.38493e-05;0.0010003995863446544
1.38495e-05;0.000956758547795507
1.38498e-05;0.0009131175092460639
1.38500e-05;0.0008681895373346298
1.38503e-05;0.0008207520205177492
1.38505e-05;0.000773314503700547
1.38508e-05;0.0007253995819545538
1.38510e-05;0.0006765537113793276
1.38513e-05;0.0006277078408037705
1.38515e-05;0.000579245454257882
1.38518e-05;0.0005315308689747317
1.38520e-05;0.0004838162836919048
1.38523e-05;0.0004370786599181335
1.38525e-05;0.0003922461299523454
1.38528e-05;0.0003483196209627619
1.38530e-05;0.00030690952094219516
1.38533e-05;0.000267820087627928
1.38535e-05;0.0002313734328431407
1.38538e-05;0.00019771835771458776
1.38540e-05;0.00016631163515146112
1.38543e-05;0.00013590732704702927
1.38545e-05;0.00010557901035200198
1.38548e-05;7.524604719257114e-05
1.38550e-05;4.517004820129896e-05
1.38553e-05;1.561259644793227e-05
1.38555e-05;-1.3164775320033684e-05
1.38558e-05;-4.097842916863105e-05
1.38560e-05;-6.814115600619066e-05
1.38563e-05;-9.546115410455468e-05
1.38565e-05;-0.0001233830301984498
1.38568e-05;-0.00015188054419325718
1.38570e-05;-0.00018051886184479378
1.38573e-05;-0.00020943174934566255
1.38575e-05;-0.00023834261882992993
1.38578e-05;-0.0002672495531424747
1.38580e-05;-0.0002961564874548236
1.38583e-05;-0.0003250634217673683
1.38585e-05;-0.00035397035607991306
1.38588e-05;-0.00038315584971602127
1.38590e-05;-0.00041288453941266105
1.38593e-05;-0.0004426132291093008
1.38595e-05;-0.00047234191880573916
1.38598e-05;-0.000502070608502379
1.38600e-05;-0.0005315199947368962
1.38603e-05;-0.0005604247338268837
1.38605e-05;-0.0005893294729166753
1.38608e-05;-0.0006182342120066628
1.38610e-05;-0.0006471389510966503
1.38613e-05;-0.0006760436901864419
1.38615e-05;-0.0007023304144504655
1.38618e-05;-0.0007281146831717263
1.38620e-05;-0.0007538989518928124
1.38623e-05;-0.0007796832206140732
1.38625e-05;-0.000805467489335334
1.38628e-05;-0.0008298295595864045
1.38630e-05;-0.0008514183153579222
1.38633e-05;-0.00087300707112944
1.38635e-05;-0.0008930631798930068
1.38638e-05;-0.00091013059739541
1.38640e-05;-0.0009271980148978133
1.38643e-05;-0.0009427321013745745
1.38645e-05;-0.0009552761627422848
1.38648e-05;-0.0009678202241099953
1.38650e-05;-0.0009787750360008667
1.38653e-05;-0.0009866307807228553
1.38655e-05;-0.0009944865254448443
1.38658e-05;-0.0010006792125437402
1.38660e-05;-0.0010036289051630904
1.38663e-05;-0.0010065785977824407
1.38665e-05;-0.0010080693989236243
1.38668e-05;-0.0010067153335103448
1.38670e-05;-0.0010053612680970656
1.38673e-05;-0.0010026191859681456
1.38675e-05;-0.000997170444440238
1.38678e-05;-0.0009917217029123307
1.38680e-05;-0.0009844439918730767
1.38683e-05;-0.0009735997549680554
1.38685e-05;-0.000962755518063034
1.38688e-05;-0.0009519112811580127
1.38690e-05;-0.0009410670442530648
1.38693e-05;-0.0009302228073480435
1.38695e-05;-0.0009193785704430222
1.38698e-05;-0.0009070880503487514
1.38700e-05;-0.0008919772501064339
1.38703e-05;-0.0008768664498641164
1.38705e-05;-0.0008617556496219012
1.38708e-05;-0.0008466448493795836
1.38710e-05;-0.000831534049137266
1.38713e-05;-0.0008164232488950508
1.38715e-05;-0.0008012559824235277
1.38718e-05;-0.0007859786057146427
1.38720e-05;-0.0007707012290058612
1.38723e-05;-0.0007554238522969761
1.38725e-05;-0.0007401464755880912
1.38728e-05;-0.0007269469894762661
1.38730e-05;-0.0007141462969991061
1.38733e-05;-0.0007013456045219461
1.38735e-05;-0.0006885449120448728
1.38738e-05;-0.0006770059012736177
1.38740e-05;-0.0006679271941932525
1.38743e-05;-0.0006605732378753452
1.38745e-05;-0.0006565825788507652
1.38748e-05;-0.0006544653655246167
1.38750e-05;-0.000656001407488457
1.38753e-05;-0.0006593098611247582
1.38755e-05;-0.0006660745517493311
1.38758e-05;-0.0006746489560336235
1.38760e-05;-0.0006867523369018349
1.38763e-05;-0.000700979661950423
1.38765e-05;-0.0007193487191660487
1.38768e-05;-0.0007397448695677938
1.38770e-05;-0.0007640938908274891
1.38773e-05;-0.0007902167345462077
1.38775e-05;-0.0008197985663141623
1.38778e-05;-0.0008509876194675172
1.38780e-05;-0.0008853107853592092
1.38783e-05;-0.0009216034521149705
1.38785e-05;-0.000961736683589678
1.38788e-05;-0.0010018699150643854
1.38790e-05;-0.001044270069263652
1.38793e-05;-0.0010910907665536284
1.38795e-05;-0.0011379114638436045
1.38798e-05;-0.0011847321611332634
1.38800e-05;-0.0012315528584232397
1.38803e-05;-0.0012783735557132159
1.38805e-05;-0.0013278441349586663
1.38808e-05;-0.001377823285761918
1.38810e-05;-0.0014278024365651698
1.38813e-05;-0.0014777815873680828
1.38815e-05;-0.0015277607381713344
1.38818e-05;-0.0015768461288978533
1.38820e-05;-0.0016241886702146777
1.38823e-05;-0.0016715312115318226
1.38825e-05;-0.001717222191986303
1.38828e-05;-0.001759692596864274
1.38830e-05;-0.0018021630017425326
1.38833e-05;-0.0018420146972733314
1.38835e-05;-0.0018767598590051337
1.38838e-05;-0.0019115050207371717
1.38840e-05;-0.0019430485321467082
1.38843e-05;-0.0019683487635983265
1.38845e-05;-0.001993648995050116
1.38848e-05;-0.002015626794429463
1.38850e-05;-0.0020311257871058947
1.38853e-05;-0.002046624779782431
1.38855e-05;-0.0020585862431119276
1.38858e-05;-0.002063649455899062
1.38860e-05;-0.0020687126686861623
1.38863e-05;-0.0020703981491964193
1.38865e-05;-0.00206549698653728
1.38868e-05;-0.0020605958238781733
1.38870e-05;-0.0020525818016624937
1.38873e-05;-0.0020384976431971954
1.38875e-05;-0.002024413484731993
1.38878e-05;-0.002006170409289904
1.38880e-05;-0.0019798173654276435
1.38883e-05;-0.0019534643215655617
1.38885e-05;-0.0019271112777033016
1.38888e-05;-0.0019007582338410412
1.38890e-05;-0.0018744051899789594
1.38893e-05;-0.0018480521461166992
1.38895e-05;-0.001812834928421025
1.38898e-05;-0.00177591647770124
1.38900e-05;-0.001738998026981205
1.38903e-05;-0.0017020795762611699
1.38905e-05;-0.001665161125541385
1.38908e-05;-0.0016282426748213499
1.38910e-05;-0.0015905085228133356
1.38913e-05;-0.0015511837375413217
1.38915e-05;-0.0015118589522690414
1.38918e-05;-0.001473006112937322
1.38920e-05;-0.0014350735773041342
1.38923e-05;-0.0013971410416706894
1.38925e-05;-0.001360489171427741
1.38928e-05;-0.00132633462342867
1.38930e-05;-0.0012921800754293674
