Time(s);Current(A)
1.47500e-05;-0.0013808451145969466
1.47503e-05;-0.0013447027820765473
1.47505e-05;-0.0013107622244952835
1.47508e-05;-0.0012800456343776204
1.47510e-05;-0.0012497175677941429
1.47513e-05;-0.0012228936379976487
1.47515e-05;-0.0011979218463603891
1.47518e-05;-0.0011749071193118132
1.47520e-05;-0.0011521422293818426
1.47523e-05;-0.001131695002747601
1.47525e-05;-0.0011130419345030326
1.47528e-05;-0.0010963247761201062
1.47530e-05;-0.0010816409745073384
1.47533e-05;-0.0010688355026561335
1.47535e-05;-0.0010575118757924892
1.47538e-05;-0.0010474326554208377
1.47540e-05;-0.0010386033123195224
1.47543e-05;-0.001031081937734178
1.47545e-05;-0.0010249265984775473
1.47548e-05;-0.001020193821379578
1.47550e-05;-0.0010169124545059782
1.47553e-05;-0.001014953261829729
1.47555e-05;-0.0010140356708910887
1.47558e-05;-0.001013978822517291
1.47560e-05;-0.0010147981800036198
1.47563e-05;-0.001016741792009188
1.47565e-05;-0.0010188621749845379
1.47568e-05;-0.0010224903166969476
1.47570e-05;-0.0010262676875580539
1.47573e-05;-0.0010313179006342281
1.47575e-05;-0.0010364510140421599
1.47578e-05;-0.0010422912214922517
1.47580e-05;-0.001048191692328245
1.47583e-05;-0.0010546061765608656
1.47585e-05;-0.0010610682924459957
1.47588e-05;-0.001067936680018463
1.47590e-05;-0.0010748219872725102
1.47593e-05;-0.0010818516100657078
1.47595e-05;-0.0010888431360883987
1.47598e-05;-0.001095509717700434
1.47600e-05;-0.001102089727959563
1.47603e-05;-0.0011079313323935167
1.47605e-05;-0.001113772936827431
1.47608e-05;-0.0011195255938231858
1.47610e-05;-0.0011244862520234874
1.47613e-05;-0.0011291719765966072
1.47615e-05;-0.001133937204964949
1.47618e-05;-0.0011387417822823942
1.47620e-05;-0.001143881984402306
1.47623e-05;-0.0011490221865222525
1.47625e-05;-0.0011541744502780507
1.47628e-05;-0.001159429593125712
1.47630e-05;-0.001164684735973409
1.47633e-05;-0.0011700184572702862
1.47635e-05;-0.001176022409338005
1.47638e-05;-0.0011820263614057641
1.47640e-05;-0.0011880303134735235
1.47643e-05;-0.001194034265541242
1.47645e-05;-0.0012005522348340653
1.47648e-05;-0.0012074058894008036
1.47650e-05;-0.0012142595439674955
1.47653e-05;-0.0012211131985342338
1.47655e-05;-0.0012280415996800045
1.47658e-05;-0.0012356075478608588
1.47660e-05;-0.0012431734960416617
1.47663e-05;-0.0012507812629157437
1.47665e-05;-0.0012587457201457652
1.47668e-05;-0.001266710177375733
1.47670e-05;-0.0012746746346057544
1.47673e-05;-0.001282639091835776
1.47675e-05;-0.0012906035490657436
1.47678e-05;-0.0012985480691691264
1.47680e-05;-0.0013063225365939264
1.47683e-05;-0.0013140970040186738
1.47685e-05;-0.0013218714714434737
1.47688e-05;-0.0013296459388682737
1.47690e-05;-0.0013374204062930211
1.47693e-05;-0.0013451054925983155
1.47695e-05;-0.0013520282073209687
1.47698e-05;-0.001358950922043575
1.47700e-05;-0.0013658130353939692
1.47703e-05;-0.001372119037941214
1.47705e-05;-0.0013780459476668927
1.47708e-05;-0.001383540219998436
1.47710e-05;-0.0013885066093272465
1.47713e-05;-0.0013926228766930377
1.47715e-05;-0.0013953910856521169
1.47718e-05;-0.001396539396970231
1.47720e-05;-0.0013960643842761936
1.47723e-05;-0.00139393927341611
1.47725e-05;-0.0013897859821869372
1.47728e-05;-0.0013854041897414084
1.47730e-05;-0.0013789114678367362
1.47733e-05;-0.0013706540085802737
1.47735e-05;-0.0013591257097006885
1.47738e-05;-0.0013475974108210255
1.47740e-05;-0.0013356972006438605
1.47743e-05;-0.0013204582100001011
1.47745e-05;-0.001303572103028279
1.47748e-05;-0.0012847561273920353
1.47750e-05;-0.0012656525110602522
1.47753e-05;-0.0012440954784640784
1.47755e-05;-0.0012223168713369561
1.47758e-05;-0.0011985149285756427
1.47760e-05;-0.0011734577454504062
1.47763e-05;-0.0011473001054734232
1.47765e-05;-0.0011201963997943586
1.47768e-05;-0.0010923007270893506
1.47770e-05;-0.001063757013367305
1.47773e-05;-0.0010346531514992818
1.47775e-05;-0.0010050340051985579
1.47778e-05;-0.0009750000236122912
1.47780e-05;-0.0009447175962080305
1.47783e-05;-0.0009143662997280871
1.47785e-05;-0.0008841257569054397
1.47788e-05;-0.0008541752207484203
1.47790e-05;-0.0008251302733435081
1.47793e-05;-0.0008022101233957303
1.47795e-05;-0.000776455750578017
1.47798e-05;-0.0007574235469602553
1.47800e-05;-0.0007238012319274276
1.47803e-05;-0.0007037089332661431
1.47805e-05;-0.0006724177442382995
1.47808e-05;-0.0006544150420513489
1.47810e-05;-0.0006302916652565949
1.47813e-05;-0.0006162911346181051
1.47815e-05;-0.0005996243207117821
1.47818e-05;-0.0005933443456353839
1.47820e-05;-0.0005910291413253773
1.47823e-05;-0.0005930040246342407
1.47825e-05;-0.0006001196602470003
1.47828e-05;-0.0006115113262935547
1.47830e-05;-0.0006271814623680495
1.47833e-05;-0.0006477103914641008
1.47835e-05;-0.00067357327085003
1.47838e-05;-0.0007051142933535168
1.47840e-05;-0.0007420207841982647
1.47843e-05;-0.0007845594687983282
1.47845e-05;-0.0008325358506651679
1.47848e-05;-0.0008848140567761993
1.47850e-05;-0.0009411461512612624
1.47853e-05;-0.001001646214188881
1.47855e-05;-0.001066362443976672
1.47858e-05;-0.0011352609020216006
1.47860e-05;-0.001207896311127534
1.47863e-05;-0.0012849609375763372
1.47865e-05;-0.0013644068859349624
1.47868e-05;-0.001446184689599914
1.47870e-05;-0.0015299110547191328
1.47873e-05;-0.0016150218766790945
1.47875e-05;-0.0017023840258224734
1.47878e-05;-0.0017906607166259417
1.47880e-05;-0.0018794658856178554
1.47883e-05;-0.001968810553943111
1.47885e-05;-0.002058237020672603
1.47888e-05;-0.0021464221376095343
1.47890e-05;-0.002233569949036656
1.47893e-05;-0.0023192190209289027
1.47895e-05;-0.0024023627815433633
1.47898e-05;-0.002482926705535004
1.47900e-05;-0.002560330725278516
1.47903e-05;-0.0026329105211743377
1.47905e-05;-0.002702771122971564
1.47908e-05;-0.0027670477277053087
1.47910e-05;-0.0028266581932467907
1.47913e-05;-0.0028807954563235213
1.47915e-05;-0.002930359163175681
1.47918e-05;-0.0029750930626458705
1.47920e-05;-0.003015791044249314
1.47923e-05;-0.0030513632377063703
1.47925e-05;-0.0030826521837537956
1.47928e-05;-0.0031082555340265165
1.47930e-05;-0.0031291078464720156
1.47933e-05;-0.003144655399759069
1.47935e-05;-0.003155770152610533
1.47938e-05;-0.0031634311200710395
1.47940e-05;-0.003165932406800436
1.47943e-05;-0.003164328824595105
1.47945e-05;-0.0031586366183727417
1.47948e-05;-0.0031487811120437673
1.47950e-05;-0.003134825506169105
1.47953e-05;-0.0031170443353178315
1.47955e-05;-0.0030958674808772087
1.47958e-05;-0.003071668044219336
1.47960e-05;-0.0030446427364083793
1.47963e-05;-0.0030149723640587973
1.47965e-05;-0.002982809876448956
1.47968e-05;-0.0029482514534839585
1.47970e-05;-0.002911479103941006
1.47973e-05;-0.0028728075171935686
1.47975e-05;-0.002832648639884428
1.47978e-05;-0.0027913787980028072
1.47980e-05;-0.0027492639869393203
1.47983e-05;-0.0027065600074695946
1.47985e-05;-0.0026635050143144247
1.47988e-05;-0.002620301971502627
1.47990e-05;-0.002577207518909505
1.47993e-05;-0.0025345611390278746
1.47995e-05;-0.0024927636027282257
1.47998e-05;-0.002452193128025512
1.48000e-05;-0.002413158528455519
1.48003e-05;-0.002375962544557343
1.48005e-05;-0.0023408967777569134
1.48008e-05;-0.002308230781647059
1.48010e-05;-0.0022779588899644204
1.48013e-05;-0.002249153227955748
1.48015e-05;-0.0022202233716854466
1.48018e-05;-0.0021901866467992034
1.48020e-05;-0.0021590142061158188
1.48023e-05;-0.002127014152262486
1.48025e-05;-0.002094489186023141
1.48028e-05;-0.00206172789055629
1.48030e-05;-0.002028846494528558
1.48033e-05;-0.00199538387936374
1.48035e-05;-0.001960463610013645
1.48038e-05;-0.001923590135262357
1.48040e-05;-0.0018848654283141566
1.48043e-05;-0.0018446025507694184
1.48045e-05;-0.0018028956904515684
1.48048e-05;-0.001760511840365088
1.48050e-05;-0.0017175375825389902
1.48053e-05;-0.0016734793343049286
1.48055e-05;-0.001627677184466889
1.48058e-05;-0.0015808302037722075
1.48060e-05;-0.0015329197661594774
1.48063e-05;-0.0014836427426281843
1.48065e-05;-0.00143365634917816
1.48068e-05;-0.0013832481469782624
1.48070e-05;-0.0013327039320776793
1.48073e-05;-0.0012819266806832843
1.48075e-05;-0.0012309546976829937
1.48078e-05;-0.0011797563689900442
1.48080e-05;-0.0011284147523075289
1.48083e-05;-0.0010773321526204606
1.48085e-05;-0.0010268252144169376
1.48088e-05;-0.0009772069467867057
1.48090e-05;-0.0009287480312366069
1.48093e-05;-0.0008815771607455724
1.48095e-05;-0.0008357210105687866
1.48098e-05;-0.0007912999874251604
1.48100e-05;-0.0007485812589212474
1.48103e-05;-0.0007078838056320766
1.48105e-05;-0.0006695257146306643
1.48108e-05;-0.0006338229158152395
1.48110e-05;-0.0006011709471553283
1.48113e-05;-0.0005721824251644038
1.48115e-05;-0.0005475473141982946
1.48118e-05;-0.0005276725827776472
1.48120e-05;-0.0005126424489627833
1.48123e-05;-0.0005024415237731032
1.48125e-05;-0.0004970533049124991
1.48128e-05;-0.0004964598696337618
1.48130e-05;-0.0005006931962415865
1.48133e-05;-0.0005099212228472112
1.48135e-05;-0.0005243602818739031
1.48138e-05;-0.0005440494671622727
1.48140e-05;-0.0005688256269856545
1.48143e-05;-0.0005984632587805312
1.48145e-05;-0.0006327362483786772
1.48148e-05;-0.0006714174642754127
1.48150e-05;-0.0007143111148300747
1.48153e-05;-0.0007613065899411631
1.48155e-05;-0.0008133332371504523
1.48158e-05;-0.0008680143578236469
1.48160e-05;-0.0009263450570325163
1.48163e-05;-0.000987725442919394
1.48165e-05;-0.0010519764680374216
1.48168e-05;-0.0011186262770514737
1.48170e-05;-0.0011874243407044157
1.48173e-05;-0.0012580175441223725
1.48175e-05;-0.0013301332695450428
1.48178e-05;-0.0014035212555936016
1.48180e-05;-0.0014775629107517672
1.48183e-05;-0.0015521507895228932
1.48185e-05;-0.0016264346649099422
1.48188e-05;-0.001700464506835891
1.48190e-05;-0.0017732681880404503
1.48193e-05;-0.0018450472561337109
1.48195e-05;-0.0019153803817754573
1.48198e-05;-0.001982446437896241
1.48200e-05;-0.0020477921042670842
1.48203e-05;-0.0021105445935547013
1.48205e-05;-0.0021678686576376747
1.48208e-05;-0.0022224673271588153
1.48210e-05;-0.0022735811355301693
1.48213e-05;-0.0023202500400811336
1.48215e-05;-0.002364804898273792
1.48218e-05;-0.002408663555864837
1.48220e-05;-0.0024513221817413383
1.48223e-05;-0.0024929780286124916
1.48225e-05;-0.002532677751490538
1.48228e-05;-0.0025707428841755435
1.48230e-05;-0.0026070627640988656
1.48233e-05;-0.0026412270249488493
1.48235e-05;-0.0026745710410463895
1.48238e-05;-0.0027077165010358714
1.48240e-05;-0.0027408619610255784
1.48243e-05;-0.0027727579640436165
1.48245e-05;-0.0028036098869726944
1.48248e-05;-0.0028344618099019813
1.48250e-05;-0.0028653137328312683
1.48253e-05;-0.0028949240205789592
1.48255e-05;-0.002923496764337325
1.48258e-05;-0.0029520299340661926
1.48260e-05;-0.0029805300346639318
1.48263e-05;-0.00300842071211621
1.48265e-05;-0.0030358021390814068
1.48268e-05;-0.003063183566046604
1.48270e-05;-0.0030895228768964235
1.48273e-05;-0.0031149913672933603
1.48275e-05;-0.0031404598576902968
1.48278e-05;-0.0031653645450038124
1.48280e-05;-0.003189798103189708
1.48283e-05;-0.0032142316613756033
1.48285e-05;-0.0032375105119493036
1.48288e-05;-0.003259824457565589
1.48290e-05;-0.0032821384031818737
1.48293e-05;-0.003303120107691692
1.48295e-05;-0.0033229885554474656
1.48298e-05;-0.0033428570032032396
1.48300e-05;-0.0033618920709383693
1.48303e-05;-0.003379693577038032
1.48305e-05;-0.0033964302778219588
1.48308e-05;-0.00341195758546034
1.48310e-05;-0.003425958029423469
1.48313e-05;-0.003437592198354161
1.48315e-05;-0.003445709945333811
1.48318e-05;-0.003449615453371216
1.48320e-05;-0.0034492312892355327
1.48323e-05;-0.0034446833917103526
1.48325e-05;-0.003436098526656575
1.48328e-05;-0.0034236036076240313
1.48330e-05;-0.0034072168047228125
1.48333e-05;-0.0033866295735409057
1.48335e-05;-0.003360000307889637
1.48338e-05;-0.003330007530035433
1.48340e-05;-0.0032961600894819785
1.48343e-05;-0.0032567373141201917
1.48345e-05;-0.0032131545631361065
1.48348e-05;-0.0031657084627700702
1.48350e-05;-0.0031136318969538362
1.48353e-05;-0.00305910424077864
1.48355e-05;-0.003001536677608613
1.48358e-05;-0.002939509164852932
1.48360e-05;-0.002874177066386734
1.48363e-05;-0.002805943073233206
1.48365e-05;-0.0027352102360846207
1.48368e-05;-0.002662381817616239
1.48370e-05;-0.0025878184623175635
1.48373e-05;-0.0025117523550041657
1.48375e-05;-0.002434339363622319
1.48378e-05;-0.0023558471472056
1.48380e-05;-0.0022766953826430423
1.48383e-05;-0.0021973534565127807
1.48385e-05;-0.0021182910090726337
1.48388e-05;-0.002039977765720581
1.48390e-05;-0.001962856582659436
1.48393e-05;-0.0018872898593860047
1.48395e-05;-0.001813592339485776
1.48398e-05;-0.0017421486996134483
1.48400e-05;-0.0016734385984804913
1.48403e-05;-0.0016079730672024202
1.48405e-05;-0.0015474887381352474
1.48408e-05;-0.0014898440617185256
1.48410e-05;-0.0014359475659558208
1.48413e-05;-0.001387278038250476
1.48415e-05;-0.001341905612833185
1.48418e-05;-0.0012992533693645975
1.48420e-05;-0.001259362765832772
1.48423e-05;-0.0012224932163999885
1.48425e-05;-0.0011899019447239904
1.48428e-05;-0.001159691412010309
1.48430e-05;-0.0011324839076083777
1.48433e-05;-0.0011094912400579399
1.48435e-05;-0.0010892532070645188
1.48438e-05;-0.0010713485886340735
1.48440e-05;-0.0010557435582211417
1.48443e-05;-0.0010425408358374284
1.48445e-05;-0.0010318436922980255
1.48448e-05;-0.001023755314149004
1.48450e-05;-0.0010182976148731897
1.48453e-05;-0.0010152289495428126
1.48455e-05;-0.001014096701742823
1.48458e-05;-0.0010145772376381854
1.48460e-05;-0.0010165895741442205
1.48463e-05;-0.0010205587989318562
1.48465e-05;-0.0010255798499699297
1.48468e-05;-0.0010322626614451009
1.48470e-05;-0.001040334084953273
1.48473e-05;-0.001049639723512206
1.48475e-05;-0.001059976705598507
1.48478e-05;-0.0010710039500870666
1.48480e-05;-0.0010826079965361318
1.48483e-05;-0.0010947465460655744
1.48485e-05;-0.0011073317408469116
1.48488e-05;-0.0011203122636956682
1.48490e-05;-0.001133623133385699
1.48493e-05;-0.001146931497988825
1.48495e-05;-0.0011602377692736436
1.48498e-05;-0.0011730709279600385
1.48500e-05;-0.001185508740943944
1.48503e-05;-0.001197027747276234
1.48505e-05;-0.0012077789738827024
1.48508e-05;-0.0012185302004891708
1.48510e-05;-0.0012284221928881285
1.48513e-05;-0.0012373969839426743
1.48515e-05;-0.0012463147475089181
1.48518e-05;-0.0012553239546420607
1.48520e-05;-0.0012644618725016004
1.48523e-05;-0.001273707344530452
1.48525e-05;-0.0012829528165592408
1.48528e-05;-0.0012920770614122422
1.48530e-05;-0.0013011000055534214
1.48533e-05;-0.0013103509337346372
1.48535e-05;-0.0013197923715552308
1.48538e-05;-0.0013292338093758244
1.48540e-05;-0.0013391787167961401
1.48543e-05;-0.0013495443370516104
1.48545e-05;-0.0013599099573070807
1.48548e-05;-0.0013705158303369716
1.48550e-05;-0.0013813224650930428
1.48553e-05;-0.001392129099849114
1.48555e-05;-0.0014029719657581367
1.48558e-05;-0.0014145878200469873
1.48560e-05;-0.0014262036743358378
1.48563e-05;-0.0014378195286246095
1.48565e-05;-0.001449623661004947
1.48568e-05;-0.0014615851236584431
1.48570e-05;-0.001473546586311858
1.48573e-05;-0.001485508048965354
1.48575e-05;-0.0014974695116188503
1.48578e-05;-0.0015094136297715516
1.48580e-05;-0.0015209877045668518
1.48583e-05;-0.0015325617793621523
1.48585e-05;-0.001544135854157374
1.48588e-05;-0.0015557099289526743
1.48590e-05;-0.0015672840037479748
1.48593e-05;-0.001578198920728784
1.48595e-05;-0.0015885630275850003
1.48598e-05;-0.0015989271344412869
1.48600e-05;-0.001608560411286963
1.48603e-05;-0.001617582986779562
1.48605e-05;-0.0016266055622722222
1.48608e-05;-0.0016346752323366947
1.48610e-05;-0.0016419486288137487
1.48613e-05;-0.001649222025290852
1.48615e-05;-0.0016561601417943359
1.48618e-05;-0.0016628180892700023
1.48620e-05;-0.0016694760367457137
1.48623e-05;-0.0016758232548032552
1.48625e-05;-0.0016819108189421164
1.48628e-05;-0.001687998383081019
1.48630e-05;-0.0016940859472199215
1.48633e-05;-0.00170016112124135
1.48635e-05;-0.0017059719532252341
1.48638e-05;-0.0017117827852091182
1.48640e-05;-0.001717593617192963
1.48643e-05;-0.0017234044491768472
1.48645e-05;-0.0017291881458912411
1.48648e-05;-0.0017349491676393874
1.48650e-05;-0.0017407101893875724
1.48653e-05;-0.0017464712111357576
1.48655e-05;-0.0017522322328839036
1.48658e-05;-0.0017580218696996966
1.48660e-05;-0.00176383541804109
1.48663e-05;-0.001769648966382444
1.48665e-05;-0.0017754625147238376
1.48668e-05;-0.001781276063065231
1.48670e-05;-0.001786945579891305
1.48673e-05;-0.0017924947400818046
1.48675e-05;-0.0017980439002723044
1.48678e-05;-0.0018035930604627666
1.48680e-05;-0.0018091422206532664
1.48683e-05;-0.001814691380843766
1.48685e-05;-0.0018202056197046885
1.48688e-05;-0.0018249748151489649
1.48690e-05;-0.0018297440105932738
1.48693e-05;-0.0018345132060375825
1.48695e-05;-0.0018392824014818589
1.48698e-05;-0.0018440515969261678
1.48700e-05;-0.0018488207923704765
1.48703e-05;-0.0018531848564915636
1.48705e-05;-0.001857060266955943
1.48708e-05;-0.0018606408426980793
1.48710e-05;-0.0018639900651143634
1.48713e-05;-0.0018674774003896398
1.48715e-05;-0.001871987543118341
1.48718e-05;-0.0018772035316127614
1.48720e-05;-0.0018838030679274977
1.48723e-05;-0.0018915587342778226
1.48725e-05;-0.001899314400628095
1.48728e-05;-0.001908195855106528
1.48730e-05;-0.0019180180486397102
1.48733e-05;-0.0019294011332275061
1.48735e-05;-0.0019420885406614928
1.48738e-05;-0.0019547759480954795
1.48740e-05;-0.00196951959843399
1.48743e-05;-0.0019859815010424644
1.48745e-05;-0.002002443403650938
1.48748e-05;-0.00202061008201093
1.48750e-05;-0.0020402013171675
1.48753e-05;-0.00205979255232407
1.48755e-05;-0.00207953217601006
1.48758e-05;-0.0021024376555944814
1.48760e-05;-0.002125343135178903
1.48763e-05;-0.002148248614763169
1.48765e-05;-0.002172243104962408
1.48768e-05;-0.0021971476019302006
1.48770e-05;-0.002222052098897993
1.48773e-05;-0.002247492071384505
1.48775e-05;-0.0022733795017195893
1.48778e-05;-0.002299266932054674
1.48780e-05;-0.0023252549463816416
1.48783e-05;-0.0023513270114171436
1.48785e-05;-0.0023773990764526455
1.48788e-05;-0.0024029854506057704
1.48790e-05;-0.0024281659683016146
1.48793e-05;-0.0024526725859346605
1.48795e-05;-0.0024766160744206095
1.48798e-05;-0.0024996591268920875
1.48800e-05;-0.0025219497506389
1.48803e-05;-0.0025425877569877336
1.48805e-05;-0.0025618447914732725
1.48808e-05;-0.0025811018259588115
1.48810e-05;-0.002597209943065774
1.48813e-05;-0.002610686739514023
1.48815e-05;-0.002624163535962272
1.48818e-05;-0.0026376403324104296
1.48820e-05;-0.0026511171288586786
1.48823e-05;-0.0026607286334317183
1.48825e-05;-0.0026671101954113263
1.48828e-05;-0.002673491757390978
1.48830e-05;-0.0026798733193706295
1.48833e-05;-0.0026862548813502375
1.48835e-05;-0.0026896317005681136
1.48838e-05;-0.0026904976753420787
1.48840e-05;-0.0026913636501160383
1.48843e-05;-0.002690225005799998
1.48845e-05;-0.0026874112474714286
1.48848e-05;-0.0026845974891428776
1.48850e-05;-0.00268017743109761
1.48853e-05;-0.0026744151054978204
1.48855e-05;-0.002667612883480832
1.48858e-05;-0.0026599416958490983
1.48860e-05;-0.0026513823122471542
1.48863e-05;-0.002642080728033182
1.48865e-05;-0.0026319874729663385
1.48868e-05;-0.002621232676290001
1.48870e-05;-0.002609816917214457
1.48873e-05;-0.0025978488400541203
1.48875e-05;-0.0025855363293118524
1.48878e-05;-0.002572780494896409
1.48880e-05;-0.0025597777694228844
1.48883e-05;-0.002546598426047417
1.48885e-05;-0.0025333126944827077
1.48888e-05;-0.002519990995574034
1.48890e-05;-0.0025067101130073696
1.48893e-05;-0.0024935688520188776
1.48895e-05;-0.002480685610432911
1.48898e-05;-0.0024684601933478703
1.48900e-05;-0.0024566649929403652
1.48903e-05;-0.00244486979253294
1.48905e-05;-0.0024337465895905614
1.48908e-05;-0.0024235998190453335
1.48910e-05;-0.002414126103328187
1.48913e-05;-0.002404853944802796
1.48915e-05;-0.00239502054703413
1.48918e-05;-0.0023841559742593067
1.48920e-05;-0.0023722386225698724
1.48923e-05;-0.0023591994623053314
1.48925e-05;-0.002345600988562819
1.48928e-05;-0.0023314757489703536
1.48930e-05;-0.0023165695109182358
1.48933e-05;-0.002300830146950719
1.48935e-05;-0.002283454813411353
1.48938e-05;-0.0022650953022519925
