Time(s);Current(A)
7.05000e-06;-0.0003949973339176383
7.05025e-06;-0.0004567368610725315
7.05050e-06;-0.0005184763882272155
7.05075e-06;-0.0005801321473870534
7.05100e-06;-0.0006412298352958714
7.05125e-06;-0.0007023275232044823
7.05150e-06;-0.0007634252111130931
7.05175e-06;-0.0008219441293661363
7.05200e-06;-0.0008789518587524263
7.05225e-06;-0.0009359595881387162
7.05250e-06;-0.0009899320878632605
7.05275e-06;-0.0010421259078741312
7.05300e-06;-0.0010907928318044885
7.05325e-06;-0.001137392953809394
7.05350e-06;-0.0011794484339172193
7.05375e-06;-0.0012188407012711853
7.05400e-06;-0.0012526020974926366
7.05425e-06;-0.0012830637380554987
7.05450e-06;-0.0013073816158563165
7.05475e-06;-0.0013280991775669424
7.05500e-06;-0.0013425477905870467
7.05525e-06;-0.001353322727114097
7.05550e-06;-0.0013577054007554983
7.05575e-06;-0.0013583421343582307
7.05600e-06;-0.001352420534619177
7.05625e-06;-0.0013426556756319947
7.05650e-06;-0.0013265254920386813
7.05675e-06;-0.0013066651545502607
7.05700e-06;-0.0012808754962168412
7.05725e-06;-0.001251611187238969
7.05750e-06;-0.001216854588795293
7.05775e-06;-0.0011788794451540595
7.05800e-06;-0.0011358221785483056
7.05825e-06;-0.0010897867290619238
7.05850e-06;-0.0010393043715183202
7.05875e-06;-0.0009862160743820125
7.05900e-06;-0.0009294680431506111
7.05925e-06;-0.0008705753653796836
7.05950e-06;-0.0008082507667017976
7.05975e-06;-0.000743915022649914
7.06000e-06;-0.0006795792785980303
7.06025e-06;-0.0006126324665674591
7.06050e-06;-0.0005441555384798869
7.06075e-06;-0.0004756786103923146
7.06100e-06;-0.00040720168230451036
7.06125e-06;-0.0003387247542169381
7.06150e-06;-0.0002702478261293658
7.06175e-06;-0.00020262399249379556
7.06200e-06;-0.00013640603312054788
7.06225e-06;-7.188847455986692e-05
7.06250e-06;-9.50777372912757e-06
7.06275e-06;5.028426830471661e-05
7.06300e-06;0.000107033231060755
7.06325e-06;0.00016028474751693018
7.06350e-06;0.000209590161080906
7.06375e-06;0.0002547145891022059
7.06400e-06;0.00029588063984502467
7.06425e-06;0.0003334762186883761
7.06450e-06;0.0003676206074927478
7.06475e-06;0.00039819565380795006
7.06500e-06;0.00042503018725368604
7.06525e-06;0.00044795310325409235
7.06550e-06;0.0004667968894569544
7.06575e-06;0.00048152793008634587
7.06600e-06;0.0004923992106608666
7.06625e-06;0.0004997672089823037
7.06650e-06;0.0005038200942418093
7.06675e-06;0.0005045974223343283
7.06700e-06;0.0005021054125992865
7.06725e-06;0.0004963503970449857
7.06750e-06;0.00048734089195840775
7.06775e-06;0.00047516937799209103
7.06800e-06;0.0004601078003819935
7.06825e-06;0.0004424929060582708
7.06850e-06;0.00042255602861814386
7.06875e-06;0.0004004353410861348
7.06900e-06;0.00037624818250997066
7.06925e-06;0.0003501119071308056
7.06950e-06;0.00032214530367192634
7.06975e-06;0.0002921247735422497
7.07000e-06;0.0002612873588724454
7.07025e-06;0.00022924286430324884
7.07050e-06;0.00019649100694195824
7.07075e-06;0.00016301161876765773
7.07100e-06;0.00012910588911609172
7.07125e-06;9.520015946464061e-05
7.07150e-06;6.118444483652112e-05
7.07175e-06;2.7279300861023216e-05
7.07200e-06;-6.145781026107218e-06
7.07225e-06;-3.877441042536759e-05
7.07250e-06;-7.033161008702073e-05
7.07275e-06;-0.00010057897785947749
7.07300e-06;-0.00012928631723648447
7.07325e-06;-0.00015622342308485435
7.07350e-06;-0.00018116371478207538
7.07375e-06;-0.00020401382914614894
7.07400e-06;-0.0002249599367077835
7.07425e-06;-0.0002442753843416874
7.07450e-06;-0.00026205019552702106
7.07475e-06;-0.0002782198532199286
7.07500e-06;-0.00029268588840853467
7.07525e-06;-0.00030534980613379145
7.07550e-06;-0.00031611540207067277
7.07575e-06;-0.00032496996289787166
7.07600e-06;-0.0003320758188360917
7.07625e-06;-0.00033764990803667133
7.07650e-06;-0.00034134344396319957
7.07675e-06;-0.00034425018903006584
7.07700e-06;-0.00034533317770782347
7.07725e-06;-0.0003453474240328321
7.07750e-06;-0.00034352618810999387
7.07775e-06;-0.0003406293383454829
7.07800e-06;-0.00033619533676859404
7.07825e-06;-0.00033086054643821384
7.07850e-06;-0.00032429371517665083
7.07875e-06;-0.0003170048936693808
7.07900e-06;-0.00030858536173469987
7.07925e-06;-0.00029950322040237155
7.07950e-06;-0.0002892014184925287
7.07975e-06;-0.0002781848813676168
7.08000e-06;-0.0002671683442426675
7.08025e-06;-0.00025530793370454345
7.08050e-06;-0.0002429530035790561
7.08075e-06;-0.0002305980734535269
7.08100e-06;-0.00021788218759682105
7.08125e-06;-0.00020495477750382424
7.08150e-06;-0.0001920273674107836
7.08175e-06;-0.0001791642096174857
7.08200e-06;-0.0001667291074474125
7.08225e-06;-0.00015429400527729715
7.08250e-06;-0.00014185890310722396
7.08275e-06;-0.00013026315601935549
7.08300e-06;-0.00011915928072452448
7.08325e-06;-0.00010869932756701581
7.08350e-06;-9.911765662689837e-05
7.08375e-06;-9.029646885961245e-05
7.08400e-06;-8.205389370160687e-05
7.08425e-06;-7.416948772195211e-05
7.08450e-06;-6.656415737608198e-05
7.08475e-06;-5.926961405642698e-05
7.08500e-06;-5.234127453911483e-05
7.08525e-06;-4.583454658561298e-05
7.08550e-06;-3.98033043608539e-05
7.08575e-06;-3.424592959663505e-05
7.08600e-06;-2.9048693480643407e-05
7.08625e-06;-2.4073714243062248e-05
7.08650e-06;-1.9271657495932972e-05
7.08675e-06;-1.4662598098035424e-05
7.08700e-06;-1.0281460605792896e-05
7.08725e-06;-6.163160866054825e-06
7.08750e-06;-2.341649382051165e-06
7.08775e-06;1.1838868256974615e-06
7.08800e-06;4.484480924840057e-06
7.08825e-06;7.646288795794429e-06
7.08850e-06;1.069999543355277e-05
7.08875e-06;1.3632806404999389e-05
7.08900e-06;1.6422627395462842e-05
7.08925e-06;1.9047371366227408e-05
7.08950e-06;2.1485559527706074e-05
7.08975e-06;2.3737489668537902e-05
7.09000e-06;2.5847440177045097e-05
7.09025e-06;2.786916037674351e-05
7.09050e-06;2.9795587881386385e-05
7.09075e-06;3.168139604168848e-05
7.09100e-06;3.3445233021425813e-05
7.09125e-06;3.5137593477643825e-05
7.09150e-06;3.668000538653915e-05
7.09175e-06;3.8134545711169366e-05
7.09200e-06;3.9488746449675134e-05
7.09225e-06;4.078414702937232e-05
7.09250e-06;4.203545177412394e-05
7.09275e-06;4.322599976519891e-05
7.09300e-06;4.435547266644317e-05
7.09325e-06;4.54148452074582e-05
7.09350e-06;4.6387524741459365e-05
7.09375e-06;4.699091455687695e-05
7.09400e-06;4.643411602297997e-05
7.09425e-06;4.389212885518817e-05
7.09450e-06;3.904638053228371e-05
7.09475e-06;3.194487162906628e-05
7.09500e-06;2.271151514435777e-05
7.09525e-06;1.1470218065089176e-05
7.09550e-06;-1.659855843664649e-06
7.09575e-06;-1.672616560564431e-05
7.09600e-06;-3.409454524004358e-05
7.09625e-06;-5.4152145786710726e-05
7.09650e-06;-7.696886991980077e-05
7.09675e-06;-0.00010238499377417374
7.09700e-06;-0.000130193259564
7.09725e-06;-0.0001601864143248284
7.09750e-06;-0.00019216019809493396
7.09775e-06;-0.000226014739799076
7.09800e-06;-0.0002618495733374098
7.09825e-06;-0.0002997775777356661
7.09850e-06;-0.0003402430854726879
7.09875e-06;-0.0003817365475220902
7.09900e-06;-0.00042502362554938005
7.09925e-06;-0.0004693617832992651
7.09950e-06;-0.000515440503174171
7.09975e-06;-0.0005625392125997672
7.10000e-06;-0.0006096379220255231
7.10025e-06;-0.0006567366314511193
7.10050e-06;-0.0007039497870128942
7.10075e-06;-0.0007519253948502786
7.10100e-06;-0.0007999010026875004
7.10125e-06;-0.0008478766105248848
7.10150e-06;-0.0008958522183621066
7.10175e-06;-0.0009419115260541955
7.10200e-06;-0.0009868478596820982
7.10225e-06;-0.0010317841933098486
7.10250e-06;-0.0010736767827229524
7.10275e-06;-0.0011137857027980875
7.10300e-06;-0.0011538946228730868
7.10325e-06;-0.0011901912625861355
7.10350e-06;-0.0012242538618838638
7.10375e-06;-0.001253894913274003
7.10400e-06;-0.001280944886415405
7.10425e-06;-0.0013019301132990045
7.10450e-06;-0.001319361328682117
7.10475e-06;-0.001330469388507419
7.10500e-06;-0.0013378720059917752
7.10525e-06;-0.0013390313285398527
7.10550e-06;-0.0013365320079955418
7.10575e-06;-0.0013275875389217762
7.10600e-06;-0.001314866138213816
7.10625e-06;-0.0012952451614870928
7.10650e-06;-0.0012715809533580444
7.10675e-06;-0.0012414303084645301
7.10700e-06;-0.0012074785365531813
7.10725e-06;-0.0011676652299012738
7.10750e-06;-0.0011244169960502285
7.10775e-06;-0.0010757557828430292
7.10800e-06;-0.0010239225010838565
7.10825e-06;-0.0009669664136840354
7.10850e-06;-0.0009070083028875446
7.10875e-06;-0.0008427610417904166
7.10900e-06;-0.0007760002889746634
7.10925e-06;-0.0007059165489064212
7.10950e-06;-0.0006338854998485799
7.10975e-06;-0.0005593869924674289
7.11000e-06;-0.0004834425259510534
7.11025e-06;-0.00040558409895605815
7.11050e-06;-0.0003266040689683088
7.11075e-06;-0.0002476240389808271
7.11100e-06;-0.00016836744510358132
7.11125e-06;-8.894878158574026e-05
7.11150e-06;-1.0248225988668507e-05
7.11175e-06;6.718651698254948e-05
7.11200e-06;0.00014304310312155877
7.11225e-06;0.0002169156768864331
7.11250e-06;0.00028833407560537055
7.11275e-06;0.0003567860509820216
7.11300e-06;0.00042175109398177407
7.11325e-06;0.00048270871170097825
7.11350e-06;0.0005391402095679433
7.11375e-06;0.000590602852887177
7.11400e-06;0.000636854624658032
7.11425e-06;0.0006778195059417211
7.11450e-06;0.0007134335580903764
7.11475e-06;0.0007435929321880704
7.11500e-06;0.0007681811547051053
7.11525e-06;0.0007870817154114543
7.11550e-06;0.000800179367092871
7.11575e-06;0.0008074063719125585
7.11600e-06;0.0008088207864130779
7.11625e-06;0.0008045846069481246
7.11650e-06;0.0007948674254604712
7.11675e-06;0.0007798137762224401
7.11700e-06;0.0007595602878077657
7.11725e-06;0.0007342436685050595
7.11750e-06;0.0007040013087215087
7.11775e-06;0.0006690003832136712
7.11800e-06;0.0006294868775478052
7.11825e-06;0.0005857717861632425
7.11850e-06;0.0005381709398062715
7.11875e-06;0.0004869844472567104
7.11900e-06;0.0004325073998481943
7.11925e-06;0.0003750349471225752
7.11950e-06;0.0003148626087843739
7.11975e-06;0.0002523045968087506
7.12000e-06;0.00018772443796157858
7.12025e-06;0.00012152640345445229
7.12050e-06;5.41177011104422e-05
7.12075e-06;-1.4104314654106582e-05
7.12100e-06;-8.270737498843785e-05
7.12125e-06;-0.00015138916978946616
7.12150e-06;-0.00021941541562164884
7.12175e-06;-0.0002870574906312929
7.12200e-06;-0.0003535373660528204
7.12225e-06;-0.00041817082321978736
7.12250e-06;-0.0004806650497505417
7.12275e-06;-0.0005405619884696921
7.12300e-06;-0.0005974056190548516
7.12325e-06;-0.0006507399426906002
7.12350e-06;-0.000700123127013153
7.12375e-06;-0.0007449230357788298
7.12400e-06;-0.000787927292219302
7.12425e-06;-0.0008292548976634928
7.12450e-06;-0.000869599966218818
7.12475e-06;-0.0009077288902912523
7.12500e-06;-0.0009445591280474252
7.12525e-06;-0.000981389365803598
7.12550e-06;-0.0010136125775404557
7.12575e-06;-0.0010431360187093345
7.12600e-06;-0.001072659459878213
7.12625e-06;-0.0011021829010471919
7.12650e-06;-0.0011317063422160707
7.12675e-06;-0.0011612297833850495
7.12700e-06;-0.0011907532245539283
7.12725e-06;-0.0012169113731027316
7.12750e-06;-0.0012410974212273313
7.12775e-06;-0.001265283469351849
7.12800e-06;-0.0012894695174763666
7.12825e-06;-0.0013136555656009664
7.12850e-06;-0.001337841613725484
7.12875e-06;-0.0013620276618500017
7.12900e-06;-0.0013823041486953935
7.12925e-06;-0.0014002895873830583
7.12950e-06;-0.0014182750260707231
7.12975e-06;-0.001436260464758449
7.13000e-06;-0.0014542459034461136
7.13025e-06;-0.0014722313421337784
7.13050e-06;-0.0014902167808215042
7.13075e-06;-0.001508202219509169
7.13100e-06;-0.0015261876581968948
7.13125e-06;-0.0015441730968845594
7.13150e-06;-0.0015621585355722243
7.13175e-06;-0.00158014397425995
7.13200e-06;-0.001598129412947615
7.13225e-06;-0.0016161148516352798
7.13250e-06;-0.0016341002903230055
7.13275e-06;-0.0016507219081622559
7.13300e-06;-0.0016582576071361007
7.13325e-06;-0.0016657933061099712
7.13350e-06;-0.001673329005083816
7.13375e-06;-0.0016808647040576611
7.13400e-06;-0.0016884004030315316
7.13425e-06;-0.0016959361020053765
7.13450e-06;-0.0017034718009792216
7.13475e-06;-0.001711007499953092
7.13500e-06;-0.0017185431989269369
7.13525e-06;-0.0017260788979008073
7.13550e-06;-0.0017336145968746524
7.13575e-06;-0.0017411502958484973
7.13600e-06;-0.0017486859948223678
7.13625e-06;-0.0017562216937962128
7.13650e-06;-0.0017637573927700577
7.13675e-06;-0.0017659866205239844
7.13700e-06;-0.0017651061947280718
7.13725e-06;-0.0017642257689321592
7.13750e-06;-0.0017633453431362435
7.13775e-06;-0.001762464917340331
7.13800e-06;-0.0017615844915444183
7.13825e-06;-0.0017607040657485027
7.13850e-06;-0.00175982363995259
7.13875e-06;-0.0017589432141566774
7.13900e-06;-0.0017580627883607618
7.13925e-06;-0.0017571823625648492
7.13950e-06;-0.0017563019367689335
7.13975e-06;-0.0017550302575789817
7.14000e-06;-0.0017511520068608643
7.14025e-06;-0.0017472737561427339
7.14050e-06;-0.0017433955054246167
7.14075e-06;-0.0017395172547064993
7.14100e-06;-0.0017356390039883689
7.14125e-06;-0.0017317607532702517
7.14150e-06;-0.0017278825025521343
7.14175e-06;-0.0017240042518340039
7.14200e-06;-0.0017201260011158867
7.14225e-06;-0.0017162477503977693
7.14250e-06;-0.0017123694996796389
7.14275e-06;-0.0017084912489615217
7.14300e-06;-0.0017043662538790633
7.14325e-06;-0.001700096663743385
7.14350e-06;-0.0016958270736077213
7.14375e-06;-0.001691557483472043
7.14400e-06;-0.0016872878933363793
7.14425e-06;-0.0016830183032007155
7.14450e-06;-0.001673385915734151
7.14475e-06;-0.0016606108669653824
7.14500e-06;-0.0016478358181966136
7.14525e-06;-0.0016350607694278017
7.14550e-06;-0.0016222857206590329
7.14575e-06;-0.001609510671890264
7.14600e-06;-0.0015910148109174107
7.14625e-06;-0.0015691664877833262
7.14650e-06;-0.0015473181646492415
7.14675e-06;-0.0015212135199473894
7.14700e-06;-0.0014926146215465264
7.14725e-06;-0.0014640157231456633
7.14750e-06;-0.0014320982538034255
7.14775e-06;-0.0013982360634823376
7.14800e-06;-0.001364373873161135
7.14825e-06;-0.001326121350504926
7.14850e-06;-0.0012852960422890243
7.14875e-06;-0.0012444707340729844
7.14900e-06;-0.0012036454258570828
7.14925e-06;-0.001162820117641181
7.14950e-06;-0.0011213956231438187
7.14975e-06;-0.001075979286213899
7.15000e-06;-0.0010305629492839796
7.15025e-06;-0.000985146612353906
7.15050e-06;-0.0009397302754239865
7.15075e-06;-0.0008943139384940668
7.15100e-06;-0.000849305976035569
7.15125e-06;-0.0008045373257438575
7.15150e-06;-0.0007597686754521461
7.15175e-06;-0.0007150000251602831
7.15200e-06;-0.0006709457378858482
7.15225e-06;-0.0006316506126504438
7.15250e-06;-0.0005923554874151725
7.15275e-06;-0.0005530603621799013
7.15300e-06;-0.0005137652369444969
7.15325e-06;-0.00047798152419457115
7.15350e-06;-0.00044593011720961363
7.15375e-06;-0.00041700684585812783
7.15400e-06;-0.0003893416322927857
7.15425e-06;-0.00036297783306926944
7.15450e-06;-0.00033810740606964284
7.15475e-06;-0.00031497770145912346
7.15500e-06;-0.0002926171412077236
7.15525e-06;-0.0002717853466702331
7.15550e-06;-0.00025300819461173763
7.15575e-06;-0.00023600749864274484
7.15600e-06;-0.00022044221569063102
7.15625e-06;-0.00020589319244920695
7.15650e-06;-0.00019220338378401686
7.15675e-06;-0.00017942317304553155
7.15700e-06;-0.00016764746560475128
7.15725e-06;-0.00015697112159860358
7.15750e-06;-0.0001474860910590084
7.15775e-06;-0.00013917934015057003
7.15800e-06;-0.0001318246709246308
7.15825e-06;-0.0001251469644844496
7.15850e-06;-0.00011903531362176146
7.15875e-06;-0.0001135087337456432
7.15900e-06;-0.00010861412646808423
7.15925e-06;-0.00010439836698556127
7.15950e-06;-0.00010090650305871708
7.15975e-06;-9.811781459955113e-05
7.16000e-06;-9.587806405132098e-05
7.16025e-06;-9.400238764298328e-05
7.16050e-06;-9.240879426910245e-05
7.16075e-06;-9.119269094620537e-05
7.16100e-06;-9.013915774952325e-05
7.16125e-06;-8.949034788870158e-05
7.16150e-06;-8.907871058667776e-05
7.16175e-06;-8.90193292136118e-05
7.16200e-06;-8.916637389167524e-05
7.16225e-06;-8.931341856973919e-05
7.16250e-06;-8.949280952152607e-05
7.16275e-06;-8.969115576406752e-05
7.16300e-06;-8.987928775603231e-05
7.16325e-06;-9.005298375351868e-05
7.16350e-06;-9.020428118943448e-05
7.16375e-06;-9.005040993120264e-05
7.16400e-06;-8.878605096508296e-05
7.16425e-06;-8.556870924360458e-05
7.16450e-06;-8.007351567918843e-05
7.16475e-06;-7.235096832089102e-05
7.16500e-06;-6.25293549541104e-05
7.16525e-06;-5.073693963728072e-05
7.16550e-06;-3.7097108251091583e-05
7.16575e-06;-2.156221815306112e-05
7.16600e-06;-3.757329823751672e-06
7.16625e-06;1.6715747574263254e-05
7.16650e-06;3.993093226940158e-05
7.16675e-06;6.572701381792314e-05
7.16700e-06;9.38940663509786e-05
7.16725e-06;0.00012422219051547604
7.16750e-06;0.0001565045488479101
7.16775e-06;0.0001906414532990017
7.16800e-06;0.00022673822533774159
7.16825e-06;0.0002649147407898308
7.16850e-06;0.0003050877594632082
7.16875e-06;0.00034747073534966387
7.16900e-06;0.0003907307562520442
7.16925e-06;0.00043568695289885115
7.16950e-06;0.00048163712816183876
7.16975e-06;0.0005275873034248264
7.17000e-06;0.0005749411043494602
7.17025e-06;0.0006231174461559986
7.17050e-06;0.000671293787962537
7.17075e-06;0.0007194701297692386
7.17100e-06;0.000767192438618356
7.17125e-06;0.0008146486788998187
7.17150e-06;0.0008621049191814422
7.17175e-06;0.0009095611594629048
7.17200e-06;0.0009546388548695991
7.17225e-06;0.0009983226954525153
7.17250e-06;0.0010420065360352833
7.17275e-06;0.0010820899446586263
7.17300e-06;0.0011200634584854828
7.17325e-06;0.0011580369723122107
7.17350e-06;0.0011917168400060745
7.17375e-06;0.0012228805813748749
7.17400e-06;0.0012499693758038382
7.17425e-06;0.0012746702041661782
7.17450e-06;0.001295117793814728
7.17475e-06;0.0013130729363537226
7.17500e-06;0.001326620183625941
7.17525e-06;0.0013375843532585844
7.17550e-06;0.001343993311201948
7.17575e-06;0.0013477328623773465
7.17600e-06;0.0013469336437561172
7.17625e-06;0.0013434746535063344
7.17650e-06;0.0013346739688000183
7.17675e-06;0.001322742989322156
7.17700e-06;0.0013108120098442933
7.17725e-06;0.0012929540461241692
7.17750e-06;0.0012716228010445326
7.17775e-06;0.0012502915559648238
7.17800e-06;0.0012237610516641622
7.17825e-06;0.001194183721288451
7.17850e-06;0.0011646063909126396
7.17875e-06;0.0011308896427825973
7.17900e-06;0.0010947471479426708
7.17925e-06;0.0010586046531026216
7.17950e-06;0.0010189403391024894
7.17975e-06;0.0009772121983161834
7.18000e-06;0.0009354840575297363
7.18025e-06;0.0008937559167434304
7.18050e-06;0.0008517139427635027
7.18075e-06;0.0008075811788295654
7.18100e-06;0.0007634484148957778
7.18125e-06;0.0007193156509619901
7.18150e-06;0.0006751828870280529
7.18175e-06;0.0006322219912663512
7.18200e-06;0.0005899478238154421
7.18225e-06;0.0005476736563646764
7.18250e-06;0.0005075804038290976
7.18275e-06;0.00046876519267351435
7.18300e-06;0.000431812365346267
7.18325e-06;0.00039743841232542447
7.18350e-06;0.0003656008723600431
7.18375e-06;0.0003363243477291212
7.18400e-06;0.0003091031771249138
7.18425e-06;0.0002833082757567499
7.18450e-06;0.0002587166359762705
7.18475e-06;0.0002354272392691807
7.18500e-06;0.00021360828584678125
7.18525e-06;0.00019342794459669332
7.18550e-06;0.00017504985789410765
7.18575e-06;0.00015847435266879193
7.18600e-06;0.0001433696036098046
7.18625e-06;0.00012932650709560094
7.18650e-06;0.00011619036830930288
7.18675e-06;0.00010400819271872382
7.18700e-06;9.287031481515361e-05
7.18725e-06;8.286704457374649e-05
7.18750e-06;7.40858579541058e-05
7.18775e-06;6.651192333451616e-05
7.18800e-06;5.992235954017104e-05
7.18825e-06;5.404590215856222e-05
7.18850e-06;4.877065096125151e-05
7.18875e-06;4.411106930080803e-05
7.18900e-06;4.010875674942137e-05
7.18925e-06;3.6805295404846286e-05
7.18950e-06;3.424047820802126e-05
7.18975e-06;3.239001396734735e-05
7.19000e-06;3.109930310566128e-05
7.19025e-06;3.0183447130848696e-05
7.19050e-06;2.9557391219832803e-05
7.19075e-06;2.9215232095198218e-05
7.19100e-06;2.916806733107695e-05
7.19125e-06;2.94269765090035e-05
7.19150e-06;3.0001922769608042e-05
7.19175e-06;3.0900583292325274e-05
7.19200e-06;3.191976942159838e-05
7.19225e-06;3.296358111580397e-05
7.19250e-06;3.402182367605186e-05
7.19275e-06;3.503858876356446e-05
7.19300e-06;3.5996681997772145e-05
7.19325e-06;3.689522928124092e-05
7.19350e-06;3.773140683488409e-05
