Time(s);Current(A)
1.22500e-05;1.544052202062838e-05
1.22503e-05;3.7900552011640245e-06
1.22505e-05;-6.0985884804621345e-06
1.22508e-05;-1.418598145519818e-05
1.22510e-05;-2.04139452903742e-05
1.22513e-05;-2.472434230839457e-05
1.22515e-05;-2.706270430429597e-05
1.22518e-05;-2.7502401053957566e-05
1.22520e-05;-2.633435198429171e-05
1.22523e-05;-2.3848305375777016e-05
1.22525e-05;-2.0160330885546305e-05
1.22528e-05;-1.5295603990185267e-05
1.22530e-05;-9.267553098444077e-06
1.22532e-05;-2.0896319911117567e-06
1.22535e-05;6.222402492432718e-06
1.22538e-05;1.5572721089473962e-05
1.22540e-05;2.5729234830020654e-05
1.22543e-05;3.646060612239104e-05
1.22545e-05;4.764429924175111e-05
1.22548e-05;5.9214729813295456e-05
1.22550e-05;7.122136350180671e-05
1.22553e-05;8.330530664925181e-05
1.22555e-05;9.567077282079939e-05
1.22558e-05;0.00010809485849800616
1.22560e-05;0.00012051894417529712
1.22563e-05;0.00013244634861705524
1.22565e-05;0.00014427033271280186
1.22568e-05;0.00015523135343607566
1.22570e-05;0.0001660126855298323
1.22573e-05;0.00017564993369942336
1.22575e-05;0.0001850489575377646
1.22578e-05;0.00019383982829227067
1.22580e-05;0.00020250406772301204
1.22583e-05;0.00021236169346330067
1.22585e-05;0.00022246780941450348
1.22588e-05;0.00023386491678842347
1.22590e-05;0.0002455308379810397
1.22593e-05;0.0002580933917335334
1.22595e-05;0.0002708426448071542
1.22598e-05;0.0002846060203075012
1.22600e-05;0.00029858055919535214
1.22603e-05;0.00031447936651199257
1.22605e-05;0.00033077885034396446
1.22608e-05;0.000348845258922661
1.22610e-05;0.00036727958147808555
1.22613e-05;0.0003872842696183104
1.22615e-05;0.0004076159436409105
1.22617e-05;0.0004279476176633728
1.22620e-05;0.00045028951861601616
1.22623e-05;0.000473049994601722
1.22625e-05;0.0004958104705874278
1.22628e-05;0.0005206880832049843
1.22630e-05;0.0005460065318907713
1.22633e-05;0.0005713249805765581
1.22635e-05;0.0005966434292621735
1.22638e-05;0.0006219618779479605
1.22640e-05;0.0006475814422335281
1.22643e-05;0.000673818873469639
1.22645e-05;0.0007000563047059278
1.22648e-05;0.0007262937359422166
1.22650e-05;0.0007525311671783276
1.22653e-05;0.0007787685984146162
1.22655e-05;0.0008030389226681142
1.22658e-05;0.0008268996504434558
1.22660e-05;0.0008507603782189591
1.22663e-05;0.0008746211059944624
1.22665e-05;0.000898481833769804
1.22668e-05;0.0009202877702478931
1.22670e-05;0.000937877426884012
1.22673e-05;0.0009554670835200118
1.22675e-05;0.0009730567401561306
1.22678e-05;0.0009906463967922494
1.22680e-05;0.0010082360534282493
1.22683e-05;0.0010188793670900893
1.22685e-05;0.001028076293929739
1.22688e-05;0.0010372732207693264
1.22690e-05;0.0010408147037195697
1.22693e-05;0.001043178594439491
1.22695e-05;0.0010455424851593962
1.22698e-05;0.0010420638796108175
1.22700e-05;0.0010373687332662048
1.22702e-05;0.001032673586921624
1.22705e-05;0.0010221489197826102
1.22708e-05;0.0010104104136368082
1.22710e-05;0.0009986719074910064
1.22713e-05;0.0009817347005674608
1.22715e-05;0.0009637150057325132
1.22718e-05;0.0009456953108975656
1.22720e-05;0.0009230505500746815
1.22723e-05;0.0008994427451690583
1.22725e-05;0.0008758349402634351
1.22728e-05;0.0008485033348805625
1.22730e-05;0.0008203963494220793
1.22733e-05;0.000792289363963596
1.22735e-05;0.0007611561435834266
1.22738e-05;0.0007293927921645209
1.22740e-05;0.0006976294407456151
1.22743e-05;0.0006658660893269245
1.22745e-05;0.0006336275884604323
1.22748e-05;0.0006004141160527071
1.22750e-05;0.0005672006436452071
1.22753e-05;0.000533987171237482
1.22755e-05;0.0005007736988297568
1.22758e-05;0.00046888923025632356
1.22760e-05;0.00043728149055135207
1.22763e-05;0.00040567375084638057
1.22765e-05;0.0003762205540885099
1.22768e-05;0.0003472159822455489
1.22770e-05;0.00032003966353466405
1.22773e-05;0.00029470405866089246
1.22775e-05;0.0002713179737795947
1.22778e-05;0.0002502526627875162
1.22780e-05;0.00023207856514334844
1.22783e-05;0.000217235561055429
1.22785e-05;0.0002058573597748146
1.22787e-05;0.00019794104409544746
1.22790e-05;0.00019346697896313933
1.22793e-05;0.00019241556746862017
1.22795e-05;0.000194770089221791
1.22798e-05;0.00020060655780773754
1.22800e-05;0.0002101257260529544
1.22803e-05;0.00022344656594081285
1.22805e-05;0.00024049626167906664
1.22808e-05;0.00026111637394629725
1.22810e-05;0.0002851380854786836
1.22813e-05;0.00031239253383905677
1.22815e-05;0.000342712662705559
1.22818e-05;0.00037598955778296974
1.22820e-05;0.0004121924302553007
1.22823e-05;0.00045123921642419636
1.22825e-05;0.0004938964967364775
1.22828e-05;0.0005372041024013612
1.22830e-05;0.0005839523364862244
1.22833e-05;0.0006314169877746891
1.22835e-05;0.0006819820788151838
1.22838e-05;0.0007331927520306725
1.22840e-05;0.000784403425246161
1.22843e-05;0.0008379801847267883
1.22845e-05;0.0008920496172602379
1.22848e-05;0.0009461190497936876
1.22850e-05;0.0010001884823267707
1.22853e-05;0.0010536052307135457
1.22855e-05;0.0011056827194803219
1.22858e-05;0.0011577602082467452
1.22860e-05;0.0012098376970135214
1.22863e-05;0.0012619151857802976
1.22865e-05;0.0013088083410024212
1.22868e-05;0.0013546219998980132
1.22870e-05;0.0014004356587936052
1.22872e-05;0.0014392900634765027
1.22875e-05;0.0014766953929225006
1.22878e-05;0.0015141007223684983
1.22880e-05;0.001547021901402737
1.22883e-05;0.0015790093781860143
1.22885e-05;0.0016109968549695086
1.22888e-05;0.001637859715365955
1.22890e-05;0.0016636555139075513
1.22893e-05;0.0016894513124493223
1.22895e-05;0.0017152471109910933
1.22898e-05;0.0017410429095326896
1.22900e-05;0.0017668387080744606
1.22903e-05;0.0017926345066162316
1.22905e-05;0.001818430305157828
1.22908e-05;0.001844226103699599
1.22910e-05;0.001865386928002194
1.22913e-05;0.001885582645097558
1.22915e-05;0.001905778362193059
1.22918e-05;0.0019259740792885599
1.22920e-05;0.001946169796383924
1.22923e-05;0.001966365513479425
1.22925e-05;0.001986561230574926
1.22928e-05;0.0020067569476702896
1.22930e-05;0.002026952664765791
1.22933e-05;0.002044310703488977
1.22935e-05;0.002061077872941239
1.22938e-05;0.002077845042393615
1.22940e-05;0.002094612211845991
1.22943e-05;0.002111379381298253
1.22945e-05;0.0021281465507506287
1.22948e-05;0.002144913720203005
1.22950e-05;0.002161680889655267
1.22953e-05;0.0021784480591076428
1.22955e-05;0.0021915511773580444
1.22957e-05;0.0022038913566920447
1.22960e-05;0.0022162315360261292
1.22963e-05;0.0022285717153602133
1.22965e-05;0.0022409118946942136
1.22968e-05;0.002253252074028298
1.22970e-05;0.002265592253362382
1.22973e-05;0.002277932432696466
1.22975e-05;0.002290272612030467
1.22978e-05;0.0022968508458129206
1.22980e-05;0.002302229311291564
1.22983e-05;0.0023076077767701705
1.22985e-05;0.002304902264949969
1.22988e-05;0.0023005134849272977
1.22990e-05;0.002296124704904657
1.22993e-05;0.0022840024780886713
1.22995e-05;0.002270269971505506
1.22998e-05;0.0022565374649224338
1.23000e-05;0.002233962365451291
1.23003e-05;0.0022095460367330265
1.23005e-05;0.0021851297080149267
1.23008e-05;0.002151768010376328
1.23010e-05;0.0021165436831796507
1.23013e-05;0.0020813193559832115
1.23015e-05;0.0020386979165594016
1.23018e-05;0.0019945362298856412
1.23020e-05;0.00195037454321218
1.23023e-05;0.0018991684588075474
1.23025e-05;0.0018464955703448053
1.23028e-05;0.00179382268188242
1.23030e-05;0.0017348861530895046
1.23033e-05;0.0016746453917125873
1.23035e-05;0.001614404630336078
1.23038e-05;0.0015541638689591606
1.23040e-05;0.0014939231075822433
1.23042e-05;0.0014304909576946703
1.23045e-05;0.001366394288028201
1.23048e-05;0.001302297618361732
1.23050e-05;0.0012382009486956974
1.23053e-05;0.0011741042790292281
1.23055e-05;0.0011120405706716199
1.23058e-05;0.0010504001711634417
1.23060e-05;0.0009887597716556813
1.23063e-05;0.0009305568931973522
1.23065e-05;0.0008730697849183326
1.23068e-05;0.0008197588361873563
1.23070e-05;0.0007673174589946206
1.23073e-05;0.000718867437196285
1.23075e-05;0.0006743551529633897
1.23078e-05;0.0006346217733723884
1.23080e-05;0.0005957487765615647
1.23083e-05;0.0005596720265348881
1.23085e-05;0.0005258339633046691
1.23088e-05;0.0004951926276595475
1.23090e-05;0.0004651451055004578
1.23093e-05;0.0004383166972926855
1.23095e-05;0.00041454154862477196
1.23098e-05;0.0003935493947672816
1.23100e-05;0.0003748205047434175
1.23103e-05;0.000357850507225588
1.23105e-05;0.00034251714399694867
1.23108e-05;0.00032889570782026697
1.23110e-05;0.00031708695615669706
1.23113e-05;0.0003071915982910799
1.23115e-05;0.000299305395409471
1.23118e-05;0.0002933527773826606
1.23120e-05;0.00028896993223406536
1.23123e-05;0.00028580275334074714
1.23125e-05;0.00028373644679982905
1.23127e-05;0.00028325138735414587
1.23130e-05;0.0002830564935534917
1.23133e-05;0.0002847868196621149
1.23135e-05;0.0002869180204068781
1.23138e-05;0.00029042633915870594
1.23140e-05;0.00029422140524643954
1.23143e-05;0.00029743147524479736
1.23145e-05;0.00030250965253136663
1.23148e-05;0.00030899279336009383
1.23150e-05;0.0003143310758220158
1.23153e-05;0.0003239525364794215
1.23155e-05;0.00032910291125951105
1.23158e-05;0.0003378837465462829
1.23160e-05;0.0003447977693039473
1.23163e-05;0.00035171179206165855
1.23165e-05;0.00035862581481936975
1.23168e-05;0.0003655398375770341
1.23170e-05;0.00037245386033474536
1.23173e-05;0.00037837048417329656
1.23175e-05;0.0003835974359976614
1.23178e-05;0.0003888243878220616
1.23180e-05;0.0003940513396464618
1.23183e-05;0.0003992782914708266
1.23185e-05;0.00040450524329522684
1.23188e-05;0.00040992751093051267
1.23190e-05;0.00041555698802160814
1.23193e-05;0.0004211864651127417
1.23195e-05;0.00042681594220387534
1.23198e-05;0.00043244541929497076
1.23200e-05;0.0004380748963861044
1.23203e-05;0.00044370437347723797
1.23205e-05;0.00044933385056833343
1.23208e-05;0.000454963327659467
1.23210e-05;0.0004605928047506006
1.23212e-05;0.00046622228184169605
1.23215e-05;0.00047185175893282963
1.23218e-05;0.00047748123602396326
1.23220e-05;0.0004843086380294287
1.23223e-05;0.0004911540033078515
1.23225e-05;0.0004979993685862744
1.23228e-05;0.0005048447338646972
1.23230e-05;0.0005116900991430736
1.23233e-05;0.0005185354644214965
1.23235e-05;0.0005253808296999193
1.23238e-05;0.0005322261949782958
1.23240e-05;0.0005390715602567185
1.23243e-05;0.0005459169255351414
1.23245e-05;0.0005527622908135178
1.23248e-05;0.0005596076560919407
1.23250e-05;0.0005661646415349475
1.23253e-05;0.0005724156864167457
1.23255e-05;0.0005786667312985863
1.23258e-05;0.0005849177761804268
1.23260e-05;0.0005911688210622249
1.23263e-05;0.0005974198659440656
1.23265e-05;0.0006036709108259061
1.23268e-05;0.0006099219557077042
1.23270e-05;0.0006146740307656605
1.23273e-05;0.0006194036282845019
1.23275e-05;0.0006241332258033113
1.23278e-05;0.0006288628233221526
1.23280e-05;0.0006335924208409941
1.23283e-05;0.0006383220183598035
1.23285e-05;0.0006430516158786449
1.23288e-05;0.0006485745831260632
1.23290e-05;0.0006549392318996655
1.23293e-05;0.0006613038806733109
1.23295e-05;0.0006676685294469562
1.23297e-05;0.0006740331782205584
1.23300e-05;0.0006803978269942038
1.23303e-05;0.0006867624757678492
1.23305e-05;0.0006931271245414513
1.23308e-05;0.0006994917733150967
1.23310e-05;0.0007058564220887421
1.23313e-05;0.0007122210708623874
1.23315e-05;0.0007185857196359897
1.23318e-05;0.000726294202942262
1.23320e-05;0.0007354283528196165
1.23323e-05;0.0007445625026969091
1.23325e-05;0.0007536966525742636
1.23328e-05;0.0007628308024516181
1.23330e-05;0.0007719649523289107
1.23333e-05;0.0007810991022062652
1.23335e-05;0.0007902332520836197
1.23338e-05;0.0007993674019609123
1.23340e-05;0.0008085015518382668
1.23343e-05;0.0008176357017156213
1.23345e-05;0.0008267698515929139
1.23348e-05;0.000835876287630929
1.23350e-05;0.0008449533222111398
1.23353e-05;0.0008540303567912891
1.23355e-05;0.0008631073913715
1.23358e-05;0.0008721844259517108
1.23360e-05;0.0008812614605318602
1.23363e-05;0.000890338495112071
1.23365e-05;0.0008994155296922819
1.23368e-05;0.0009054427899384418
1.23370e-05;0.0009114243178282101
1.23373e-05;0.0009174058457179783
1.23375e-05;0.0009233873736077061
1.23378e-05;0.0009293689014974744
1.23380e-05;0.0009353504293872427
1.23382e-05;0.0009413319572769705
1.23385e-05;0.0009434709990481756
1.23388e-05;0.0009415335686962004
1.23390e-05;0.0009395961383442383
1.23393e-05;0.0009376587079922631
1.23395e-05;0.0009357212776402879
1.23398e-05;0.0009337838472883127
1.23400e-05;0.0009318464169363506
1.23403e-05;0.0009299089865843754
1.23405e-05;0.0009279715562324002
1.23408e-05;0.0009260341258804381
1.23410e-05;0.0009197418079454157
1.23413e-05;0.00090882941402714
1.23415e-05;0.0008979170201089382
1.23418e-05;0.0008870046261906625
1.23420e-05;0.0008760922322723868
1.23423e-05;0.000865179838354185
1.23425e-05;0.0008542674444359093
1.23428e-05;0.0008433550505176335
1.23430e-05;0.0008324426565994318
1.23433e-05;0.0008215302626811561
1.23435e-05;0.0008086119827698047
1.23438e-05;0.0007935656695797904
1.23440e-05;0.0007785193563896739
1.23443e-05;0.0007634730431995576
1.23445e-05;0.0007484267300095433
1.23448e-05;0.0007333804168194269
1.23450e-05;0.0007183341036293106
1.23453e-05;0.0007037208450794451
1.23455e-05;0.0006891140803244483
1.23458e-05;0.0006745073155694514
1.23460e-05;0.0006599005508145535
1.23463e-05;0.0006452937860595568
1.23465e-05;0.0006306870213045599
1.23467e-05;0.0006173122351669937
1.23470e-05;0.0006052444482834309
1.23473e-05;0.0005931766613998681
1.23475e-05;0.0005824973249690012
1.23478e-05;0.0005732909878908372
1.23480e-05;0.0005640846508126731
1.23483e-05;0.0005566394045630772
1.23485e-05;0.0005510624897658884
1.23488e-05;0.0005454855749686618
1.23490e-05;0.0005417574859147941
1.23493e-05;0.0005399908057958599
1.23495e-05;0.0005382241256769136
1.23498e-05;0.0005383675699418168
1.23500e-05;0.000540537454527893
1.23503e-05;0.0005427073391139837
1.23505e-05;0.0005467265013455932
1.23508e-05;0.0005527075519325149
1.23510e-05;0.0005586886025194772
1.23513e-05;0.0005663279926891215
1.23515e-05;0.0005757267060865408
1.23518e-05;0.0005851254194840238
1.23520e-05;0.0005959853113324899
1.23523e-05;0.0006083953592621398
1.23525e-05;0.0006208054071918737
1.23528e-05;0.0006348314636416486
1.23530e-05;0.0006505719345306381
1.23533e-05;0.0006663124054197341
1.23535e-05;0.0006820528763088302
1.23538e-05;0.0006977933471978196
1.23540e-05;0.0007135338180869157
1.23543e-05;0.0007292742889760118
1.23545e-05;0.0007465425558843129
1.23548e-05;0.0007638337325902923
1.23550e-05;0.0007811249092962716
1.23552e-05;0.0007984160860021338
1.23555e-05;0.0008157072627081132
1.23558e-05;0.0008329984394140926
1.23560e-05;0.0008490898775329604
1.23563e-05;0.0008639085196662031
1.23565e-05;0.0008787271617994458
1.23568e-05;0.0008935458039326886
1.23570e-05;0.0009083644460658308
1.23573e-05;0.0009231830881990736
1.23575e-05;0.0009345358340267562
1.23578e-05;0.0009422116297649791
1.23580e-05;0.0009498874255032539
1.23583e-05;0.0009575632212415288
1.23585e-05;0.0009652390169797516
1.23588e-05;0.0009729148127180265
1.23590e-05;0.0009768330846456265
1.23593e-05;0.0009767650204874651
1.23595e-05;0.0009766969563293033
1.23598e-05;0.0009739767539114662
1.23600e-05;0.0009684429127833406
1.23603e-05;0.0009629090716551774
1.23605e-05;0.0009547176976857235
1.23608e-05;0.0009437069619244239
1.23610e-05;0.0009326962261630497
1.23613e-05;0.0009193550311386321
1.23615e-05;0.000903541464860073
1.23618e-05;0.0008877278985814067
1.23620e-05;0.000869825781896474
1.23623e-05;0.0008497079337163758
1.23625e-05;0.0008295900855361414
1.23628e-05;0.0008073414674800376
1.23630e-05;0.0007828323275285464
1.23633e-05;0.0007583231875768893
1.23635e-05;0.0007338140476252322
1.23637e-05;0.0007093049076737411
1.23640e-05;0.0006847957677220838
1.23643e-05;0.0006578166930382534
1.23645e-05;0.0006308005808808695
1.23648e-05;0.0006037844687233025
1.23650e-05;0.0005767683565657355
1.23653e-05;0.0005497522444081685
1.23655e-05;0.0005231765279898998
1.23658e-05;0.0004970680249586659
1.23660e-05;0.000470959521927432
1.23663e-05;0.0004457491932006827
1.23665e-05;0.0004214917325916043
1.23668e-05;0.00039833946924090774
1.23670e-05;0.00037635970350735273
1.23673e-05;0.00035582444291878853
1.23675e-05;0.00033682164979484294
1.23678e-05;0.0003190260849562179
1.23680e-05;0.000303254951562349
1.23683e-05;0.00028898679976710424
1.23685e-05;0.0002762117583321644
1.23688e-05;0.00026498131909502836
1.23690e-05;0.00025535430175708824
1.23693e-05;0.0002473895101778562
1.23695e-05;0.00024113918237387048
1.23698e-05;0.0002366052275023168
1.23700e-05;0.00023369988864715892
1.23703e-05;0.00023231013278517338
1.23705e-05;0.00023237738567549453
1.23708e-05;0.00023388151263373526
1.23710e-05;0.00023680699468728647
1.23713e-05;0.00024113826214679457
1.23715e-05;0.00024685564823996055
1.23718e-05;0.00025418876617378606
1.23720e-05;0.00026248575891996785
1.23723e-05;0.0002718100311125688
1.23725e-05;0.00028222413834958
1.23728e-05;0.00029352952367611674
1.23730e-05;0.0003057804609646607
1.23733e-05;0.000318960621999425
1.23735e-05;0.00033312659133210513
1.23738e-05;0.00034729256066478524
1.23740e-05;0.0003622814155245223
1.23743e-05;0.0003781432650579162
1.23745e-05;0.0003940051145913102
1.23748e-05;0.0004098669641245967
1.23750e-05;0.0004257288136579907
1.23753e-05;0.00044154425849184483
1.23755e-05;0.00045731047283825114
1.23758e-05;0.0004730766871847643
1.23760e-05;0.0004888429015312774
1.23763e-05;0.0005046091158776838
1.23765e-05;0.00051939368112421
1.23768e-05;0.0005331368203067379
1.23770e-05;0.0005468799594891727
1.23773e-05;0.0005594941530153022
1.23775e-05;0.0005709106543809042
1.23778e-05;0.0005823271557464288
1.23780e-05;0.0005946393271252537
1.23783e-05;0.0006079017098337436
1.23785e-05;0.0006211640925421437
1.23788e-05;0.0006362628548555863
1.23790e-05;0.0006533098220664553
1.23793e-05;0.0006703567892772088
1.23795e-05;0.0006889145123675331
1.23798e-05;0.0007090749879581098
1.23800e-05;0.00072923546354855
1.23803e-05;0.0007520003452359517
1.23805e-05;0.0007775282268495737
1.23808e-05;0.0008030561084630229
1.23810e-05;0.0008306881970080296
1.23813e-05;0.0008605526269699196
1.23815e-05;0.0008904170569316071
1.23818e-05;0.0009221066913353635
1.23820e-05;0.0009557326749684645
1.23823e-05;0.0009893586586015655
1.23825e-05;0.0010253146966677131
1.23828e-05;0.0010637426765082998
1.23830e-05;0.0011021706563488865
1.23833e-05;0.0011405986361892127
1.23835e-05;0.0011790266160297991
1.23838e-05;0.0012174545958703858
1.23840e-05;0.0012567880651804411
1.23843e-05;0.0012970821632273598
1.23845e-05;0.0013373762612742784
1.23848e-05;0.001377670359320924
1.23850e-05;0.0014179644573678429
1.23853e-05;0.0014582585554147615
1.23855e-05;0.0014960670653451674
1.23858e-05;0.0015312386286831237
1.23860e-05;0.0015664101920210797
1.23863e-05;0.0016015817553587976
1.23865e-05;0.0016367533186967538
1.23868e-05;0.00167192488203471
1.23870e-05;0.0017070964453724277
1.23873e-05;0.0017355430030182213
1.23875e-05;0.0017568550395697566
1.23878e-05;0.0017781670761211473
1.23880e-05;0.0017994791126726825
1.23883e-05;0.0018207911492242176
1.23885e-05;0.0018421031857756083
1.23888e-05;0.0018634152223271435
1.23890e-05;0.0018786149813611228
1.23893e-05;0.0018873302592092279
1.23895e-05;0.001896045537057392
1.23898e-05;0.0019009718603622498
1.23900e-05;0.0019018785028886338
1.23903e-05;0.0019027851454150241
1.23905e-05;0.0018976653482911487
1.23908e-05;0.0018861521348969292
1.23910e-05;0.0018746389215027878
1.23913e-05;0.0018631257081085683
1.23915e-05;0.0018516124947143488
1.23918e-05;0.0018400992813202074
1.23920e-05;0.0018285860679259879
1.23923e-05;0.0018170728545317684
1.23925e-05;0.00179932231147524
1.23928e-05;0.0017749546201082861
1.23930e-05;0.0017505869287413323
1.23933e-05;0.0017262192373745434
1.23935e-05;0.0017018515460075895
1.23938e-05;0.0016774838546406356
1.23940e-05;0.0016531161632738467
1.23943e-05;0.0016287484719068929
1.23945e-05;0.0016025617414121241
1.23948e-05;0.0015744452024349209
1.23950e-05;0.0015463286634575272
1.23953e-05;0.0015182121244801336
1.23955e-05;0.0014900955855029303
1.23958e-05;0.0014619790465255364
1.23960e-05;0.0014338625075481428
1.23963e-05;0.001410339608634145
1.23965e-05;0.0013868855928461676
