Time(s);Current(A)
8.00000e-07;0.00023202293434627447
8.00250e-07;0.00020632571913548747
8.00500e-07;0.00018215346419498492
8.00750e-07;0.00015954166353906755
8.01000e-07;0.00013864485599152495
8.01250e-07;0.00011916641534922443
8.01500e-07;0.00010016773598706153
8.01750e-07;8.084193029362911e-05
8.02000e-07;6.1017837335640754e-05
8.02250e-07;4.083927155941171e-05
8.02500e-07;2.0493341634146318e-05
8.02750e-07;1.6712398083289238e-07
8.03000e-07;-1.9978322484971707e-05
8.03250e-07;-4.006452157214754e-05
8.03500e-07;-6.06151087623161e-05
8.03750e-07;-8.207116484108781e-05
8.04000e-07;-0.0001044755182944493
8.04250e-07;-0.00012786528954444914
8.04500e-07;-0.00015157055226433551
8.04750e-07;-0.0001758000083085121
8.05000e-07;-0.00020026576503216935
8.05250e-07;-0.00022523930794417444
8.05500e-07;-0.00025044175537626773
8.05750e-07;-0.0002768447380803693
8.06000e-07;-0.0003037889090967842
8.06250e-07;-0.0003307330801131878
8.06500e-07;-0.00035837273738281695
8.06750e-07;-0.00038632591233109405
8.07000e-07;-0.0004142790872793711
8.07250e-07;-0.0004422322622276482
8.07500e-07;-0.00047019481066039727
8.07750e-07;-0.0004981975073930785
8.08000e-07;-0.0005262002041257599
8.08250e-07;-0.0005542029008584412
8.08500e-07;-0.0005822055975911226
8.08750e-07;-0.0006085217618111164
8.09000e-07;-0.0006340776554205741
8.09250e-07;-0.0006596335490300427
8.09500e-07;-0.0006851894426395113
8.09750e-07;-0.0007107453362489799
8.10000e-07;-0.0007351974458877443
8.10250e-07;-0.0007549218526130488
8.10500e-07;-0.0007746462593383449
8.10750e-07;-0.0007943706660636493
8.11000e-07;-0.0008140950727889538
8.11250e-07;-0.0008338194795142582
8.11500e-07;-0.0008498896955828342
8.11750e-07;-0.0008643126420371643
8.12000e-07;-0.0008787355884915006
8.12250e-07;-0.0008910599194087097
8.12500e-07;-0.0009024382171461988
8.12750e-07;-0.000913816514883688
8.13000e-07;-0.0009210095020540735
8.13250e-07;-0.0009263157965006753
8.13500e-07;-0.0009316220909472796
8.13750e-07;-0.0009369283853938836
8.14000e-07;-0.0009422346798404877
8.14250e-07;-0.0009475409742870918
8.14500e-07;-0.0009528472687336959
8.14750e-07;-0.0009581535631802979
8.15000e-07;-0.000963459857626902
8.15250e-07;-0.0009643866005424694
8.15500e-07;-0.0009633390890091527
8.15750e-07;-0.000962291577475836
8.16000e-07;-0.0009612440659425199
8.16250e-07;-0.0009601965544092032
8.16500e-07;-0.0009591490428758866
8.16750e-07;-0.0009581015313425699
8.17000e-07;-0.0009570540198092533
8.17250e-07;-0.0009560065082759367
8.17500e-07;-0.0009529526360273801
8.17750e-07;-0.0009489943180747199
8.18000e-07;-0.0009450360001220595
8.18250e-07;-0.0009410776821693992
8.18500e-07;-0.000937119364216739
8.18750e-07;-0.0009331610462640787
8.19000e-07;-0.0009291529137421616
8.19250e-07;-0.0009249314165669495
8.19500e-07;-0.0009207099193917372
8.19750e-07;-0.000916488422216525
8.20000e-07;-0.0009122669250413128
8.20250e-07;-0.0009080454278661024
8.20500e-07;-0.0009038239306908901
8.20750e-07;-0.0009001945221773349
8.21000e-07;-0.000896832020826793
8.21250e-07;-0.0008934695194762511
8.21500e-07;-0.0008893887919671223
8.21750e-07;-0.0008849842958760166
8.22000e-07;-0.000880579799784909
8.22250e-07;-0.0008741623421546148
8.22500e-07;-0.0008668374632401896
8.22750e-07;-0.0008595125843257643
8.23000e-07;-0.0008521877054113391
8.23250e-07;-0.000844862826496917
8.23500e-07;-0.0008375379475824917
8.23750e-07;-0.0008293555593948215
8.24000e-07;-0.0008175003065913038
8.24250e-07;-0.0008056450537877859
8.24500e-07;-0.0007937898009842731
8.24750e-07;-0.0007819345481807552
8.25000e-07;-0.0007700792953772374
8.25250e-07;-0.0007582240425737196
8.25500e-07;-0.0007439706602603693
8.25750e-07;-0.0007286362271087541
8.26000e-07;-0.0007133017939571453
8.26250e-07;-0.0006979673608055301
8.26500e-07;-0.0006823036743710942
8.26750e-07;-0.0006652297376106678
8.27000e-07;-0.0006481558008502415
8.27250e-07;-0.0006310818640898223
8.27500e-07;-0.000614007927329396
8.27750e-07;-0.0005881753009744524
8.28000e-07;-0.0005882413098898408
8.28250e-07;-0.0005660574373653204
8.28500e-07;-0.0005468911893251717
8.28750e-07;-0.0005279333791445059
8.29000e-07;-0.0005092589408774715
8.29250e-07;-0.0004901492493842583
8.29500e-07;-0.000471291536224249
8.29750e-07;-0.0004530075009985397
8.30000e-07;-0.00043472346577283044
8.30250e-07;-0.00041692928249036803
8.30500e-07;-0.00040025034291690125
8.30750e-07;-0.000383869441117932
8.31000e-07;-0.00036816708057544093
8.31250e-07;-0.00035236302036023353
8.31500e-07;-0.00033632742095901963
8.31750e-07;-0.00031977698139803285
8.32000e-07;-0.00030205440756821806
8.32250e-07;-0.00028388948013139146
8.32500e-07;-0.00026471744823333996
8.32750e-07;-0.00024512177280343626
8.33000e-07;-0.00022456159005601384
8.33250e-07;-0.00020359744643828033
8.33500e-07;-0.0001813454541145296
8.33750e-07;-0.00015785621864525856
8.34000e-07;-0.00013310314110730678
8.34250e-07;-0.00010723609082016248
8.34500e-07;-8.038124444599914e-05
8.34750e-07;-5.259683467400807e-05
8.35000e-07;-2.39698949197226e-05
8.35250e-07;5.4924692622837594e-06
8.35500e-07;3.58825527835088e-05
8.35750e-07;6.725080606588561e-05
8.36000e-07;9.9543396934515e-05
8.36250e-07;0.00013267902788044195
8.36500e-07;0.00016644810049598347
8.36750e-07;0.00020047218171008452
8.37000e-07;0.0002350768398499541
8.37250e-07;0.0002698191522717083
8.37500e-07;0.0003049587793496048
8.37750e-07;0.0003403505169759474
8.38000e-07;0.00037589017659670626
8.38250e-07;0.00041140439621993434
8.38500e-07;0.0004467290638029174
8.38750e-07;0.00048172674958420013
8.39000e-07;0.0005162487777947002
8.39250e-07;0.0005501778369500028
8.39500e-07;0.0005834355667729165
8.39750e-07;0.0006159272689935668
8.40000e-07;0.0006475172643802481
8.40250e-07;0.00067802659050278
8.40500e-07;0.0007072821102791807
8.40750e-07;0.0007351273412470342
8.41000e-07;0.0007613732048074094
8.41250e-07;0.0007857176436621786
8.41500e-07;0.0008077042348864958
8.41750e-07;0.0008269462321391661
8.42000e-07;0.0008433300418920683
8.42250e-07;0.0008568670278340261
8.42500e-07;0.0008675770348170787
8.42750e-07;0.0008754904847486592
8.43000e-07;0.0008806172703291406
8.43250e-07;0.0008828965150986486
8.43500e-07;0.0008816972925072751
8.43750e-07;0.0008772481899453542
8.44000e-07;0.000870987900592019
8.44250e-07;0.0008606040904425177
8.44500e-07;0.000848582649100277
8.44750e-07;0.000832832820210311
8.45000e-07;0.00081559152343016
8.45250e-07;0.0007949546084337297
8.45500e-07;0.0007728901320226762
8.45750e-07;0.0007475755329799286
8.46000e-07;0.0007207798106949195
8.46250e-07;0.000690612021806902
8.46500e-07;0.0006604442329188847
8.46750e-07;0.000629018731432092
8.47000e-07;0.0005947298013463084
8.47250e-07;0.0005604408712605104
8.47500e-07;0.0005254638355638155
8.47750e-07;0.000488920192927427
8.48000e-07;0.0004521387284930672
8.48250e-07;0.00041481581624428437
8.48500e-07;0.000377577892058257
8.48750e-07;0.00034053345981119944
8.49000e-07;0.0003038860137909448
8.49250e-07;0.00026814238452210857
8.49500e-07;0.00023286772175498162
8.49750e-07;0.00019907613611547131
8.50000e-07;0.00016673475298714966
8.50250e-07;0.00013613574553009183
8.50500e-07;0.00010757255020548051
8.50750e-07;8.134018683995917e-05
8.51000e-07;5.771087759236727e-05
8.51250e-07;3.6829730854514464e-05
8.51500e-07;1.8613692770389753e-05
8.51750e-07;2.908853652602045e-06
8.52000e-07;-1.0291255384708737e-05
8.52250e-07;-2.089585042201289e-05
8.52500e-07;-2.8810132622943437e-05
8.52750e-07;-3.393832749127655e-05
8.53000e-07;-3.619895416325122e-05
8.53250e-07;-3.559015975831338e-05
8.53500e-07;-3.22530150185448e-05
8.53750e-07;-2.6372964599570193e-05
8.54000e-07;-1.804308119149474e-05
8.54250e-07;-7.2955193115162735e-06
8.54500e-07;5.840078238009805e-06
8.54750e-07;2.133467871757959e-05
8.55000e-07;3.915029542422207e-05
8.55250e-07;5.9199064617105856e-05
8.55500e-07;8.130360346974463e-05
8.55750e-07;0.00010525874584249104
8.56000e-07;0.00013091719795171083
8.56250e-07;0.00015816983851054442
8.56500e-07;0.00018690912252753138
8.56750e-07;0.00021720794248671256
8.57000e-07;0.0002488232952686543
8.57250e-07;0.0002809215993675714
8.57500e-07;0.0003143524931195862
8.57750e-07;0.0003484885893928304
8.58000e-07;0.00038314871236975686
8.58250e-07;0.00041817562897320936
8.58500e-07;0.0004534130684493106
8.58750e-07;0.0004887050100782682
8.59000e-07;0.0005238919455060894
8.59250e-07;0.0005587947914781324
8.59500e-07;0.0005931994156693463
8.59750e-07;0.0006268807511384568
8.60000e-07;0.0006596364682356695
8.60250e-07;0.0006912793110189226
8.60500e-07;0.0007216225848402755
8.60750e-07;0.0007504797292312445
8.61000e-07;0.0007776896367103935
8.61250e-07;0.0008032343710458882
8.61500e-07;0.0008273349011564976
8.61750e-07;0.0008502448686188679
8.62000e-07;0.0008720086482217735
8.62250e-07;0.0008925450297555946
8.62500e-07;0.0009117683799206153
8.62750e-07;0.000929365696216876
8.63000e-07;0.0009454319419515676
8.63250e-07;0.0009606884895321808
8.63500e-07;0.0009741016009786061
8.63750e-07;0.0009868731340443252
8.64000e-07;0.0009981839885053645
8.64250e-07;0.0010086774499811994
8.64500e-07;0.001017309956535525
8.64750e-07;0.0010259424630898503
8.65000e-07;0.0010336263411511739
8.65250e-07;0.0010391504810025056
8.65500e-07;0.001044674620853835
8.65750e-07;0.0010495047041090668
8.66000e-07;0.0010527546318434022
8.66250e-07;0.0010560045595777374
8.66500e-07;0.0010587521116536954
8.66750e-07;0.0010603559073348436
8.67000e-07;0.0010616032834119213
8.67250e-07;0.0010620392005845022
8.67500e-07;0.00106229216493101
8.67750e-07;0.0010620477745897222
8.68000e-07;0.0010615518624925069
8.68250e-07;0.0010608476225175403
8.68500e-07;0.0010599772325395928
8.68750e-07;0.0010589828802639483
8.69000e-07;0.0010579105707880197
8.69250e-07;0.0010568284429623705
8.69500e-07;0.001055841294557026
8.69750e-07;0.001055059063533904
8.70000e-07;0.001054617457270838
8.70250e-07;0.001054532765124209
8.70500e-07;0.0010546399789276779
8.70750e-07;0.0010553355611566649
8.71000e-07;0.001056505074620805
8.71250e-07;0.0010579493463657222
8.71500e-07;0.0010591357746914049
8.71750e-07;0.0010595542622902105
8.72000e-07;0.001059080336447698
8.72250e-07;0.0010578030026308603
8.72500e-07;0.001055818445593286
8.72750e-07;0.0010532230315236874
8.73000e-07;0.0010500878977453428
8.73250e-07;0.0010461785864630722
8.73500e-07;0.0010413446148471914
8.73750e-07;0.0010358134719902173
8.74000e-07;0.0010286950825141297
8.74250e-07;0.0010207737186090564
8.74500e-07;0.0010110242264443551
8.74750e-07;0.001001274734279654
8.75000e-07;0.0009915252421149527
8.75250e-07;0.0009808317016433978
8.75500e-07;0.0009679888506509416
8.75750e-07;0.0009551459996584856
8.76000e-07;0.0009423031486660295
8.76250e-07;0.0009287719640896304
8.76500e-07;0.0009136736535482688
8.76750e-07;0.0008985753430069137
8.77000e-07;0.0008832127021371765
8.77250e-07;0.0008672482616014225
8.77500e-07;0.0008512838210656686
8.77750e-07;0.0008351704193761113
8.78000e-07;0.0008187178784997675
8.78250e-07;0.0008023180971042958
8.78500e-07;0.000786038432980865
8.78750e-07;0.0007699855902148171
8.79000e-07;0.0007544491506097598
8.79250e-07;0.0007392527165480561
8.79500e-07;0.0007248303715728888
8.79750e-07;0.0007108445713325705
8.80000e-07;0.0006978526505205151
8.80250e-07;0.0006852972744433148
8.80500e-07;0.0006740882537604804
8.80750e-07;0.0006640802341233369
8.81000e-07;0.0006554344818079335
8.81250e-07;0.0006483631727360313
8.81500e-07;0.0006431365262678291
8.81750e-07;0.0006399665974293935
8.82000e-07;0.0006389245497543814
8.82250e-07;0.000640014174328307
8.82500e-07;0.0006432371947016084
8.82750e-07;0.0006485953620193684
8.83000e-07;0.0006560968432977624
8.83250e-07;0.0006657817245759494
8.83500e-07;0.0006777263902555713
8.83750e-07;0.0006919707951628608
8.84000e-07;0.0007084666021705226
8.84250e-07;0.0007271233524336463
8.84500e-07;0.0007481412770857656
8.84750e-07;0.0007712174132166052
8.85000e-07;0.0007954189961185546
8.85250e-07;0.0008221828786065556
8.85500e-07;0.0008500010980333861
8.85750e-07;0.0008802197216119345
8.86000e-07;0.0009113429127073577
8.86250e-07;0.0009445255285872808
8.86500e-07;0.0009784293861111596
8.86750e-07;0.0010139752912318304
8.87000e-07;0.0010499500225707086
8.87250e-07;0.0010871358314336111
8.87500e-07;0.0011250533593618168
8.87750e-07;0.001163567369163564
8.88000e-07;0.0012025078803191002
8.88250e-07;0.001241688622276801
8.88500e-07;0.001280922586671014
8.88750e-07;0.0013200228913819374
8.89000e-07;0.001358804207703134
8.89250e-07;0.0013970891200684073
8.89500e-07;0.0014347091180748081
8.89750e-07;0.001471486774415813
8.90000e-07;0.0015072230568288626
8.90250e-07;0.001541463237143795
8.90500e-07;0.0015741748948392672
8.90750e-07;0.001605500713151837
8.91000e-07;0.0016336713971939131
8.91250e-07;0.0016618420812359895
8.91500e-07;0.001688465331480722
8.91750e-07;0.0017115655461806263
8.92000e-07;0.0017346657608805305
8.92250e-07;0.0017562090438922521
8.92500e-07;0.001774207667553949
8.92750e-07;0.001792206291215646
8.93000e-07;0.0018078331660035544
8.93250e-07;0.0018180602908311578
8.93500e-07;0.0018282874156587614
8.93750e-07;0.0018385145404863606
8.94000e-07;0.001848741665313964
8.94250e-07;0.0018589687901415675
8.94500e-07;0.001866548626597848
8.94750e-07;0.0018681013935629293
8.95000e-07;0.0018696541605280098
8.95250e-07;0.0018712069274930913
8.95500e-07;0.0018727596944581725
8.95750e-07;0.0018743124614232537
8.96000e-07;0.0018740287274355263
8.96250e-07;0.0018695638400142865
8.96500e-07;0.0018650989525930489
8.96750e-07;0.001860634065171809
8.97000e-07;0.0018561691777505694
8.97250e-07;0.0018517042903293298
8.97500e-07;0.0018447806923988477
8.97750e-07;0.0018372622099196657
8.98000e-07;0.0018297437274404872
8.98250e-07;0.0018222252449613052
8.98500e-07;0.0018147067624821234
8.98750e-07;0.0018070457858017314
8.99000e-07;0.0017990603932163346
8.99250e-07;0.0017911981238504257
8.99500e-07;0.0017836161685628202
8.99750e-07;0.001776320198084114
9.00000e-07;0.0017696753279295545
9.00250e-07;0.0017633261595657234
9.00500e-07;0.0017578891062218205
9.00750e-07;0.0017532661299077027
9.01000e-07;0.0017495875045724504
9.01250e-07;0.001747129661160745
9.01500e-07;0.001746376690301482
9.01750e-07;0.0017480909554901366
9.02000e-07;0.001752146981717907
9.02250e-07;0.0017575329021461506
9.02500e-07;0.0017659465867005486
9.02750e-07;0.0017756451866656712
9.03000e-07;0.0017882691477492621
9.03250e-07;0.0018026788188939243
9.03500e-07;0.0018211540080780655
9.03750e-07;0.0018396291972622146
9.04000e-07;0.0018602740623634524
9.04250e-07;0.0018858586188362505
9.04500e-07;0.0019114431753090486
9.04750e-07;0.0019385786058999772
9.05000e-07;0.001969244904598598
9.05250e-07;0.0020010664938150697
9.05500e-07;0.002035518327741211
9.05750e-07;0.002070816764811799
9.06000e-07;0.0021085384919770646
9.06250e-07;0.0021478261476152454
9.06500e-07;0.0021884867544448346
9.06750e-07;0.002230326790878891
9.07000e-07;0.0022731601010637027
9.07250e-07;0.0023168359083810823
9.07500e-07;0.0023612551704741813
9.07750e-07;0.0024063033460217215
9.08000e-07;0.0024517913710040253
9.08250e-07;0.0024974913632040082
9.08500e-07;0.0025431741265507513
9.08750e-07;0.002588610717465003
9.09000e-07;0.002633576222929261
9.09250e-07;0.0026778682068883852
9.09500e-07;0.0027213164473792345
9.09750e-07;0.002763741186020263
9.10000e-07;0.0028049160724369017
9.10250e-07;0.0028445903162914424
9.10500e-07;0.0028825122790535965
9.10750e-07;0.0029184306850633768
9.11000e-07;0.0029520958143170704
9.11250e-07;0.0029828619186970944
9.11500e-07;0.003010861200580334
9.11750e-07;0.0030367282888712887
9.12000e-07;0.003057741021630398
9.12250e-07;0.003078753754389516
9.12500e-07;0.00309640638917614
9.12750e-07;0.0031064091040683677
9.13000e-07;0.003116411818960596
9.13250e-07;0.0031264145338528236
9.13500e-07;0.0031364172487450474
9.13750e-07;0.0031359409114738806
9.14000e-07;0.003132929169488003
9.14250e-07;0.0031299174275021256
9.14500e-07;0.003126905685516248
9.14750e-07;0.0031209231169688806
9.15000e-07;0.0031081768809922638
9.15250e-07;0.0030954306450156474
9.15500e-07;0.003080664224239124
9.15750e-07;0.003061298457842999
9.16000e-07;0.003041932691446874
9.16250e-07;0.003020984543278586
9.16500e-07;0.002996433793668718
9.16750e-07;0.0029718830440588506
9.17000e-07;0.002946212064412212
9.17250e-07;0.0029179906620949263
9.17500e-07;0.0028897692597776407
9.17750e-07;0.0028610077922289865
9.18000e-07;0.0028310167606046097
9.18250e-07;0.002800899106226161
9.18500e-07;0.002770493170394793
9.18750e-07;0.0027402239828744302
9.19000e-07;0.0027102661296167867
9.19250e-07;0.0026807161408980585
9.19500e-07;0.0026520947355349756
9.19750e-07;0.002624174445050918
9.20000e-07;0.002597850379648768
9.20250e-07;0.0025728426840189757
9.20500e-07;0.0025508319615109515
9.20750e-07;0.0025288212390029187
9.21000e-07;0.0025087292325558282
9.21250e-07;0.002493005558308166
9.21500e-07;0.002477281884060504
9.21750e-07;0.002463403950807329
9.22000e-07;0.002453728207749005
9.22250e-07;0.0024440524646906813
9.22500e-07;0.0024343767216323574
9.22750e-07;0.0024269984852063322
9.23000e-07;0.0024248509717645908
9.23250e-07;0.00242270345832285
9.23500e-07;0.0024205559448811087
9.23750e-07;0.002421141808361508
9.24000e-07;0.0024279507387486073
9.24250e-07;0.002434759669135707
9.24500e-07;0.002441568599522806
9.24750e-07;0.0024483775299099027
9.25000e-07;0.0024551864602970017
9.25250e-07;0.002461995390684101
9.25500e-07;0.0024688043210712007
9.25750e-07;0.00248268948936164
9.26000e-07;0.0024982867520918347
9.26250e-07;0.0025138840148220365
9.26500e-07;0.002529481277552238
9.26750e-07;0.0025450785402824395
9.27000e-07;0.002560675803012641
9.27250e-07;0.0025762730657428426
9.27500e-07;0.002592898109214306
9.27750e-07;0.0026118630964624885
9.28000e-07;0.0026310106990181685
9.28250e-07;0.002650574061020541
9.28500e-07;0.0026702376482724177
9.28750e-07;0.0026901294178976643
9.29000e-07;0.0027100215428056016
9.29250e-07;0.0027299144765840664
9.29500e-07;0.0027496382602693417
9.29750e-07;0.0027689769407005884
9.30000e-07;0.002787904606419643
9.30250e-07;0.002805896516797774
9.30500e-07;0.002823888427175912
9.30750e-07;0.0028412741542123156
9.31000e-07;0.0028572797863694425
9.31250e-07;0.0028732854185265695
9.31500e-07;0.0028892757024710823
9.31750e-07;0.002905231043209173
9.32000e-07;0.002921186383947271
9.32250e-07;0.0029372963674016658
9.32500e-07;0.00295375842523057
9.32750e-07;0.002970220483059474
9.33000e-07;0.0029866825408883775
9.33250e-07;0.0030031445987172747
9.33500e-07;0.0030205731781443213
9.33750e-07;0.003038235607291617
9.34000e-07;0.0030558980364389127
9.34250e-07;0.003073560465586208
9.34500e-07;0.0030917137461335723
9.34750e-07;0.003110984545848984
9.35000e-07;0.003130255345564395
9.35250e-07;0.003149526145279806
9.35500e-07;0.0031687969449952177
9.35750e-07;0.003188067744710629
9.36000e-07;0.0032084696473822024
9.36250e-07;0.0032291452202028864
9.36500e-07;0.003249820793023571
9.36750e-07;0.0032704963658442554
9.37000e-07;0.0032911719386649395
9.37250e-07;0.003311952373712662
9.37500e-07;0.003332971548119579
9.37750e-07;0.0033539907225265046
9.38000e-07;0.003374984411321126
9.38250e-07;0.003395920077137195
9.38500e-07;0.0034168557429532635
9.38750e-07;0.0034375433977596234
9.39000e-07;0.0034576664070191253
9.39250e-07;0.0034777894162786277
9.39500e-07;0.0034975537794958342
9.39750e-07;0.0035165016148866004
9.40000e-07;0.003535449450277367
9.40250e-07;0.0035534469955453393
9.40500e-07;0.003569281019578061
9.40750e-07;0.0035851150436107823
9.41000e-07;0.003600949067643504
9.41250e-07;0.003616783091676226
9.41500e-07;0.003632617115708941
9.41750e-07;0.0036484511397416627
9.42000e-07;0.003660243155068652
9.42250e-07;0.003671057207143799
9.42500e-07;0.003681871259218947
9.42750e-07;0.003692685311294094
9.43000e-07;0.0037034993633692365
9.43250e-07;0.003714313415444384
9.43500e-07;0.0037233523106013104
9.43750e-07;0.003728349714011231
9.44000e-07;0.003733347117421151
9.44250e-07;0.0037383445208310716
9.44500e-07;0.0037433419242409896
9.44750e-07;0.00374833932765091
9.45000e-07;0.0037533367310608303
9.45250e-07;0.003758334134470751
9.45500e-07;0.003763331537880671
9.45750e-07;0.0037683289412905894
9.46000e-07;0.003769604278358158
