Time(s);Current(A)
1.28000e-05;-0.00543797737195177
1.28002e-05;-0.005427210869068144
1.28005e-05;-0.005416444366184444
1.28008e-05;-0.005405677863300745
1.28010e-05;-0.005395415349372178
1.28013e-05;-0.005386252556730368
1.28015e-05;-0.005377089764088495
1.28018e-05;-0.005367926971446623
1.28020e-05;-0.005358764178804813
1.28023e-05;-0.005349601386162941
1.28025e-05;-0.005340438593521069
1.28028e-05;-0.0053312758008792595
1.28030e-05;-0.005322113008237387
1.28033e-05;-0.005312950215595515
1.28035e-05;-0.005309370981030215
1.28038e-05;-0.005307065369454307
1.28040e-05;-0.0053047597578784
1.28043e-05;-0.005302454146302507
1.28045e-05;-0.005300148534726599
1.28048e-05;-0.005297842923150691
1.28050e-05;-0.005295537311574799
1.28053e-05;-0.005293231699998891
1.28055e-05;-0.005290926088422983
1.28058e-05;-0.005290940316491005
1.28060e-05;-0.005296016514692436
1.28063e-05;-0.005301092712893866
1.28065e-05;-0.005306168911095263
1.28068e-05;-0.005311245109296692
1.28070e-05;-0.005316321307498123
1.28073e-05;-0.005321397505699519
1.28075e-05;-0.00532647370390095
1.28078e-05;-0.00533154990210238
1.28080e-05;-0.005336626100303776
1.28083e-05;-0.0053451116479475
1.28085e-05;-0.005354374876376498
1.28087e-05;-0.005363638104805433
1.28090e-05;-0.005372901333234431
1.28093e-05;-0.0053821645616634285
1.28095e-05;-0.005391427790092426
1.28098e-05;-0.0054006910185213615
1.28100e-05;-0.005409954246950359
1.28103e-05;-0.005419217475379357
1.28105e-05;-0.005428176469109312
1.28108e-05;-0.005436471612230485
1.28110e-05;-0.005444766755351658
1.28113e-05;-0.005453061898472775
1.28115e-05;-0.005461357041593948
1.28118e-05;-0.005469652184715121
1.28120e-05;-0.005477947327836238
1.28123e-05;-0.005486242470957412
1.28125e-05;-0.005494537614078585
1.28128e-05;-0.005502832757199701
1.28130e-05;-0.005504574142452643
1.28133e-05;-0.005504820599816073
1.28135e-05;-0.005505067057179502
1.28138e-05;-0.005505313514542932
1.28140e-05;-0.005505559971906362
1.28143e-05;-0.005505806429269791
1.28145e-05;-0.005506052886633221
1.28148e-05;-0.005506299343996651
1.28150e-05;-0.00550654580136008
1.28153e-05;-0.005503479699973597
1.28155e-05;-0.005493185481115514
1.28158e-05;-0.005482891262257501
1.28160e-05;-0.005472597043399418
1.28163e-05;-0.005462302824541334
1.28165e-05;-0.005452008605683321
1.28168e-05;-0.005441714386825238
1.28170e-05;-0.005431420167967155
1.28172e-05;-0.005415260875571066
1.28175e-05;-0.005397763745832736
1.28178e-05;-0.0053802666160944045
1.28180e-05;-0.005362769486356074
1.28183e-05;-0.005345272356617862
1.28185e-05;-0.005327775226879531
1.28188e-05;-0.0053102780971411995
1.28190e-05;-0.00529184114915147
1.28193e-05;-0.005271353485313891
1.28195e-05;-0.005250865821476311
1.28198e-05;-0.005230378157638871
1.28200e-05;-0.005209890493801291
1.28203e-05;-0.0051894028299637115
1.28205e-05;-0.00516891516612627
1.28208e-05;-0.005149827286373638
1.28210e-05;-0.005131058700728402
1.28213e-05;-0.005112290115083295
1.28215e-05;-0.005093521529438059
1.28218e-05;-0.0050747529437928235
1.28220e-05;-0.005055984358147715
1.28223e-05;-0.005038537750969322
1.28225e-05;-0.005023975746413064
1.28228e-05;-0.005009413741856904
1.28230e-05;-0.004996387437039226
1.28233e-05;-0.004986712082031974
1.28235e-05;-0.004977036727024789
1.28238e-05;-0.0049691910215249775
1.28240e-05;-0.004965337674372489
1.28243e-05;-0.004961484327220026
1.28245e-05;-0.004960615959708511
1.28248e-05;-0.004966260920753855
1.28250e-05;-0.004971905881799162
1.28253e-05;-0.004977550842844506
1.28255e-05;-0.004983195803889851
1.28257e-05;-0.0049888407649351565
1.28260e-05;-0.004994485725980501
1.28263e-05;-0.0050099351256942
1.28265e-05;-0.005027620941386166
1.28268e-05;-0.0050453067570780125
1.28270e-05;-0.0050629925727699795
1.28273e-05;-0.005080678388461946
1.28275e-05;-0.005098364204153792
1.28278e-05;-0.0051187945721552575
1.28280e-05;-0.005145213647982061
1.28283e-05;-0.005171632723808686
1.28285e-05;-0.00519805179963549
1.28288e-05;-0.005224470875462294
1.28290e-05;-0.005250889951288919
1.28293e-05;-0.005277309027115723
1.28295e-05;-0.005303728102942527
1.28298e-05;-0.005331696321379212
1.28300e-05;-0.00536001790296144
1.28303e-05;-0.005388339484543669
1.28305e-05;-0.005416661066125705
1.28308e-05;-0.005444982647707933
1.28310e-05;-0.0054733042292901615
1.28313e-05;-0.005501625810872198
1.28315e-05;-0.005528741281333451
1.28318e-05;-0.005553224975717946
1.28320e-05;-0.005577708670102276
1.28323e-05;-0.005600707298644917
1.28325e-05;-0.005620465462285814
1.28328e-05;-0.005640223625926576
1.28330e-05;-0.005656587200048251
1.28333e-05;-0.005665543662725304
1.28335e-05;-0.005674500125402297
1.28338e-05;-0.00568345658807935
1.28340e-05;-0.005692413050756404
1.28342e-05;-0.005701369513433396
1.28345e-05;-0.00571032597611045
1.28348e-05;-0.00571420359974044
1.28350e-05;-0.0057069990213492825
1.28353e-05;-0.005699794442958175
1.28355e-05;-0.0056925898645670174
1.28358e-05;-0.00568538528617586
1.28360e-05;-0.0056781807077847515
1.28363e-05;-0.005670976129393594
1.28365e-05;-0.005659519905407301
1.28368e-05;-0.005638786444050361
1.28370e-05;-0.005618052982693282
1.28373e-05;-0.0055973195213362015
1.28375e-05;-0.005576586059979263
1.28378e-05;-0.005555852598622182
1.28380e-05;-0.005535119137265102
1.28383e-05;-0.005507719084619612
1.28385e-05;-0.005478798366509088
1.28388e-05;-0.005449877648398563
1.28390e-05;-0.005420956930288235
1.28393e-05;-0.00539203621217771
1.28395e-05;-0.005363115494067185
1.28398e-05;-0.005333491574924467
1.28400e-05;-0.005302333246868131
1.28403e-05;-0.005271174918811796
1.28405e-05;-0.0052402490286329335
1.28408e-05;-0.005209830325921272
1.28410e-05;-0.00517941162320961
1.28413e-05;-0.005149745599710343
1.28415e-05;-0.005121721948219734
1.28418e-05;-0.0050936982967291254
1.28420e-05;-0.005066715542540646
1.28423e-05;-0.005042004062176443
1.28425e-05;-0.00501832084503019
1.28427e-05;-0.0049968813337014
1.28430e-05;-0.004975495309913367
1.28433e-05;-0.004954225997784942
1.28435e-05;-0.004932084714350173
1.28438e-05;-0.004908040759441489
1.28440e-05;-0.004883996804532641
1.28443e-05;-0.004859372169562787
1.28445e-05;-0.004833480470666078
1.28448e-05;-0.0048075887717691935
1.28450e-05;-0.004780592639298641
1.28453e-05;-0.004751186594666644
1.28455e-05;-0.004721780550034448
1.28458e-05;-0.004690686042190663
1.28460e-05;-0.004655907249365889
1.28463e-05;-0.004621128456540878
1.28465e-05;-0.004586349663715869
1.28468e-05;-0.004551570870891094
1.28470e-05;-0.004512692224272466
1.28473e-05;-0.004472878391168226
1.28475e-05;-0.004433064558064256
1.28478e-05;-0.004393250724960017
1.28480e-05;-0.004352415514782858
1.28483e-05;-0.004309351624594217
1.28485e-05;-0.004266077589100976
1.28488e-05;-0.00422234500930347
1.28490e-05;-0.00417848862523924
1.28493e-05;-0.004134246194125673
1.28495e-05;-0.004089689544369011
1.28498e-05;-0.004045022806503883
1.28500e-05;-0.004000516383396866
1.28503e-05;-0.003956440065913419
1.28505e-05;-0.003913062859937155
1.28508e-05;-0.0038706249887561083
1.28510e-05;-0.003829258104627655
1.28512e-05;-0.0037890030120690996
1.28515e-05;-0.0037499709942467635
1.28518e-05;-0.003712395612289511
1.28520e-05;-0.0036765512870363076
1.28523e-05;-0.0036427126123061426
1.28525e-05;-0.003611154082107897
1.28528e-05;-0.003582166986424598
1.28530e-05;-0.003556090365761613
1.28533e-05;-0.003533250398569762
1.28535e-05;-0.003513835561451116
1.28538e-05;-0.0034979057062453785
1.28540e-05;-0.003485486530813025
1.28543e-05;-0.0034766034136943496
1.28545e-05;-0.0034712818065999423
1.28548e-05;-0.003469557637922769
1.28550e-05;-0.0034720819549856918
1.28553e-05;-0.0034784338077751913
1.28555e-05;-0.003487594280848999
1.28558e-05;-0.003502883260284994
1.28560e-05;-0.0035181722397208855
1.28563e-05;-0.0035372105746354853
1.28565e-05;-0.0035644301325631995
1.28568e-05;-0.0035916496904907294
1.28570e-05;-0.003618869248418444
1.28573e-05;-0.0036460888063461583
1.28575e-05;-0.0036828027314885327
1.28578e-05;-0.003721682344570147
1.28580e-05;-0.003760561957651761
1.28583e-05;-0.003799441570733112
1.28585e-05;-0.0038403906857955874
1.28588e-05;-0.0038858555255818785
1.28590e-05;-0.003931320365367862
1.28593e-05;-0.00397768212755654
1.28595e-05;-0.00402600100537274
1.28597e-05;-0.004074319883188613
1.28600e-05;-0.004122807565049703
1.28603e-05;-0.004171663583160813
1.28605e-05;-0.004220231456352644
1.28608e-05;-0.00426817058738872
1.28610e-05;-0.004315467794764181
1.28613e-05;-0.004361364302563806
1.28615e-05;-0.004405885353737326
1.28618e-05;-0.004447405111097546
1.28620e-05;-0.004488924868457766
1.28623e-05;-0.004528062979036262
1.28625e-05;-0.004562004254165978
1.28628e-05;-0.004595945529295694
1.28630e-05;-0.004628570127997125
1.28633e-05;-0.004658321693304504
1.28635e-05;-0.004688073258611883
1.28638e-05;-0.004717193150761905
1.28640e-05;-0.004744934710289042
1.28643e-05;-0.004772676269816179
1.28645e-05;-0.004800417829343128
1.28648e-05;-0.004828159388870265
1.28650e-05;-0.004855900948397402
1.28653e-05;-0.004882872307431528
1.28655e-05;-0.0049096679818856105
1.28658e-05;-0.004936463656339693
1.28660e-05;-0.004963259330793593
1.28663e-05;-0.004990055005247676
1.28665e-05;-0.005016970389558262
1.28668e-05;-0.005044146984905847
1.28670e-05;-0.005071323580253616
1.28673e-05;-0.005098500175601386
1.28675e-05;-0.0051256767709489705
1.28678e-05;-0.005152853366296739
1.28680e-05;-0.005180029961644509
1.28682e-05;-0.005207206556992094
1.28685e-05;-0.0052343831523398625
1.28688e-05;-0.005260899498785793
1.28690e-05;-0.0052872652408731576
1.28693e-05;-0.005313630982960343
1.28695e-05;-0.005339996725047707
1.28698e-05;-0.0053663624671350715
1.28700e-05;-0.005392728209222257
1.28703e-05;-0.005419093951309621
1.28705e-05;-0.005445459693396985
1.28708e-05;-0.005470545451558215
1.28710e-05;-0.005492838240630013
1.28713e-05;-0.005515131029701812
1.28715e-05;-0.005537423818773458
1.28718e-05;-0.005559716607845257
1.28720e-05;-0.005580050596829555
1.28723e-05;-0.005596110416438373
1.28725e-05;-0.005612170236047299
1.28728e-05;-0.005628230055656226
1.28730e-05;-0.005644289875265044
1.28733e-05;-0.00565698334075867
1.28735e-05;-0.0056623313054229955
1.28738e-05;-0.005667679270087283
1.28740e-05;-0.005669954079188988
1.28743e-05;-0.005665523156819816
1.28745e-05;-0.0056610922344506745
1.28748e-05;-0.005652080004317897
1.28750e-05;-0.00563307120257584
1.28753e-05;-0.005614062400833912
1.28755e-05;-0.005595053599091855
1.28758e-05;-0.005576044797349798
1.28760e-05;-0.00555703599560787
1.28763e-05;-0.005523572767038516
1.28765e-05;-0.00548681244903018
1.28767e-05;-0.005450052131022093
1.28770e-05;-0.005413291813013757
1.28773e-05;-0.005376531495005421
1.28775e-05;-0.005335797824843281
1.28778e-05;-0.005286394163188561
1.28780e-05;-0.005236990501533505
1.28783e-05;-0.00518758683987845
1.28785e-05;-0.00513818317822373
1.28788e-05;-0.005083512741774636
1.28790e-05;-0.005027640941358591
1.28793e-05;-0.004971769140942923
1.28795e-05;-0.004915897340526877
1.28798e-05;-0.0048594537543153425
1.28800e-05;-0.004801767341014345
1.28803e-05;-0.004744201659869
1.28805e-05;-0.004687091987006558
1.28808e-05;-0.004630761891294975
1.28810e-05;-0.00457549198140918
1.28813e-05;-0.004521534086346928
1.28815e-05;-0.004469182396092995
1.28818e-05;-0.00441878768609489
1.28820e-05;-0.004370719026134936
1.28823e-05;-0.0043253466435759025
1.28825e-05;-0.004283039076114308
1.28828e-05;-0.004244124484548488
1.28830e-05;-0.004208766068665092
1.28833e-05;-0.004176928599433093
1.28835e-05;-0.004148564736450029
1.28838e-05;-0.0041243121154014035
1.28840e-05;-0.004103795544743912
1.28843e-05;-0.004085666742787616
1.28845e-05;-0.0040727481345245245
1.28848e-05;-0.0040628424626082986
1.28850e-05;-0.004059511121758891
1.28853e-05;-0.004056179780909506
1.28855e-05;-0.004057208603903153
1.28858e-05;-0.004067751454844587
1.28860e-05;-0.004078294305786021
1.28863e-05;-0.004088837156727383
1.28865e-05;-0.0040993800076688175
1.28868e-05;-0.004114605996468784
1.28870e-05;-0.004140050753661972
1.28873e-05;-0.004165495510855334
1.28875e-05;-0.004190940268048696
1.28878e-05;-0.0042163850252418845
1.28880e-05;-0.0042446117882147276
1.28883e-05;-0.004278908983788375
1.28885e-05;-0.00431320617936179
1.28888e-05;-0.004348913416755563
1.28890e-05;-0.00438769741405285
1.28893e-05;-0.004426481411349874
1.28895e-05;-0.00446595360037199
1.28898e-05;-0.004506927447483056
1.28900e-05;-0.004547901294593844
1.28903e-05;-0.004588872556351819
1.28905e-05;-0.0046298381767801424
1.28908e-05;-0.004670803797208189
1.28910e-05;-0.004711009275047376
1.28913e-05;-0.004749556095528995
1.28915e-05;-0.004788102916010352
1.28918e-05;-0.004825403474351294
1.28920e-05;-0.004859984645699985
1.28923e-05;-0.004892727996852345
1.28925e-05;-0.004921461160924382
1.28928e-05;-0.0049501943249964184
1.28930e-05;-0.004976073161694978
1.28933e-05;-0.0049957237575785065
1.28935e-05;-0.005015374353462034
1.28938e-05;-0.005031864916164239
1.28940e-05;-0.005041460177430094
1.28943e-05;-0.00505105543869595
1.28945e-05;-0.005057373740528459
1.28948e-05;-0.005056541603808042
1.28950e-05;-0.00505570946708762
1.28953e-05;-0.005050574912581216
1.28955e-05;-0.005036052334014048
1.28958e-05;-0.005021529755446782
1.28960e-05;-0.005007007176879515
1.28963e-05;-0.004992484598312347
1.28965e-05;-0.004973299925686008
1.28968e-05;-0.00494394240295991
1.28970e-05;-0.004914584880234009
1.28973e-05;-0.004885227357507911
1.28975e-05;-0.004855869834781813
1.28978e-05;-0.004823599126436731
1.28980e-05;-0.004784971746552408
1.28983e-05;-0.004746344366668086
1.28985e-05;-0.004706425188282908
1.28988e-05;-0.004663687260995091
1.28990e-05;-0.004620222605587433
1.28993e-05;-0.00457517220434715
1.28995e-05;-0.004529702902735439
1.28998e-05;-0.004483319546059934
1.29000e-05;-0.004436829872836405
1.29003e-05;-0.0043901484569394454
1.29005e-05;-0.0043436785121188665
1.29008e-05;-0.004297684879945777
1.29010e-05;-0.004252432149093358
1.29013e-05;-0.004208192411746224
1.29015e-05;-0.004165253938532344
1.29018e-05;-0.0041239165354029685
1.29020e-05;-0.004085272488053303
1.29023e-05;-0.0040497991872885854
1.29025e-05;-0.004014325886523627
1.29028e-05;-0.003982280035302194
1.29030e-05;-0.003957712997248714
1.29033e-05;-0.003933145959195067
1.29035e-05;-0.00390857892114142
1.29038e-05;-0.0038840118830877736
1.29040e-05;-0.0038594448450342935
1.29043e-05;-0.003834877806980647
1.29045e-05;-0.003810310768927
1.29048e-05;-0.0037894085969277084
1.29050e-05;-0.003776503289115092
1.29053e-05;-0.003763597981302476
1.29055e-05;-0.003750692673489947
1.29058e-05;-0.0037377873656773307
1.29060e-05;-0.0037248820578647144
1.29063e-05;-0.003711976750052186
1.29065e-05;-0.0036990714422395696
1.29068e-05;-0.003688836912669691
1.29070e-05;-0.003684430113381357
1.29073e-05;-0.0036800233140929926
1.29075e-05;-0.0036756165148046287
1.29078e-05;-0.0036712097155162946
1.29080e-05;-0.0036668029162279306
1.29083e-05;-0.0036623961169395666
1.29085e-05;-0.0036579893176512325
1.29088e-05;-0.0036535825183628685
1.29090e-05;-0.003652974101876303
1.29093e-05;-0.003653232105621311
1.29095e-05;-0.0036534901093663204
1.29098e-05;-0.00365374811311133
1.29100e-05;-0.003654006116856337
1.29103e-05;-0.0036542641206013466
1.29105e-05;-0.003654522124346356
1.29108e-05;-0.0036547801280913633
1.29110e-05;-0.0036554145534255073
1.29113e-05;-0.0036568703436557133
1.29115e-05;-0.0036583261338859092
1.29118e-05;-0.0036597819241161156
1.29120e-05;-0.003660957831697131
1.29123e-05;-0.0036620698973742634
1.29125e-05;-0.0036631819630513875
1.29128e-05;-0.003664363519674657
1.29130e-05;-0.003665696707940219
1.29133e-05;-0.003667029896205772
1.29135e-05;-0.0036688988135338647
1.29138e-05;-0.0036719367101620457
1.29140e-05;-0.0036749746067902063
1.29143e-05;-0.003678895621009814
1.29145e-05;-0.0036847436282864683
1.29148e-05;-0.0036905916355630826
1.29150e-05;-0.003696439642839737
1.29153e-05;-0.003702287650116391
1.29155e-05;-0.003708135657393006
1.29158e-05;-0.00371398366466966
1.29160e-05;-0.00372118756072286
1.29163e-05;-0.0037313500528724335
1.29165e-05;-0.0037415125450220763
1.29168e-05;-0.0037516750371717187
1.29170e-05;-0.0037618375293212926
1.29173e-05;-0.003772000021470935
1.29175e-05;-0.0037821625136205774
1.29178e-05;-0.003793289890902053
1.29180e-05;-0.0038065226808357343
1.29183e-05;-0.003819755470769416
1.29185e-05;-0.0038329882607030076
1.29188e-05;-0.003846221050636689
1.29190e-05;-0.003859453840570371
1.29193e-05;-0.0038726866305039626
1.29195e-05;-0.003885919420437644
1.29198e-05;-0.003899269930447194
1.29200e-05;-0.003912647292688451
1.29203e-05;-0.003926024654929799
1.29205e-05;-0.003939402017171146
1.29208e-05;-0.003952779379412494
1.29210e-05;-0.003966156741653751
1.29213e-05;-0.003979534103895099
1.29215e-05;-0.0039922852253257675
1.29218e-05;-0.0040036698676982185
1.29220e-05;-0.0040150545100707475
1.29223e-05;-0.004025874155232687
1.29225e-05;-0.0040354609569850704
1.29228e-05;-0.004044344006114425
1.29230e-05;-0.00405169144273621
1.29233e-05;-0.004057650617919223
1.29235e-05;-0.004060580558738977
1.29238e-05;-0.0040635104995587305
1.29240e-05;-0.004064729961018315
1.29243e-05;-0.004062217097491568
1.29245e-05;-0.0040597042339648205
1.29248e-05;-0.0040554330864359086
1.29250e-05;-0.004047325302542146
1.29253e-05;-0.004039217518648383
1.29255e-05;-0.004028807404658003
1.29258e-05;-0.004013373526951475
1.29260e-05;-0.003997939649244948
1.29263e-05;-0.003982505771538525
1.29265e-05;-0.003967071893831997
1.29268e-05;-0.003945600891470457
1.29270e-05;-0.003922752806487713
1.29273e-05;-0.0038999047215048143
1.29275e-05;-0.0038770566365219157
1.29278e-05;-0.0038526325186698327
1.29280e-05;-0.0038247694427131305
1.29283e-05;-0.0037969063667564282
1.29285e-05;-0.0037683487210583735
1.29288e-05;-0.003738275500216787
1.29290e-05;-0.0037078946345526238
1.29293e-05;-0.0036766767463807144
1.29295e-05;-0.0036449826428900938
1.29298e-05;-0.003612982243396548
1.29300e-05;-0.0035808611870936542
1.29303e-05;-0.003548805126494523
1.29305e-05;-0.003516999467961439
1.29308e-05;-0.0034856234116953815
1.29310e-05;-0.0034548329016461338
1.29313e-05;-0.003424768347662705
1.29315e-05;-0.0033955930031145318
1.29318e-05;-0.003367501454220826
1.29320e-05;-0.0033406985320967864
1.29323e-05;-0.0033153885023874605
1.29325e-05;-0.0032917757903981283
1.29328e-05;-0.003270051504426179
1.29330e-05;-0.0032503474020663956
1.29333e-05;-0.003232711873352972
1.29335e-05;-0.003217161555295289
1.29338e-05;-0.0032037312124815163
1.29340e-05;-0.003192466945379163
1.29343e-05;-0.0031834147812851554
1.29345e-05;-0.00317698351287377
1.29348e-05;-0.003172914098884001
1.29350e-05;-0.0031702648120289652
1.29353e-05;-0.0031707142915865403
1.29355e-05;-0.0031728243361161534
1.29358e-05;-0.003178557790716156
1.29360e-05;-0.0031842912453161586
1.29363e-05;-0.0031924345953348752
1.29365e-05;-0.0032058364203158495
1.29368e-05;-0.0032192382452968234
1.29370e-05;-0.003232640070277707
1.29373e-05;-0.0032460418952586813
1.29375e-05;-0.0032617861233086676
1.29378e-05;-0.003282641555684933
1.29380e-05;-0.003303496988061057
1.29383e-05;-0.0033243524204373226
1.29385e-05;-0.003345207852813588
1.29388e-05;-0.003367282640144955
1.29390e-05;-0.0033920181020654547
1.29393e-05;-0.0034167535639859545
1.29395e-05;-0.0034418962434079026
1.29398e-05;-0.003467927485470551
1.29400e-05;-0.0034939587275331987
1.29403e-05;-0.0035199580917042836
1.29405e-05;-0.003545887897216513
1.29408e-05;-0.0035718177027287425
1.29410e-05;-0.0035973793027417023
1.29413e-05;-0.0036221374656499584
1.29415e-05;-0.0036463375215577153
1.29418e-05;-0.003669319768731346
1.29420e-05;-0.0036912768502351027
1.29423e-05;-0.0037109969848708687
1.29425e-05;-0.0037307171195065016
1.29428e-05;-0.003748906432432324
1.29430e-05;-0.0037637554395619933
1.29433e-05;-0.003778604446691562
1.29435e-05;-0.003791929680857005
1.29438e-05;-0.0038019299898325826
1.29440e-05;-0.0038119302988080923
1.29443e-05;-0.003819483461329844
1.29445e-05;-0.0038216968658437442
1.29448e-05;-0.0038239102703576298
1.29450e-05;-0.0038261236748715305
1.29453e-05;-0.0038283370793854308
1.29455e-05;-0.0038305504838993163
1.29458e-05;-0.003829815537117003
