Time(s);Current(A)
1.30000e-05;-0.007345304239903735
1.30003e-05;-0.007314620384879067
1.30005e-05;-0.007283936529854607
1.30008e-05;-0.0072515806227983915
1.30010e-05;-0.007217570226817594
1.30013e-05;-0.007183559830837026
1.30015e-05;-0.007149549434856227
1.30018e-05;-0.007115539038875429
1.30020e-05;-0.007081528642894862
1.30023e-05;-0.007047519196449236
1.30025e-05;-0.0070138684939628
1.30028e-05;-0.006980217791476593
1.30030e-05;-0.006946571711469206
1.30033e-05;-0.006914672050643477
1.30035e-05;-0.006882777100394952
1.30038e-05;-0.006852661853622186
1.30040e-05;-0.0068225531146246235
1.30043e-05;-0.006794903078707052
1.30045e-05;-0.006767261738057102
1.30048e-05;-0.006742905557255114
1.30050e-05;-0.006718559932226881
1.30053e-05;-0.0066982023848990045
1.30055e-05;-0.006677858870345486
1.30058e-05;-0.006662817079442871
1.30060e-05;-0.006647775288540359
1.30063e-05;-0.0066327511778721164
1.30065e-05;-0.0066244068380444015
1.30068e-05;-0.006616062498216743
1.30070e-05;-0.006607746533557053
1.30073e-05;-0.006610150993524118
1.30075e-05;-0.006612555453491167
1.30078e-05;-0.006614959913458233
1.30080e-05;-0.006617364373425298
1.30083e-05;-0.006619768833392348
1.30085e-05;-0.0066221732933594134
1.30088e-05;-0.006630915339695719
1.30090e-05;-0.006645928402878846
1.30093e-05;-0.0066609414660620744
1.30095e-05;-0.006675954529245303
1.30098e-05;-0.006690967592428431
1.30100e-05;-0.00670598065561166
1.30103e-05;-0.006721016150906151
1.30105e-05;-0.006744526724071749
1.30108e-05;-0.0067680372972375065
1.30110e-05;-0.0067915478704032636
1.30113e-05;-0.006815058443568862
1.30115e-05;-0.006838569016734619
1.30118e-05;-0.006862079589900376
1.30120e-05;-0.006885595386776852
1.30123e-05;-0.006911084754321503
1.30125e-05;-0.006936574121866154
1.30128e-05;-0.006962063489410633
1.30130e-05;-0.006987552856955284
1.30133e-05;-0.007013042224499935
1.30135e-05;-0.007038531592044413
1.30138e-05;-0.007064006451777245
1.30140e-05;-0.00708400011381757
1.30143e-05;-0.007103993775857896
1.30145e-05;-0.007123987437898085
1.30148e-05;-0.007143981099938411
1.30150e-05;-0.007161712172200711
1.30153e-05;-0.0071790077388204105
1.30155e-05;-0.007196303305440227
1.30158e-05;-0.007213598872060044
1.30160e-05;-0.007232533743022748
1.30163e-05;-0.007252259580471447
1.30165e-05;-0.0072719854179201454
1.30168e-05;-0.007291711255368711
1.30170e-05;-0.0073113925736396764
1.30173e-05;-0.007330558406065329
1.30175e-05;-0.007349724238490851
1.30178e-05;-0.007368890070916503
1.30180e-05;-0.0073880559033421556
1.30183e-05;-0.007420651261865993
1.30185e-05;-0.007452061206073697
1.30188e-05;-0.0074848135881312354
1.30190e-05;-0.007513825706304469
1.30193e-05;-0.007543156080977478
1.30195e-05;-0.007572874173150048
1.30198e-05;-0.007606795095000768
1.30200e-05;-0.007640716016851718
1.30203e-05;-0.007674636938702667
1.30205e-05;-0.007708557860553387
1.30208e-05;-0.007742478782404336
1.30210e-05;-0.007776399704255286
1.30213e-05;-0.0078103206261060055
1.30215e-05;-0.007844284441955342
1.30218e-05;-0.007878713225647762
1.30220e-05;-0.007913142009339949
1.30223e-05;-0.007947570793032368
1.30225e-05;-0.007981999576724788
1.30228e-05;-0.008016428360417207
1.30230e-05;-0.008050857144109393
1.30233e-05;-0.008085285927801812
1.30235e-05;-0.008119340846257227
1.30238e-05;-0.008149343092557403
1.30240e-05;-0.008179345338857781
1.30243e-05;-0.00820903564787529
1.30245e-05;-0.008235344579285424
1.30248e-05;-0.008261281254700678
1.30250e-05;-0.008283182702026623
1.30253e-05;-0.008304297357891191
1.30255e-05;-0.008316883251164572
1.30258e-05;-0.008329469144437954
1.30260e-05;-0.00834089848113856
1.30263e-05;-0.00833979082815648
1.30265e-05;-0.008338683175174399
1.30268e-05;-0.008336428929153835
1.30270e-05;-0.008321745697442415
1.30273e-05;-0.008307062465730994
1.30275e-05;-0.008290716954666018
1.30278e-05;-0.008256352455514312
1.30280e-05;-0.008221987956362605
1.30283e-05;-0.008187623457211132
1.30285e-05;-0.008153258958059425
1.30288e-05;-0.00811710187225755
1.30290e-05;-0.008061513276688794
1.30293e-05;-0.00800592468111966
1.30295e-05;-0.007950336085550527
1.30298e-05;-0.00789474748998177
1.30300e-05;-0.007838239663982966
1.30303e-05;-0.007771323571089723
1.30305e-05;-0.007699595900361049
1.30308e-05;-0.0076278682296318885
1.30310e-05;-0.007555729543448411
1.30313e-05;-0.007479135479436241
1.30315e-05;-0.007402361186888228
1.30318e-05;-0.007323551384836753
1.30320e-05;-0.00724381285463052
1.30323e-05;-0.007163619477402129
1.30325e-05;-0.007083415634077923
1.30328e-05;-0.00700371701457676
1.30330e-05;-0.006924921070251284
1.30333e-05;-0.006847434617599234
1.30335e-05;-0.006771674270822745
1.30338e-05;-0.0066979765190465605
1.30340e-05;-0.006626816314783662
1.30343e-05;-0.006558711638556741
1.30345e-05;-0.0064941618602114256
1.30348e-05;-0.006433711827008232
1.30350e-05;-0.006377801978836124
1.30353e-05;-0.006326630319715012
1.30355e-05;-0.006280610877335537
1.30358e-05;-0.0062351246085844796
1.30360e-05;-0.006195417903446662
1.30363e-05;-0.00615630926600893
1.30365e-05;-0.006123683639236288
1.30368e-05;-0.006091880974175835
1.30370e-05;-0.006068999154619678
1.30373e-05;-0.006046117335063521
1.30375e-05;-0.006024338970970245
1.30378e-05;-0.006014521984376887
1.30380e-05;-0.006004704997783531
1.30383e-05;-0.005994888011190239
1.30385e-05;-0.0059850710245968825
1.30388e-05;-0.005975254038003525
1.30390e-05;-0.005973969625842198
1.30393e-05;-0.0059787517132657945
1.30395e-05;-0.005983533800689392
1.30398e-05;-0.005988315888112988
1.30400e-05;-0.005993097975536552
1.30403e-05;-0.005998757622694729
1.30405e-05;-0.006013929953978219
1.30408e-05;-0.006029102285261606
1.30410e-05;-0.006044274616545095
1.30413e-05;-0.006059446947828585
1.30415e-05;-0.006074619279111972
1.30418e-05;-0.006090221117382482
1.30420e-05;-0.006110478780364231
1.30423e-05;-0.006130736443345841
1.30425e-05;-0.00615099410632759
1.30428e-05;-0.0061712517693093384
1.30430e-05;-0.00619150943229095
1.30433e-05;-0.006211751415816121
1.30435e-05;-0.006231823435164663
1.30438e-05;-0.006251895454513069
1.30440e-05;-0.0062717929153630215
1.30443e-05;-0.0062897981746980625
1.30445e-05;-0.00630760283269119
1.30448e-05;-0.006323232986630318
1.30450e-05;-0.006338745190677468
1.30453e-05;-0.006352978826415863
1.30455e-05;-0.006367489599171279
1.30458e-05;-0.006385004517170785
1.30460e-05;-0.006402923784232937
1.30463e-05;-0.006425226165927254
1.30465e-05;-0.006447528547621571
1.30468e-05;-0.006470206502118289
1.30470e-05;-0.006496955638665536
1.30473e-05;-0.006523704775212784
1.30475e-05;-0.006551371120639453
1.30478e-05;-0.006588979944068004
1.30480e-05;-0.006626588767496556
1.30482e-05;-0.006664197590924853
1.30485e-05;-0.006701806414353403
1.30488e-05;-0.006739415237781955
1.30490e-05;-0.006778036815139762
1.30493e-05;-0.006827636571936581
1.30495e-05;-0.006877236328733736
1.30498e-05;-0.00692683608553089
1.30500e-05;-0.006976435842327709
1.30503e-05;-0.007026035599124864
1.30505e-05;-0.00707624818387164
1.30508e-05;-0.0071331037793269745
1.30510e-05;-0.007189959374782695
1.30513e-05;-0.007246814970238415
1.30515e-05;-0.00730367056569375
1.30518e-05;-0.007360526161149469
1.30520e-05;-0.007417381756605189
1.30523e-05;-0.0074733847363830826
1.30525e-05;-0.007528781522485965
1.30528e-05;-0.007584178308588847
1.30530e-05;-0.007639575094691353
1.30533e-05;-0.0076949718807942345
1.30535e-05;-0.007750368666897116
1.30538e-05;-0.007805115396929694
1.30540e-05;-0.00785281556611549
1.30543e-05;-0.007900515735301289
1.30545e-05;-0.007946711605391009
1.30548e-05;-0.007976600981930983
1.30550e-05;-0.00800649035847096
1.30553e-05;-0.008036379735010733
1.30555e-05;-0.008066269111550709
1.30558e-05;-0.008096158488090683
1.30560e-05;-0.008126047864630457
1.30563e-05;-0.008155937241170433
1.30565e-05;-0.008185826617710409
1.30567e-05;-0.008215715994250182
1.30570e-05;-0.008231742953242955
1.30573e-05;-0.008237913994656317
1.30575e-05;-0.008244085036069678
1.30578e-05;-0.008250256077482998
1.30580e-05;-0.00825642711889636
1.30583e-05;-0.008262598160309722
1.30585e-05;-0.008268769201723042
1.30588e-05;-0.008274940243136403
1.30590e-05;-0.008281111284549766
1.30593e-05;-0.00828588596331558
1.30595e-05;-0.008275524171830693
1.30598e-05;-0.008265162380345808
1.30600e-05;-0.008254800588860993
1.30603e-05;-0.008244438797376106
1.30605e-05;-0.008234077005891221
1.30608e-05;-0.008223715214406405
1.30610e-05;-0.008213353422921519
1.30613e-05;-0.008202991631436634
1.30615e-05;-0.00819206991554605
1.30618e-05;-0.00817507865953418
1.30620e-05;-0.00815808740352231
1.30623e-05;-0.008141096147510556
1.30625e-05;-0.008124104891498686
1.30628e-05;-0.008107113635486817
1.30630e-05;-0.00809012237947506
1.30633e-05;-0.008073131123463192
1.30635e-05;-0.008056139867451321
1.30638e-05;-0.008039244200188884
1.30640e-05;-0.008023384708065757
1.30643e-05;-0.00800752521594263
1.30645e-05;-0.007991839521942894
1.30648e-05;-0.00797803778704838
1.30650e-05;-0.007964261734474416
1.30652e-05;-0.007950764076400605
1.30655e-05;-0.007936814598267837
1.30658e-05;-0.007917967423325343
1.30660e-05;-0.007898480301065257
1.30663e-05;-0.00787205619609673
1.30665e-05;-0.007845632091128023
1.30668e-05;-0.00781856109058762
1.30670e-05;-0.0077844777887655075
1.30673e-05;-0.007750394486943163
1.30675e-05;-0.007715362250252096
1.30678e-05;-0.007670043628110326
1.30680e-05;-0.00762472500596825
1.30683e-05;-0.00757842111483227
1.30685e-05;-0.007521436978951589
1.30688e-05;-0.007464452843070523
1.30690e-05;-0.007407468707189457
1.30693e-05;-0.007349514454097553
1.30695e-05;-0.007281044200488432
1.30698e-05;-0.007212573946879311
1.30700e-05;-0.007144103693270654
1.30703e-05;-0.007075017565422902
1.30705e-05;-0.006999255405300508
1.30708e-05;-0.006923273568913186
1.30710e-05;-0.006844910457670534
1.30713e-05;-0.006766423674058949
1.30715e-05;-0.006686513187157275
1.30718e-05;-0.006605646013465128
1.30720e-05;-0.00652415862166432
1.30723e-05;-0.006442536814467284
1.30725e-05;-0.006361267594919957
1.30728e-05;-0.00628083711340684
1.30730e-05;-0.006201723536375094
1.30733e-05;-0.006124302241783464
1.30735e-05;-0.006048773043950082
1.30737e-05;-0.005975358486599716
1.30740e-05;-0.005904476151544024
1.30743e-05;-0.0058366381482103215
1.30745e-05;-0.005772355385690264
1.30748e-05;-0.005712139704398466
1.30750e-05;-0.005656486649644617
1.30753e-05;-0.005605666438455503
1.30755e-05;-0.005559508383864024
1.30758e-05;-0.005517722791213774
1.30760e-05;-0.0054803074219641505
1.30763e-05;-0.005447427585872342
1.30765e-05;-0.0054192485533651824
1.30768e-05;-0.005395935247198084
1.30770e-05;-0.005377642705770269
1.30773e-05;-0.005364572738396609
1.30775e-05;-0.005357935900899234
1.30778e-05;-0.005352204597901121
1.30780e-05;-0.005356289223492965
1.30783e-05;-0.005360373849084808
1.30785e-05;-0.005365738067782362
1.30788e-05;-0.005384972983356783
1.30790e-05;-0.005404207898931204
1.30793e-05;-0.005423442814505494
1.30795e-05;-0.005442677730079915
1.30798e-05;-0.005470339940748068
1.30800e-05;-0.005503993799383
1.30803e-05;-0.005537647658018161
1.30805e-05;-0.0055713015166533215
1.30808e-05;-0.0056056849376036255
1.30810e-05;-0.005647976761378202
1.30813e-05;-0.005690268585152778
1.30815e-05;-0.005732888668050748
1.30818e-05;-0.005779067056149624
1.30820e-05;-0.005825245444248499
1.30822e-05;-0.005871527256454514
1.30825e-05;-0.00591893017851858
1.30828e-05;-0.005966307024964732
1.30830e-05;-0.006013401213595313
1.30833e-05;-0.006060354818068371
1.30835e-05;-0.006105784500427471
1.30838e-05;-0.006150948431730415
1.30840e-05;-0.00619323164077089
1.30843e-05;-0.006235020625738362
1.30845e-05;-0.006271452257432599
1.30848e-05;-0.0063078838891265894
1.30850e-05;-0.006343592928609748
1.30853e-05;-0.0063714691206927096
1.30855e-05;-0.006399345312775482
1.30858e-05;-0.006426141275216229
1.30860e-05;-0.006441227626322061
1.30863e-05;-0.00645631397742779
1.30865e-05;-0.006471400328533622
1.30868e-05;-0.006486486679639453
1.30870e-05;-0.0065015730307451825
1.30873e-05;-0.006516659381851014
1.30875e-05;-0.0065217099234707735
1.30878e-05;-0.006519625193707606
1.30880e-05;-0.006517540463944424
1.30883e-05;-0.006515455734181242
1.30885e-05;-0.006513371004418074
1.30888e-05;-0.0065112862746548915
1.30890e-05;-0.006508067206602754
1.30893e-05;-0.006492551993391482
1.30895e-05;-0.006477036780180105
1.30898e-05;-0.006461521566968728
1.30900e-05;-0.0064460063537574545
1.30903e-05;-0.006430491140546077
1.30905e-05;-0.006414286640858978
1.30907e-05;-0.00639061032553662
1.30910e-05;-0.006366934010214102
1.30913e-05;-0.006343257694891583
1.30915e-05;-0.006319581379569065
1.30918e-05;-0.006295905064246707
1.30920e-05;-0.006272002360383385
1.30923e-05;-0.006245645621080908
1.30925e-05;-0.006219288881778611
1.30928e-05;-0.006192925738283403
1.30930e-05;-0.0061664931738013105
1.30933e-05;-0.006140128236808035
1.30935e-05;-0.006114496376909468
1.30938e-05;-0.006089003331329684
1.30940e-05;-0.006065015022944833
1.30943e-05;-0.006041167574025091
1.30945e-05;-0.006018960183203726
1.30948e-05;-0.005998106855261325
1.30950e-05;-0.005978804261461217
1.30953e-05;-0.0059615895628608
1.30955e-05;-0.005947544927926162
1.30958e-05;-0.005937603557225495
1.30960e-05;-0.005932161458019402
1.30963e-05;-0.005932479737509275
1.30965e-05;-0.005933476907313164
1.30968e-05;-0.005941833199113929
1.30970e-05;-0.005951082892187778
1.30973e-05;-0.0059700169905706115
1.30975e-05;-0.0059889510889534455
1.30978e-05;-0.006009414553133626
1.30980e-05;-0.0060464562321583225
1.30983e-05;-0.006083497911183018
1.30985e-05;-0.006120539590207464
1.30988e-05;-0.0061575812692321605
1.30990e-05;-0.006196209108821336
1.30992e-05;-0.006252030814430518
1.30995e-05;-0.006307852520040078
1.30998e-05;-0.006363674225649638
1.31000e-05;-0.006419495931259198
1.31003e-05;-0.0064762923641784945
1.31005e-05;-0.006543654770780003
1.31008e-05;-0.006611017177381511
1.31010e-05;-0.0066788029817478065
1.31013e-05;-0.006751178387327612
1.31015e-05;-0.006823553792907417
1.31018e-05;-0.0068961396388176445
1.31020e-05;-0.006971006642725404
1.31023e-05;-0.007045873646633164
1.31025e-05;-0.007120622582659776
1.31028e-05;-0.007194091671383038
1.31030e-05;-0.0072675607601063
1.31033e-05;-0.0073406115508202596
1.31035e-05;-0.007409128021312146
1.31038e-05;-0.007477644491804032
1.31040e-05;-0.007544908441163477
1.31043e-05;-0.007598595151858902
1.31045e-05;-0.007652281862554328
1.31048e-05;-0.0077059685732493895
1.31050e-05;-0.007759655283944815
1.31053e-05;-0.007813341994640241
1.31055e-05;-0.00786521597138164
1.31058e-05;-0.007897440042904193
1.31060e-05;-0.007929664114426747
1.31063e-05;-0.007961888185949083
1.31065e-05;-0.007994112257471635
1.31068e-05;-0.00802633632899419
1.31070e-05;-0.008056606287714103
1.31073e-05;-0.00806569380469513
1.31075e-05;-0.008074781321676158
1.31077e-05;-0.008083868838657122
1.31080e-05;-0.00809295635563815
1.31083e-05;-0.008102043872619178
1.31085e-05;-0.008111131389600205
1.31088e-05;-0.00812021890658117
1.31090e-05;-0.008129306423562197
1.31093e-05;-0.0081269390621873
1.31095e-05;-0.008116427498206083
1.31098e-05;-0.008105915934224793
1.31100e-05;-0.008095404370243505
1.31103e-05;-0.008084892806262288
1.31105e-05;-0.008074381242280998
1.31108e-05;-0.00806386967829971
1.31110e-05;-0.00805335811431849
1.31113e-05;-0.008042056594985438
1.31115e-05;-0.008022192016653218
1.31118e-05;-0.008002327438321133
1.31120e-05;-0.007982462859988913
1.31123e-05;-0.007962598281656694
1.31125e-05;-0.007942733703324609
1.31128e-05;-0.007922869124992389
1.31130e-05;-0.007903028043370763
1.31133e-05;-0.007883441664396322
1.31135e-05;-0.007863855285421748
1.31138e-05;-0.007844268906447174
1.31140e-05;-0.007824682527472733
1.31143e-05;-0.007805096148498159
1.31145e-05;-0.007785509769523585
1.31148e-05;-0.007766271938823747
1.31150e-05;-0.007750812346266131
1.31153e-05;-0.007735352753708516
1.31155e-05;-0.007719893161151005
1.31158e-05;-0.0077044335685933895
1.31160e-05;-0.007688973976035774
1.31162e-05;-0.007673514383478262
1.31165e-05;-0.007658054790920647
1.31168e-05;-0.007642595198363031
1.31170e-05;-0.007626893893961232
1.31173e-05;-0.007608572450612233
1.31175e-05;-0.00759025100726311
1.31178e-05;-0.007571929563913987
1.31180e-05;-0.007553608120564989
1.31183e-05;-0.007535286677215866
1.31185e-05;-0.007516965233866743
1.31188e-05;-0.007498643790517744
1.31190e-05;-0.007480322347168621
1.31193e-05;-0.0074616814005766295
1.31195e-05;-0.00743957706188877
1.31198e-05;-0.007417472723200761
1.31200e-05;-0.007395368384512753
1.31203e-05;-0.007373264045824893
1.31205e-05;-0.007351159707136884
1.31208e-05;-0.007329055368448876
1.31210e-05;-0.0073069510297610165
1.31213e-05;-0.007284846691073007
1.31215e-05;-0.007262581265456555
1.31218e-05;-0.007240201310070292
1.31220e-05;-0.007217821354683878
1.31223e-05;-0.0071954413992974635
1.31225e-05;-0.007173061443911201
1.31228e-05;-0.0071506814885247865
1.31230e-05;-0.007128301533138372
1.31233e-05;-0.0071059215777521095
1.31235e-05;-0.007083769495796371
1.31238e-05;-0.007064087545386164
1.31240e-05;-0.00704440559497609
1.31243e-05;-0.007024908540230026
1.31245e-05;-0.0070074157411416675
1.31247e-05;-0.006990132018952887
1.31250e-05;-0.006975114675267856
1.31253e-05;-0.006960597481335319
1.31255e-05;-0.006951501874630745
1.31258e-05;-0.006942406267926233
1.31260e-05;-0.006934058660442601
1.31263e-05;-0.006933819310540924
1.31265e-05;-0.006933579960639249
1.31268e-05;-0.006934548862714834
1.31270e-05;-0.006948615129040653
1.31273e-05;-0.006962681395366376
1.31275e-05;-0.006976747661692194
1.31278e-05;-0.006990813928018013
1.31280e-05;-0.007004880194343736
1.31283e-05;-0.007018946460669555
1.31285e-05;-0.007044040205174141
1.31288e-05;-0.007076974278819288
1.31290e-05;-0.007109908352464657
1.31293e-05;-0.007142842426110026
1.31295e-05;-0.007175776499755172
1.31298e-05;-0.007208710573400542
1.31300e-05;-0.0072427894026699455
1.31303e-05;-0.007289277300304137
1.31305e-05;-0.007335765197938643
1.31308e-05;-0.007382253095573149
1.31310e-05;-0.007428740993207341
1.31313e-05;-0.007475228890841847
1.31315e-05;-0.007521716788476353
1.31318e-05;-0.007568491332494837
1.31320e-05;-0.007618373102637324
1.31323e-05;-0.007668254872779812
1.31325e-05;-0.007718136642921961
1.31328e-05;-0.007768018413064448
1.31330e-05;-0.007817900183206935
1.31332e-05;-0.007867781953349084
1.31335e-05;-0.00791723320891737
1.31338e-05;-0.007962017717562905
1.31340e-05;-0.00800680222620844
1.31343e-05;-0.008050995451538312
1.31345e-05;-0.008088779208390462
1.31348e-05;-0.008126562965242612
1.31350e-05;-0.008163515999320393
1.31353e-05;-0.00819146405846203
1.31355e-05;-0.008219412117603665
1.31358e-05;-0.008245742758031988
1.31360e-05;-0.008254540696302234
1.31363e-05;-0.008263338634572478
1.31365e-05;-0.008272136572842665
1.31368e-05;-0.00828093451111291
1.31370e-05;-0.008289732449383155
1.31373e-05;-0.00829853038765334
1.31375e-05;-0.008305064719577772
1.31378e-05;-0.008287061722026092
1.31380e-05;-0.008269058724474533
1.31383e-05;-0.008251055726922852
1.31385e-05;-0.008233052729371172
1.31388e-05;-0.008215049731819614
1.31390e-05;-0.008197046734267934
1.31393e-05;-0.00817733629410049
1.31395e-05;-0.008139117299165397
1.31398e-05;-0.008100898304230043
1.31400e-05;-0.00806267930929469
1.31403e-05;-0.008024460314359595
1.31405e-05;-0.007986241319424242
1.31408e-05;-0.007947109763080436
1.31410e-05;-0.007898086106906229
1.31413e-05;-0.007849062450731688
1.31415e-05;-0.007800038794557147
1.31418e-05;-0.007751015138382939
1.31420e-05;-0.007701991482208398
1.31423e-05;-0.007652774723564136
1.31425e-05;-0.0076014647480791295
1.31428e-05;-0.00755015477259447
1.31430e-05;-0.00749896152122359
1.31433e-05;-0.0074490335508290975
1.31435e-05;-0.007399321127076406
1.31438e-05;-0.007351945213367004
1.31440e-05;-0.007305001100875851
1.31443e-05;-0.007262737682440087
1.31445e-05;-0.007220474264004037
1.31448e-05;-0.007178776761200457
1.31450e-05;-0.007143213743027719
1.31453e-05;-0.0071077389807918554
1.31455e-05;-0.007073220906547595
1.31458e-05;-0.007038702832303567
1.31460e-05;-0.007003952594602643
1.31463e-05;-0.006966685721779405
1.31465e-05;-0.006929418848956419
