Time(s);Current(A)
3.30000e-06;0.003631666079974236
3.30025e-06;0.0036358366355956216
3.30050e-06;0.0036400071912170004
3.30075e-06;0.003644177746838386
3.30100e-06;0.0036483483024597712
3.30125e-06;0.003652518858081157
3.30150e-06;0.0036566894137025356
3.30175e-06;0.003660859969323921
3.30200e-06;0.0036650305249453065
3.30225e-06;0.0036692010805666852
3.30250e-06;0.003673371636188071
3.30275e-06;0.003677542191809456
3.30300e-06;0.003681712747430842
3.30325e-06;0.0036858833030522205
3.30350e-06;0.0036900538586736057
3.30375e-06;0.0036906074017164594
3.30400e-06;0.003687312920868338
3.30425e-06;0.0036840184400202115
3.30450e-06;0.0036807239591720845
3.30475e-06;0.003677429478323963
3.30500e-06;0.0036741349974758366
3.30525e-06;0.0036708405166277097
3.30550e-06;0.0036675460357795827
3.30575e-06;0.0036642515549314618
3.30600e-06;0.003660957074083335
3.30625e-06;0.0036576625932352082
3.30650e-06;0.003654368112387087
3.30675e-06;0.00365107363153896
3.30700e-06;0.0036477791506908334
3.30725e-06;0.0036444846698427064
3.30750e-06;0.003641190188994585
3.30775e-06;0.003633793525962013
3.30800e-06;0.0036220326826263607
3.30825e-06;0.0036102718392907285
3.30850e-06;0.0035985109959550763
3.30875e-06;0.003586750152619424
3.30900e-06;0.003574989309283792
3.30925e-06;0.0035632284659481398
3.30950e-06;0.003551467622612488
3.30975e-06;0.003539706779276836
3.31000e-06;0.0035279459359412037
3.31025e-06;0.0035161850926055515
3.31050e-06;0.0035044242492698993
3.31075e-06;0.003492663405934267
3.31100e-06;0.003480902562598615
3.31125e-06;0.003469141719262963
3.31150e-06;0.0034573808759273106
3.31175e-06;0.0034477905857731106
3.31200e-06;0.003440509477662869
3.31225e-06;0.0034332283695526268
3.31250e-06;0.003425947261442397
3.31275e-06;0.0034186661533321555
3.31300e-06;0.0034113850452219137
3.31325e-06;0.003404103937111684
3.31350e-06;0.003396822829001442
3.31375e-06;0.0033895417208912003
3.31400e-06;0.0033822606127809586
3.31425e-06;0.003374979504670729
3.31450e-06;0.003367698396560487
3.31475e-06;0.003360417288450245
3.31500e-06;0.0033531361803400155
3.31525e-06;0.003345855072229774
3.31550e-06;0.0033385739641195317
3.31575e-06;0.00333129285600929
3.31600e-06;0.003339668025879695
3.31625e-06;0.0033482892507310158
3.31650e-06;0.0033569104755823364
3.31675e-06;0.0033655317004336427
3.31700e-06;0.0033741529252849633
3.31725e-06;0.003382774150136284
3.31750e-06;0.0033913953749875898
3.31775e-06;0.0034000165998389104
3.31800e-06;0.003408637824690231
3.31825e-06;0.0034172590495415516
3.31850e-06;0.0034258802743928575
3.31875e-06;0.003434501499244178
3.31900e-06;0.0034431227240954987
3.31925e-06;0.003451743948946805
3.31950e-06;0.003460365173798125
3.31975e-06;0.003468986398649446
3.32000e-06;0.003480832551077287
3.32025e-06;0.003496109600714528
3.32050e-06;0.0035113866503517946
3.32075e-06;0.003526663699989061
3.32100e-06;0.0035419407496263015
3.32125e-06;0.003557217799263568
3.32150e-06;0.003572494848900835
3.32175e-06;0.0035846932315352614
3.32200e-06;0.0035936163189023646
3.32225e-06;0.003602539406269468
3.32250e-06;0.003611462493636571
3.32275e-06;0.003620385581003659
3.32300e-06;0.0036293086683707627
3.32325e-06;0.003638231755737866
3.32350e-06;0.003647154843104954
3.32375e-06;0.0036560779304720572
3.32400e-06;0.003665001017839161
3.32425e-06;0.003673924105206264
3.32450e-06;0.003682847192573352
3.32475e-06;0.0036917702799404554
3.32500e-06;0.0037006933673075586
3.32525e-06;0.003709616454674647
3.32550e-06;0.0037185395420417503
3.32575e-06;0.0037274626294088536
3.32600e-06;0.003736385716775942
3.32625e-06;0.0037453088041430453
3.32650e-06;0.003749149641052591
3.32675e-06;0.003747583634397619
3.32700e-06;0.0037460176277426503
3.32725e-06;0.0037444516210876785
3.32750e-06;0.003742885614432707
3.32775e-06;0.0037413196077777378
3.32800e-06;0.0037397536011227663
3.32825e-06;0.0037381875944677945
3.32850e-06;0.003736621587812823
3.32875e-06;0.0037350555811578538
3.32900e-06;0.0037334895745028823
3.32925e-06;0.0037319235678479105
3.32950e-06;0.0037303575611929416
3.32975e-06;0.0037287915545379698
3.33000e-06;0.0037272255478829983
3.33025e-06;0.003725659541228029
3.33050e-06;0.0037240935345730576
3.33075e-06;0.0037225275279180858
3.33100e-06;0.0037209615212631143
3.33125e-06;0.0037182191888710187
3.33150e-06;0.003714225401184678
3.33175e-06;0.0037102316134983377
3.33200e-06;0.0037062378258120037
3.33225e-06;0.003702244038125663
3.33250e-06;0.0036982502504393226
3.33275e-06;0.003694256462752982
3.33300e-06;0.0036902626750666486
3.33325e-06;0.003686268887380308
3.33350e-06;0.0036822750996939675
3.33375e-06;0.0036782813120076335
3.33400e-06;0.003674287524321293
3.33425e-06;0.0036702937366349525
3.33450e-06;0.003666299948948619
3.33475e-06;0.0036623061612622784
3.33500e-06;0.003658312373575938
3.33525e-06;0.0036520930721691868
3.33550e-06;0.0036435061179601793
3.33575e-06;0.003634919163751157
3.33600e-06;0.003626332209542135
3.33625e-06;0.003617745255333127
3.33650e-06;0.0036091583011241047
3.33675e-06;0.0036005713469150825
3.33700e-06;0.0035919843927060603
3.33725e-06;0.003583397438497053
3.33750e-06;0.0035748104842880306
3.33775e-06;0.0035662235300790083
3.33800e-06;0.003557636575870001
3.33825e-06;0.0035490496216609786
3.33850e-06;0.0035404626674519564
3.33875e-06;0.0035318757132429485
3.33900e-06;0.0035232887590339263
3.33925e-06;0.003512958004691536
3.33950e-06;0.0035007720772110757
3.33975e-06;0.0034885861497306364
3.34000e-06;0.0034764002222501763
3.34025e-06;0.003464214294769716
3.34050e-06;0.003452028367289277
3.34075e-06;0.0034398424398088168
3.34100e-06;0.0034276565123283567
3.34125e-06;0.0034154705848478966
3.34150e-06;0.0034032846573674573
3.34175e-06;0.003391098729886997
3.34200e-06;0.0033789128024065375
3.34225e-06;0.0033667268749260977
3.34250e-06;0.0033596709618845463
3.34275e-06;0.003352695672450351
3.34300e-06;0.003345720383016168
3.34325e-06;0.003338745093581973
3.34350e-06;0.003331769804147778
3.34375e-06;0.0033247945147135832
3.34400e-06;0.0033178192252794
3.34425e-06;0.0033108439358452047
3.34450e-06;0.00330386864641101
3.34475e-06;0.0032968933569768265
3.34500e-06;0.0032899180675426314
3.34525e-06;0.0032829427781084367
3.34550e-06;0.0032818496181740023
3.34575e-06;0.003287014267511524
3.34600e-06;0.003292178916849055
3.34625e-06;0.003297343566186586
3.34650e-06;0.0033025082155241077
3.34675e-06;0.0033076728648616387
3.34700e-06;0.0033128375141991697
3.34725e-06;0.0033180021635366916
3.34750e-06;0.003323166812874222
3.34775e-06;0.003328331462211753
3.34800e-06;0.003333496111549284
3.34825e-06;0.003338660760886806
3.34850e-06;0.003343825410224337
3.34875e-06;0.003352734072080568
3.34900e-06;0.0033656258689995656
3.34925e-06;0.0033785176659185847
3.34950e-06;0.0033914094628376035
3.34975e-06;0.0034043012597566227
3.35000e-06;0.00341719305667562
3.35025e-06;0.0034300848535946393
3.35050e-06;0.003442976650513658
3.35075e-06;0.0034558684474326556
3.35100e-06;0.0034687602443516747
3.35125e-06;0.003481652041270694
3.35150e-06;0.003494543838189691
3.35175e-06;0.00350743563510871
3.35200e-06;0.0035176533704352566
3.35225e-06;0.003525026257237399
3.35250e-06;0.003532399144039529
3.35275e-06;0.0035397720308416713
3.35300e-06;0.0035471449176438137
3.35325e-06;0.003554517804445944
3.35350e-06;0.0035618906912480864
3.35375e-06;0.003569263578050229
3.35400e-06;0.0035766364648523712
3.35425e-06;0.003584009351654501
3.35450e-06;0.0035913822384566435
3.35475e-06;0.003598755125258786
3.35500e-06;0.0036061280120609157
3.35525e-06;0.0036135008988630586
3.35550e-06;0.003620873785665201
3.35575e-06;0.003628246672467331
3.35600e-06;0.0036356195592694733
3.35625e-06;0.0036429924460716157
3.35650e-06;0.003650365332873758
3.35675e-06;0.003657738219675888
3.35700e-06;0.003656889576834182
3.35725e-06;0.0036559117239509348
3.35750e-06;0.003654933871067689
3.35775e-06;0.0036539560181844417
3.35800e-06;0.0036529781653011945
3.35825e-06;0.003652000312417947
3.35850e-06;0.0036510224595347014
3.35875e-06;0.0036500446066514538
3.35900e-06;0.0036490667537682066
3.35925e-06;0.0036480889008849607
3.35950e-06;0.0036471110480017135
3.35975e-06;0.0036461331951184663
3.36000e-06;0.0036451553422352204
3.36025e-06;0.003644177489351973
3.36050e-06;0.0036431996364687256
3.36075e-06;0.0036422217835854784
3.36100e-06;0.003641243930702233
3.36125e-06;0.0036402660778189853
3.36150e-06;0.003639288224935738
3.36175e-06;0.0036387136877541384
3.36200e-06;0.0036385682252363357
3.36225e-06;0.0036384227627185325
3.36250e-06;0.00363827730020073
3.36275e-06;0.003638131837682927
3.36300e-06;0.0036379863751651244
3.36325e-06;0.0036378409126473217
3.36350e-06;0.003637695450129519
3.36375e-06;0.0036375499876117163
3.36400e-06;0.0036374045250939136
3.36425e-06;0.003637259062576111
3.36450e-06;0.003637113600058308
3.36475e-06;0.0036369681375405054
3.36500e-06;0.0036368226750227023
3.36525e-06;0.0036366772125049
3.36550e-06;0.003636531749987097
3.36575e-06;0.003636386287469294
3.36600e-06;0.003636240824951492
3.36625e-06;0.0036360953624336887
3.36650e-06;0.0036458259749781218
3.36675e-06;0.0036557118004969438
3.36700e-06;0.0036655976260157493
3.36725e-06;0.0036754834515345712
3.36750e-06;0.0036853692770533937
3.36775e-06;0.0036952551025721987
3.36800e-06;0.0037051409280910207
3.36825e-06;0.003715026753609843
3.36850e-06;0.003724912579128648
3.36875e-06;0.0037347984046474706
3.36900e-06;0.0037446842301662926
3.36925e-06;0.0037545700556851145
3.36950e-06;0.00376445588120392
3.36975e-06;0.003774341706722742
3.37000e-06;0.003784227532241564
3.37025e-06;0.0037941133577603695
3.37050e-06;0.0038039991832791915
3.37075e-06;0.003813885008798014
3.37100e-06;0.0038228135522782643
3.37125e-06;0.003830723674042708
3.37150e-06;0.0038386337958071647
3.37175e-06;0.0038465439175716216
3.37200e-06;0.003854454039336065
3.37225e-06;0.003862364161100522
3.37250e-06;0.0038702742828649788
3.37275e-06;0.0038781844046294218
3.37300e-06;0.0038860945263938787
3.37325e-06;0.0038940046481583356
3.37350e-06;0.0039019147699227924
3.37375e-06;0.0039098248916872354
3.37400e-06;0.003917735013451692
3.37425e-06;0.003925645135216149
3.37450e-06;0.003933555256980593
3.37475e-06;0.003941465378745049
3.37500e-06;0.003949375500509506
3.37525e-06;0.003957285622273963
3.37550e-06;0.003965195744038407
3.37575e-06;0.003973105865802864
3.37600e-06;0.0039810159875673205
3.37625e-06;0.003983362463361368
3.37650e-06;0.003979789954313837
3.37675e-06;0.003976217445266305
3.37700e-06;0.0039726449362187805
3.37725e-06;0.003969072427171249
3.37750e-06;0.003965499918123717
3.37775e-06;0.003961927409076186
3.37800e-06;0.00395835490002866
3.37825e-06;0.003954782390981128
3.37850e-06;0.003951209881933597
3.37875e-06;0.003947637372886071
3.37900e-06;0.00394406486383854
3.37925e-06;0.0039404923547910085
3.37950e-06;0.003936919845743483
3.37975e-06;0.003933347336695952
3.38000e-06;0.00392977482764842
3.38025e-06;0.003926202318600888
3.38050e-06;0.003922629809553363
3.38075e-06;0.003919057300505831
3.38100e-06;0.0039154847914583
3.38125e-06;0.0039119122824107745
3.38150e-06;0.00390733160577448
3.38175e-06;0.0039016783719144532
3.38200e-06;0.0038960251380544264
3.38225e-06;0.0038903719041944096
3.38250e-06;0.0038847186703343827
3.38275e-06;0.003879065436474356
3.38300e-06;0.003873412202614339
3.38325e-06;0.0038677589687543122
3.38350e-06;0.0038621057348942854
3.38375e-06;0.003856452501034268
3.38400e-06;0.0038507992671742417
3.38425e-06;0.00384243828094072
3.38450e-06;0.0038311966036388687
3.38475e-06;0.0038199549263370366
3.38500e-06;0.0038087132490351857
3.38525e-06;0.0037974715717333345
3.38550e-06;0.0037862298944315023
3.38575e-06;0.003774988217129651
3.38600e-06;0.0037637465398277998
3.38625e-06;0.0037525048625259485
3.38650e-06;0.0037412631852241167
3.38675e-06;0.0037300215079222655
3.38700e-06;0.0037133926096439888
3.38725e-06;0.0036910324194270447
3.38750e-06;0.0036686722292100624
3.38775e-06;0.00364631203899308
3.38800e-06;0.0036239518487761356
3.38825e-06;0.0036015916585591533
3.38850e-06;0.003579231468342171
3.38875e-06;0.0035568712781251888
3.38900e-06;0.0035345110879082446
3.38925e-06;0.0035121508976912624
3.38950e-06;0.00348979070747428
3.38975e-06;0.0034633805373414407
3.39000e-06;0.003436906717486725
3.39025e-06;0.0034104328976320092
3.39050e-06;0.0033839590777772935
3.39075e-06;0.003357485257922623
3.39100e-06;0.003331011438067907
3.39125e-06;0.0033045376182131913
3.39150e-06;0.0032780637983585202
3.39175e-06;0.0032515899785038045
3.39200e-06;0.0032251161586490888
3.39225e-06;0.0032028283679871104
3.39250e-06;0.0031849939597783762
3.39275e-06;0.0031671595515696425
3.39300e-06;0.0031493251433609088
3.39325e-06;0.003131490735152205
3.39350e-06;0.0031136563269434712
3.39375e-06;0.003095821918734737
3.39400e-06;0.0030779875105260337
3.39425e-06;0.0030601531023172995
3.39450e-06;0.0030423186941085658
3.39475e-06;0.003035443650674885
3.39500e-06;0.0030402279245898716
3.39525e-06;0.003045012198504866
3.39550e-06;0.00304979647241986
3.39575e-06;0.0030545807463348467
3.39600e-06;0.003059365020249841
3.39625e-06;0.0030641492941648357
3.39650e-06;0.0030689335680798217
3.39675e-06;0.0030737178419948164
3.39700e-06;0.0030785021159098107
3.39725e-06;0.0030938930994055666
3.39750e-06;0.0031205682216781582
3.39775e-06;0.0031472433439507955
3.39800e-06;0.0031739184662234327
3.39825e-06;0.0032005935884960248
3.39850e-06;0.003227268710768662
3.39875e-06;0.003253943833041299
3.39900e-06;0.0032806189553139364
3.39925e-06;0.003307294077586528
3.39950e-06;0.0033387737323494686
3.39975e-06;0.0033753647754243945
3.40000e-06;0.0034119558184992583
3.40025e-06;0.0034485468615741838
3.40050e-06;0.0034851379046491097
3.40075e-06;0.0035217289477239735
3.40100e-06;0.0035583199907988994
3.40125e-06;0.003594911033873825
3.40150e-06;0.0036315020769487508
3.40175e-06;0.003664840933990946
3.40200e-06;0.003694719894423145
3.40225e-06;0.0037245988548553436
3.40250e-06;0.0037544778152874916
3.40275e-06;0.0037843567757196903
3.40300e-06;0.003814235736151889
3.40325e-06;0.0038441146965840873
3.40350e-06;0.0038739936570162357
3.40375e-06;0.003903872617448434
3.40400e-06;0.003933751577880633
3.40425e-06;0.003939336439501995
3.40450e-06;0.003944539493641484
3.40475e-06;0.003949742547780974
3.40500e-06;0.003954945601920455
3.40525e-06;0.003960148656059945
3.40550e-06;0.0039653517101994355
3.40575e-06;0.003970554764338926
3.40600e-06;0.0039757578184784065
3.40625e-06;0.003980960872617897
3.40650e-06;0.00397263283184029
3.40675e-06;0.003949909492342285
3.40700e-06;0.003927186152844242
3.40725e-06;0.0039044628133461986
3.40750e-06;0.0038817394738481555
3.40775e-06;0.003859016134350151
3.40800e-06;0.003836292794852108
3.40825e-06;0.003813569455354065
3.40850e-06;0.0037908461158560605
3.40875e-06;0.003759819393725407
3.40900e-06;0.0037199589686223574
3.40925e-06;0.003680098543519376
3.40950e-06;0.0036402381184163263
3.40975e-06;0.003600377693313277
3.41000e-06;0.0035605172682102275
3.41025e-06;0.003520656843107246
3.41050e-06;0.0034807964180041963
3.41075e-06;0.003440935992901147
3.41100e-06;0.003401451879828142
3.41125e-06;0.0033623681130771506
3.41150e-06;0.0033232843463261593
3.41175e-06;0.003284200579575168
3.41200e-06;0.003245116812824243
3.41225e-06;0.0032060330460732516
3.41250e-06;0.0031669492793222603
3.41275e-06;0.0031278655125713353
3.41300e-06;0.003088781745820344
3.41325e-06;0.0030496979790693526
3.41350e-06;0.003018739698002937
3.41375e-06;0.0029964258610409526
3.41400e-06;0.0029741120240789677
3.41425e-06;0.002951798187116983
3.41450e-06;0.0029294843501550365
3.41475e-06;0.0029071705131930516
3.41500e-06;0.002884856676231067
3.41525e-06;0.0028625428392691204
3.41550e-06;0.0028402290023071355
3.41575e-06;0.002817915165345151
3.41600e-06;0.002803114370516332
3.41625e-06;0.002796306460703563
3.41650e-06;0.0027894985508907827
3.41675e-06;0.0027826906410780027
3.41700e-06;0.002775882731265234
3.41725e-06;0.002769074821452454
3.41750e-06;0.0027622669116396737
3.41775e-06;0.002755459001826905
3.41800e-06;0.002748651092014125
3.41825e-06;0.0027418431822013446
3.41850e-06;0.0027350352723885646
3.41875e-06;0.002728227362575796
3.41900e-06;0.0027257626218032114
3.41925e-06;0.0027279184395379106
3.41950e-06;0.002730074257272606
3.41975e-06;0.002732230075007305
3.42000e-06;0.0027343858927420042
3.42025e-06;0.0027365417104767034
3.42050e-06;0.0027386975282113987
3.42075e-06;0.002740853345946098
3.42100e-06;0.0027430091636807966
3.42125e-06;0.0027451649814154923
3.42150e-06;0.0027473207991501915
3.42175e-06;0.0027494766168848902
3.42200e-06;0.0027525707320121312
3.42225e-06;0.0027566630716983143
3.42250e-06;0.0027607554113844974
3.42275e-06;0.002764847751070681
3.42300e-06;0.002768940090756857
3.42325e-06;0.00277303243044304
3.42350e-06;0.002777124770129223
3.42375e-06;0.0027812171098153997
3.42400e-06;0.002785309449501583
3.42425e-06;0.002789401789187766
3.42450e-06;0.0027934941288739494
3.42475e-06;0.0027975864685601255
3.42500e-06;0.0028016788082463086
3.42525e-06;0.002805771147932492
3.42550e-06;0.0028098634876186682
3.42575e-06;0.0028139558273048513
3.42600e-06;0.002818048166991035
3.42625e-06;0.002822140506677211
3.42650e-06;0.002826232846363394
3.42675e-06;0.002830325186049577
3.42700e-06;0.0028344175257357606
3.42725e-06;0.0028385098654219367
3.42750e-06;0.0028461376377896647
3.42775e-06;0.0028538209732249164
3.42800e-06;0.0028615043086601547
3.42825e-06;0.0028691876440954064
3.42850e-06;0.002876870979530658
3.42875e-06;0.0028845543149659094
3.42900e-06;0.002892237650401148
3.42925e-06;0.0028999209858363998
3.42950e-06;0.002907604321271651
3.42975e-06;0.0029152876567068897
3.43000e-06;0.0029229709921421414
3.43025e-06;0.0029306543275773927
3.43050e-06;0.0029383376630126314
3.43075e-06;0.002946020998447883
3.43100e-06;0.0029537043338831344
3.43125e-06;0.002961387669318386
3.43150e-06;0.0029690710047536244
3.43175e-06;0.002976754340188876
3.43200e-06;0.0029844376756241278
3.43225e-06;0.002992121011059366
3.43250e-06;0.0029998043464946177
3.43275e-06;0.003004578017772151
3.43300e-06;0.003006256190496868
3.43325e-06;0.003007934363221582
3.43350e-06;0.003009612535946299
3.43375e-06;0.003011290708671016
3.43400e-06;0.0030129688813957303
3.43425e-06;0.0030146470541204473
3.43450e-06;0.003016325226845164
3.43475e-06;0.0030180033995698785
3.43500e-06;0.0030196815722945956
3.43525e-06;0.0030213597450193122
3.43550e-06;0.0030230379177440293
3.43575e-06;0.003024716090468744
3.43600e-06;0.0030263942631934605
3.43625e-06;0.0030280724359181776
3.43650e-06;0.003029750608642892
3.43675e-06;0.0030314287813676087
3.43700e-06;0.0030225744933368667
3.43725e-06;0.0030135546765345587
3.43750e-06;0.003004534859732266
3.43775e-06;0.002995515042929958
3.43800e-06;0.00298649522612765
3.43825e-06;0.0029774754093253573
3.43850e-06;0.0029684555925230493
3.43875e-06;0.0029594357757207414
3.43900e-06;0.0029504159589184486
3.43925e-06;0.0029413961421161407
3.43950e-06;0.0029323763253138327
3.43975e-06;0.0029233565085115248
3.44000e-06;0.002914336691709232
3.44025e-06;0.002905316874906924
3.44050e-06;0.002896297058104616
3.44075e-06;0.0028872772413023233
3.44100e-06;0.002878515925709047
3.44125e-06;0.0028700296212768933
3.44150e-06;0.0028615433168447395
3.44175e-06;0.0028530570124126
3.44200e-06;0.0028445707079804467
3.44225e-06;0.002836084403548293
3.44250e-06;0.0028275980991161534
3.44275e-06;0.0028191117946839996
3.44300e-06;0.0028106254902518463
3.44325e-06;0.0028021391858197068
3.44350e-06;0.002793652881387553
3.44375e-06;0.002785166576955399
3.44400e-06;0.002776680272523246
3.44425e-06;0.0027681939680911064
3.44450e-06;0.0027597076636589526
3.44475e-06;0.002751221359226799
3.44500e-06;0.0027427350547946597
3.44525e-06;0.002734248750362506
3.44550e-06;0.002725762445930352
3.44575e-06;0.0027172761414981984
3.44600e-06;0.0027117383621228317
3.44625e-06;0.0027093374241670054
3.44650e-06;0.002706936486211179
3.44675e-06;0.0027045355482553566
3.44700e-06;0.00270213461029953
3.44725e-06;0.0026997336723437034
3.44750e-06;0.002697332734387881
3.44775e-06;0.0026949317964320542
3.44800e-06;0.002692530858476228
3.44825e-06;0.0026901299205204015
3.44850e-06;0.002687728982564579
3.44875e-06;0.0026853280446087523
