Time(s);Current(A)
8.80000e-06;0.015389798971411395
8.80025e-06;0.015398752292722605
8.80050e-06;0.015407705614033753
8.80075e-06;0.015416658935344963
8.80100e-06;0.015425612256656172
8.80125e-06;0.015434565577967319
8.80150e-06;0.015443518899278528
8.80175e-06;0.015452472220589738
8.80200e-06;0.015461425541900886
8.80225e-06;0.015474421884924252
8.80250e-06;0.015488790950487136
8.80275e-06;0.015503160016049922
8.80300e-06;0.015517529081612807
8.80325e-06;0.01553189814717569
8.80350e-06;0.015546267212738574
8.80375e-06;0.015560636278301362
8.80400e-06;0.015575005343864246
8.80425e-06;0.015589374409427129
8.80450e-06;0.015603743474989915
8.80475e-06;0.0156181125405528
8.80500e-06;0.015632481606115686
8.80525e-06;0.015645014602461486
8.80550e-06;0.015656924200325238
8.80575e-06;0.01566883379818899
8.80600e-06;0.015680743396052663
8.80625e-06;0.01569265299391642
8.80650e-06;0.015704562591780172
8.80675e-06;0.015716472189643844
8.80700e-06;0.015728381787507597
8.80725e-06;0.015740291385371353
8.80750e-06;0.015752200983235026
8.80775e-06;0.015764110581098778
8.80800e-06;0.01577602017896253
8.80825e-06;0.015780315738574052
8.80850e-06;0.015782026112482334
8.80875e-06;0.015783736486390615
8.80900e-06;0.015785446860298886
8.80925e-06;0.015787157234207167
8.80950e-06;0.01578886760811545
8.80975e-06;0.01579057798202372
8.81000e-06;0.015792288355932
8.81025e-06;0.015793998729840282
8.81050e-06;0.015795709103748553
8.81075e-06;0.015797419477656834
8.81100e-06;0.01579912985156512
8.81125e-06;0.015800840225473387
8.81150e-06;0.01580255059938167
8.81175e-06;0.015804260973289953
8.81200e-06;0.015805971347198234
8.81225e-06;0.015807681721106505
8.81250e-06;0.015809392095014786
8.81275e-06;0.015811102468923068
8.81300e-06;0.01581281284283134
8.81325e-06;0.01581033906470913
8.81350e-06;0.015806444646231117
8.81375e-06;0.01580255022775313
8.81400e-06;0.015798655809275117
8.81425e-06;0.015794761390797104
8.81450e-06;0.015790866972319118
8.81475e-06;0.015786972553841105
8.81500e-06;0.01578307813536309
8.81525e-06;0.015779183716885102
8.81550e-06;0.01577528929840709
8.81575e-06;0.015771394879929075
8.81600e-06;0.01576750046145109
8.81625e-06;0.015763606042973076
8.81650e-06;0.015759711624495062
8.81675e-06;0.015755817206017077
8.81700e-06;0.015751922787539063
8.81725e-06;0.01574802836906105
8.81750e-06;0.01574413395058306
8.81775e-06;0.015740239532105047
8.81800e-06;0.015736345113627034
8.81825e-06;0.015730798341628736
8.81850e-06;0.015724690547928428
8.81875e-06;0.015718582754228116
8.81900e-06;0.01571247496052785
8.81925e-06;0.015706367166827537
8.81950e-06;0.015700259373127228
8.81975e-06;0.015694151579426958
8.82000e-06;0.015688043785726646
8.82025e-06;0.015681935992026337
8.82050e-06;0.015675828198326025
8.82075e-06;0.015669720404625758
8.82100e-06;0.015663612610925446
8.82125e-06;0.015657504817225137
8.82150e-06;0.015651397023524867
8.82175e-06;0.015645289229824555
8.82200e-06;0.01563849921301528
8.82225e-06;0.015629624129476546
8.82250e-06;0.015620749045937753
8.82275e-06;0.01561187396239896
8.82300e-06;0.015602998878860226
8.82325e-06;0.015594123795321432
8.82350e-06;0.015585248711782638
8.82375e-06;0.015576373628243904
8.82400e-06;0.01556749854470511
8.82425e-06;0.015558623461166318
8.82450e-06;0.015549748377627582
8.82475e-06;0.01554087329408879
8.82500e-06;0.015531998210549996
8.82525e-06;0.015523123127011262
8.82550e-06;0.015514248043472468
8.82575e-06;0.015505372959933674
8.82600e-06;0.015497129238899857
8.82625e-06;0.015489099883655653
8.82650e-06;0.01548107052841145
8.82675e-06;0.015473041173167302
8.82700e-06;0.015465011817923098
8.82725e-06;0.015456982462678895
8.82750e-06;0.015448953107434747
8.82775e-06;0.015440923752190543
8.82800e-06;0.01543289439694634
8.82825e-06;0.015424865041702191
8.82850e-06;0.015416835686457988
8.82875e-06;0.015406408564606669
8.82900e-06;0.015395167331799683
8.82925e-06;0.015383926098992773
8.82950e-06;0.015372684866185787
8.82975e-06;0.015361443633378801
8.83000e-06;0.01535020240057189
8.83025e-06;0.015338961167764904
8.83050e-06;0.015327719934957918
8.83075e-06;0.015316478702151009
8.83100e-06;0.015305237469344023
8.83125e-06;0.015293996236537037
8.83150e-06;0.015278176735157639
8.83175e-06;0.015260802779482104
8.83200e-06;0.01524342882380657
8.83225e-06;0.015226054868131155
8.83250e-06;0.01520868091245562
8.83275e-06;0.015191306956780087
8.83300e-06;0.01517393300110467
8.83325e-06;0.015156559045429136
8.83350e-06;0.015139185089753603
8.83375e-06;0.015121811134078187
8.83400e-06;0.015104437178402654
8.83425e-06;0.01508706322272712
8.83450e-06;0.015069689267051703
8.83475e-06;0.01505231531137617
8.83500e-06;0.015036168889187287
8.83525e-06;0.015020439250040384
8.83550e-06;0.015004709610893376
8.83575e-06;0.014988979971746365
8.83600e-06;0.014973250332599464
8.83625e-06;0.014957520693452454
8.83650e-06;0.014941791054305445
8.83675e-06;0.014926061415158542
8.83700e-06;0.014910331776011533
8.83725e-06;0.014894602136864525
8.83750e-06;0.014878872497717514
8.83775e-06;0.014863142858570612
8.83800e-06;0.014847413219423603
8.83825e-06;0.014831683580276594
8.83850e-06;0.014822109110893465
8.83875e-06;0.014814624499266247
8.83900e-06;0.014807139887639029
8.83925e-06;0.014799655276011861
8.83950e-06;0.014792170664384643
8.83975e-06;0.014784686052757425
8.84000e-06;0.014777201441130258
8.84025e-06;0.01476971682950304
8.84050e-06;0.014762232217875822
8.84075e-06;0.014754747606248656
8.84100e-06;0.014747262994621438
8.84125e-06;0.01473977838299422
8.84150e-06;0.014732293771367052
8.84175e-06;0.014724809159739834
8.84200e-06;0.014717324548112616
8.84225e-06;0.014709839936485449
8.84250e-06;0.014702355324858231
8.84275e-06;0.014694870713231013
8.84300e-06;0.014688426313769092
8.84325e-06;0.01468516109682249
8.84350e-06;0.014681895879875888
8.84375e-06;0.014678630662929308
8.84400e-06;0.014675365445982707
8.84425e-06;0.014672100229036105
8.84450e-06;0.014668835012089524
8.84475e-06;0.014665569795142922
8.84500e-06;0.01466230457819632
8.84525e-06;0.01465903936124974
8.84550e-06;0.014655774144303139
8.84575e-06;0.014652508927356537
8.84600e-06;0.014649243710409935
8.84625e-06;0.014645978493463356
8.84650e-06;0.014642713276516754
8.84675e-06;0.014639448059570152
8.84700e-06;0.014636182842623573
8.84725e-06;0.01463291762567697
8.84750e-06;0.014629652408730369
8.84775e-06;0.014629236006663703
8.84800e-06;0.0146297868594581
8.84825e-06;0.014630337712252497
8.84850e-06;0.014630888565046891
8.84875e-06;0.014631439417841287
8.84900e-06;0.014631990270635685
8.84925e-06;0.014632541123430078
8.84950e-06;0.014633091976224475
8.84975e-06;0.014633642829018871
8.85000e-06;0.014636212542639561
8.85025e-06;0.014644952465815587
8.85050e-06;0.014653692388991611
8.85075e-06;0.014662432312167578
8.85100e-06;0.014671172235343602
8.85125e-06;0.014679912158519628
8.85150e-06;0.014688652081695593
8.85175e-06;0.014697392004871617
8.85200e-06;0.014706131928047643
8.85225e-06;0.014714871851223608
8.85250e-06;0.014728447116700124
8.85275e-06;0.014743664120423116
8.85300e-06;0.014758881124146006
8.85325e-06;0.014774098127868998
8.85350e-06;0.01478931513159199
8.85375e-06;0.01480453213531488
8.85400e-06;0.014819749139037872
8.85425e-06;0.014834966142760864
8.85450e-06;0.014850183146483857
8.85475e-06;0.014865400150206745
8.85500e-06;0.01488061715392974
8.85525e-06;0.014895834157652731
8.85550e-06;0.014911051161375621
8.85575e-06;0.014926268165098613
8.85600e-06;0.014941485168821605
8.85625e-06;0.014950414043945695
8.85650e-06;0.014957207917951174
8.85675e-06;0.014964001791956654
8.85700e-06;0.014970795665962086
8.85725e-06;0.014977589539967567
8.85750e-06;0.014984383413973046
8.85775e-06;0.01499117728797848
8.85800e-06;0.01499797116198396
8.85825e-06;0.015004765035989439
8.85850e-06;0.015011558909994872
8.85875e-06;0.015018352784000353
8.85900e-06;0.015025146658005832
8.85925e-06;0.015031940532011265
8.85950e-06;0.015038734406016746
8.85975e-06;0.015045528280022225
8.86000e-06;0.015038225279757804
8.86025e-06;0.015026135983878143
8.86050e-06;0.01501404668799848
8.86075e-06;0.015001957392118901
8.86100e-06;0.01498986809623924
8.86125e-06;0.01497777880035958
8.86150e-06;0.01496568950448
8.86175e-06;0.014953600208600338
8.86200e-06;0.014941510912720677
8.86225e-06;0.014929421616841097
8.86250e-06;0.014917332320961436
8.86275e-06;0.014902724133257708
8.86300e-06;0.014880417499873377
8.86325e-06;0.014858110866489197
8.86350e-06;0.014835804233104865
8.86375e-06;0.014813497599720534
8.86400e-06;0.014791190966336354
8.86425e-06;0.014768884332952021
8.86450e-06;0.01474657769956769
8.86475e-06;0.01472427106618351
8.86500e-06;0.01470196443279918
8.86525e-06;0.014679657799414847
8.86550e-06;0.014657351166030667
8.86575e-06;0.014635964359027552
8.86600e-06;0.014614889859624825
8.86625e-06;0.01459381536022224
8.86650e-06;0.014572740860819514
8.86675e-06;0.014551666361416785
8.86700e-06;0.0145305918620142
8.86725e-06;0.014509517362611473
8.86750e-06;0.014492843271298019
8.86775e-06;0.014477663245516218
8.86800e-06;0.014462483219734314
8.86825e-06;0.01444730319395241
8.86850e-06;0.01443212316817061
8.86875e-06;0.014416943142388705
8.86900e-06;0.0144017631166068
8.86925e-06;0.014391838834195866
8.86950e-06;0.014383699028327597
8.86975e-06;0.014375559222459328
8.87000e-06;0.014367419416591117
8.87025e-06;0.014359279610722848
8.87050e-06;0.01435113980485458
8.87075e-06;0.014342999998986368
8.87100e-06;0.0143348601931181
8.87125e-06;0.01432672038724983
8.87150e-06;0.014318580581381564
8.87175e-06;0.01431044077551335
8.87200e-06;0.014302300969645082
8.87225e-06;0.014294161163776815
8.87250e-06;0.014286021357908602
8.87275e-06;0.014277881552040333
8.87300e-06;0.014269741746172066
8.87325e-06;0.014261601940303853
8.87350e-06;0.014253462134435584
8.87375e-06;0.014245322328567317
8.87400e-06;0.014237182522699104
8.87425e-06;0.014232284998375908
8.87450e-06;0.014228488322202101
8.87475e-06;0.01422469164602832
8.87500e-06;0.014220894969854516
8.87525e-06;0.01421709829368071
8.87550e-06;0.014213301617506929
8.87575e-06;0.014209504941333122
8.87600e-06;0.014205708265159316
8.87625e-06;0.014201911588985535
8.87650e-06;0.014198114912811729
8.87675e-06;0.014194318236637924
8.87700e-06;0.014190521560464143
8.87725e-06;0.014186724884290337
8.87750e-06;0.01418292820811653
8.87775e-06;0.01417913153194275
8.87800e-06;0.014175334855768943
8.87825e-06;0.014171538179595137
8.87850e-06;0.014167741503421358
8.87875e-06;0.014163944827247551
8.87900e-06;0.014160148151073745
8.87925e-06;0.014157943399799354
8.87950e-06;0.014156279152967731
8.87975e-06;0.014154614906136108
8.88000e-06;0.014152950659304485
8.88025e-06;0.014151286412472874
8.88050e-06;0.014149622165641251
8.88075e-06;0.014147957918809628
8.88100e-06;0.014146293671978017
8.88125e-06;0.014144629425146394
8.88150e-06;0.014142965178314771
8.88175e-06;0.01414130093148316
8.88200e-06;0.014139636684651537
8.88225e-06;0.014137972437819914
8.88250e-06;0.014136308190988304
8.88275e-06;0.01413464394415668
8.88300e-06;0.014132979697325057
8.88325e-06;0.014131315450493447
8.88350e-06;0.014129861228633111
8.88375e-06;0.014129048902474314
8.88400e-06;0.014128236576315524
8.88425e-06;0.014127424250156726
8.88450e-06;0.01412661192399793
8.88475e-06;0.014125799597839137
8.88500e-06;0.014124987271680342
8.88525e-06;0.014124174945521544
8.88550e-06;0.014123362619362752
8.88575e-06;0.014122550293203955
8.88600e-06;0.014121737967045158
8.88625e-06;0.014120925640886368
8.88650e-06;0.01412011331472757
8.88675e-06;0.014119300988568773
8.88700e-06;0.014118488662409981
8.88725e-06;0.014117676336251184
8.88750e-06;0.014116864010092387
8.88775e-06;0.014116051683933597
8.88800e-06;0.01411764568963854
8.88825e-06;0.014120056714452846
8.88850e-06;0.01412246773926715
8.88875e-06;0.014124878764081441
8.88900e-06;0.014127289788895745
8.88925e-06;0.014129700813710051
8.88950e-06;0.01413211183852434
8.88975e-06;0.014134522863338645
8.89000e-06;0.01413693388815295
8.89025e-06;0.01413934491296724
8.89050e-06;0.014141755937781544
8.89075e-06;0.01414967665557307
8.89100e-06;0.014159468073128385
8.89125e-06;0.014169259490683766
8.89150e-06;0.01417905090823915
8.89175e-06;0.014188842325794464
8.89200e-06;0.014198633743349846
8.89225e-06;0.014208425160905227
8.89250e-06;0.014218216578460542
8.89275e-06;0.014228007996015923
8.89300e-06;0.014237799413571305
8.89325e-06;0.01424759083112662
8.89350e-06;0.014260029011977926
8.89375e-06;0.014273365845348284
8.89400e-06;0.014286702678718554
8.89425e-06;0.014300039512088913
8.89450e-06;0.014313376345459271
8.89475e-06;0.014326713178829541
8.89500e-06;0.0143400500121999
8.89525e-06;0.014353386845570259
8.89550e-06;0.014366723678940528
8.89575e-06;0.01437925785483639
8.89600e-06;0.014389338882519849
8.89625e-06;0.01439941991020324
8.89650e-06;0.014409500937886698
8.89675e-06;0.014419581965570158
8.89700e-06;0.014429662993253616
8.89725e-06;0.014439744020937006
8.89750e-06;0.014449825048620465
8.89775e-06;0.014459906076303923
8.89800e-06;0.014469987103987314
8.89825e-06;0.01447602520347722
8.89850e-06;0.014480690612174614
8.89875e-06;0.014485356020871976
8.89900e-06;0.014490021429569368
8.89925e-06;0.014494686838266761
8.89950e-06;0.014499352246964123
8.89975e-06;0.014504017655661516
8.90000e-06;0.01450868306435891
8.90025e-06;0.014513348473056272
8.90050e-06;0.014518013881753665
8.90075e-06;0.014522679290451057
8.90100e-06;0.014527344699148419
8.90125e-06;0.014532010107845812
8.90150e-06;0.014536675516543205
8.90175e-06;0.014541340925240566
8.90200e-06;0.01454600633393796
8.90225e-06;0.014550671742635354
8.90250e-06;0.014555337151332715
8.90275e-06;0.014558074948077168
8.90300e-06;0.01456015826493644
8.90325e-06;0.014562241581795697
8.90350e-06;0.014564324898654968
8.90375e-06;0.01456640821551424
8.90400e-06;0.014568491532373497
8.90425e-06;0.01457057484923277
8.90450e-06;0.014572658166092042
8.90475e-06;0.0145747414829513
8.90500e-06;0.01457682479981057
8.90525e-06;0.014578908116669842
8.90550e-06;0.014580991433529115
8.90575e-06;0.014583074750388373
8.90600e-06;0.014585158067247644
8.90625e-06;0.014587241384106915
8.90650e-06;0.014589324700966173
8.90675e-06;0.014591408017825444
8.90700e-06;0.014593491334684718
8.90725e-06;0.014592105885175646
8.90750e-06;0.01458954268938239
8.90775e-06;0.014586979493589136
8.90800e-06;0.0145844162977959
8.90825e-06;0.014581853102002646
8.90850e-06;0.014579289906209393
8.90875e-06;0.014576726710416155
8.90900e-06;0.014574163514622901
8.90925e-06;0.014571600318829647
8.90950e-06;0.014566531848545724
8.90975e-06;0.014553806550988035
8.91000e-06;0.014541081253430345
8.91025e-06;0.014528355955872742
8.91050e-06;0.014515630658315053
8.91075e-06;0.014502905360757363
8.91100e-06;0.014490180063199761
8.91125e-06;0.014477454765642071
8.91150e-06;0.014464729468084383
8.91175e-06;0.01445200417052678
8.91200e-06;0.01443193491248346
8.91225e-06;0.01440937216792187
8.91250e-06;0.014386809423360429
8.91275e-06;0.014364246678798837
8.91300e-06;0.014341683934237244
8.91325e-06;0.014319121189675805
8.91350e-06;0.014296558445114212
8.91375e-06;0.01427399570055262
8.91400e-06;0.014251432955991027
8.91425e-06;0.014228870211429588
8.91450e-06;0.014206307466867997
8.91475e-06;0.014183744722306404
8.91500e-06;0.014161181977744965
8.91525e-06;0.014138619233183372
8.91550e-06;0.01411605648862178
8.91575e-06;0.01409349374406034
8.91600e-06;0.014077192870392153
8.91625e-06;0.01406301808259884
8.91650e-06;0.014048843294805621
8.91675e-06;0.014034668507012306
8.91700e-06;0.014020493719218992
8.91725e-06;0.014006318931425774
8.91750e-06;0.013992144143632458
8.91775e-06;0.013977969355839144
8.91800e-06;0.013963794568045926
8.91825e-06;0.01394961978025261
8.91850e-06;0.013935444992459297
8.91875e-06;0.013921270204666079
8.91900e-06;0.013907095416872763
8.91925e-06;0.01389292062907945
8.91950e-06;0.013878745841286231
8.91975e-06;0.013864571053492916
8.92000e-06;0.013867782013206596
8.92025e-06;0.013876895935921727
8.92050e-06;0.01388600985863692
8.92075e-06;0.013895123781352112
8.92100e-06;0.013904237704067242
8.92125e-06;0.013913351626782434
8.92150e-06;0.013922465549497626
8.92175e-06;0.013931579472212756
8.92200e-06;0.013940693394927949
8.92225e-06;0.01394980731764314
8.92250e-06;0.013958921240358333
8.92275e-06;0.013968035163073465
8.92300e-06;0.01398612792196282
8.92325e-06;0.014007269254847462
8.92350e-06;0.01402841058773196
8.92375e-06;0.0140495519206166
8.92400e-06;0.014070693253501243
8.92425e-06;0.014091834586385741
8.92450e-06;0.014112975919270382
8.92475e-06;0.014134117252155024
8.92500e-06;0.014155258585039522
8.92525e-06;0.014176399917924163
8.92550e-06;0.014197541250808805
8.92575e-06;0.014218682583693304
8.92600e-06;0.014236662807401004
8.92625e-06;0.014253569743318708
8.92650e-06;0.014270476679236298
8.92675e-06;0.014287383615154001
8.92700e-06;0.014304290551071705
8.92725e-06;0.014321197486989293
8.92750e-06;0.014338104422906998
8.92775e-06;0.014355011358824702
8.92800e-06;0.01437191829474229
8.92825e-06;0.014385969224025897
8.92850e-06;0.014391291389420984
8.92875e-06;0.014396613554816036
8.92900e-06;0.014401935720211125
8.92925e-06;0.014407257885606211
8.92950e-06;0.014412580051001263
8.92975e-06;0.014417902216396352
8.93000e-06;0.01442322438179144
8.93025e-06;0.014428546547186493
8.93050e-06;0.01443386871258158
8.93075e-06;0.014430132448245252
8.93100e-06;0.014423320585603135
8.93125e-06;0.014416508722961062
8.93150e-06;0.014409696860318946
8.93175e-06;0.014402884997676828
8.93200e-06;0.014396073135034756
8.93225e-06;0.014389261272392638
8.93250e-06;0.014382449409750522
8.93275e-06;0.014375637547108449
8.93300e-06;0.014368825684466333
8.93325e-06;0.014362013821824214
8.93350e-06;0.014355201959182143
8.93375e-06;0.014348390096540025
8.93400e-06;0.014341578233897909
8.93425e-06;0.014334766371255836
8.93450e-06;0.01432795450861372
8.93475e-06;0.014320420282588354
8.93500e-06;0.014310678309795185
8.93525e-06;0.014300936337001947
8.93550e-06;0.014291194364208712
8.93575e-06;0.01428145239141554
8.93600e-06;0.014271710418622305
8.93625e-06;0.014261968445829068
8.93650e-06;0.014252226473035898
8.93675e-06;0.014242484500242663
8.93700e-06;0.014232742527449426
8.93725e-06;0.014223000554656256
8.93750e-06;0.014213258581863019
8.93775e-06;0.014203516609069784
8.93800e-06;0.014193774636276612
8.93825e-06;0.014184032663483377
8.93850e-06;0.01417429069069014
8.93875e-06;0.01416454871789697
8.93900e-06;0.014159675856432402
8.93925e-06;0.014156456198779314
8.93950e-06;0.014153236541126223
8.93975e-06;0.014150016883473157
8.94000e-06;0.014146797225820067
8.94025e-06;0.014143577568166978
8.94050e-06;0.01414035791051391
8.94075e-06;0.014137138252860821
8.94100e-06;0.014133918595207733
8.94125e-06;0.014130698937554665
8.94150e-06;0.014127479279901576
8.94175e-06;0.014124259622248485
8.94200e-06;0.01412103996459542
8.94225e-06;0.014117820306942329
8.94250e-06;0.01411460064928924
8.94275e-06;0.014111380991636172
8.94300e-06;0.014108161333983084
8.94325e-06;0.014104941676329995
8.94350e-06;0.01410242869028129
8.94375e-06;0.014102075492487588
8.94400e-06;0.014101722294693884
8.94425e-06;0.014101369096900185
8.94450e-06;0.014101015899106482
8.94475e-06;0.014100662701312779
8.94500e-06;0.014100309503519077
8.94525e-06;0.014099956305725374
8.94550e-06;0.014099603107931671
8.94575e-06;0.01409924991013797
8.94600e-06;0.014098896712344267
8.94625e-06;0.014098543514550563
8.94650e-06;0.014098190316756864
8.94675e-06;0.01409783711896316
8.94700e-06;0.014097483921169458
8.94725e-06;0.014097130723375756
8.94750e-06;0.014096777525582053
8.94775e-06;0.01409642432778835
8.94800e-06;0.014096071129994647
8.94825e-06;0.01409466060888242
8.94850e-06;0.014089815807784453
8.94875e-06;0.014083926857591885
8.94900e-06;0.014078037907399359
8.94925e-06;0.01407214895720679
8.94950e-06;0.014066260007014225
8.94975e-06;0.014060371056821697
8.95000e-06;0.01405448210662913
8.95025e-06;0.014048593156436563
8.95050e-06;0.014042704206244035
8.95075e-06;0.01403681525605147
8.95100e-06;0.014030926305858902
8.95125e-06;0.014025037355666374
8.95150e-06;0.014019148405473808
8.95175e-06;0.01401325945528124
8.95200e-06;0.014007370505088714
