Time(s);Current(A)
2.50000e-07;-0.000737391070430226
2.50250e-07;-0.0007141575103037028
2.50500e-07;-0.0006889334823813258
2.50750e-07;-0.0006596913185275873
2.51000e-07;-0.000628637822468557
2.51250e-07;-0.0005941854840060218
2.51500e-07;-0.0005582009841603757
2.51750e-07;-0.0005190370757570448
2.52000e-07;-0.0004784399243742185
2.52250e-07;-0.0004353100006805936
2.52500e-07;-0.00038952174254866534
2.52750e-07;-0.00034173426299794423
2.53000e-07;-0.00029223915133138104
2.53250e-07;-0.00024132794966178145
2.53500e-07;-0.0001892822509874776
2.53750e-07;-0.00013628926545274875
2.54000e-07;-8.241386385845849e-05
2.54250e-07;-2.776903144496827e-05
2.54500e-07;2.7418074899546093e-05
2.54750e-07;8.274844382256944e-05
2.55000e-07;0.00013774069096411168
2.55250e-07;0.00019258051118680797
2.55500e-07;0.00024620874854866423
2.55750e-07;0.0002992908174650632
2.56000e-07;0.0003505452372561042
2.56250e-07;0.00040097577259492323
2.56500e-07;0.00044879544939128134
2.56750e-07;0.0004954381794038174
2.57000e-07;0.0005395128202626951
2.57250e-07;0.0005803901037081482
2.57500e-07;0.0006180835864934888
2.57750e-07;0.0006514475638115694
2.58000e-07;0.0006833199834519845
2.58250e-07;0.0007112544697953813
2.58500e-07;0.0007374137784133104
2.58750e-07;0.0007594483285382457
2.59000e-07;0.0007796234821606494
2.59250e-07;0.0007953286729549981
2.59500e-07;0.0008090188528673716
2.59750e-07;0.0008182698631091974
2.60000e-07;0.0008255197436912909
2.60250e-07;0.0008289094060852653
2.60500e-07;0.0008305589238840617
2.60750e-07;0.0008284950075556148
2.61000e-07;0.0008247571152985647
2.61250e-07;0.0008173534129897827
2.61500e-07;0.0008082972031703923
2.61750e-07;0.0007958582797414044
2.62000e-07;0.0007818944656150798
2.62250e-07;0.0007651743730122746
2.62500e-07;0.0007472117798926831
2.62750e-07;0.0007263089718398488
2.63000e-07;0.0007040807467055357
2.63250e-07;0.0006818525215712226
2.63500e-07;0.0006567830876904186
2.63750e-07;0.0006304328676459646
2.64000e-07;0.0006040826476015108
2.64250e-07;0.0005760139144304937
2.64500e-07;0.0005471704941347504
2.64750e-07;0.0005183270738390071
2.65000e-07;0.00048948365354327
2.65250e-07;0.0004606402332475267
2.65500e-07;0.00043179681295178344
2.65750e-07;0.0004029533926560463
2.66000e-07;0.000374109972360303
2.66250e-07;0.0003465811766540738
2.66500e-07;0.0003196449994897576
2.66750e-07;0.00029391954508423926
2.67000e-07;0.00026972780014706036
2.67250e-07;0.00024710482144139033
2.67500e-07;0.00022639528764793377
2.67750e-07;0.00020632002322230018
2.68000e-07;0.00018624475879666237
2.68250e-07;0.00016474949516189532
2.68500e-07;0.00014142424157408655
2.68750e-07;0.00011655101728096971
2.69000e-07;9.038842288726843e-05
2.69250e-07;6.319503363546675e-05
2.69500e-07;3.5185943471583393e-05
2.69750e-07;6.155510419415204e-06
2.70000e-07;-2.467086288175729e-05
2.70250e-07;-5.7908768131757855e-05
2.70500e-07;-9.357824575789786e-05
2.70750e-07;-0.0001314181060093759
2.71000e-07;-0.00017113082932737738
2.71250e-07;-0.00021241897703263294
2.71500e-07;-0.00025501232157600377
2.71750e-07;-0.0002989042470365649
2.72000e-07;-0.00034444444318173037
2.72250e-07;-0.00039246824717863887
2.72500e-07;-0.0004413607760450566
2.72750e-07;-0.0004924400169644731
2.73000e-07;-0.0005445050040191887
2.73250e-07;-0.0005965699910739043
2.73500e-07;-0.0006500575083279875
2.73750e-07;-0.0007041862868054973
2.74000e-07;-0.0007583150652829957
2.74250e-07;-0.0008124438437605054
2.74500e-07;-0.0008665091464749471
2.74750e-07;-0.0009203025712153695
2.75000e-07;-0.0009740959959558032
2.75250e-07;-0.0010278894206962369
2.75500e-07;-0.001081682845436659
2.75750e-07;-0.001132565223485562
2.76000e-07;-0.0011821353331807581
2.76250e-07;-0.0012317054428759436
2.76500e-07;-0.0012774134954865585
2.76750e-07;-0.0013213805745473314
2.77000e-07;-0.0013653476536080952
2.77250e-07;-0.0014036170155571554
2.77500e-07;-0.0014393179082762852
2.77750e-07;-0.0014750188009954074
2.78000e-07;-0.0015073679270610823
2.78250e-07;-0.0015382061129823872
2.78500e-07;-0.0015690442989036986
2.78750e-07;-0.001595621853056975
2.79000e-07;-0.001620278760505308
2.79250e-07;-0.0016449356679536463
2.79500e-07;-0.0016695925754019844
2.79750e-07;-0.0016942494828503173
2.80000e-07;-0.0017189063902986555
2.80250e-07;-0.0017435632977469936
2.80500e-07;-0.0017682202051953265
2.80750e-07;-0.0017928771126436646
2.81000e-07;-0.001813738564494665
2.81250e-07;-0.0018328890660256924
2.81500e-07;-0.0018520395675567236
2.81750e-07;-0.0018711900690877512
2.82000e-07;-0.0018903405706187824
2.82250e-07;-0.0019094910721498138
2.82500e-07;-0.0019286415736808411
2.82750e-07;-0.0019477920752118726
2.83000e-07;-0.001966942576742904
2.83250e-07;-0.0019837171081091847
2.83500e-07;-0.0019994205778309923
2.83750e-07;-0.0020151240475527995
2.84000e-07;-0.0020308275172746036
2.84250e-07;-0.0020465309869964108
2.84500e-07;-0.0020622344567182184
2.84750e-07;-0.0020779379264400225
2.85000e-07;-0.0020936413961618297
2.85250e-07;-0.0021093448658836373
2.85500e-07;-0.0021220953843637206
2.85750e-07;-0.0021335147443722253
2.86000e-07;-0.0021449341043807274
2.86250e-07;-0.002156353464389232
2.86500e-07;-0.002167772824397737
2.86750e-07;-0.002179192184406239
2.87000e-07;-0.0021906115444147436
2.87250e-07;-0.0022020309044232483
2.87500e-07;-0.0022134502644317504
2.87750e-07;-0.002219741292091338
2.88000e-07;-0.002223720523011812
2.88250e-07;-0.0022276997539322856
2.88500e-07;-0.0022245482391144954
2.88750e-07;-0.0022181822612659255
2.89000e-07;-0.002211816283417357
2.89250e-07;-0.0021987371966263893
2.89500e-07;-0.0021826319129537807
2.89750e-07;-0.0021665266292811686
2.90000e-07;-0.0021425527944791585
2.90250e-07;-0.002115031901958419
2.90500e-07;-0.0020875110094376735
2.90750e-07;-0.002052231391372508
2.91000e-07;-0.00201345422377411
2.91250e-07;-0.0019746770561757036
2.91500e-07;-0.0019294758675361288
2.91750e-07;-0.0018813787997131264
2.92000e-07;-0.0018332817318901136
2.92250e-07;-0.0017790423485936344
2.92500e-07;-0.0017220340759358547
2.92750e-07;-0.0016650258032780629
2.93000e-07;-0.0016027160308381993
2.93250e-07;-0.0015380163996538735
2.93500e-07;-0.001473316768469534
2.93750e-07;-0.0014086171372852082
2.94000e-07;-0.0013439175061008687
2.94250e-07;-0.0012766698304032818
2.94500e-07;-0.0012082735238065998
2.94750e-07;-0.0011398772172099036
2.95000e-07;-0.001071480910613207
2.95250e-07;-0.0010030846040165252
2.95500e-07;-0.0009367511220135947
2.95750e-07;-0.0008713475390196999
2.96000e-07;-0.000805943956025819
2.96250e-07;-0.0007437304839670899
2.96500e-07;-0.0006829550794039162
2.96750e-07;-0.0006249126829180402
2.97000e-07;-0.000570331520901073
2.97250e-07;-0.0005192899369893756
2.97500e-07;-0.0004721525084476551
2.97750e-07;-0.0004285140780802015
2.98000e-07;-0.0003868977034963298
2.98250e-07;-0.00034604386323563085
2.98500e-07;-0.00030572151706431244
2.98750e-07;-0.00026661774194893634
2.99000e-07;-0.00022798359299871344
2.99250e-07;-0.00019084462236107854
2.99500e-07;-0.00015562952309321497
2.99750e-07;-0.0001219452744387236
3.00000e-07;-8.891808974270825e-05
3.00250e-07;-5.58104384625218e-05
3.00500e-07;-2.2529120238893214e-05
3.00750e-07;1.070885525879371e-05
3.01000e-07;4.364596515113198e-05
3.01250e-07;7.602474501319723e-05
3.01500e-07;0.00010761855031697366
3.01750e-07;0.0001384962255762914
3.02000e-07;0.00016917028772169964
3.02250e-07;0.00020009659798483526
3.02500e-07;0.0002311366189703641
3.02750e-07;0.00026196832307518397
3.03000e-07;0.00029270612018396673
3.03250e-07;0.00032344391729275605
3.03500e-07;0.0003529882063886228
3.03750e-07;0.0003819944749848933
3.04000e-07;0.00041100074358116996
3.04250e-07;0.00044000701217744657
3.04500e-07;0.0004690132807737171
3.04750e-07;0.0004963260460715101
3.05000e-07;0.0005228753984044597
3.05250e-07;0.0005494247507374037
3.05500e-07;0.0005759741030703534
3.05750e-07;0.0006025234554032974
3.06000e-07;0.0006267753212277045
3.06250e-07;0.0006499915049907019
3.06500e-07;0.0006732076887536944
3.06750e-07;0.0006942312124694454
3.07000e-07;0.0007142663087584145
3.07250e-07;0.0007343014050473793
3.07500e-07;0.0007516853876781705
3.07750e-07;0.0007678742769544068
3.08000e-07;0.0007810129384793746
3.08250e-07;0.0007927765903346645
3.08500e-07;0.0008011247895360952
3.08750e-07;0.0008079333396331428
3.09000e-07;0.0008113301282430942
3.09250e-07;0.0008131889316867046
3.09500e-07;0.0008116112187530827
3.09750e-07;0.0008084843614164718
3.10000e-07;0.0008016973511424766
3.10250e-07;0.0007932603835237123
3.10500e-07;0.0007812372668490127
3.10750e-07;0.0007675975529786541
3.11000e-07;0.0007506767328881733
3.11250e-07;0.0007322768256121389
3.11500e-07;0.0007108829608172831
3.11750e-07;0.0006881394523647335
3.12000e-07;0.0006625646585198629
3.12250e-07;0.0006357135518519774
3.12500e-07;0.0006063801355363303
3.12750e-07;0.000575927720887723
3.13000e-07;0.0005430924240525824
3.13250e-07;0.0005091829497082792
3.13500e-07;0.00047527347536398316
3.13750e-07;0.00043940986925066904
3.14000e-07;0.00040266536167774496
3.14250e-07;0.00036592085410482863
3.14500e-07;0.0003283188824747786
3.14750e-07;0.00029033037532472713
3.15000e-07;0.0002523418681746837
3.15250e-07;0.00021485271169338816
3.15500e-07;0.00017758865709106568
3.15750e-07;0.0001403246024887511
3.16000e-07;0.00010406554660853911
3.16250e-07;6.899989807980866e-05
3.16500e-07;3.5176955331202645e-05
3.16750e-07;2.8444074606968207e-06
3.17000e-07;-2.774867784139134e-05
3.17250e-07;-5.635326129997952e-05
3.17500e-07;-8.272414110445003e-05
3.17750e-07;-0.00010666456083252062
3.18000e-07;-0.00012807670741488372
3.18250e-07;-0.0001469235543306406
3.18500e-07;-0.000163165171477821
3.18750e-07;-0.000176749981376217
3.19000e-07;-0.00018762408825338965
3.19250e-07;-0.00019573361187602155
3.19500e-07;-0.00020102709836695434
3.19750e-07;-0.00020348343203203606
3.20000e-07;-0.00020314350979431386
3.20250e-07;-0.00020008626807377225
3.20500e-07;-0.00019438886151115054
3.20750e-07;-0.00018612111448434695
3.21000e-07;-0.00017535139739987597
3.21250e-07;-0.00016214810976808937
3.21500e-07;-0.0001465811646941392
3.21750e-07;-0.00012873946892779045
3.22000e-07;-0.00010875076812729559
3.22250e-07;-8.676662957979277e-05
3.22500e-07;-6.293749732005024e-05
3.22750e-07;-3.740921351788205e-05
3.23000e-07;-1.0326707212802835e-05
3.23250e-07;1.8165091467356187e-05
3.23500e-07;4.79203163635933e-05
3.23750e-07;7.878119950294207e-05
3.24000e-07;0.00011056566087648663
3.24250e-07;0.00014323863485220855
3.24500e-07;0.00017619107581300696
3.24750e-07;0.00020948791653193336
3.25000e-07;0.00024294000893573833
3.25250e-07;0.0002763921013395504
3.25500e-07;0.00030956904623649536
3.25750e-07;0.0003415674854627949
3.26000e-07;0.0003735659246890944
3.26250e-07;0.00040556436391538716
3.26500e-07;0.00043554459753225344
3.26750e-07;0.0004646150458954533
3.27000e-07;0.0004914469320117033
3.27250e-07;0.0005172696984861514
3.27500e-07;0.0005403208099661276
3.27750e-07;0.0005621224893612622
3.28000e-07;0.0005812416333724857
3.28250e-07;0.00059915151945512
3.28500e-07;0.0006144612794639448
3.28750e-07;0.0006285989307695905
3.29000e-07;0.0006399408642843968
3.29250e-07;0.0006500225184661008
3.29500e-07;0.0006571536063991466
3.29750e-07;0.0006629546109896125
3.30000e-07;0.0006660399800594369
3.30250e-07;0.0006679011700171453
3.30500e-07;0.0006672774624982406
3.30750e-07;0.0006655335900811035
3.31000e-07;0.0006613613110873695
3.31250e-07;0.000656094332681954
3.31500e-07;0.0006479588228717944
3.31750e-07;0.0006385302101391555
3.32000e-07;0.0006291015974065185
3.32250e-07;0.0006168929744024725
3.32500e-07;0.0006034311528451395
3.32750e-07;0.0005899693312878092
3.33000e-07;0.0005742851866112211
3.33250e-07;0.0005575992427158945
3.33500e-07;0.0005409132988205645
3.33750e-07;0.0005224154422958958
3.34000e-07;0.0005031007951610925
3.34250e-07;0.00048378614802628507
3.34500e-07;0.00046447150089147776
3.34750e-07;0.0004450000055036036
3.35000e-07;0.0004248567011729964
3.35250e-07;0.00040471339684238915
3.35500e-07;0.00038457009251178614
3.35750e-07;0.0003644267881811789
3.36000e-07;0.0003451587049608396
3.36250e-07;0.0003262851619479564
3.36500e-07;0.00030741161893506916
3.36750e-07;0.0002899264160207056
3.37000e-07;0.00027306706180223753
3.37250e-07;0.0002577439601569147
3.37500e-07;0.000243113384550784
3.37750e-07;0.00022981827408233207
3.38000e-07;0.0002171251768494911
3.38250e-07;0.0002049439983070173
3.38500e-07;0.00019299358717168652
3.38750e-07;0.00018162545759312898
3.39000e-07;0.0001705198142406377
3.39250e-07;0.0001602420554594411
3.39500e-07;0.0001503374980860664
3.39750e-07;0.000141153495583063
3.40000e-07;0.00013229431141990612
3.40250e-07;0.00012365834755760367
3.40500e-07;0.00011512300899189828
3.40750e-07;0.00010687354025856207
3.41000e-07;9.875293855282265e-05
3.41250e-07;9.109060071732603e-05
3.41500e-07;8.363484327655971e-05
3.41750e-07;7.658865238367096e-05
3.42000e-07;6.972708965944574e-05
3.42250e-07;6.295467162163639e-05
3.42500e-07;5.6320972132838024e-05
3.42750e-07;4.973169029445077e-05
3.43000e-07;4.3305546993583694e-05
3.43250e-07;3.7104751536292504e-05
3.43500e-07;3.115127384667369e-05
3.43750e-07;2.543544428893175e-05
3.44000e-07;1.987563921776756e-05
3.44250e-07;1.4403490088171667e-05
3.44500e-07;9.018143353450947e-06
3.44750e-07;3.7514186613342435e-06
3.45000e-07;-1.3605877236600172e-06
3.45250e-07;-6.281790113122749e-06
3.45500e-07;-1.0979374504030768e-05
3.45750e-07;-1.5452660818667666e-05
3.46000e-07;-1.9746038402986503e-05
3.46250e-07;-2.3895589847929205e-05
3.46500e-07;-2.789510690316984e-05
3.46750e-07;-3.1717910870604394e-05
3.47000e-07;-3.5334650342223654e-05
3.47250e-07;-3.871598583094467e-05
3.47500e-07;-4.1829857437144664e-05
3.47750e-07;-4.46196646266218e-05
3.48000e-07;-4.7000804683577316e-05
3.48250e-07;-4.891024839448624e-05
3.48500e-07;-5.0329934764907615e-05
3.48750e-07;-5.126143625402359e-05
3.49000e-07;-5.1708733941042415e-05
3.49250e-07;-5.167582282029539e-05
3.49500e-07;-5.1164997002325614e-05
3.49750e-07;-5.01631741111288e-05
3.50000e-07;-4.863974161987834e-05
3.50250e-07;-4.657759613353234e-05
3.50500e-07;-4.3987805869742917e-05
3.50750e-07;-4.089373825335029e-05
3.51000e-07;-3.7320269783438145e-05
3.51250e-07;-3.329228197426012e-05
3.51500e-07;-2.8833590369172107e-05
3.51750e-07;-2.3958380036300454e-05
3.52000e-07;-1.8669849796628333e-05
3.52250e-07;-1.2979665123535823e-05
3.52500e-07;-6.917137406810169e-06
3.52750e-07;-5.192795408364537e-07
3.53000e-07;6.175951966797219e-06
3.53250e-07;1.3130601800601107e-05
3.53500e-07;2.0307383512827568e-05
3.53750e-07;2.7675045955782042e-05
3.54000e-07;3.52528540207723e-05
3.54250e-07;4.289990457266781e-05
3.54500e-07;5.065826230485159e-05
3.54750e-07;5.846679610967536e-05
3.55000e-07;6.627532991449915e-05
3.55250e-07;7.403339922066953e-05
3.55500e-07;8.157532011063679e-05
3.55750e-07;8.911724100060404e-05
3.56000e-07;9.66591618905697e-05
3.56250e-07;0.00010381698471016104
3.56500e-07;0.00011080166027519557
3.56750e-07;0.00011734179598880117
3.57000e-07;0.00012368153794687357
3.57250e-07;0.00012943952243367368
3.57500e-07;0.00013493525694647962
3.57750e-07;0.0001398748289194982
3.58000e-07;0.00014456368883672066
3.58250e-07;0.00014925254875394411
3.58500e-07;0.00015335975616028707
3.58750e-07;0.0001572047609076419
3.59000e-07;0.0001610497656549975
3.59250e-07;0.00016489477040235311
3.59500e-07;0.00016873977514970793
3.59750e-07;0.00017258477989706356
3.60000e-07;0.00017642978464441918
3.60250e-07;0.0001796326897264407
3.60500e-07;0.00018254614322622725
3.60750e-07;0.00018545959672601318
3.61000e-07;0.00018837305022579974
3.61250e-07;0.0001912865037255863
3.61500e-07;0.00019419995722537222
3.61750e-07;0.00019711341072515878
3.62000e-07;0.00019959847222506693
3.62250e-07;0.00020189041924621552
3.62500e-07;0.00020418236626736463
3.62750e-07;0.00020647431328851373
3.63000e-07;0.00020876626030966235
3.63250e-07;0.00021105820733081145
3.63500e-07;0.00021335015435196053
3.63750e-07;0.00021564210137310915
3.64000e-07;0.00021793404839425825
3.64250e-07;0.00022022599541540735
3.64500e-07;0.0002220888573398757
3.64750e-07;0.00022375829234504504
3.65000e-07;0.00022542772735021404
3.65250e-07;0.00022709716235538342
3.65500e-07;0.00022876659736055277
3.65750e-07;0.0002304360323657218
3.66000e-07;0.00023210546737089115
3.66250e-07;0.0002337749023760605
3.66500e-07;0.00023544433738122953
3.66750e-07;0.00023711377238639888
3.67000e-07;0.00023849320305121258
3.67250e-07;0.0002397419028969586
3.67500e-07;0.00024065507769007263
3.67750e-07;0.00024141700141951477
3.68000e-07;0.0002410185145980307
3.68250e-07;0.00023883674486740306
3.68500e-07;0.00023483615471736957
3.68750e-07;0.00022908599557813867
3.69000e-07;0.0002216805437997027
3.69250e-07;0.00021271408674960224
3.69500e-07;0.00020226241485297872
3.69750e-07;0.0001902250883312954
3.70000e-07;0.00017627170862636083
3.70250e-07;0.0001601581823922992
3.70500e-07;0.00014190624410613482
3.70750e-07;0.00012166054497524107
3.71000e-07;9.958142852554157e-05
3.71250e-07;7.582921949586594e-05
3.71500e-07;5.0552649027650376e-05
3.71750e-07;2.3790064962344058e-05
3.72000e-07;-4.564231128592457e-06
3.72250e-07;-3.4561864906534586e-05
3.72500e-07;-6.608795372809306e-05
3.72750e-07;-9.89506120612886e-05
3.73000e-07;-0.00013294815019197737
3.73250e-07;-0.0001681130554032709
3.73500e-07;-0.00020365401287275652
3.73750e-07;-0.00024020659076340943
3.74000e-07;-0.0002772151961951748
3.74250e-07;-0.00031422380162693224
3.74500e-07;-0.000351653265266848
3.74750e-07;-0.00038927244723372273
3.75000e-07;-0.0004268916292005895
3.75250e-07;-0.00046451081116746426
3.75500e-07;-0.0005005423751672205
3.75750e-07;-0.000535858258163869
3.76000e-07;-0.000571174141160525
3.76250e-07;-0.0006064900241571736
3.76500e-07;-0.0006393844114846098
3.76750e-07;-0.0006711872147625792
3.77000e-07;-0.0007005385617324119
3.77250e-07;-0.0007287848187209075
3.77500e-07;-0.0007538043740777295
3.77750e-07;-0.0007773693672487458
3.78000e-07;-0.0007963830314376251
3.78250e-07;-0.0008133450057622836
3.78500e-07;-0.0008251760576803501
3.78750e-07;-0.0008346941452890908
3.79000e-07;-0.0008391031565814808
3.79250e-07;-0.0008412090515456688
3.79500e-07;-0.0008381794903875689
3.79750e-07;-0.0008328349211701547
3.80000e-07;-0.0008219845353915021
3.80250e-07;-0.0008086521870745928
3.80500e-07;-0.0007899103736853597
3.80750e-07;-0.0007687300319666413
3.81000e-07;-0.000742613336463225
3.81250e-07;-0.0007142713860801937
3.81500e-07;-0.0006814359015598113
3.81750e-07;-0.000646574780465957
3.82000e-07;-0.000607447493083053
3.82250e-07;-0.0005663970640927783
3.82500e-07;-0.000521600140960073
3.82750e-07;-0.00047511433880136956
3.83000e-07;-0.0004256376383789665
3.83250e-07;-0.00037481267337788256
3.83500e-07;-0.0003217333683980694
3.83750e-07;-0.0002676378313455796
3.84000e-07;-0.0002118894239200714
3.84250e-07;-0.00015539592041285667
3.84500e-07;-9.803408246271312e-05
3.84750e-07;-4.02808087402425e-05
3.85000e-07;1.754161486556468e-05
3.85250e-07;7.512924920442763e-05
3.85500e-07;0.00013209960027825757
3.85750e-07;0.00018813854788861799
3.86000e-07;0.00024295657523195024
3.86250e-07;0.00029624068226850544
3.86500e-07;0.0003476332519878415
3.86750e-07;0.00039675763138906595
3.87000e-07;0.00044323484847824456
3.87250e-07;0.00048668599341794555
3.87500e-07;0.0005267673789916489
3.87750e-07;0.00056348964359664
3.88000e-07;0.0005973815875091214
3.88250e-07;0.0006289309103053882
3.88500e-07;0.0006573447996692335
3.88750e-07;0.0006846562125196284
3.89000e-07;0.0007082985454261633
3.89250e-07;0.000730286896789852
3.89500e-07;0.0007482666410496161
3.89750e-07;0.000764439348596115
3.90000e-07;0.0007780341773728871
3.90250e-07;0.000788572434949596
3.90500e-07;0.0007938582703211814
3.90750e-07;0.0008024056214777241
3.91000e-07;0.00080801835100996
3.91250e-07;0.0008108367115890478
3.91500e-07;0.0008081053685441166
3.91750e-07;0.0008084784523173396
3.92000e-07;0.00080340970042698
3.92250e-07;0.0007986603168391466
3.92500e-07;0.0007939109332513142
3.92750e-07;0.0007863548751267897
3.93000e-07;0.0007774983880681697
3.93250e-07;0.0007686419010095516
3.93500e-07;0.0007559263916103162
3.93750e-07;0.0007430815130510049
