Time(s);Current(A)
3.00000e-06;0.0016479496539516286
3.00025e-06;0.0016380968431887976
3.00050e-06;0.0016304883731661206
3.00075e-06;0.0016317826787141914
3.00100e-06;0.0016353006050540693
3.00125e-06;0.001647639115768551
3.00150e-06;0.001662079705089109
3.00175e-06;0.0016848587493186653
3.00200e-06;0.0017096032587844722
3.00225e-06;0.001742144309825807
3.00250e-06;0.001776932393169157
3.00275e-06;0.0018206339288808428
3.00300e-06;0.0018643354645925285
3.00325e-06;0.0019103141632550635
3.00350e-06;0.0019653258355333087
3.00375e-06;0.002020337507811554
3.00400e-06;0.002077605951236352
3.00425e-06;0.002143826478751055
3.00450e-06;0.0022100470062658703
3.00475e-06;0.0022762675337806857
3.00500e-06;0.0023424880612953887
3.00525e-06;0.002408708588810204
3.00550e-06;0.0024756899103259298
3.00575e-06;0.0025456891239667
3.00600e-06;0.0026156883376075883
3.00625e-06;0.002685687551248477
3.00650e-06;0.0027556867648893656
3.00675e-06;0.0028256859785301355
3.00700e-06;0.0028929530765684796
3.00725e-06;0.002949382510071801
3.00750e-06;0.003005811943575027
3.00775e-06;0.003062241377078348
3.00800e-06;0.003118670810581669
3.00825e-06;0.00317510024408499
3.00850e-06;0.003231529677588216
3.00875e-06;0.0032813656337724816
3.00900e-06;0.003305046805277002
3.00925e-06;0.003328727976781482
3.00950e-06;0.0033524091482860026
3.00975e-06;0.0033760903197905226
3.01000e-06;0.003399771491295003
3.01025e-06;0.003423452662799523
3.01050e-06;0.0034414456838986187
3.01075e-06;0.003436875140753474
3.01100e-06;0.0034323045976083363
3.01125e-06;0.0034244118779485225
3.01150e-06;0.003403340859918264
3.01175e-06;0.003382269841888042
3.01200e-06;0.003358175086478489
3.01225e-06;0.003322085871050852
3.01250e-06;0.003285996655623215
3.01275e-06;0.0032460058082929262
3.01300e-06;0.003190538098393985
3.01325e-06;0.0031350703884950436
3.01350e-06;0.003079602678596196
3.01375e-06;0.0030241349686972547
3.01400e-06;0.002968667258798313
3.01425e-06;0.002913199548899466
3.01450e-06;0.0028469971559857924
3.01475e-06;0.0027762234461338213
3.01500e-06;0.00270544973628185
3.01525e-06;0.0026346760264299987
3.01550e-06;0.0025639023165780275
3.01575e-06;0.002493128606726057
3.01600e-06;0.002422306986410977
3.01625e-06;0.002351295316477181
3.01650e-06;0.0022802836465433854
3.01675e-06;0.0022092719766095893
3.01700e-06;0.0021382603066759137
3.01725e-06;0.0020696636217263074
3.01750e-06;0.002010646618212435
3.01775e-06;0.001951629614698662
3.01800e-06;0.0018926126111847893
3.01825e-06;0.0018335956076709168
3.01850e-06;0.0017774914023075221
3.01875e-06;0.0017329415869507907
3.01900e-06;0.0016901395133004189
3.01925e-06;0.0016542703228310347
3.01950e-06;0.001620195915851237
3.01975e-06;0.0015932409958201066
3.02000e-06;0.00156819608469261
3.02025e-06;0.0015507277328218642
3.02050e-06;0.0015352101148663024
3.02075e-06;0.00152743060277755
3.02100e-06;0.0015214374361903103
3.02125e-06;0.0015225302850239595
3.02150e-06;0.0015253119737198455
3.02175e-06;0.0015347928957371
3.02200e-06;0.0015459078927304738
3.02225e-06;0.0015635048835318827
3.02250e-06;0.0015829691229513796
3.02275e-06;0.0016098403015609637
3.02300e-06;0.001636711480170593
3.02325e-06;0.0016653934822599273
3.02350e-06;0.0017012585981930476
3.02375e-06;0.0017371237141261071
3.02400e-06;0.0017748853850597331
3.02425e-06;0.0018201702467584798
3.02450e-06;0.0018654551084571497
3.02475e-06;0.0019107399701558964
3.02500e-06;0.001956024831854643
3.02525e-06;0.00200130969355339
3.02550e-06;0.002047366052996923
3.02575e-06;0.0020964827638187103
3.02600e-06;0.002145599474640498
3.02625e-06;0.0021947161854622022
3.02650e-06;0.00224383289628399
3.02675e-06;0.0022929496071057774
3.02700e-06;0.0023397579068461676
3.02725e-06;0.0023774092789335313
3.02750e-06;0.002415060651020895
3.02775e-06;0.0024527120231082585
3.02800e-06;0.0024903633951955583
3.02825e-06;0.0025280147672829224
3.02850e-06;0.002565666139370286
3.02875e-06;0.002603317511457586
3.02900e-06;0.0026409688835449495
3.02925e-06;0.0026585715020465512
3.02950e-06;0.0026676364481510524
3.02975e-06;0.0026767013942555385
3.03000e-06;0.0026857663403600397
3.03025e-06;0.002694831286464541
3.03050e-06;0.0027038962325690264
3.03075e-06;0.0027129611786735276
3.03100e-06;0.002722026124778029
3.03125e-06;0.002726761962051134
3.03150e-06;0.002714325235610141
3.03175e-06;0.0027018885091691478
3.03200e-06;0.0026862750298031037
3.03225e-06;0.002658060113482368
3.03250e-06;0.002629845197161584
3.03275e-06;0.0026016302808408004
3.03300e-06;0.002573415364520064
3.03325e-06;0.0025452004481992807
3.03350e-06;0.0025169855318784968
3.03375e-06;0.002485780440387787
3.03400e-06;0.002442714022323368
3.03425e-06;0.002399647604258876
3.03450e-06;0.0023565811861943836
3.03475e-06;0.0023135147681299646
3.03500e-06;0.0022704483500654727
3.03525e-06;0.0022273819320009804
3.03550e-06;0.002183599915072001
3.03575e-06;0.002136979284568058
3.03600e-06;0.0020903586540641154
3.03625e-06;0.0020437380235601727
3.03650e-06;0.0019971173930563094
3.03675e-06;0.0019504967625523667
3.03700e-06;0.0019053782931451142
3.03725e-06;0.0018662185459941436
3.03750e-06;0.0018270587988431064
3.03775e-06;0.0017878990516920694
3.03800e-06;0.0017487393045410324
3.03825e-06;0.0017095795573900615
3.03850e-06;0.0016729115715382486
3.03875e-06;0.0016461278208353112
3.03900e-06;0.0016193440701324192
3.03925e-06;0.0015946944350441479
3.03950e-06;0.0015785103381986602
3.03975e-06;0.0015623262413531997
3.04000e-06;0.001548375664308927
3.04025e-06;0.0015432849387007513
3.04050e-06;0.0015381942130925754
3.04075e-06;0.0015353809551398813
3.04100e-06;0.0015416018794974578
3.04125e-06;0.0015478228038550345
3.04150e-06;0.0015561808205619284
3.04175e-06;0.0015730161835228328
3.04200e-06;0.0015898515464837374
3.04225e-06;0.0016086174742244034
3.04250e-06;0.0016350415015828508
3.04275e-06;0.0016614655289413432
3.04300e-06;0.0016895515664851536
3.04325e-06;0.0017242304102887986
3.04350e-06;0.0017589092540925024
3.04375e-06;0.0017953824883339105
3.04400e-06;0.001838973650380392
3.04425e-06;0.001882564812426947
3.04450e-06;0.0019261559744735022
3.04475e-06;0.0019697471365200574
3.04500e-06;0.0020133382985665386
3.04525e-06;0.002056929460613094
3.04550e-06;0.002103070154467065
3.04575e-06;0.0021502965550830684
3.04600e-06;0.0021975229556991517
3.04625e-06;0.002244749356315235
3.04650e-06;0.0022919757569313183
3.04675e-06;0.002339202157547322
3.04700e-06;0.0023842015303242657
3.04725e-06;0.0024203668037621633
3.04750e-06;0.0024565320771999994
3.04775e-06;0.0024926973506378966
3.04800e-06;0.0025288626240757943
3.04825e-06;0.0025650278975136304
3.04850e-06;0.0026011931709515276
3.04875e-06;0.002637358444389425
3.04900e-06;0.0026735237178273225
3.04925e-06;0.0027066289080346054
3.04950e-06;0.0027275954627160653
3.04975e-06;0.0027485620173975252
3.05000e-06;0.00276952857207895
3.05025e-06;0.00279049512676041
3.05050e-06;0.00281146168144187
3.05075e-06;0.00283242823612333
3.05100e-06;0.0028533947908047546
3.05125e-06;0.002874361345486215
3.05150e-06;0.0028932804882284262
3.05175e-06;0.0029040780259586177
3.05200e-06;0.0029148755636888278
3.05225e-06;0.0029256731014190374
3.05250e-06;0.002936470639149229
3.05275e-06;0.0029472681768794385
3.05300e-06;0.0029580657146096485
3.05325e-06;0.002968863252339858
3.05350e-06;0.0029796607900700496
3.05375e-06;0.0029904583278002593
3.05400e-06;0.0030012558655304693
3.05425e-06;0.0030120534032606608
3.05450e-06;0.0030228509409908704
3.05475e-06;0.00303364847872108
3.05500e-06;0.0030431662147551736
3.05525e-06;0.0030476072763445006
3.05550e-06;0.0030520483379338353
3.05575e-06;0.00305648939952317
3.05600e-06;0.0030609304611124975
3.05625e-06;0.0030653715227018322
3.05650e-06;0.0030698125842911666
3.05675e-06;0.003074253645880494
3.05700e-06;0.0030786947074698287
3.05725e-06;0.0030831357690591634
3.05750e-06;0.0030875768306484978
3.05775e-06;0.003092017892237825
3.05800e-06;0.00309645895382716
3.05825e-06;0.0031009000154164947
3.05850e-06;0.0031023018208729204
3.05875e-06;0.0030916476070346373
3.05900e-06;0.0030809933931963546
3.05925e-06;0.003070339179358072
3.05950e-06;0.003059684965519807
3.05975e-06;0.003049030751681524
3.06000e-06;0.003038376537843241
3.06025e-06;0.003027722324004976
3.06050e-06;0.0030170681101666934
3.06075e-06;0.0030064138963284107
3.06100e-06;0.0029896497213073286
3.06125e-06;0.0029486487571872915
3.06150e-06;0.002907647793067254
3.06175e-06;0.0028666468289472165
3.06200e-06;0.0028256458648272488
3.06225e-06;0.0027846449007072113
3.06250e-06;0.002743643936587174
3.06275e-06;0.002702642972467206
3.06300e-06;0.002661642008347169
3.06325e-06;0.0026206410442271314
3.06350e-06;0.002575941494323987
3.06375e-06;0.002516570518382668
3.06400e-06;0.002457199542441249
3.06425e-06;0.002397828566499829
3.06450e-06;0.00233845759055851
3.06475e-06;0.00227812546215375
3.06500e-06;0.002213980666393238
3.06525e-06;0.002149835870632834
3.06550e-06;0.0020856910748723216
3.06575e-06;0.002021546279111809
3.06600e-06;0.00195742699888949
3.06625e-06;0.0018941913734134353
3.06650e-06;0.001834059506928555
3.06675e-06;0.0017739276404436745
3.06700e-06;0.0017137957739588958
3.06725e-06;0.0016536639074740155
3.06750e-06;0.0015960694049252456
3.06775e-06;0.0015485400325386113
3.06800e-06;0.0015010106601520575
3.06825e-06;0.001453481287765423
3.06850e-06;0.0014059519153787887
3.06875e-06;0.0013613342863930576
3.06900e-06;0.0013282668634740822
3.06925e-06;0.0012971976264327851
3.06950e-06;0.001274054726114917
3.06975e-06;0.001252957709745789
3.07000e-06;0.0012399762372088566
3.07025e-06;0.001229085604345741
3.07050e-06;0.0012264888441770715
3.07075e-06;0.001226028301306632
3.07100e-06;0.001234041633569274
3.07125e-06;0.001244127488040078
3.07150e-06;0.0012624345540969708
3.07175e-06;0.0012826780680859381
3.07200e-06;0.0013106030187861914
3.07225e-06;0.0013403265617893216
3.07250e-06;0.0013771847004176256
3.07275e-06;0.0014155664701956615
3.07300e-06;0.0014599921289180549
3.07325e-06;0.0015044177876405234
3.07350e-06;0.0015466823042660709
3.07375e-06;0.0016011787985211994
3.07400e-06;0.001657837774932328
3.07425e-06;0.001718302647370743
3.07450e-06;0.001771715941866123
3.07475e-06;0.0018506098854338382
3.07500e-06;0.0019190881908745553
3.07525e-06;0.0019868352492214227
3.07550e-06;0.0020545823075681755
3.07575e-06;0.002122329365915043
3.07600e-06;0.0021900764242619108
3.07625e-06;0.0022571699288511764
3.07650e-06;0.002324212814199377
3.07675e-06;0.002391255699547578
3.07700e-06;0.0024582985848957788
3.07725e-06;0.002525341470243866
3.07750e-06;0.002577965874541149
3.07775e-06;0.0026294735343297916
3.07800e-06;0.0026809811941183466
3.07825e-06;0.0027324888539069893
3.07850e-06;0.002783996513695632
3.07875e-06;0.0028355041734842747
3.07900e-06;0.00288701183327283
3.07925e-06;0.002924659737682604
3.07950e-06;0.0029612341721716156
3.07975e-06;0.0029978086066605653
3.08000e-06;0.003034383041149577
3.08025e-06;0.003070957475638589
3.08050e-06;0.0031075319101275386
3.08075e-06;0.0031441063446165504
3.08100e-06;0.0031718157908371594
3.08125e-06;0.0031988386233337608
3.08150e-06;0.0032258614558303158
3.08175e-06;0.003252884288326917
3.08200e-06;0.003279907120823518
3.08225e-06;0.0033069299533200736
3.08250e-06;0.0033339527858166746
3.08275e-06;0.0033609756183132756
3.08300e-06;0.003387998450809877
3.08325e-06;0.003415021283306432
3.08350e-06;0.0034420441158030334
3.08375e-06;0.0034690669482996344
3.08400e-06;0.00349608978079619
3.08425e-06;0.003523112613292791
3.08450e-06;0.0035501354457893918
3.08475e-06;0.0035771582782859472
3.08500e-06;0.0036000262082804724
3.08525e-06;0.003617343939891225
3.08550e-06;0.0036346616715019773
3.08575e-06;0.0036519794031127004
3.08600e-06;0.003669297134723453
3.08625e-06;0.0036866148663342053
3.08650e-06;0.0037039325979449284
3.08675e-06;0.003721250329555681
3.08700e-06;0.0037385680611664333
3.08725e-06;0.003755885792777186
3.08750e-06;0.0037732035243879087
3.08775e-06;0.0037905212559986613
3.08800e-06;0.0038078389876094135
3.08825e-06;0.0038251567192201367
3.08850e-06;0.0038424744508308894
3.08875e-06;0.0038597921824416416
3.08900e-06;0.0038771099140523647
3.08925e-06;0.003875424887112181
3.08950e-06;0.0038722680528301993
3.08975e-06;0.0038691112185482174
3.09000e-06;0.0038659543842662412
3.09025e-06;0.0038627975499842594
3.09050e-06;0.0038596407157022775
3.09075e-06;0.003856483881420301
3.09100e-06;0.003853327047138319
3.09125e-06;0.003850170212856337
3.09150e-06;0.0038470133785743553
3.09175e-06;0.0038438565442923786
3.09200e-06;0.0038406997100103968
3.09225e-06;0.0038188951787558375
3.09250e-06;0.0037956463404951006
3.09275e-06;0.003772397502234324
3.09300e-06;0.0037491486639735475
3.09325e-06;0.0037258998257128106
3.09350e-06;0.0037026509874520342
3.09375e-06;0.003679402149191258
3.09400e-06;0.0036561533109304815
3.09425e-06;0.0036329044726697442
3.09450e-06;0.003609655634408968
3.09475e-06;0.0035864067961481915
3.09500e-06;0.0035631579578874546
3.09525e-06;0.0035341597308979652
3.09550e-06;0.0035047162005321405
3.09575e-06;0.003475272670166316
3.09600e-06;0.003445829139800541
3.09625e-06;0.0034163856094347163
3.09650e-06;0.0033869420790688916
3.09675e-06;0.003357498548703117
3.09700e-06;0.003328055018337292
3.09725e-06;0.0033042348130434863
3.09750e-06;0.0032808501472060144
3.09775e-06;0.003257465481368503
3.09800e-06;0.0032340808155309916
3.09825e-06;0.00321069614969348
3.09850e-06;0.003187311483856008
3.09875e-06;0.0031639268180184968
3.09900e-06;0.0031405421521809853
3.09925e-06;0.003110024786133349
3.09950e-06;0.003078954976054446
3.09975e-06;0.0030478851659755434
3.10000e-06;0.0030168153558966407
3.10025e-06;0.002985745545817791
3.10050e-06;0.002954675735738888
3.10075e-06;0.0029236059256599854
3.10100e-06;0.002892536115581135
3.10125e-06;0.002861466305502233
3.10150e-06;0.00283039649542333
3.10175e-06;0.00279932668534448
3.10200e-06;0.0027498237495055416
3.10225e-06;0.002698893125693787
3.10250e-06;0.0026479625018820327
3.10275e-06;0.0025970318780703648
3.10300e-06;0.0025461012542586105
3.10325e-06;0.0024951706304468563
3.10350e-06;0.002444240006635188
3.10375e-06;0.0023933093828234337
3.10400e-06;0.0023423787590116795
3.10425e-06;0.0022914481351999252
3.10450e-06;0.0022405175113882573
3.10475e-06;0.0021822005416674718
3.10500e-06;0.0021233114824727975
3.10525e-06;0.0020644224232782235
3.10550e-06;0.002005533364083549
3.10575e-06;0.0019466443048888752
3.10600e-06;0.001887755245694301
3.10625e-06;0.0018328995752322056
3.10650e-06;0.001778356300001331
3.10675e-06;0.0017238130247704563
3.10700e-06;0.0016692697495396742
3.10725e-06;0.0016147264743087996
3.10750e-06;0.0015601831990779249
3.10775e-06;0.0015142499068266822
3.10800e-06;0.0014689834775538915
3.10825e-06;0.0014237170482811006
3.10850e-06;0.0013861934360158133
3.10875e-06;0.0013492695227307397
3.10900e-06;0.0013203247068958102
3.10925e-06;0.0012919978905046104
3.10950e-06;0.0012723126607951973
3.10975e-06;0.0012532967418437157
3.11000e-06;0.0012430773487500295
3.11025e-06;0.001233539266809774
3.11050e-06;0.001232967884508555
3.11075e-06;0.0012330909937113869
3.11100e-06;0.0012424235838145272
3.11125e-06;0.0012524694693885913
3.11150e-06;0.0012714149034874288
3.11175e-06;0.0012910496280820981
3.11200e-06;0.0013189558789135493
3.11225e-06;0.001347502778470663
3.11250e-06;0.0013837028521693372
3.11275e-06;0.0014204956818020963
3.11300e-06;0.0014659555971720068
3.11325e-06;0.0015120867982604353
3.11350e-06;0.0015582179993488638
3.11375e-06;0.0016127530840594248
3.11400e-06;0.0016679390688795522
3.11425e-06;0.0017231250536996797
3.11450e-06;0.0017856707181398098
3.11475e-06;0.0018487864066886468
3.11500e-06;0.0019119020952374837
3.11525e-06;0.0019750177837863205
3.11550e-06;0.0020381334723350505
3.11575e-06;0.002101836067118435
3.11600e-06;0.0021663226624971258
3.11625e-06;0.002230809257875707
3.11650e-06;0.002295295853254398
3.11675e-06;0.0023597824486330885
3.11700e-06;0.0024242690440117788
3.11725e-06;0.0024691685331798357
3.11750e-06;0.0025125509559354455
3.11775e-06;0.0025559333786910553
3.11800e-06;0.0025993158014465914
3.11825e-06;0.0026426982242022013
3.11850e-06;0.002686080646957811
3.11875e-06;0.0027294630697133476
3.11900e-06;0.0027728454924689575
3.11925e-06;0.0028162279152245673
3.11950e-06;0.002859610337980177
3.11975e-06;0.002902992760735713
3.12000e-06;0.002929238357007668
3.12025e-06;0.0029325922520602884
3.12050e-06;0.002935946147112903
3.12075e-06;0.0029393000421655234
3.12100e-06;0.0029426539372181437
3.12125e-06;0.002946007832270764
3.12150e-06;0.0029493617273233788
3.12175e-06;0.002952715622375999
3.12200e-06;0.0029560695174286195
3.12225e-06;0.002959423412481234
3.12250e-06;0.0029627773075338545
3.12275e-06;0.002966131202586475
3.12300e-06;0.002945419592674392
3.12325e-06;0.002922844054068943
3.12350e-06;0.002900268515463494
3.12375e-06;0.002877692976858045
3.12400e-06;0.002855117438252634
3.12425e-06;0.002832541899647185
3.12450e-06;0.002809966361041736
3.12475e-06;0.002783477675621348
3.12500e-06;0.0027517617336955008
3.12525e-06;0.0027200457917696537
3.12550e-06;0.0026883298498438066
3.12575e-06;0.002656613907918013
3.12600e-06;0.0026248979659921658
3.12625e-06;0.0025931820240663187
3.12650e-06;0.0025614660821405254
3.12675e-06;0.0025336906182644035
3.12700e-06;0.0025062203534736115
3.12725e-06;0.0024787500886828662
3.12750e-06;0.0024512798238920746
3.12775e-06;0.002423809559101283
3.12800e-06;0.002396339294310491
3.12825e-06;0.0023688690295197456
3.12850e-06;0.002341398764728954
3.12875e-06;0.002313928499938162
3.12900e-06;0.002303620324012568
3.12925e-06;0.0022946413913305552
3.12950e-06;0.0022856624586485427
3.12975e-06;0.00227668352596653
3.13000e-06;0.0022677045932845328
3.13025e-06;0.0022587256606025202
3.13050e-06;0.0022497467279205077
3.13075e-06;0.0022407677952385103
3.13100e-06;0.0022317888625564978
3.13125e-06;0.002242602743327267
3.13150e-06;0.0022549496230098555
3.13175e-06;0.002267296502692465
3.13200e-06;0.0022796433823750748
3.13225e-06;0.002291990262057684
3.13250e-06;0.0023043371417402728
3.13275e-06;0.002316684021422882
3.13300e-06;0.0023290309011054916
3.13325e-06;0.00234137778078808
3.13350e-06;0.0023670256112850274
3.13375e-06;0.0023937036310056796
3.13400e-06;0.0024203816507263314
3.13425e-06;0.0024470596704469385
3.13450e-06;0.0024737376901675908
3.13475e-06;0.0025004157098882426
3.13500e-06;0.0025270937296088497
3.13525e-06;0.002553771749329502
3.13550e-06;0.0025804497690501537
3.13575e-06;0.0026084819134705637
3.13600e-06;0.002636618937962589
3.13625e-06;0.0026647559624546147
3.13650e-06;0.00269289298694664
3.13675e-06;0.0027210300114386176
3.13700e-06;0.002749167035930643
3.13725e-06;0.002777304060422668
3.13750e-06;0.002805441084914646
3.13775e-06;0.0028335781094066714
3.13800e-06;0.0028617151338986967
3.13825e-06;0.0028783400479533805
3.13850e-06;0.002894073322584556
3.13875e-06;0.002909806597215758
3.13900e-06;0.0029255398718469605
3.13925e-06;0.002941273146478136
3.13950e-06;0.0029570064211093382
3.13975e-06;0.0029727396957405406
3.14000e-06;0.002988472970371716
3.14025e-06;0.0030042062450029183
3.14050e-06;0.0030199395196341206
3.14075e-06;0.003022066602709744
3.14100e-06;0.0030231398549642186
3.14125e-06;0.003024213107218695
3.14150e-06;0.0030252863594731716
3.14175e-06;0.003026359611727646
3.14200e-06;0.0030274328639821224
3.14225e-06;0.003028506116236599
3.14250e-06;0.0030295793684910755
3.14275e-06;0.00303065262074555
3.14300e-06;0.0030317258730000267
3.14325e-06;0.003032799125254503
3.14350e-06;0.0030338723775089776
3.14375e-06;0.003026575258671453
3.14400e-06;0.0030186298353465477
3.14425e-06;0.003010684412021656
3.14450e-06;0.003002738988696751
3.14475e-06;0.0029947935653718456
3.14500e-06;0.002986848142046941
3.14525e-06;0.002978902718722049
3.14550e-06;0.002970957295397144
3.14575e-06;0.002963011872072239
3.14600e-06;0.002955066448747347
3.14625e-06;0.0029471210254224424
3.14650e-06;0.0029391756020975372
3.14675e-06;0.00293393126758192
3.14700e-06;0.00292889613860531
3.14725e-06;0.002923861009628691
3.14750e-06;0.0029188258806520724
3.14775e-06;0.002913790751675462
3.14800e-06;0.0029087556226988433
3.14825e-06;0.0029037204937222244
3.14850e-06;0.002898685364745614
