Time(s);Current(A)
1.15000e-05;-4.549464542131244e-05
1.15003e-05;-6.9130811789523065e-06
1.15005e-05;3.165753673995488e-05
1.15007e-05;7.020582228145275e-05
1.15010e-05;0.00010920394957352057
1.15013e-05;0.00014909055122929663
1.15015e-05;0.00019010805587717347
1.15018e-05;0.00023128770587467604
1.15020e-05;0.00027295662223033375
1.15023e-05;0.00031470498532815296
1.15025e-05;0.00035645334842568924
1.15028e-05;0.0003978149889174903
1.15030e-05;0.0004391138336526284
1.15033e-05;0.00048050587038979083
1.15035e-05;0.0005219130395818889
1.15038e-05;0.0005628592188356682
1.15040e-05;0.0006037305428530351
1.15043e-05;0.0006436963871363157
1.15045e-05;0.0006826147782016933
1.15048e-05;0.0007203732647156031
1.15050e-05;0.0007570124935126744
1.15053e-05;0.0007925597784738135
1.15055e-05;0.0008268655157524363
1.15058e-05;0.0008596882151231169
1.15060e-05;0.0008907758536765733
1.15063e-05;0.0009198764423171594
1.15065e-05;0.0009467314901616276
1.15068e-05;0.0009706435319686576
1.15070e-05;0.000990220043031849
1.15073e-05;0.0010042864183817993
1.15075e-05;0.0010125132493358177
1.15078e-05;0.0010149813811246476
1.15080e-05;0.001011817156897915
1.15083e-05;0.0010031471877375681
1.15085e-05;0.000989093526493926
1.15088e-05;0.0009695037608527479
1.15090e-05;0.0009437899866447814
1.15092e-05;0.0009115007065436912
1.15095e-05;0.0008727141412998329
1.15098e-05;0.0008277652742449536
1.15100e-05;0.0007770177205057727
1.15103e-05;0.0007208350031867456
1.15105e-05;0.0006595781753916768
1.15108e-05;0.0005934360299112318
1.15110e-05;0.00052232457959264
1.15113e-05;0.0004462455160901286
1.15115e-05;0.0003655321493770049
1.15118e-05;0.00028067867301026354
1.15120e-05;0.0001921971604322594
1.15123e-05;0.00010059966020990063
1.15125e-05;6.3965403047321865e-06
1.15128e-05;-9.000970871397006e-05
1.15130e-05;-0.000188387464177987
1.15133e-05;-0.0002889332954291874
1.15135e-05;-0.0003897871119770841
1.15138e-05;-0.0004913151871837318
1.15140e-05;-0.0005929527480572667
1.15143e-05;-0.0006945903089314904
1.15145e-05;-0.000793902776920898
1.15148e-05;-0.0008928376978905782
1.15150e-05;-0.0009878997174866256
1.15153e-05;-0.0010823328579619286
1.15155e-05;-0.0011710324118235833
1.15158e-05;-0.001258800949747277
1.15160e-05;-0.0013385771092000707
1.15163e-05;-0.0014170554716107996
1.15165e-05;-0.0014856397077429796
1.15168e-05;-0.0015526173423032964
1.15170e-05;-0.001612206919232623
1.15173e-05;-0.0016705968283324106
1.15175e-05;-0.0017239416499270385
1.15177e-05;-0.00177646725360476
1.15180e-05;-0.001821067731288795
1.15183e-05;-0.0018643813323430461
1.15185e-05;-0.0019076949333970037
1.15188e-05;-0.0019413905122221875
1.15190e-05;-0.001973524323065218
1.15193e-05;-0.0020056581339082486
1.15195e-05;-0.002031636565427208
1.15198e-05;-0.0020566154905907554
1.15200e-05;-0.0020815944157543025
1.15203e-05;-0.0020995823549962247
1.15205e-05;-0.002116435102645179
1.15208e-05;-0.0021332878502941335
1.15210e-05;-0.0021408618947158114
1.15213e-05;-0.002146929269546558
1.15215e-05;-0.0021529966443773045
1.15218e-05;-0.00215906401920801
1.15220e-05;-0.0021651313940387563
1.15223e-05;-0.002171198768869503
1.15225e-05;-0.002177266143700208
1.15228e-05;-0.0021833335185309547
1.15230e-05;-0.0021860340760406364
1.15233e-05;-0.0021827570806026665
1.15235e-05;-0.0021794800851646745
1.15238e-05;-0.0021762030897266825
1.15240e-05;-0.002172926094288713
1.15243e-05;-0.002169649098850721
1.15245e-05;-0.002166372103412729
1.15248e-05;-0.002163095107974759
1.15250e-05;-0.002159818112536767
1.15253e-05;-0.0021549986176795277
1.15255e-05;-0.0021499286528037847
1.15258e-05;-0.002144858687928007
1.15260e-05;-0.00214040559635271
1.15262e-05;-0.0021360526722492014
1.15265e-05;-0.002131699748145663
1.15268e-05;-0.0021267735838947895
1.15270e-05;-0.002121754337294255
1.15273e-05;-0.0021116270739664914
1.15275e-05;-0.002100670374316998
1.15278e-05;-0.0020897136746675054
1.15280e-05;-0.002072726452613273
1.15283e-05;-0.0020547599983855077
1.15285e-05;-0.002036793544157742
1.15288e-05;-0.0020126717773750386
1.15290e-05;-0.0019875505150780044
1.15293e-05;-0.00196242925278097
1.15295e-05;-0.0019293593453198349
1.15298e-05;-0.0018949987422008988
1.15300e-05;-0.0018606381390819625
1.15303e-05;-0.0018199547014783437
1.15305e-05;-0.0017782445662618293
1.15308e-05;-0.0017365344310453152
1.15310e-05;-0.001688863746713654
1.15313e-05;-0.001640225192423717
1.15315e-05;-0.00159158663813378
1.15318e-05;-0.0015384751681924214
1.15320e-05;-0.0014846373892143717
1.15323e-05;-0.0014284975023755226
1.15325e-05;-0.0013719838008103419
1.15328e-05;-0.0013139716159152296
1.15330e-05;-0.0012557161083044913
1.15333e-05;-0.0011962399407008048
1.15335e-05;-0.0011365655631476398
1.15338e-05;-0.0010766806147349407
1.15340e-05;-0.0010167614739680405
1.15343e-05;-0.0009574601245667401
1.15345e-05;-0.0008990834478333186
1.15347e-05;-0.0008425012598958519
1.15350e-05;-0.0007861887240064051
1.15353e-05;-0.0007326625338401498
1.15355e-05;-0.0006795887886196099
1.15358e-05;-0.0006293190660572932
1.15360e-05;-0.0005818129761316835
1.15362e-05;-0.0005373190779393133
1.15365e-05;-0.0004962211059270315
1.15368e-05;-0.0004589706509136348
1.15370e-05;-0.00042607966441642964
1.15373e-05;-0.0003979099745016035
1.15375e-05;-0.000374597049621095
1.15378e-05;-0.000356184681776729
1.15380e-05;-0.00034270699285484773
1.15383e-05;-0.0003341979673539496
1.15385e-05;-0.0003306923957032182
1.15388e-05;-0.00033226751697636094
1.15390e-05;-0.0003390383883994417
1.15393e-05;-0.0003510260164088648
1.15395e-05;-0.000368109602990042
1.15398e-05;-0.0003901109299687865
1.15400e-05;-0.0004168456949838002
1.15403e-05;-0.00044812958347660125
1.15405e-05;-0.00048377870653789674
1.15408e-05;-0.0005236359350445211
1.15410e-05;-0.0005675676030345126
1.15413e-05;-0.000615381306489225
1.15415e-05;-0.0006667957790607804
1.15418e-05;-0.0007135559750193946
1.15420e-05;-0.0007368581652607629
1.15423e-05;-0.00082183911491262
1.15425e-05;-0.000867949659564715
1.15428e-05;-0.000952470355695386
1.15430e-05;-0.0010179732065253749
1.15432e-05;-0.001092272833641397
1.15435e-05;-0.001152812166819836
1.15438e-05;-0.0012295015249000174
1.15440e-05;-0.0012897606924079277
1.15443e-05;-0.0013541530647567014
1.15445e-05;-0.0014266832664468086
1.15447e-05;-0.0014915475415783561
1.15450e-05;-0.0015614125222565192
1.15453e-05;-0.0016315409957097429
1.15455e-05;-0.0016930403535078402
1.15458e-05;-0.0017506751104356152
1.15460e-05;-0.0018081335223378045
1.15463e-05;-0.0018588990169562277
1.15465e-05;-0.0019093193659540453
1.15468e-05;-0.0019546684240010046
1.15470e-05;-0.0019997559617292546
1.15473e-05;-0.00203610378817786
1.15475e-05;-0.002065081772653969
1.15478e-05;-0.0020868114760986454
1.15480e-05;-0.0021081857948472855
1.15483e-05;-0.002119670827778416
1.15485e-05;-0.002130645882243687
1.15488e-05;-0.0021335098159753923
1.15490e-05;-0.002135955469056341
1.15493e-05;-0.0021297022614939188
1.15495e-05;-0.0021167712404295304
1.15498e-05;-0.002096740990755086
1.15500e-05;-0.0020763612081006718
1.15503e-05;-0.002045354392640792
1.15505e-05;-0.002013799553998314
1.15508e-05;-0.001982244715355836
1.15510e-05;-0.0019415164180304394
1.15513e-05;-0.001900315056575416
1.15515e-05;-0.0018524522737878143
1.15517e-05;-0.0017998269049845006
1.15520e-05;-0.0017469736503831412
1.15523e-05;-0.0016901195796956232
1.15525e-05;-0.0016307933653081648
1.15528e-05;-0.00156990603020881
1.15530e-05;-0.001507706186715045
1.15532e-05;-0.0014434129204130301
1.15535e-05;-0.0013774938861925642
1.15538e-05;-0.0013109649093405544
1.15540e-05;-0.0012441612056794268
1.15543e-05;-0.0011774561187013416
1.15545e-05;-0.001111253735686477
1.15548e-05;-0.0010462792510843428
1.15550e-05;-0.0009828882032291584
1.15553e-05;-0.0009207917230812641
1.15555e-05;-0.000860482760833317
1.15558e-05;-0.0008027978089343944
1.15560e-05;-0.0007498058781412044
1.15563e-05;-0.0006970492191531309
1.15565e-05;-0.0006497013116889512
1.15568e-05;-0.000606889372863991
1.15570e-05;-0.0005685328103545695
1.15573e-05;-0.0005340936605382825
1.15575e-05;-0.0005036340758496605
1.15578e-05;-0.00047751521887333333
1.15580e-05;-0.00045583518397342
1.15583e-05;-0.0004387070443292075
1.15585e-05;-0.00042625578811638845
1.15588e-05;-0.0004186543501420904
1.15590e-05;-0.00041574704280637065
1.15593e-05;-0.00041703814772848233
1.15595e-05;-0.00042240782894534295
1.15598e-05;-0.0004319236043553588
1.15600e-05;-0.00044548813275884674
1.15602e-05;-0.0004630135042176143
1.15605e-05;-0.0004844192328068701
1.15608e-05;-0.0005096549189038291
1.15610e-05;-0.000538464344219516
1.15613e-05;-0.0005703781156462934
1.15615e-05;-0.0006064696081512664
1.15617e-05;-0.000642768749507742
1.15620e-05;-0.0006838732928854583
1.15623e-05;-0.0007252256450128911
1.15625e-05;-0.0007713903275325162
1.15628e-05;-0.0008178031760892368
1.15630e-05;-0.0008642160246462719
1.15633e-05;-0.0009140301960572792
1.15635e-05;-0.0009640197695592327
1.15638e-05;-0.001014009343061525
1.15640e-05;-0.0010648500452854382
1.15643e-05;-0.0011157346391841446
1.15645e-05;-0.001166619233083196
1.15648e-05;-0.0012157872146181345
1.15650e-05;-0.0012648666725366049
1.15653e-05;-0.0013139461304554078
1.15655e-05;-0.00135822322155192
1.15658e-05;-0.0014022526604197867
1.15660e-05;-0.0014462820992879517
1.15663e-05;-0.001484171322229263
1.15665e-05;-0.0015217439016873644
1.15668e-05;-0.0015525163447815146
1.15670e-05;-0.001582938113096651
1.15673e-05;-0.0016043783875070198
1.15675e-05;-0.0016253554971776588
1.15678e-05;-0.001636901257768912
1.15680e-05;-0.0016479606551347726
1.15683e-05;-0.0016496128927545159
1.15685e-05;-0.0016507800145634957
1.15687e-05;-0.0016423226047459164
1.15690e-05;-0.0016333688695135328
1.15693e-05;-0.0016142537323037224
1.15695e-05;-0.0015946145839269067
1.15698e-05;-0.0015653615870843483
1.15700e-05;-0.0015356128157446934
1.15702e-05;-0.0014970947745366586
1.15705e-05;-0.0014581245127244485
1.15708e-05;-0.0014110781687334277
1.15710e-05;-0.0013636153509862818
1.15713e-05;-0.0013085693709982086
1.15715e-05;-0.0012531323365365613
1.15718e-05;-0.0011927171151485314
1.15720e-05;-0.0011291798734515226
1.15723e-05;-0.0010629685531792221
1.15725e-05;-0.0009944393966348133
1.15728e-05;-0.0009239171941056427
1.15730e-05;-0.0008516666062283745
1.15733e-05;-0.0007779795546207298
1.15735e-05;-0.0007032546379705524
1.15738e-05;-0.0006279368369935968
1.15740e-05;-0.0005524666577071618
1.15743e-05;-0.0004772849860347338
1.15745e-05;-0.0004028328003598742
1.15748e-05;-0.0003295312101358121
1.15750e-05;-0.00025776365625638056
1.15753e-05;-0.00018793063455872533
1.15755e-05;-0.0001204994535036224
1.15758e-05;-5.596645205214745e-05
1.15760e-05;5.174902028381996e-06
1.15763e-05;6.243095517326234e-05
1.15765e-05;0.00011530836631222445
1.15768e-05;0.00016355214076203074
1.15770e-05;0.00020741526199990551
1.15772e-05;0.00024727030670056936
1.15775e-05;0.00028314895782395887
1.15778e-05;0.0003148856553458726
1.15780e-05;0.0003423081195158026
1.15783e-05;0.00036524411814724863
1.15785e-05;0.00038352155315426735
1.15787e-05;0.00039711770410398383
1.15790e-05;0.00040632791861828805
1.15793e-05;0.00041152258362599274
1.15795e-05;0.0004128584504100013
1.15798e-05;0.00041036870172798874
1.15800e-05;0.00040408238487935603
1.15803e-05;0.0003940284667389427
1.15805e-05;0.00038023618238387276
1.15808e-05;0.00036282810660052587
1.15810e-05;0.00034212627626079185
1.15813e-05;0.0003184994928955508
1.15815e-05;0.00029218286441449185
1.15818e-05;0.000263333986708216
1.15820e-05;0.00023210795377994134
1.15823e-05;0.00019865975208992708
1.15825e-05;0.00016314447024188224
1.15828e-05;0.00012577576619750817
1.15830e-05;8.689211569527153e-05
1.15833e-05;4.6861354245425695e-05
1.15835e-05;5.967474663802816e-06
1.15838e-05;-3.5554040031166044e-05
1.15840e-05;-7.753646513014893e-05
1.15843e-05;-0.00011954110200677024
1.15845e-05;-0.00016154573888367622
1.15848e-05;-0.00020286546798186443
1.15850e-05;-0.00024414987721681626
1.15853e-05;-0.00028341047785875804
1.15855e-05;-0.0003225667131475867
1.15857e-05;-0.00035947162449499027
1.15860e-05;-0.00039440076517942833
1.15863e-05;-0.0004271052604472154
1.15865e-05;-0.0004573023565945261
1.15868e-05;-0.000484840662970277
1.15870e-05;-0.0005098465994148474
1.15872e-05;-0.000532514006287354
1.15875e-05;-0.0005528571743127707
1.15878e-05;-0.0005695885242000988
1.15880e-05;-0.0005861394942310473
1.15883e-05;-0.0005977216043445009
1.15885e-05;-0.0006090474763820607
1.15888e-05;-0.0006152883022081876
1.15890e-05;-0.0006212668983720809
1.15893e-05;-0.0006227282057415413
1.15895e-05;-0.0006239565620098024
1.15898e-05;-0.0006209241083752313
1.15900e-05;-0.000617671929944663
1.15903e-05;-0.0006102377921952825
1.15905e-05;-0.0006025879958789082
1.15908e-05;-0.0005909916295793607
1.15910e-05;-0.0005791917434551521
1.15913e-05;-0.0005641089718004511
1.15915e-05;-0.0005488569057227866
1.15918e-05;-0.0005307906016889846
1.15920e-05;-0.0005125791708191114
1.15923e-05;-0.0004913819164059416
1.15925e-05;-0.00047003068669605806
1.15928e-05;-0.00044867945698631923
1.15930e-05;-0.0004248654911458328
1.15933e-05;-0.0004009245249916945
1.15935e-05;-0.0003769835588377185
1.15938e-05;-0.00035201967541346335
1.15940e-05;-0.00032700304138692104
1.15942e-05;-0.00030198640736054825
1.15945e-05;-0.0002771915135016276
1.15948e-05;-0.00025240805451406625
1.15950e-05;-0.00022762459552667282
1.15953e-05;-0.00020418865168995976
1.15955e-05;-0.00018082219757435664
1.15957e-05;-0.00015879499253705867
1.15960e-05;-0.00013794312547372873
1.15963e-05;-0.00011841460125137419
1.15965e-05;-0.00010037857659238384
1.15968e-05;-8.444956318725809e-05
1.15970e-05;-7.202891738703012e-05
1.15973e-05;-6.435698180384117e-05
1.15975e-05;-6.174836137629734e-05
1.15978e-05;-6.407481807334947e-05
1.15980e-05;-7.118769059951012e-05
1.15983e-05;-8.293830275037212e-05
1.15985e-05;-9.917849654422051e-05
1.15988e-05;-0.00012003911379397139
1.15990e-05;-0.00014614381385988357
1.15993e-05;-0.00017801531113183848
1.15995e-05;-0.00021559644555768767
1.15998e-05;-0.00025855264392453354
1.16000e-05;-0.0003065365381781354
1.16003e-05;-0.00035920082874127705
1.16005e-05;-0.0004161984963705574
1.16008e-05;-0.0004773573690689369
1.16010e-05;-0.0005428138620933733
1.16013e-05;-0.0006126412654125056
1.16015e-05;-0.0006865494919670636
1.16018e-05;-0.0007655594524168933
1.16020e-05;-0.0008448222212660867
1.16023e-05;-0.0009300494412902858
1.16025e-05;-0.0010155842408238716
1.16027e-05;-0.0011011190403568778
1.16030e-05;-0.001191322805583142
1.16033e-05;-0.001281767343704564
1.16035e-05;-0.0013722118818253733
1.16038e-05;-0.0014639263691682547
1.16040e-05;-0.001555706346251461
1.16042e-05;-0.0016474863233340452
1.16045e-05;-0.0017359976960036418
1.16048e-05;-0.0018243405107099078
1.16050e-05;-0.0019126833254161737
1.16053e-05;-0.0019955270799107026
1.16055e-05;-0.00207808725454352
1.16058e-05;-0.0021517589101406115
1.16060e-05;-0.0022249721955962167
1.16063e-05;-0.0022981854810523177
1.16065e-05;-0.002356655635429597
1.16068e-05;-0.0024143655044265412
1.16070e-05;-0.0024720753734238767
1.16073e-05;-0.002514450570515524
1.16075e-05;-0.0025560349771841834
1.16078e-05;-0.0025976193838531244
1.16080e-05;-0.0026231777206792393
1.16083e-05;-0.0026479096125297022
1.16085e-05;-0.002672641504380333
1.16088e-05;-0.002680684638292798
1.16090e-05;-0.0026878671532086455
1.16093e-05;-0.002695049668124542
1.16095e-05;-0.002687273691246482
1.16098e-05;-0.002678726323097558
1.16100e-05;-0.002670178954948576
1.16103e-05;-0.0026475346116710567
1.16105e-05;-0.0026241633044918307
1.16108e-05;-0.002600791997312446
1.16110e-05;-0.0025669046957812096
1.16113e-05;-0.0025324750971817706
1.16115e-05;-0.002491148494180384
1.16118e-05;-0.0024494662210308936
1.16120e-05;-0.0024018167659514427
1.16123e-05;-0.0023538595905401587
1.16125e-05;-0.0023008621773054558
1.16127e-05;-0.002247604845122396
1.16130e-05;-0.0021913691805245826
1.16133e-05;-0.002133561778841989
1.16135e-05;-0.002074623335286839
1.16138e-05;-0.0020148936966883605
1.16140e-05;-0.0019547102574843656
1.16143e-05;-0.0018944104999842398
1.16145e-05;-0.001834331912206366
1.16148e-05;-0.0017748474081937212
1.16150e-05;-0.0017164068984662079
1.16153e-05;-0.001659484097088216
1.16155e-05;-0.0016045084668521226
1.16158e-05;-0.0015546428366136915
1.16160e-05;-0.0015050357456515978
1.16163e-05;-0.001455428654689168
1.16165e-05;-0.0014137562923698499
1.16168e-05;-0.001372493114379216
1.16170e-05;-0.0013365194848681979
1.16173e-05;-0.0013008186309541754
1.16175e-05;-0.0012651177770403948
1.16178e-05;-0.0012338980201753891
1.16180e-05;-0.0012029093480480626
1.16183e-05;-0.0011719206759209463
1.16185e-05;-0.0011468316917639194
1.16188e-05;-0.0011220469473571795
1.16190e-05;-0.0010972622029506076
1.16193e-05;-0.0010758793164771536
1.16195e-05;-0.0010546718596897262
1.16198e-05;-0.0010334644029024427
1.16200e-05;-0.0010154853641302164
1.16203e-05;-0.0009976728109579063
1.16205e-05;-0.0009798602577857168
1.16208e-05;-0.0009673092921471243
1.16210e-05;-0.0009550296601936569
1.16212e-05;-0.0009427500282402728
1.16215e-05;-0.0009304703962868054
1.16218e-05;-0.0009181907643333381
1.16220e-05;-0.0009059111323798708
1.16223e-05;-0.0008936315004264866
1.16225e-05;-0.0008813518684730192
1.16228e-05;-0.0008713651066568972
1.16230e-05;-0.0008641698933403898
1.16233e-05;-0.0008569746800238334
1.16235e-05;-0.0008497794667072772
1.16238e-05;-0.0008425842533907696
1.16240e-05;-0.0008353890400742133
1.16243e-05;-0.0008281938267576571
1.16245e-05;-0.0008209986134411495
1.16248e-05;-0.0008138034001245933
1.16250e-05;-0.0008088545429182774
1.16253e-05;-0.000804021527571135
1.16255e-05;-0.0007991885122239599
1.16258e-05;-0.0007947036455551992
1.16260e-05;-0.0007906426467301364
1.16263e-05;-0.0007865816479050462
1.16265e-05;-0.0007825206490799559
1.16268e-05;-0.0007802647960524213
1.16270e-05;-0.0007781020322035132
1.16273e-05;-0.0007805730478843691
1.16275e-05;-0.0007832830219535082
1.16278e-05;-0.0007910700437004397
1.16280e-05;-0.0007991188826362594
1.16283e-05;-0.0008117519046656062
1.16285e-05;-0.0008246213274552693
1.16288e-05;-0.0008422005019941039
1.16290e-05;-0.000860022552716299
1.16293e-05;-0.0008838735871771897
1.16295e-05;-0.0009080355290147091
1.16297e-05;-0.0009379321694870932
1.16300e-05;-0.0009681245414105697
1.16303e-05;-0.0010031710538149269
1.16305e-05;-0.001038467888354549
1.16308e-05;-0.0010792956665273232
1.16310e-05;-0.0011204086687530799
1.16313e-05;-0.0011615216709788365
1.16315e-05;-0.0012090213583226769
1.16318e-05;-0.0012568503992697367
1.16320e-05;-0.0013046794402167966
1.16323e-05;-0.0013566405949556957
1.16325e-05;-0.001408814837789946
1.16328e-05;-0.0014609890806241961
1.16330e-05;-0.0015156431821671367
1.16333e-05;-0.0015704251670154174
1.16335e-05;-0.0016252071518636983
1.16338e-05;-0.0016805620419728037
1.16340e-05;-0.0017359464761115388
1.16343e-05;-0.001791330910250274
1.16345e-05;-0.0018445455741118182
1.16348e-05;-0.00189764834555296
1.16350e-05;-0.0019507511169941016
1.16353e-05;-0.001999528665900049
1.16355e-05;-0.002048083168327627
1.16358e-05;-0.002096637670755205
1.16360e-05;-0.0021380840887116506
1.16363e-05;-0.0021791639513757937
1.16365e-05;-0.0022202438140399372
1.16368e-05;-0.0022520490693419795
1.16370e-05;-0.002283376044394535
1.16373e-05;-0.00231470301944709
1.16375e-05;-0.0023369305983570047
1.16378e-05;-0.002358688932447317
1.16380e-05;-0.002380447266537629
1.16382e-05;-0.0023923649148953475
1.16385e-05;-0.0024037750910284894
1.16388e-05;-0.0024151852671616316
1.16390e-05;-0.0024169580881895263
1.16393e-05;-0.002418233922506529
1.16395e-05;-0.0024195097568235407
1.16398e-05;-0.0024061863340125106
1.16400e-05;-0.0023921100452230825
1.16403e-05;-0.0023780337564335593
1.16405e-05;-0.0023639574676440358
1.16408e-05;-0.0023498811788546076
1.16410e-05;-0.0023358048900650845
1.16413e-05;-0.002321728601275561
1.16415e-05;-0.0023005076495232844
1.16418e-05;-0.0022705881357115896
1.16420e-05;-0.0022406686218998948
1.16423e-05;-0.002210749108088403
1.16425e-05;-0.002180829594276708
1.16428e-05;-0.0021509100804650134
1.16430e-05;-0.002120990566653521
1.16433e-05;-0.0020910710528418263
