Time(s);Current(A)
1.35500e-05;0.011030243537751104
1.35503e-05;0.01104188890811169
1.35505e-05;0.011053534278472197
1.35508e-05;0.011065179648832784
1.35510e-05;0.01107682501919337
1.35513e-05;0.011088470389553878
1.35515e-05;0.011100115759914464
1.35518e-05;0.01111176113027505
1.35520e-05;0.011123406500635558
1.35523e-05;0.011135051870996143
1.35525e-05;0.01114669724135673
1.35528e-05;0.011158342611717316
1.35530e-05;0.011169987982077825
1.35533e-05;0.011180821038345496
1.35535e-05;0.011189779577241654
1.35538e-05;0.011198738116137752
1.35540e-05;0.011207696655033912
1.35543e-05;0.01121665519393007
1.35545e-05;0.011225613732826168
1.35548e-05;0.011234572271722329
1.35550e-05;0.011243530810618487
1.35553e-05;0.011252489349514587
1.35555e-05;0.011261447888410745
1.35558e-05;0.01127384596422734
1.35560e-05;0.011287091429951341
1.35563e-05;0.011300336895675432
1.35565e-05;0.011313582361399526
1.35568e-05;0.011326827827123527
1.35570e-05;0.011340073292847619
1.35573e-05;0.01135331875857171
1.35575e-05;0.011366564224295713
1.35578e-05;0.011379809690019805
1.35580e-05;0.011393943444317224
1.35583e-05;0.011410645762216948
1.35585e-05;0.011428545104775563
1.35588e-05;0.011446444447334178
1.35590e-05;0.011464343789892672
1.35593e-05;0.011482243132451287
1.35595e-05;0.011500142475009904
1.35598e-05;0.011518041817568398
1.35600e-05;0.011535941160127013
1.35603e-05;0.011553840502685628
1.35605e-05;0.011571739845244122
1.35608e-05;0.011589639187802737
1.35610e-05;0.011607538530361353
1.35613e-05;0.011625437872919968
1.35615e-05;0.011643337215478463
1.35618e-05;0.011661236558037079
1.35620e-05;0.011679135900595694
1.35623e-05;0.011697035243154187
1.35625e-05;0.011705308050137043
1.35628e-05;0.011711209192188774
1.35630e-05;0.011717110334240463
1.35633e-05;0.011723011476292193
1.35635e-05;0.011728912618343924
1.35638e-05;0.011734813760395615
1.35640e-05;0.011740714902447345
1.35643e-05;0.011746616044499076
1.35645e-05;0.011752517186550767
1.35648e-05;0.011758418328602497
1.35650e-05;0.011764319470654228
1.35653e-05;0.011770220612705919
1.35655e-05;0.01177612175475765
1.35658e-05;0.01178202289680938
1.35660e-05;0.01178792403886107
1.35663e-05;0.011793825180912801
1.35665e-05;0.01179336856718274
1.35668e-05;0.011778240628942076
1.35670e-05;0.01176311269070131
1.35673e-05;0.011747984752460543
1.35675e-05;0.011732856814219879
1.35678e-05;0.011717728875979112
1.35680e-05;0.011702600937738346
1.35683e-05;0.011687472999497682
1.35685e-05;0.011672345061256915
1.35688e-05;0.011657217123016149
1.35690e-05;0.011642089184775484
1.35693e-05;0.011626961246534718
1.35695e-05;0.011611833308293951
1.35698e-05;0.011596705370053185
1.35700e-05;0.01158157743181252
1.35703e-05;0.011566449493571754
1.35705e-05;0.01155052214785353
1.35708e-05;0.011532750068408228
1.35710e-05;0.011514977988962807
1.35713e-05;0.011497205909517385
1.35715e-05;0.011479433830072085
1.35718e-05;0.011461661750626663
1.35720e-05;0.011443889671181241
1.35723e-05;0.01142611759173594
1.35725e-05;0.011408345512290518
1.35728e-05;0.011390573432845096
1.35730e-05;0.011372801353399794
1.35733e-05;0.011355029273954372
1.35735e-05;0.01133725719450895
1.35738e-05;0.01131948511506365
1.35740e-05;0.011301713035618229
1.35743e-05;0.011283940956172807
1.35745e-05;0.011271244585543575
1.35748e-05;0.011270261054121098
1.35750e-05;0.011269277522698623
1.35753e-05;0.011268293991276154
1.35755e-05;0.011267310459853679
1.35758e-05;0.011266326928431204
1.35760e-05;0.011265343397008734
1.35763e-05;0.011264359865586259
1.35765e-05;0.011263376334163784
1.35768e-05;0.011262392802741314
1.35770e-05;0.011261409271318839
1.35773e-05;0.011260425739896362
1.35775e-05;0.011259442208473894
1.35778e-05;0.011258458677051419
1.35780e-05;0.011257475145628942
1.35783e-05;0.011256491614206467
1.35785e-05;0.011255508082783998
1.35788e-05;0.011257667068425138
1.35790e-05;0.01126707780912323
1.35793e-05;0.01127648854982126
1.35795e-05;0.011285899290519352
1.35798e-05;0.011295310031217445
1.35800e-05;0.011304720771915473
1.35803e-05;0.011314131512613566
1.35805e-05;0.011323542253311659
1.35808e-05;0.011332952994009687
1.35810e-05;0.01134236373470778
1.35813e-05;0.011351774475405873
1.35815e-05;0.011361185216103901
1.35818e-05;0.011370595956801994
1.35820e-05;0.011380006697500087
1.35823e-05;0.011389417438198116
1.35825e-05;0.011398828178896208
1.35828e-05;0.011408238919594301
1.35830e-05;0.011415431299936489
1.35833e-05;0.011417504533554947
1.35835e-05;0.011419577767173405
1.35838e-05;0.011421651000791847
1.35840e-05;0.011423724234410305
1.35843e-05;0.011425797468028763
1.35845e-05;0.011427870701647205
1.35848e-05;0.011429943935265663
1.35850e-05;0.011432017168884121
1.35853e-05;0.011418944938736332
1.35855e-05;0.011402141359440923
1.35858e-05;0.011385337780145513
1.35860e-05;0.011368534200850216
1.35863e-05;0.011351730621554807
1.35865e-05;0.011334927042259397
1.35868e-05;0.011318123462963988
1.35870e-05;0.011301319883668693
1.35873e-05;0.011278161439994187
1.35875e-05;0.011240338344076485
1.35878e-05;0.01120251524815904
1.35880e-05;0.011164692152241338
1.35883e-05;0.011126869056323636
1.35885e-05;0.01108904596040619
1.35888e-05;0.011051222864488489
1.35890e-05;0.011013399768570787
1.35893e-05;0.010975576672653342
1.35895e-05;0.01093775357673564
1.35898e-05;0.01089993048081794
1.35900e-05;0.010862107384900493
1.35903e-05;0.010824284288982793
1.35905e-05;0.010784013328856921
1.35908e-05;0.010743139294690862
1.35910e-05;0.010702265260524526
1.35913e-05;0.01066139122635819
1.35915e-05;0.010620517192192131
1.35918e-05;0.010579643158025795
1.35920e-05;0.010538769123859459
1.35923e-05;0.0104978950896934
1.35925e-05;0.010457021055527064
1.35928e-05;0.010416147021360728
1.35930e-05;0.01037527298719467
1.35933e-05;0.010334398953028333
1.35935e-05;0.010300454015336484
1.35938e-05;0.01028249884298393
1.35940e-05;0.010264543670631256
1.35943e-05;0.010246588498278583
1.35945e-05;0.010228633325926028
1.35948e-05;0.010210678153573354
1.35950e-05;0.010192722981220679
1.35953e-05;0.010174767808868005
1.35955e-05;0.010156812636515453
1.35958e-05;0.010138857464162777
1.35960e-05;0.010120902291810103
1.35963e-05;0.01010294711945755
1.35965e-05;0.010084991947104875
1.35968e-05;0.010067036774752201
1.35970e-05;0.010049081602399649
1.35973e-05;0.010031126430046973
1.35975e-05;0.0100131712576943
1.35978e-05;0.009995216085341747
1.35980e-05;0.009977260912989071
1.35983e-05;0.009959305740636398
1.35985e-05;0.009941350568283845
1.35988e-05;0.009934097509062812
1.35990e-05;0.009929481102066737
1.35993e-05;0.009924864695070692
1.35995e-05;0.009920248288074618
1.35998e-05;0.009915631881078541
1.36000e-05;0.009911015474082496
1.36003e-05;0.009906399067086421
1.36005e-05;0.009901782660090345
1.36008e-05;0.009897166253094301
1.36010e-05;0.009892549846098225
1.36013e-05;0.009887933439102149
1.36015e-05;0.009883317032106105
1.36018e-05;0.009878700625110029
1.36020e-05;0.009874084218113954
1.36023e-05;0.009869467811117909
1.36025e-05;0.009864851404121834
1.36028e-05;0.009860234997125758
1.36030e-05;0.009855618590129712
1.36033e-05;0.009851002183133638
1.36035e-05;0.009846385776137561
1.36038e-05;0.009841263021119267
1.36040e-05;0.0098349718040817
1.36043e-05;0.009828680587044092
1.36045e-05;0.009822389370006481
1.36048e-05;0.009816098152968914
1.36050e-05;0.009809806935931305
1.36053e-05;0.009803515718893695
1.36055e-05;0.009797224501856128
1.36058e-05;0.009790933284818518
1.36060e-05;0.009784642067780909
1.36063e-05;0.009778350850743342
1.36065e-05;0.009772059633705732
1.36068e-05;0.009765768416668123
1.36070e-05;0.009759477199630556
1.36073e-05;0.009753185982592946
1.36075e-05;0.009746894765555337
1.36078e-05;0.00974060354851777
1.36080e-05;0.00973431233148016
1.36083e-05;0.009724399869277131
1.36085e-05;0.009713595250169276
1.36088e-05;0.00970279063106135
1.36090e-05;0.009691986011953422
1.36093e-05;0.009681181392845567
1.36095e-05;0.00967037677373764
1.36098e-05;0.009659572154629712
1.36100e-05;0.009648767535521859
1.36103e-05;0.00963796291641393
1.36105e-05;0.009627158297306003
1.36108e-05;0.009616353678198148
1.36110e-05;0.00960554905909022
1.36113e-05;0.009594744439982292
1.36115e-05;0.00958393982087444
1.36118e-05;0.009573135201766511
1.36120e-05;0.009562330582658584
1.36123e-05;0.009551525963550656
1.36125e-05;0.009542260129445923
1.36128e-05;0.009536545236104851
1.36130e-05;0.009530830342763781
1.36133e-05;0.00952511544942275
1.36135e-05;0.009519400556081678
1.36138e-05;0.009513685662740608
1.36140e-05;0.009507970769399576
1.36143e-05;0.009502255876058506
1.36145e-05;0.009496540982717435
1.36148e-05;0.009490826089376403
1.36150e-05;0.009485111196035333
1.36153e-05;0.009479396302694261
1.36155e-05;0.00947368140935323
1.36158e-05;0.009478131288722423
1.36160e-05;0.009485085437134182
1.36163e-05;0.009492039585545894
1.36165e-05;0.00949899373395765
1.36168e-05;0.00950594788236941
1.36170e-05;0.009512902030781121
1.36173e-05;0.00951985617919288
1.36175e-05;0.009526810327604638
1.36178e-05;0.009533764476016348
1.36180e-05;0.009540718624428107
1.36183e-05;0.009547672772839865
1.36185e-05;0.009554626921251577
1.36188e-05;0.00956402531670613
1.36190e-05;0.009579064120953606
1.36193e-05;0.00959410292520098
1.36195e-05;0.009609141729448456
1.36198e-05;0.00962418053369593
1.36200e-05;0.009639219337943305
1.36203e-05;0.00965425814219078
1.36205e-05;0.009669296946438257
1.36208e-05;0.009684335750685731
1.36210e-05;0.009699374554933105
1.36213e-05;0.009714413359180581
1.36215e-05;0.009729452163428057
1.36218e-05;0.00974449096767543
1.36220e-05;0.009759529771922905
1.36223e-05;0.009774568576170381
1.36225e-05;0.00978132668567849
1.36228e-05;0.009786044701612352
1.36230e-05;0.009790762717546217
1.36233e-05;0.009795480733480048
1.36235e-05;0.00980019874941391
1.36238e-05;0.009804916765347773
1.36240e-05;0.009809634781281605
1.36243e-05;0.009814352797215469
1.36245e-05;0.009819070813149332
1.36248e-05;0.009823788829083163
1.36250e-05;0.009828506845017028
1.36253e-05;0.00983322486095089
1.36255e-05;0.009837942876884722
1.36258e-05;0.009842660892818584
1.36260e-05;0.009839796962442547
1.36263e-05;0.009819436733250728
1.36265e-05;0.009799076504058772
1.36268e-05;0.009778716274866815
1.36270e-05;0.009758356045674998
1.36273e-05;0.00973799581648304
1.36275e-05;0.009717635587291084
1.36278e-05;0.009697275358099266
1.36280e-05;0.009676915128907308
1.36283e-05;0.009656554899715352
1.36285e-05;0.009636194670523533
1.36288e-05;0.009615834441331576
1.36290e-05;0.00959547421213962
1.36293e-05;0.009575113982947662
1.36295e-05;0.009546158123236457
1.36298e-05;0.00951508458002784
1.36300e-05;0.009484011036819224
1.36303e-05;0.009452937493610817
1.36305e-05;0.0094218639504022
1.36308e-05;0.009390790407193584
1.36310e-05;0.009359716863985177
1.36313e-05;0.009328643320776561
1.36315e-05;0.009297569777567944
1.36318e-05;0.009266496234359538
1.36320e-05;0.009235422691150921
1.36323e-05;0.009204349147942305
1.36325e-05;0.009173275604733898
1.36328e-05;0.009146111598181692
1.36330e-05;0.009127969341295901
1.36333e-05;0.009109827084410231
1.36335e-05;0.00909168482752444
1.36338e-05;0.009073542570638648
1.36340e-05;0.00905540031375298
1.36343e-05;0.009037258056867187
1.36345e-05;0.009019115799981397
1.36348e-05;0.009000973543095729
1.36350e-05;0.008982831286209936
1.36353e-05;0.008971450862847362
1.36355e-05;0.008975674224458705
1.36358e-05;0.008979897586070077
1.36360e-05;0.008984120947681449
1.36363e-05;0.008988344309292792
1.36365e-05;0.008992567670904164
1.36368e-05;0.008996791032515536
1.36370e-05;0.009001014394126879
1.36373e-05;0.00900523775573825
1.36375e-05;0.009009461117349623
1.36378e-05;0.009019477171439267
1.36380e-05;0.009042860595125136
1.36383e-05;0.009066244018811164
1.36385e-05;0.009089627442497191
1.36388e-05;0.00911301086618306
1.36390e-05;0.009136394289869088
1.36393e-05;0.009159777713555115
1.36395e-05;0.009183161137240985
1.36398e-05;0.009206544560927012
1.36400e-05;0.00922992798461304
1.36403e-05;0.009253311408298909
1.36405e-05;0.009276694831984936
1.36408e-05;0.009300078255670963
1.36410e-05;0.009323815925938946
1.36413e-05;0.009347640871031147
1.36415e-05;0.009371465816123348
1.36418e-05;0.009395290761215388
1.36420e-05;0.00941911570630759
1.36423e-05;0.00944294065139979
1.36425e-05;0.00946676559649183
1.36428e-05;0.009490590541584031
1.36430e-05;0.009514415486676234
1.36433e-05;0.009538240431768274
1.36435e-05;0.009562065376860475
1.36438e-05;0.009585890321952676
1.36440e-05;0.00960398385686127
1.36443e-05;0.009608851438805988
1.36445e-05;0.009613719020750706
1.36448e-05;0.009618586602695392
1.36450e-05;0.00962345418464011
1.36453e-05;0.009628321766584829
1.36455e-05;0.009633189348529515
1.36458e-05;0.009638056930474231
1.36460e-05;0.00964292451241895
1.36463e-05;0.009647792094363668
1.36465e-05;0.009652659676308354
1.36468e-05;0.009657527258253073
1.36470e-05;0.009662394840197791
1.36473e-05;0.009667262422142477
1.36475e-05;0.009672130004087195
1.36478e-05;0.009676997586031914
1.36480e-05;0.009681865167976597
1.36483e-05;0.009686732749921316
1.36485e-05;0.009691600331866035
1.36488e-05;0.009692950770622953
1.36490e-05;0.009686184957203255
1.36493e-05;0.009679419143783556
1.36495e-05;0.009672653330363904
1.36498e-05;0.009665887516944206
1.36500e-05;0.009659121703524507
1.36503e-05;0.009652355890104856
1.36505e-05;0.009645590076685157
1.36508e-05;0.009638824263265459
1.36510e-05;0.009632058449845807
1.36513e-05;0.009625292636426109
1.36515e-05;0.00961852682300641
1.36518e-05;0.009611761009586758
1.36520e-05;0.00960499519616706
1.36523e-05;0.009598229382747361
1.36525e-05;0.00959146356932771
1.36528e-05;0.009584697755908011
1.36530e-05;0.009577931942488313
1.36533e-05;0.009571166129068661
1.36535e-05;0.009566588449256572
1.36538e-05;0.009567060164140615
1.36540e-05;0.009567531879024656
1.36543e-05;0.009568003593908699
1.36545e-05;0.009568475308792741
1.36548e-05;0.009568947023676782
1.36550e-05;0.009569418738560825
1.36553e-05;0.009569890453444868
1.36555e-05;0.009570362168328912
1.36558e-05;0.009570833883212952
1.36560e-05;0.009571305598096996
1.36563e-05;0.009571777312981039
1.36565e-05;0.00957653562300014
1.36568e-05;0.009591185792760144
1.36570e-05;0.00960583596252015
1.36573e-05;0.009620486132280056
1.36575e-05;0.00963513630204006
1.36578e-05;0.009649786471800067
1.36580e-05;0.009664436641559972
1.36583e-05;0.009679086811319978
1.36585e-05;0.009693736981079983
1.36588e-05;0.00970838715083989
1.36590e-05;0.009723037320599894
1.36593e-05;0.0097376874903599
1.36595e-05;0.009754222011217362
1.36598e-05;0.009775104910257031
1.36600e-05;0.009795987809296702
1.36603e-05;0.00981687070833623
1.36605e-05;0.0098377536073759
1.36608e-05;0.00985863650641557
1.36610e-05;0.009879519405455098
1.36613e-05;0.009900402304494769
1.36615e-05;0.00992128520353444
1.36618e-05;0.009942168102573968
1.36620e-05;0.00995914566539555
1.36623e-05;0.009975161080524458
1.36625e-05;0.009991176495653259
1.36628e-05;0.010007191910782167
1.36630e-05;0.010023207325911075
1.36633e-05;0.010039222741039876
1.36635e-05;0.010055238156168786
1.36638e-05;0.010071253571297694
1.36640e-05;0.010087268986426602
1.36643e-05;0.010102383206324606
1.36645e-05;0.010115417804391496
1.36648e-05;0.010128452402458384
1.36650e-05;0.010141487000525185
1.36653e-05;0.010154521598592075
1.36655e-05;0.010167556196658963
1.36658e-05;0.010180590794725764
1.36660e-05;0.010193625392792652
1.36663e-05;0.010206659990859542
1.36665e-05;0.010219694588926343
1.36668e-05;0.010232729186993231
1.36670e-05;0.01024576378506012
1.36673e-05;0.010258798383126922
1.36675e-05;0.01027183298119381
1.36678e-05;0.0102848675792607
1.36680e-05;0.01029936705643139
1.36683e-05;0.010314227432119384
1.36685e-05;0.010329087807807377
1.36688e-05;0.01034394818349527
1.36690e-05;0.010358808559183265
1.36693e-05;0.010373668934871258
1.36695e-05;0.010388529310559152
1.36698e-05;0.010403389686247145
1.36700e-05;0.010418250061935138
1.36703e-05;0.010433110437623032
1.36705e-05;0.010447970813311025
1.36708e-05;0.01046283118899902
1.36710e-05;0.010477691564686913
1.36713e-05;0.010492551940374906
1.36715e-05;0.010505925155061923
1.36718e-05;0.0105158665578846
1.36720e-05;0.010525807960707343
1.36723e-05;0.010535749363530088
1.36725e-05;0.010545690766352832
1.36728e-05;0.01055563216917551
1.36730e-05;0.010565573571998254
1.36733e-05;0.010575514974820998
1.36735e-05;0.010585456377643675
1.36738e-05;0.010595397780466418
1.36740e-05;0.010605339183289163
1.36743e-05;0.010615280586111839
1.36745e-05;0.010620616071934734
1.36748e-05;0.01061532282247169
1.36750e-05;0.01061002957300868
1.36753e-05;0.010604736323545636
1.36755e-05;0.01059944307408259
1.36758e-05;0.010594149824619583
1.36760e-05;0.010588856575156538
1.36763e-05;0.010583563325693494
1.36765e-05;0.010578270076230484
1.36768e-05;0.01057297682676744
1.36770e-05;0.010567683577304395
1.36773e-05;0.010562390327841387
1.36775e-05;0.010552455509474363
1.36778e-05;0.010531809684548123
1.36780e-05;0.010511163859622023
1.36783e-05;0.010490518034695783
1.36785e-05;0.010469872209769544
1.36788e-05;0.010449226384843443
1.36790e-05;0.010428580559917203
1.36793e-05;0.010407934734990963
1.36795e-05;0.010387288910064862
1.36798e-05;0.010366643085138622
1.36800e-05;0.010345997260212382
1.36803e-05;0.010325351435286281
1.36805e-05;0.010304705610360041
1.36808e-05;0.010284059785433801
1.36810e-05;0.010263677890523723
1.36813e-05;0.010243905047465236
1.36815e-05;0.010224132204406617
1.36818e-05;0.010204359361347996
1.36820e-05;0.01018458651828951
1.36823e-05;0.01016481367523089
1.36825e-05;0.01014504083217227
1.36828e-05;0.010125267989113784
1.36830e-05;0.010105495146055164
1.36833e-05;0.010085722302996543
1.36835e-05;0.010065949459938058
1.36838e-05;0.010046176616879437
1.36840e-05;0.010026403773820816
1.36843e-05;0.01000663093076233
1.36845e-05;0.009990786802566364
1.36848e-05;0.009984008680185641
1.36850e-05;0.009977230557804964
1.36853e-05;0.009970452435424241
1.36855e-05;0.009963674313043519
1.36858e-05;0.009956896190662843
1.36860e-05;0.00995011806828212
1.36863e-05;0.009943339945901398
1.36865e-05;0.009936561823520722
1.36868e-05;0.00992978370114
1.36870e-05;0.009923005578759277
1.36873e-05;0.0099162274563786
1.36875e-05;0.009909449333997879
1.36878e-05;0.009902671211617156
1.36880e-05;0.009895893089236479
1.36883e-05;0.009889114966855756
1.36885e-05;0.009882336844475034
1.36888e-05;0.009875558722094358
1.36890e-05;0.009868780599713635
1.36893e-05;0.009862002477332913
1.36895e-05;0.00985522435495219
1.36898e-05;0.009848446232571514
1.36900e-05;0.009845636872202624
1.36903e-05;0.009843805285578324
1.36905e-05;0.009841973698954036
1.36908e-05;0.009840142112329734
1.36910e-05;0.009838310525705433
1.36913e-05;0.009836478939081145
1.36915e-05;0.009834647352456845
1.36918e-05;0.009832815765832543
1.36920e-05;0.009830984179208255
1.36923e-05;0.009829152592583955
1.36925e-05;0.009827321005959655
1.36928e-05;0.009825489419335365
1.36930e-05;0.009823657832711065
1.36933e-05;0.009821826246086764
1.36935e-05;0.009819994659462476
1.36938e-05;0.009818163072838174
1.36940e-05;0.009816331486213874
1.36943e-05;0.009814499899589586
1.36945e-05;0.009812668312965286
1.36948e-05;0.009810836726340984
1.36950e-05;0.009809005139716696
1.36953e-05;0.009804233616798677
1.36955e-05;0.009792677819511281
1.36958e-05;0.009781122022223964
1.36960e-05;0.009769566224936568
1.36963e-05;0.00975801042764917
1.36965e-05;0.009746454630361853
1.36968e-05;0.009734898833074457
1.36970e-05;0.009723343035787061
1.36973e-05;0.009711787238499744
1.36975e-05;0.009700231441212348
1.36978e-05;0.009688675643924952
1.36980e-05;0.009677119846637557
1.36983e-05;0.009665564049350237
1.36985e-05;0.009654008252062841
1.36988e-05;0.009642452454775446
1.36990e-05;0.009630896657488128
1.36993e-05;0.009619340860200732
1.36995e-05;0.009607785062913337
1.36998e-05;0.009593355420802252
1.37000e-05;0.009578217756892885
1.37003e-05;0.009563080092983518
1.37005e-05;0.009547942429074252
1.37008e-05;0.009532804765164885
1.37010e-05;0.009517667101255518
1.37013e-05;0.009502529437346254
1.37015e-05;0.009487391773436887
1.37018e-05;0.00947225410952752
