Time(s);Current(A)
1.00000e-06;-0.014477568742086602
1.00025e-06;-0.014476185495232654
1.00050e-06;-0.014474828562034654
1.00075e-06;-0.014473528216585766
1.00100e-06;-0.014472227871136879
1.00125e-06;-0.014470927525687991
1.00150e-06;-0.014469627180239105
1.00175e-06;-0.014468326834790218
1.00200e-06;-0.01446702648934133
1.00225e-06;-0.014465726143892443
1.00250e-06;-0.014464425798443556
1.00275e-06;-0.014466084112280722
1.00300e-06;-0.014468403324626239
1.00325e-06;-0.014470722536971755
1.00350e-06;-0.014473041749317272
1.00375e-06;-0.014475360961662789
1.00400e-06;-0.014477680174008306
1.00425e-06;-0.014479999386353823
1.00450e-06;-0.01448231859869934
1.00475e-06;-0.014486118231326466
1.00500e-06;-0.014493101520821583
1.00525e-06;-0.014500084810316694
1.00550e-06;-0.01450706809981181
1.00575e-06;-0.01451405138930692
1.00600e-06;-0.01452103467880203
1.00625e-06;-0.014528017968297146
1.00650e-06;-0.014535001257792257
1.00675e-06;-0.014543165842639994
1.00700e-06;-0.01455387081355859
1.00725e-06;-0.014564575784477186
1.00750e-06;-0.01457528075539579
1.00775e-06;-0.014585985726314386
1.00800e-06;-0.014596690697232993
1.00825e-06;-0.014607395668151588
1.00850e-06;-0.014618100639070184
1.00875e-06;-0.014629454580327937
1.00900e-06;-0.014642204138021735
1.00925e-06;-0.014654953695715548
1.00950e-06;-0.014667703253409346
1.00975e-06;-0.014680452811103159
1.01000e-06;-0.014693202368796957
1.01025e-06;-0.014705951926490757
1.01050e-06;-0.014718701484184568
1.01075e-06;-0.014731393591255996
1.01100e-06;-0.014744072865139507
1.01125e-06;-0.014756752139023008
1.01150e-06;-0.014769431412906509
1.01175e-06;-0.014782110686790022
1.01200e-06;-0.014794789960673523
1.01225e-06;-0.014807469234557034
1.01250e-06;-0.014819791184671692
1.01275e-06;-0.014831344706871084
1.01300e-06;-0.014842739042972102
1.01325e-06;-0.014853791047965064
1.01350e-06;-0.014864990414647998
1.01375e-06;-0.014876506683944406
1.01400e-06;-0.01488823431454137
1.01425e-06;-0.014900416479478628
1.01450e-06;-0.014912742458783322
1.01475e-06;-0.01492537771215314
1.01500e-06;-0.01493814628572791
1.01525e-06;-0.01495120156557888
1.01550e-06;-0.014964623402090932
1.01575e-06;-0.014978833521934415
1.01600e-06;-0.01499304364177791
1.01625e-06;-0.015007636773917539
1.01650e-06;-0.015023053577376879
1.01675e-06;-0.015038470380836206
1.01700e-06;-0.015054203163457265
1.01725e-06;-0.01507061546205148
1.01750e-06;-0.015087027760645681
1.01775e-06;-0.015103440059239895
1.01800e-06;-0.01512077654143251
1.01825e-06;-0.015138319465632313
1.01850e-06;-0.0151558623898321
1.01875e-06;-0.015173534326773782
1.01900e-06;-0.015191537803422896
1.01925e-06;-0.015209657615434614
1.01950e-06;-0.015227777427446347
1.01975e-06;-0.015245949069781653
1.02000e-06;-0.015264232173684786
1.02025e-06;-0.015282515277587937
1.02050e-06;-0.01530071196477285
1.02075e-06;-0.015318722812043354
1.02100e-06;-0.015336575655656296
1.02125e-06;-0.015354088711010653
1.02150e-06;-0.015371410210948577
1.02175e-06;-0.015388319769274583
1.02200e-06;-0.015404452036110352
1.02225e-06;-0.015418912730743382
1.02250e-06;-0.015433373425376427
1.02275e-06;-0.015447834120009458
1.02300e-06;-0.015462294814642489
1.02325e-06;-0.015476755509275533
1.02350e-06;-0.015491216203908564
1.02375e-06;-0.015505676898541609
1.02400e-06;-0.01552013759317464
1.02425e-06;-0.015534598287807672
1.02450e-06;-0.015547767224909581
1.02475e-06;-0.015560647612184425
1.02500e-06;-0.01557352799945928
1.02525e-06;-0.015586408386734122
1.02550e-06;-0.015599288774008966
1.02575e-06;-0.015612169161283818
1.02600e-06;-0.015625049548558662
1.02625e-06;-0.015637929935833517
1.02650e-06;-0.01565081032310836
1.02675e-06;-0.015663683730870556
1.02700e-06;-0.015676542129129244
1.02725e-06;-0.015689400527387928
1.02750e-06;-0.015702258925646626
1.02775e-06;-0.015715117323905313
1.02800e-06;-0.01572797572216401
1.02825e-06;-0.015740834120422695
1.02850e-06;-0.015753692518681382
1.02875e-06;-0.015766550916940077
1.02900e-06;-0.015779409315198764
1.02925e-06;-0.01579212434250533
1.02950e-06;-0.01580453104931533
1.02975e-06;-0.01581693775612533
1.03000e-06;-0.015829344462935335
1.03025e-06;-0.015841751169745334
1.03050e-06;-0.01585415787655534
1.03075e-06;-0.01586656458336534
1.03100e-06;-0.015878971290175348
1.03125e-06;-0.015891377996985343
1.03150e-06;-0.015903784703795342
1.03175e-06;-0.015915874831777168
1.03200e-06;-0.01592728415419792
1.03225e-06;-0.01593869347661869
1.03250e-06;-0.015949834582041713
1.03275e-06;-0.015960398884446433
1.03300e-06;-0.015970963186851164
1.03325e-06;-0.01598084699455113
1.03350e-06;-0.01598926739238909
1.03375e-06;-0.01599768779022705
1.03400e-06;-0.0160050883328385
1.03425e-06;-0.01601029566779404
1.03450e-06;-0.016015503002749572
1.03475e-06;-0.016019168237773235
1.03500e-06;-0.016019517173297856
1.03525e-06;-0.01601986610882248
1.03550e-06;-0.016020215044347103
1.03575e-06;-0.016020563979871727
1.03600e-06;-0.016020912915396347
1.03625e-06;-0.01601918903212435
1.03650e-06;-0.016013007533755765
1.03675e-06;-0.016006826035387185
1.03700e-06;-0.016000644537018605
1.03725e-06;-0.015994463038650018
1.03750e-06;-0.015988281540281434
1.03775e-06;-0.01598056197302928
1.03800e-06;-0.015969534775083078
1.03825e-06;-0.015958507577136873
1.03850e-06;-0.01594748037919066
1.03875e-06;-0.01593645318124446
1.03900e-06;-0.01592542598329825
1.03925e-06;-0.015912565920411112
1.03950e-06;-0.01589929643636798
1.03975e-06;-0.01588602695232486
1.04000e-06;-0.01587275746828174
1.04025e-06;-0.01585948798423861
1.04050e-06;-0.01584619987675222
1.04075e-06;-0.015832871719386885
1.04100e-06;-0.0158197623135774
1.04125e-06;-0.015807123334917295
1.04150e-06;-0.01579481484847262
1.04175e-06;-0.015783217088450933
1.04200e-06;-0.015772099103801028
1.04225e-06;-0.015762012880317942
1.04250e-06;-0.015752764022024728
1.04275e-06;-0.015745315924954664
1.04300e-06;-0.015737867827884607
1.04325e-06;-0.015731447074833094
1.04350e-06;-0.015727235634150682
1.04375e-06;-0.01572302419346827
1.04400e-06;-0.015720477905394787
1.04425e-06;-0.015721512542687013
1.04450e-06;-0.015722547179979243
1.04475e-06;-0.015723581817271466
1.04500e-06;-0.015724616454563696
1.04525e-06;-0.015725651091855922
1.04550e-06;-0.015726685729148145
1.04575e-06;-0.015727720366440375
1.04600e-06;-0.015734366691203688
1.04625e-06;-0.01574226654181061
1.04650e-06;-0.015750166392417532
1.04675e-06;-0.01575806624302445
1.04700e-06;-0.015765966093631376
1.04725e-06;-0.015773865944238293
1.04750e-06;-0.01578176579484522
1.04775e-06;-0.015791235773869088
1.04800e-06;-0.01580408232789597
1.04825e-06;-0.015816928881922866
1.04850e-06;-0.01582977543594975
1.04875e-06;-0.015842621989976644
1.04900e-06;-0.015855468544003527
1.04925e-06;-0.01586831509803042
1.04950e-06;-0.015881161652057305
1.04975e-06;-0.01589400820608419
1.05000e-06;-0.015908295981398656
1.05025e-06;-0.01592290569341033
1.05050e-06;-0.015937515405422018
1.05075e-06;-0.015952125117433692
1.05100e-06;-0.015966734829445366
1.05125e-06;-0.015981344541457054
1.05150e-06;-0.01599595425346873
1.05175e-06;-0.016010563965480416
1.05200e-06;-0.016024829077134425
1.05225e-06;-0.016038353122681277
1.05250e-06;-0.016051877168228135
1.05275e-06;-0.016064459769642762
1.05300e-06;-0.01607501778715127
1.05325e-06;-0.016085575804659774
1.05350e-06;-0.016100946669895387
1.05375e-06;-0.016116614333368123
1.05400e-06;-0.016132281996840858
1.05425e-06;-0.016147949660313608
1.05450e-06;-0.01616361732378634
1.05475e-06;-0.01617928498725909
1.05500e-06;-0.016196277175015414
1.05525e-06;-0.01621702521058487
1.05550e-06;-0.016237773246154337
1.05575e-06;-0.01625852128172379
1.05600e-06;-0.016279269317293264
1.05625e-06;-0.016300017352862718
1.05650e-06;-0.01632076538843217
1.05675e-06;-0.016345425255909027
1.05700e-06;-0.016372923486247123
1.05725e-06;-0.016400421716585244
1.05750e-06;-0.01642791994692334
1.05775e-06;-0.01645541817726146
1.05800e-06;-0.016482916407599555
1.05825e-06;-0.01651041463793765
1.05850e-06;-0.016540402339526885
1.05875e-06;-0.016572196361763436
1.05900e-06;-0.016603990384000015
1.05925e-06;-0.016635784406236566
1.05950e-06;-0.016667578428473117
1.05975e-06;-0.016699372450709696
1.06000e-06;-0.016731166472946247
1.06025e-06;-0.016762393682907526
1.06050e-06;-0.016793209622919154
1.06075e-06;-0.016824025562930785
1.06100e-06;-0.01685484150294244
1.06125e-06;-0.016885657442954068
1.06150e-06;-0.016916011129931362
1.06175e-06;-0.01694101358510087
1.06200e-06;-0.016966016040270395
1.06225e-06;-0.016991018495439904
1.06250e-06;-0.01701602095060941
1.06275e-06;-0.017041023405778937
1.06300e-06;-0.017057974303301974
1.06325e-06;-0.017069083118971998
1.06350e-06;-0.01708019193464201
1.06375e-06;-0.017091300750312025
1.06400e-06;-0.01710240956598205
1.06425e-06;-0.017113518381652062
1.06450e-06;-0.017124627197322082
1.06475e-06;-0.017135736012992096
1.06500e-06;-0.01714684482866211
1.06525e-06;-0.017157953644332133
1.06550e-06;-0.017169062460002146
1.06575e-06;-0.01718017127567217
1.06600e-06;-0.017191280091342184
1.06625e-06;-0.017202388907012204
1.06650e-06;-0.017213497722682217
1.06675e-06;-0.01722460653835223
1.06700e-06;-0.017235715354022255
1.06725e-06;-0.017246824169692268
1.06750e-06;-0.017257932985362292
1.06775e-06;-0.017269041801032305
1.06800e-06;-0.01728015061670232
1.06825e-06;-0.01728601320273534
1.06850e-06;-0.017288069208190537
1.06875e-06;-0.017290125213645736
1.06900e-06;-0.017292181219100936
1.06925e-06;-0.017294237224556135
1.06950e-06;-0.017296293230011334
1.06975e-06;-0.017298349235466533
1.07000e-06;-0.017300405240921735
1.07025e-06;-0.017302461246376934
1.07050e-06;-0.017304517251832133
1.07075e-06;-0.017306573257287333
1.07100e-06;-0.01730862926274253
1.07125e-06;-0.01731068526819773
1.07150e-06;-0.01731274127365293
1.07175e-06;-0.017314797279108132
1.07200e-06;-0.017316853284563328
1.07225e-06;-0.017318909290018527
1.07250e-06;-0.01732096529547373
1.07275e-06;-0.01732302130092893
1.07300e-06;-0.017325077306384128
1.07325e-06;-0.017327133311839327
1.07350e-06;-0.017326707046518862
1.07375e-06;-0.017324479685101382
1.07400e-06;-0.017322252323683902
1.07425e-06;-0.017320024962266423
1.07450e-06;-0.017317797600848943
1.07475e-06;-0.017315570239431463
1.07500e-06;-0.017313342878013983
1.07525e-06;-0.017311115516596504
1.07550e-06;-0.017308888155179024
1.07575e-06;-0.017306660793761544
1.07600e-06;-0.017304433432344064
1.07625e-06;-0.017302206070926585
1.07650e-06;-0.017299978709509105
1.07675e-06;-0.017297751348091625
1.07700e-06;-0.017295523986674145
1.07725e-06;-0.017293296625256666
1.07750e-06;-0.017291069263839186
1.07775e-06;-0.017288841902421706
1.07800e-06;-0.017286614541004226
1.07825e-06;-0.017284387179586747
1.07850e-06;-0.017282159818169267
1.07875e-06;-0.017279932456751787
1.07900e-06;-0.017277705095334304
1.07925e-06;-0.017275477733916828
1.07950e-06;-0.017273250372499348
1.07975e-06;-0.017271023011081868
1.08000e-06;-0.017268795649664388
1.08025e-06;-0.01726656828824691
1.08050e-06;-0.01726434092682943
1.08075e-06;-0.01726211356541195
1.08100e-06;-0.01725988620399447
1.08125e-06;-0.01725765884257699
1.08150e-06;-0.01725543148115951
1.08175e-06;-0.01725320411974203
1.08200e-06;-0.01725097675832455
1.08225e-06;-0.01724874939690707
1.08250e-06;-0.017245952606806544
1.08275e-06;-0.0172427426483327
1.08300e-06;-0.01723953268985886
1.08325e-06;-0.01723480289561616
1.08350e-06;-0.0172289703327722
1.08375e-06;-0.01722313776992824
1.08400e-06;-0.0172139478236659
1.08425e-06;-0.017202321813526118
1.08450e-06;-0.017190695803386325
1.08475e-06;-0.017174129607378533
1.08500e-06;-0.017153978891272438
1.08525e-06;-0.017133828175166323
1.08550e-06;-0.017113677459060225
1.08575e-06;-0.017093526742954113
1.08600e-06;-0.017073376026848015
1.08625e-06;-0.017046139760107833
1.08650e-06;-0.017013762330801298
1.08675e-06;-0.01698138490149479
1.08700e-06;-0.016949007472188256
1.08725e-06;-0.01691663004288175
1.08750e-06;-0.01688425261357524
1.08775e-06;-0.01684648525275018
1.08800e-06;-0.016804807043553745
1.08825e-06;-0.016763128834357276
1.08850e-06;-0.016721450625160842
1.08875e-06;-0.016679772415964373
1.08900e-06;-0.016637757440109983
1.08925e-06;-0.016591843914506944
1.08950e-06;-0.016545930388903868
1.08975e-06;-0.01650001686330083
1.09000e-06;-0.016454103337697753
1.09025e-06;-0.016408189812094714
1.09050e-06;-0.01636224944796619
1.09075e-06;-0.01631628961023145
1.09100e-06;-0.016271199792120133
1.09125e-06;-0.016226741246375676
1.09150e-06;-0.0161835278217672
1.09175e-06;-0.016141217837202418
1.09200e-06;-0.016100672718747072
1.09225e-06;-0.016061408159001284
1.09250e-06;-0.01602454964607993
1.09275e-06;-0.01598943692237178
1.09300e-06;-0.015957864005551468
1.09325e-06;-0.015928859516169357
1.09350e-06;-0.01589985502678725
1.09375e-06;-0.015874498646983908
1.09400e-06;-0.015851789277324484
1.09425e-06;-0.015829079907665043
1.09450e-06;-0.015812558654292375
1.09475e-06;-0.015800527399432305
1.09500e-06;-0.015788496144572225
1.09525e-06;-0.015776464889712155
1.09550e-06;-0.015764433634852075
1.09575e-06;-0.015752402379992005
1.09600e-06;-0.01574138786306661
1.09625e-06;-0.015742143523875617
1.09650e-06;-0.01574289918468462
1.09675e-06;-0.015743654845493622
1.09700e-06;-0.015744410506302625
1.09725e-06;-0.01574516616711163
1.09750e-06;-0.015745921827920634
1.09775e-06;-0.015752208814100135
1.09800e-06;-0.01576250924177539
1.09825e-06;-0.015772809669450636
1.09850e-06;-0.015783110097125894
1.09875e-06;-0.01579341052480114
1.09900e-06;-0.015803710952476388
1.09925e-06;-0.015814011380151642
1.09950e-06;-0.01582702009471908
1.09975e-06;-0.015841993899073762
1.10000e-06;-0.01585696770342843
1.10025e-06;-0.015871941507783097
1.10050e-06;-0.01588691531213778
1.10075e-06;-0.015901889116492447
1.10100e-06;-0.015916862920847125
1.10125e-06;-0.01593170755355382
1.10150e-06;-0.01594645846137231
1.10175e-06;-0.015961209369190783
1.10200e-06;-0.015974774704362812
1.10225e-06;-0.015987479806925727
1.10250e-06;-0.01600018490948863
1.10275e-06;-0.016010983380957904
1.10300e-06;-0.01602039843130555
1.10325e-06;-0.016029813481653193
1.10350e-06;-0.016036090992250597
1.10375e-06;-0.016040091954031145
1.10400e-06;-0.016044092915811697
1.10425e-06;-0.016044516650505426
1.10450e-06;-0.016042344806261422
1.10475e-06;-0.016040172962017415
1.10500e-06;-0.016032452853673752
1.10525e-06;-0.01602070701336269
1.10550e-06;-0.01600896117305164
1.10575e-06;-0.01599721533274058
1.10600e-06;-0.01598546949242953
1.10625e-06;-0.01597372365211848
1.10650e-06;-0.015955077203309638
1.10675e-06;-0.01593142378300041
1.10700e-06;-0.015907770362691167
1.10725e-06;-0.01588411694238194
1.10750e-06;-0.015860463522072713
1.10775e-06;-0.01583681010176347
1.10800e-06;-0.015808413491344365
1.10825e-06;-0.015776575297808532
1.10850e-06;-0.015744737104272728
1.10875e-06;-0.015712898910736923
1.10900e-06;-0.01568106071720109
1.10925e-06;-0.015647036356489966
1.10950e-06;-0.015611425747733393
1.10975e-06;-0.01557581513897685
1.11000e-06;-0.015540204530220278
1.11025e-06;-0.015504593921463736
1.11050e-06;-0.015468748321054564
1.11075e-06;-0.015432732214449005
1.11100e-06;-0.015397061525063692
1.11125e-06;-0.015362004692701521
1.11150e-06;-0.01532766585216681
1.11175e-06;-0.015294219667835651
1.11200e-06;-0.01526249732277546
1.11225e-06;-0.01523172940514241
1.11250e-06;-0.015201300176855689
1.11275e-06;-0.01517479175614989
1.11300e-06;-0.01514828333544409
1.11325e-06;-0.015123610951187577
1.11350e-06;-0.01510027076570428
1.11375e-06;-0.015076930580220964
1.11400e-06;-0.015053998958543459
1.11425e-06;-0.015031363784249126
1.11450e-06;-0.015008728609954813
1.11475e-06;-0.014987109358078513
1.11500e-06;-0.014966227243310468
1.11525e-06;-0.01494534512854244
1.11550e-06;-0.014924526307554803
1.11575e-06;-0.014903753411525068
1.11600e-06;-0.014882980515495334
1.11625e-06;-0.014862207619465584
1.11650e-06;-0.014841434723435848
1.11675e-06;-0.014820664250962729
1.11700e-06;-0.014799921834580895
1.11725e-06;-0.01477917941819906
1.11750e-06;-0.014758437001817209
1.11775e-06;-0.014737694585435375
1.11800e-06;-0.014716952169053521
1.11825e-06;-0.014696066008734729
1.11850e-06;-0.014675075550107169
1.11875e-06;-0.014654085091479628
1.11900e-06;-0.01463342457825932
1.11925e-06;-0.014613003468165709
1.11950e-06;-0.014592582358072115
1.11975e-06;-0.014572259206143303
1.12000e-06;-0.014552007131097002
1.12025e-06;-0.01453201088067943
1.12050e-06;-0.014512200252533481
1.12075e-06;-0.014492740708609042
1.12100e-06;-0.01447384570186727
1.12125e-06;-0.014455482035996904
1.12150e-06;-0.014437607422482832
1.12175e-06;-0.01442019989860789
1.12200e-06;-0.014403320145862174
1.12225e-06;-0.014389593418512037
1.12250e-06;-0.014377981147883785
1.12275e-06;-0.014366368877255533
1.12300e-06;-0.01435475660662727
1.12325e-06;-0.014343144335999019
1.12350e-06;-0.014331532065370757
1.12375e-06;-0.014319919794742505
1.12400e-06;-0.014308307524114243
1.12425e-06;-0.01429669525348599
1.12450e-06;-0.014285082982857739
1.12475e-06;-0.014273470712229477
1.12500e-06;-0.014261858441601225
1.12525e-06;-0.014250246170972963
1.12550e-06;-0.01423863390034471
1.12575e-06;-0.014227021629716459
1.12600e-06;-0.014215809331929594
1.12625e-06;-0.01420922728474016
1.12650e-06;-0.014202645237550719
1.12675e-06;-0.014196063190361282
1.12700e-06;-0.014189481143171846
1.12725e-06;-0.014182899095982405
1.12750e-06;-0.014176317048792969
1.12775e-06;-0.014169735001603527
1.12800e-06;-0.014163152954414091
1.12825e-06;-0.01415657090722465
1.12850e-06;-0.014149988860035214
1.12875e-06;-0.01414340681284578
1.12900e-06;-0.014136824765656338
1.12925e-06;-0.014130242718466902
1.12950e-06;-0.01412366067127746
1.12975e-06;-0.014117078624088024
1.13000e-06;-0.014111510686727394
1.13025e-06;-0.014106678571289142
1.13050e-06;-0.014101846455850891
1.13075e-06;-0.014097014340412639
1.13100e-06;-0.01409218222497439
1.13125e-06;-0.014087350109536139
1.13150e-06;-0.014082517994097887
1.13175e-06;-0.014077685878659638
1.13200e-06;-0.014072853763221383
1.13225e-06;-0.014068290665430699
1.13250e-06;-0.014063977273710816
1.13275e-06;-0.014059764422143855
1.13300e-06;-0.014055701066609166
1.13325e-06;-0.014052049237313744
1.13350e-06;-0.014049319017699772
1.13375e-06;-0.014047911670024756
1.13400e-06;-0.014047913340643777
1.13425e-06;-0.01404926592860878
1.13450e-06;-0.014051899584726666
1.13475e-06;-0.014056078273164832
1.13500e-06;-0.014060996122020093
1.13525e-06;-0.014067483190512603
1.13550e-06;-0.014075108859753554
1.13575e-06;-0.014085093440761054
1.13600e-06;-0.014096789610534791
1.13625e-06;-0.014108485780308539
1.13650e-06;-0.014123257962390423
1.13675e-06;-0.014140262049957766
1.13700e-06;-0.014157266137525095
1.13725e-06;-0.014174270225092425
1.13750e-06;-0.014191274312659768
1.13775e-06;-0.014211470918885163
1.13800e-06;-0.014233983965745876
1.13825e-06;-0.014256497012606572
1.13850e-06;-0.014279010059467266
1.13875e-06;-0.014301523106327981
1.13900e-06;-0.014325542747964291
1.13925e-06;-0.014350655550747961
1.13950e-06;-0.014375768353531609
1.13975e-06;-0.014401411155862565
1.14000e-06;-0.014427438517414508
1.14025e-06;-0.014453465878966428
1.14050e-06;-0.014479205572739637
1.14075e-06;-0.014504736539359289
1.14100e-06;-0.01453026750597896
1.14125e-06;-0.014554975857890506
1.14150e-06;-0.014579087333686014
1.14175e-06;-0.01460221356083224
1.14200e-06;-0.014624624907267786
1.14225e-06;-0.014643292625640058
1.14250e-06;-0.014659244027179791
1.14275e-06;-0.014675195428719527
1.14300e-06;-0.014691146830259275
1.14325e-06;-0.014707098231799009
1.14350e-06;-0.014721536657980046
1.14375e-06;-0.014729091314056489
1.14400e-06;-0.014736645970132932
1.14425e-06;-0.01474420062620938
1.14450e-06;-0.014751755282285823
1.14475e-06;-0.014759309938362273
1.14500e-06;-0.014758163675963809
1.14525e-06;-0.014754575564271408
1.14550e-06;-0.01475098745257901
1.14575e-06;-0.014747399340886612
1.14600e-06;-0.014743811229194211
1.14625e-06;-0.014737547404596135
1.14650e-06;-0.014723482337121698
1.14675e-06;-0.014709417269647274
1.14700e-06;-0.014695352202172848
1.14725e-06;-0.014681287134698412
1.14750e-06;-0.014667222067223987
1.14775e-06;-0.014647900403121701
