Time(s);Current(A)
1.25000e-05;0.0011711524828274342
1.25003e-05;0.0011586364516822127
1.25005e-05;0.001146120420537076
1.25008e-05;0.0011336043893918541
1.25010e-05;0.0011210883582466326
1.25012e-05;0.0011085723271014956
1.25015e-05;0.001096056295956274
1.25018e-05;0.001085518271123297
1.25020e-05;0.0010811035434189044
1.25023e-05;0.0010766888157145416
1.25025e-05;0.001072274088010149
1.25028e-05;0.0010678593603057566
1.25030e-05;0.001063444632601394
1.25033e-05;0.0010590299048970015
1.25035e-05;0.001054615177192609
1.25038e-05;0.0010502004494882464
1.25040e-05;0.0010469595066271075
1.25043e-05;0.0010473522394102634
1.25045e-05;0.0010477449721934165
1.25048e-05;0.0010481377049765723
1.25050e-05;0.001048530437759728
1.25053e-05;0.0010489231705428812
1.25055e-05;0.0010493159033260371
1.25058e-05;0.0010497086361091928
1.25060e-05;0.001050101368892346
1.25063e-05;0.0010504941016755017
1.25065e-05;0.0010515855990618176
1.25068e-05;0.0010530396260639758
1.25070e-05;0.0010544936530661438
1.25073e-05;0.001055947680068312
1.25075e-05;0.0010574017070704702
1.25078e-05;0.0010588557340726382
1.25080e-05;0.0010603097610748064
1.25083e-05;0.0010617637880769647
1.25085e-05;0.0010632178150791326
1.25088e-05;0.0010647977917652605
1.25090e-05;0.0010679853024312342
1.25093e-05;0.0010711728130972295
1.25095e-05;0.0010743603237632251
1.25097e-05;0.0010775478344291988
1.25100e-05;0.0010807353450951942
1.25103e-05;0.0010839228557611895
1.25105e-05;0.0010871103664271849
1.25108e-05;0.0010902978770931588
1.25110e-05;0.0010934853877591542
1.25113e-05;0.0010966728984251495
1.25115e-05;0.0010998604090911232
1.25118e-05;0.0011030479197571186
1.25120e-05;0.0011062354304231142
1.25123e-05;0.0011094229410890878
1.25125e-05;0.0011138791493989547
1.25128e-05;0.0011203098272397876
1.25130e-05;0.001126740505080577
1.25133e-05;0.0011331711829214099
1.25135e-05;0.0011396018607622428
1.25138e-05;0.0011460325386030321
1.25140e-05;0.001152463216443865
1.25143e-05;0.0011588938942846982
1.25145e-05;0.0011653245721254875
1.25148e-05;0.0011717552499663204
1.25150e-05;0.0011781859278071534
1.25153e-05;0.0011846166056479427
1.25155e-05;0.0011910472834887756
1.25158e-05;0.0011974779613296085
1.25160e-05;0.0012039086391703979
1.25163e-05;0.0012100611174282678
1.25165e-05;0.0012160998130020745
1.25168e-05;0.0012221385085758403
1.25170e-05;0.001228177204149647
1.25173e-05;0.0012342158997234538
1.25175e-05;0.0012402545952972198
1.25178e-05;0.0012462932908710266
1.25180e-05;0.0012523319864448333
1.25182e-05;0.0012579300026939976
1.25185e-05;0.0012633477825969251
1.25188e-05;0.0012687655624998527
1.25190e-05;0.0012741833424027803
1.25193e-05;0.0012796011223056712
1.25195e-05;0.0012850189022085988
1.25198e-05;0.0012904366821115264
1.25200e-05;0.001295854462014417
1.25203e-05;0.001303438700222527
1.25205e-05;0.0013119090125156138
1.25208e-05;0.001320379324808643
1.25210e-05;0.0013288496371017299
1.25213e-05;0.0013373199493948167
1.25215e-05;0.0013457902616878458
1.25218e-05;0.0013542605739809326
1.25220e-05;0.0013654161998785826
1.25223e-05;0.0013776701099155234
1.25225e-05;0.001389924019952547
1.25228e-05;0.0014021779299895707
1.25230e-05;0.0014144318400265113
1.25233e-05;0.001426685750063535
1.25235e-05;0.0014389396601005586
1.25238e-05;0.0014525312105521224
1.25240e-05;0.00146725958578547
1.25243e-05;0.0014822291603834449
1.25245e-05;0.001497198734981318
1.25248e-05;0.0015121683095792927
1.25250e-05;0.0015271378841772672
1.25253e-05;0.0015421074587751403
1.25255e-05;0.001557077033373115
1.25258e-05;0.0015720466079710896
1.25260e-05;0.0015870161825689629
1.25263e-05;0.0016006264184168827
1.25265e-05;0.0016136806893350534
1.25267e-05;0.0016267349602531354
1.25270e-05;0.001639789231171306
1.25273e-05;0.0016528435020894767
1.25275e-05;0.0016658977730076472
1.25278e-05;0.0016789520439257294
1.25280e-05;0.0016920063148439
1.25283e-05;0.0017050605857620706
1.25285e-05;0.0017088425510923084
1.25288e-05;0.0017088321749440586
1.25290e-05;0.0017088217987958087
1.25293e-05;0.001708811422647559
1.25295e-05;0.0017088010464993092
1.25298e-05;0.0017087906703510593
1.25300e-05;0.0017087802942028097
1.25303e-05;0.0017087699180545598
1.25305e-05;0.00170875954190631
1.25308e-05;0.0017087491657580603
1.25310e-05;0.0017087387896098105
1.25313e-05;0.0017042206637929533
1.25315e-05;0.001682716658375846
1.25318e-05;0.0016612126529585928
1.25320e-05;0.0016397086475413397
1.25323e-05;0.0016182046421242325
1.25325e-05;0.0015967006367069794
1.25328e-05;0.0015751966312897263
1.25330e-05;0.0015536926258726189
1.25333e-05;0.0015321886204553658
1.25335e-05;0.0015106846150381127
1.25338e-05;0.0014891806096210053
1.25340e-05;0.0014676766042037524
1.25343e-05;0.0014386491544048198
1.25345e-05;0.001406544641418
1.25348e-05;0.0013744401284309623
1.25350e-05;0.0013423356154439248
1.25352e-05;0.001310231102457105
1.25355e-05;0.0012781265894700675
1.25358e-05;0.0012457134525789848
1.25360e-05;0.0012131740895598164
1.25363e-05;0.0011806347265408686
1.25365e-05;0.0011480953635217002
1.25368e-05;0.0011155560005025318
1.25370e-05;0.001083016637483584
1.25373e-05;0.0010530744963675484
1.25375e-05;0.0010241946101849024
1.25378e-05;0.0009953147240024521
1.25380e-05;0.0009698479466446633
1.25383e-05;0.000945777119199027
1.25385e-05;0.0009217062917535539
1.25388e-05;0.0009007852954055777
1.25390e-05;0.0008811525692739498
1.25393e-05;0.0008615198431424548
1.25395e-05;0.0008436862709878601
1.25398e-05;0.0008265885466966745
1.25400e-05;0.0008094908224056049
1.25403e-05;0.0007947947517198893
1.25405e-05;0.0007810809491984619
1.25408e-05;0.0007673671466771273
1.25410e-05;0.0007552501409905588
1.25413e-05;0.000743786219783866
1.25415e-05;0.0007323222985772508
1.25418e-05;0.0007234074944113529
1.25420e-05;0.0007155352704538077
1.25423e-05;0.0007076630464963158
1.25425e-05;0.0006997908225387705
1.25428e-05;0.0006919185985812253
1.25430e-05;0.0006840463746237334
1.25433e-05;0.0006761741506661882
1.25435e-05;0.000668301926708643
1.25437e-05;0.0006604297027511511
1.25440e-05;0.0006551782390298455
1.25443e-05;0.0006509986573405076
1.25445e-05;0.0006468190756511698
1.25448e-05;0.0006426394939618601
1.25450e-05;0.0006384599122725222
1.25453e-05;0.0006342803305831844
1.25455e-05;0.0006301007488938748
1.25458e-05;0.0006259211672045369
1.25460e-05;0.000621741585515199
1.25463e-05;0.0006188260076043673
1.25465e-05;0.000616427402944203
1.25468e-05;0.0006140287982840388
1.25470e-05;0.0006116301936238908
1.25473e-05;0.0006092315889637265
1.25475e-05;0.0006068329843035623
1.25478e-05;0.0006044343796434144
1.25480e-05;0.000603101356041256
1.25483e-05;0.000602204151471315
1.25485e-05;0.0006013069469013802
1.25488e-05;0.0006004097423314394
1.25490e-05;0.0005995125377614984
1.25493e-05;0.0005986153331915636
1.25495e-05;0.0005977181286216226
1.25498e-05;0.0006004347509381759
1.25500e-05;0.0006046294161726862
1.25503e-05;0.000608824081407225
1.25505e-05;0.0006130187466417637
1.25508e-05;0.0006172134118762741
1.25510e-05;0.0006214080771108129
1.25513e-05;0.0006256027423453517
1.25515e-05;0.000629797407579862
1.25518e-05;0.0006339920728144008
1.25520e-05;0.0006381867380489396
1.25522e-05;0.0006466326920527114
1.25525e-05;0.0006568174087188357
1.25528e-05;0.0006670021253849599
1.25530e-05;0.0006771868420510841
1.25533e-05;0.0006873715587171393
1.25535e-05;0.0006975562753832635
1.25538e-05;0.0007077409920493877
1.25540e-05;0.0007179257087154429
1.25543e-05;0.0007281104253815671
1.25545e-05;0.0007382951420476913
1.25548e-05;0.000750165955707005
1.25550e-05;0.0007627263773079427
1.25553e-05;0.0007752867989088806
1.25555e-05;0.0007878472205097334
1.25558e-05;0.0008004076421106712
1.25560e-05;0.000812968063711609
1.25563e-05;0.0008255284853124617
1.25565e-05;0.0008377299889127831
1.25568e-05;0.0008485790354336719
1.25570e-05;0.0008594280819544871
1.25573e-05;0.000870277128475376
1.25575e-05;0.0008811261749962647
1.25578e-05;0.00089197522151708
1.25580e-05;0.0009028242680379689
1.25583e-05;0.0009136733145588576
1.25585e-05;0.0009227679318263864
1.25588e-05;0.0009311449934901296
1.25590e-05;0.000939522055153873
1.25593e-05;0.0009478991168175596
1.25595e-05;0.0009562761784813029
1.25598e-05;0.0009646532401450462
1.25600e-05;0.0009730303018087328
1.25603e-05;0.0009814073634724762
1.25605e-05;0.0009901522630124688
1.25607e-05;0.001000283231066828
1.25610e-05;0.0010104141991212558
1.25613e-05;0.0010205451671756838
1.25615e-05;0.0010306761352301115
1.25618e-05;0.0010408071032844707
1.25620e-05;0.0010509380713388985
1.25623e-05;0.0010610690393933263
1.25625e-05;0.0010712000074476855
1.25628e-05;0.0010830087438684346
1.25630e-05;0.0010955036818508447
1.25633e-05;0.0011079986198331703
1.25635e-05;0.0011204935578155806
1.25638e-05;0.0011329884957979907
1.25640e-05;0.0011454834337803162
1.25643e-05;0.0011579783717627263
1.25645e-05;0.0011704733097451367
1.25648e-05;0.0011829682477274622
1.25650e-05;0.0011954631857098723
1.25653e-05;0.0012077303572682228
1.25655e-05;0.00121990437313287
1.25658e-05;0.0012320783889976
1.25660e-05;0.0012442524048623298
1.25663e-05;0.0012564264207269773
1.25665e-05;0.0012686004365917072
1.25668e-05;0.001280774452456437
1.25670e-05;0.0012929484683210845
1.25673e-05;0.0013051224841858144
1.25675e-05;0.0013172965000505443
1.25678e-05;0.001327165338264005
1.25680e-05;0.0013360913666497635
1.25683e-05;0.0013450173950355219
1.25685e-05;0.0013539434234212198
1.25688e-05;0.0013628694518069782
1.25690e-05;0.0013717954801927366
1.25692e-05;0.0013807215085784345
1.25695e-05;0.0013899909936361133
1.25698e-05;0.0014005546751591185
1.25700e-05;0.0014111183566821236
1.25703e-05;0.0014216820382050572
1.25705e-05;0.0014322457197280623
1.25708e-05;0.0014428094012510675
1.25710e-05;0.0014533730827740012
1.25713e-05;0.0014639367642970062
1.25715e-05;0.0014780957518090796
1.25718e-05;0.0014937252072561706
1.25720e-05;0.0015093546627033675
1.25723e-05;0.0015249841181505645
1.25725e-05;0.0015406135735976556
1.25728e-05;0.0015562430290448526
1.25730e-05;0.0015718724844920495
1.25733e-05;0.0015875019399391405
1.25735e-05;0.0016031313953863374
1.25738e-05;0.0016187608508335344
1.25740e-05;0.0016365448542049136
1.25743e-05;0.0016552100603578592
1.25745e-05;0.001673875266510805
1.25748e-05;0.0016925404726636244
1.25750e-05;0.0017112056788165702
1.25753e-05;0.0017298708849695157
1.25755e-05;0.0017485360911223351
1.25758e-05;0.001767201297275281
1.25760e-05;0.0017858665034282265
1.25763e-05;0.0018045317095810459
1.25765e-05;0.001819190987926923
1.25768e-05;0.0018322118554087508
1.25770e-05;0.0018452327228904903
1.25773e-05;0.001858253590372318
1.25775e-05;0.0018712744578541457
1.25777e-05;0.0018842953253358852
1.25780e-05;0.001897316192817713
1.25783e-05;0.0019103370602995408
1.25785e-05;0.0019233579277813683
1.25788e-05;0.0019363787952631079
1.25790e-05;0.0019493996627449356
1.25793e-05;0.0019624205302267634
1.25795e-05;0.001975441397708503
1.25798e-05;0.0019884622651903305
1.25800e-05;0.0020014831326721585
1.25803e-05;0.0020076237967341375
1.25805e-05;0.0020109504809706657
1.25808e-05;0.0020142771652071935
1.25810e-05;0.002017603849443699
1.25813e-05;0.002020930533680227
1.25815e-05;0.002024257217916755
1.25818e-05;0.0020275839021532604
1.25820e-05;0.0020309105863897886
1.25823e-05;0.0020342372706263164
1.25825e-05;0.002037563954862822
1.25828e-05;0.00204089063909935
1.25830e-05;0.002044217323335878
1.25833e-05;0.0020475440075723834
1.25835e-05;0.0020508706918089116
1.25838e-05;0.0020541973760454394
1.25840e-05;0.002054270633576138
1.25843e-05;0.002053013250636416
1.25845e-05;0.002051755867696694
1.25848e-05;0.0020504984847569806
1.25850e-05;0.0020492411018172584
1.25853e-05;0.0020479837188775362
1.25855e-05;0.0020467263359378227
1.25858e-05;0.002045468952998101
1.25860e-05;0.0020442115700583787
1.25862e-05;0.0020429541871186652
1.25865e-05;0.002041696804178943
1.25868e-05;0.0020404394212392213
1.25870e-05;0.002039182038299499
1.25873e-05;0.0020379246553597855
1.25875e-05;0.0020366672724200633
1.25878e-05;0.0020354098894803416
1.25880e-05;0.002034152506540628
1.25883e-05;0.002032895123600906
1.25885e-05;0.0020316377406611836
1.25888e-05;0.00203038035772147
1.25890e-05;0.0020291229747817483
1.25893e-05;0.002027990936040988
1.25895e-05;0.0020273312131195323
1.25898e-05;0.002026671490198072
1.25900e-05;0.0020260117672766115
1.25903e-05;0.0020253520443551556
1.25905e-05;0.0020246923214336954
1.25908e-05;0.002024032598512235
1.25910e-05;0.002023372875590779
1.25913e-05;0.002022713152669319
1.25915e-05;0.002022053429747858
1.25918e-05;0.0020213937068264023
1.25920e-05;0.002020733983904942
1.25923e-05;0.0020200742609834815
1.25925e-05;0.0020194145380620257
1.25928e-05;0.0020187548151405655
1.25930e-05;0.002018095092219105
1.25933e-05;0.002017435369297649
1.25935e-05;0.002016775646376189
1.25938e-05;0.0020161159234547282
1.25940e-05;0.0020154562005332724
1.25943e-05;0.0020147964776118118
1.25945e-05;0.0020141367546903516
1.25947e-05;0.002013950245725769
1.25950e-05;0.0020139572796620568
1.25953e-05;0.002013964313598344
1.25955e-05;0.002013971347534631
1.25958e-05;0.0020139783814709183
1.25960e-05;0.0020139854154072054
1.25963e-05;0.0020139924493434926
1.25965e-05;0.0020139994832797797
1.25968e-05;0.0020140065172160673
1.25970e-05;0.0020138272863527563
1.25973e-05;0.0020129461816717083
1.25975e-05;0.0020120650769906547
1.25978e-05;0.0020111839723096006
1.25980e-05;0.0020103028676285526
1.25983e-05;0.0020094217629474985
1.25985e-05;0.002008540658266445
1.25988e-05;0.002007659553585397
1.25990e-05;0.002006778448904343
1.25993e-05;0.002005897344223289
1.25995e-05;0.0019963115490486457
1.25998e-05;0.0019831655650312226
1.26000e-05;0.001970019581013799
1.26003e-05;0.001956873596996465
1.26005e-05;0.0019437276129790418
1.26008e-05;0.0019305816289616187
1.26010e-05;0.0019174356449442845
1.26013e-05;0.0019042896609268614
1.26015e-05;0.001891143676909438
1.26018e-05;0.001877997692892104
1.26020e-05;0.0018614952312506023
1.26023e-05;0.001832345056408608
1.26025e-05;0.0018031948815668112
1.26028e-05;0.001774044706724817
1.26030e-05;0.0017448945318828226
1.26032e-05;0.0017157443570410258
1.26035e-05;0.0016865941821990315
1.26038e-05;0.0016574440073570372
1.26040e-05;0.0016282938325152404
1.26043e-05;0.001599143657673246
1.26045e-05;0.0015699934828312518
1.26048e-05;0.001536341224038293
1.26050e-05;0.0015008476282024703
1.26053e-05;0.0014653540323664072
1.26055e-05;0.001429860436530344
1.26058e-05;0.0013943668406945211
1.26060e-05;0.001358873244858458
1.26063e-05;0.0013249926950175944
1.26065e-05;0.0012917718755097835
1.26068e-05;0.0012585510560017474
1.26070e-05;0.0012253302364937115
1.26073e-05;0.0011921094169859007
1.26075e-05;0.0011588885974778648
1.26078e-05;0.0011297868026934443
1.26080e-05;0.0011023696750297395
1.26083e-05;0.001074952547365849
1.26085e-05;0.0010516981794566997
1.26088e-05;0.0010301463661474544
1.26090e-05;0.0010085945528380631
1.26093e-05;0.000990532839081129
1.26095e-05;0.000973898564186249
1.26098e-05;0.0009572642892912565
1.26100e-05;0.0009444207785174657
1.26103e-05;0.0009331276773930768
1.26105e-05;0.0009218345762686113
1.26108e-05;0.0009142886006274783
1.26110e-05;0.0009082751865811023
1.26113e-05;0.0009022617725346857
1.26115e-05;0.0008993438788268442
1.26117e-05;0.000897692042422892
1.26120e-05;0.0008960402060189286
1.26123e-05;0.0008974826781517138
1.26125e-05;0.0009001907119654861
1.26128e-05;0.0009028987457792767
1.26130e-05;0.0009094163207415971
1.26133e-05;0.0009174919850936905
1.26135e-05;0.0009255676494457293
1.26138e-05;0.0009336433137978226
1.26140e-05;0.0009417189781499161
1.26143e-05;0.0009497946425019548
1.26145e-05;0.0009578703068540482
1.26148e-05;0.0009689792273547346
1.26150e-05;0.0009813287393170469
1.26153e-05;0.0009936782512794428
1.26155e-05;0.0010060277632418387
1.26158e-05;0.001018377275204151
1.26160e-05;0.0010307267871665468
1.26163e-05;0.0010430762991289427
1.26165e-05;0.0010551734459367415
1.26168e-05;0.0010671673762536298
1.26170e-05;0.001079161306570518
1.26173e-05;0.0010911552368873252
1.26175e-05;0.0011031491672042137
1.26178e-05;0.001115143097521102
1.26180e-05;0.001126644389323438
1.26183e-05;0.001136289345006651
1.26185e-05;0.001145934300689864
1.26188e-05;0.0011555792563730117
1.26190e-05;0.0011652242120562247
1.26193e-05;0.0011748691677394376
1.26195e-05;0.0011845141234225853
1.26198e-05;0.0011973143116353452
1.26200e-05;0.0012114049792355623
1.26202e-05;0.001225495646835684
1.26205e-05;0.0012395863144359011
1.26208e-05;0.001253676982036118
1.26210e-05;0.0012677676496362397
1.26213e-05;0.0012818583172364568
1.26215e-05;0.001295948984836674
1.26218e-05;0.001310039652436891
1.26220e-05;0.0013241303200370125
1.26223e-05;0.0013382209876372296
1.26225e-05;0.0013537488885350549
1.26228e-05;0.0013746925009620803
1.26230e-05;0.0013956361133892477
1.26233e-05;0.0014165797258164148
1.26235e-05;0.0014375233382434402
1.26238e-05;0.0014584669506706074
1.26240e-05;0.0014794105630977748
1.26243e-05;0.0015003541755248002
1.26245e-05;0.0015212977879519674
1.26248e-05;0.0015422414003791345
1.26250e-05;0.00156318501280616
1.26253e-05;0.0015841286252333273
1.26255e-05;0.0016029449730340932
1.26258e-05;0.0016208912768278499
1.26260e-05;0.0016388375806217282
1.26263e-05;0.0016567838844156065
1.26265e-05;0.0016747301882093632
1.26268e-05;0.0016926764920032415
1.26270e-05;0.0017106227957971198
1.26273e-05;0.0017285690995908765
1.26275e-05;0.0017465154033847546
1.26278e-05;0.0017644617071786329
1.26280e-05;0.0017824080109723895
1.26283e-05;0.0018003543147662678
1.26285e-05;0.0018183006185601462
1.26288e-05;0.0018362469223539026
1.26290e-05;0.0018541932261477811
1.26293e-05;0.0018721395299416592
1.26295e-05;0.0018873921053909578
1.26298e-05;0.0018924943067276723
1.26300e-05;0.001897596508064387
1.26303e-05;0.0019026987094011016
1.26305e-05;0.0019078009107377817
1.26308e-05;0.0019129031120744963
1.26310e-05;0.001918005313411211
1.26313e-05;0.001923107514747891
1.26315e-05;0.0019282097160846056
1.26318e-05;0.0019333119174213204
1.26320e-05;0.0019384141187580005
1.26323e-05;0.001943516320094715
1.26325e-05;0.0019486185214314298
1.26328e-05;0.0019537207227681096
1.26330e-05;0.0019588229241048246
1.26333e-05;0.001963925125441539
1.26335e-05;0.001969027326778219
1.26338e-05;0.00196970269945798
1.26340e-05;0.001968567514252291
1.26343e-05;0.00196743232904661
1.26345e-05;0.0019662971438409215
1.26348e-05;0.001965161958635233
1.26350e-05;0.0019640267734295515
1.26353e-05;0.001962891588223863
1.26355e-05;0.0019617564030181742
1.26358e-05;0.0019606212178124934
1.26360e-05;0.0019594860326068043
1.26363e-05;0.0019583508474011156
1.26365e-05;0.0019572156621954348
1.26368e-05;0.001954726949382063
1.26370e-05;0.0019516846483742043
1.26373e-05;0.0019486423473663664
1.26375e-05;0.0019456000463585078
1.26378e-05;0.001942557745350649
1.26380e-05;0.001939515444342811
1.26383e-05;0.0019364731433349524
1.26385e-05;0.0019334308423270938
1.26388e-05;0.001930388541319235
1.26390e-05;0.001927346240311397
1.26393e-05;0.0019243039393035384
1.26395e-05;0.0019212616382956798
1.26398e-05;0.0019094808935395345
1.26400e-05;0.0018941261549687849
1.26403e-05;0.0018787714163980352
1.26405e-05;0.0018634166778273894
1.26408e-05;0.0018480619392566397
1.26410e-05;0.0018327072006858898
1.26413e-05;0.0018173524621152442
1.26415e-05;0.0018019977235444943
1.26418e-05;0.0017866429849737447
1.26420e-05;0.0017712882464030989
1.26423e-05;0.001745425268763645
1.26425e-05;0.0017152644570339157
1.26428e-05;0.001685103645304391
1.26430e-05;0.0016549428335746617
1.26433e-05;0.0016247820218449325
1.26435e-05;0.0015946212101154078
1.26438e-05;0.0015644603983856786
1.26440e-05;0.0015342995866559493
1.26443e-05;0.0015041387749264246
1.26445e-05;0.0014739779631966954
1.26448e-05;0.0014396995093007338
1.26450e-05;0.0014037369537434879
1.26453e-05;0.0013677743981859985
1.26455e-05;0.001331811842628509
1.26458e-05;0.0012958492870712634
1.26460e-05;0.001259886731513774
1.26463e-05;0.0012256136756324445
1.26465e-05;0.001192031619381007
1.26468e-05;0.0011584495631293422
1.26470e-05;0.001124867506877677
1.26473e-05;0.0010912854506260122
1.26475e-05;0.0010577033943745748
1.26478e-05;0.0010282948388470278
