Time(s);Current(A)
7.25000e-06;0.0015765326288855886
7.25025e-06;0.0015615164493537291
7.25050e-06;0.0015465002698219204
7.25075e-06;0.0015314840902900606
7.25100e-06;0.0015164679107582519
7.25125e-06;0.0015014517312264431
7.25150e-06;0.0014847093446957735
7.25175e-06;0.0014676439803363189
7.25200e-06;0.001450578615976864
7.25225e-06;0.0014335132516173517
7.25250e-06;0.0014164478872578969
7.25275e-06;0.0013993825228984422
7.25300e-06;0.0013823171585389297
7.25325e-06;0.001365251794179475
7.25350e-06;0.0013481864298200204
7.25375e-06;0.0013311210654605079
7.25400e-06;0.0013140557011010533
7.25425e-06;0.0012932891095105434
7.25450e-06;0.0012718300086578351
7.25475e-06;0.0012503709078051993
7.25500e-06;0.0012289118069524908
7.25525e-06;0.001207452706099855
7.25550e-06;0.0011859936052472193
7.25575e-06;0.0011645345043945108
7.25600e-06;0.001143075403541875
7.25625e-06;0.001121616302689239
7.25650e-06;0.0011001572018365306
7.25675e-06;0.001078698100983895
7.25700e-06;0.0010569636910388194
7.25725e-06;0.0010351777700448907
7.25750e-06;0.0010133918490510356
7.25775e-06;0.0009916059280571806
7.25800e-06;0.0009698200070632518
7.25825e-06;0.0009490950414205194
7.25850e-06;0.0009304078211302219
7.25875e-06;0.0009117206008398611
7.25900e-06;0.0008930333805495636
7.25925e-06;0.0008743461602592028
7.25950e-06;0.0008556589399689054
7.25975e-06;0.0008400782053634237
7.26000e-06;0.000825078702326412
7.26025e-06;0.0008133835101721069
7.26050e-06;0.0008023065631964436
7.26075e-06;0.0007966004636940355
7.26100e-06;0.0007918992637526984
7.26125e-06;0.0007926826197079414
7.26150e-06;0.0007944921503665949
7.26175e-06;0.0008015342298319404
7.26200e-06;0.0008095553328173076
7.26225e-06;0.0008231197582130437
7.26250e-06;0.0008377213536800001
7.26275e-06;0.0008586091763961255
7.26300e-06;0.0008806731686152461
7.26325e-06;0.000908542934445886
7.26350e-06;0.0009374989756516586
7.26375e-06;0.0009715513509164024
7.26400e-06;0.001006557263566779
7.26425e-06;0.0010463025962560426
7.26450e-06;0.0010869346867873322
7.26475e-06;0.001133211893039401
7.26500e-06;0.0011805453151564967
7.26525e-06;0.001227878737273432
7.26550e-06;0.0012815182897369891
7.26575e-06;0.0013363377356249415
7.26600e-06;0.0013911571815127084
7.26625e-06;0.0014459766274004752
7.26650e-06;0.0015007960732884276
7.26675e-06;0.0015567154929746019
7.26700e-06;0.0016147475995827365
7.26725e-06;0.0016727797061910675
7.26750e-06;0.001730811812799202
7.26775e-06;0.0017888439194075332
7.26800e-06;0.0018468760260156676
7.26825e-06;0.001899886810730794
7.26850e-06;0.0019519580930323912
7.26875e-06;0.002004029375333812
7.26900e-06;0.0020561006576352327
7.26925e-06;0.00210817193993683
7.26950e-06;0.0021546119196356743
7.26975e-06;0.002190236024102991
7.27000e-06;0.0022258601285704274
7.27025e-06;0.002261484233037744
7.27050e-06;0.00229710833750506
7.27075e-06;0.002332732441972497
7.27100e-06;0.002352216187973201
7.27125e-06;0.002368680030837039
7.27150e-06;0.0023851438737009325
7.27175e-06;0.0023893092279406144
7.27200e-06;0.0023911735029043574
7.27225e-06;0.002393037777868094
7.27250e-06;0.002382269679534481
7.27275e-06;0.0023691380312323585
7.27300e-06;0.0023560063829302803
7.27325e-06;0.0023310282684496347
7.27350e-06;0.0023038336492707708
7.27375e-06;0.0022766390300919988
7.27400e-06;0.0022388573836113496
7.27425e-06;0.0021990948767288652
7.27450e-06;0.0021593323698465157
7.27475e-06;0.002110431478033034
7.27500e-06;0.0020598207705809627
7.27525e-06;0.002009210063129063
7.27550e-06;0.0019499870009163805
7.27575e-06;0.001889152544681004
7.27600e-06;0.0018283180884458336
7.27625e-06;0.0017674836322104572
7.27650e-06;0.0017066491759752868
7.27675e-06;0.0016409232275561274
7.27700e-06;0.0015742820682002612
7.27725e-06;0.0015076409088446209
7.27750e-06;0.0014409997494889805
7.27775e-06;0.0013743585901331143
7.27800e-06;0.001309212609100974
7.27825e-06;0.0012443463798300785
7.27850e-06;0.0011794801505589636
7.27875e-06;0.0011193968012521212
7.27900e-06;0.001060208341252262
7.27925e-06;0.001001019881252202
7.27950e-06;0.0009482487147442394
7.27975e-06;0.0008966782405740911
7.28000e-06;0.0008517932970365534
7.28025e-06;0.0008081592337051432
7.28050e-06;0.0007695091934613615
7.28075e-06;0.000734865628960582
7.28100e-06;0.0007039410825392816
7.28125e-06;0.0006768716614794162
7.28150e-06;0.0006538033107356373
7.28175e-06;0.0006348820059471389
7.28200e-06;0.000620239463211972
7.28225e-06;0.0006098383096006997
7.28250e-06;0.0006033998285684253
7.28275e-06;0.000600661675382978
7.28300e-06;0.0006015186842137554
7.28325e-06;0.0006059264905362405
7.28350e-06;0.000613846772199018
7.28375e-06;0.0006252412684202729
7.28400e-06;0.0006400628126904584
7.28425e-06;0.0006593871985349837
7.28450e-06;0.0006794532418970051
7.28475e-06;0.0007039968424977912
7.28500e-06;0.0007293782057276173
7.28525e-06;0.0007586319316232137
7.28550e-06;0.0007886101866661216
7.28575e-06;0.000822644998291117
7.28600e-06;0.0008574388022251248
7.28625e-06;0.0008922326061592506
7.28650e-06;0.0009307071502846006
7.28675e-06;0.0009698703704927389
7.28700e-06;0.00100903359070101
7.28725e-06;0.0010481968109091481
7.28750e-06;0.0010873600311172864
7.28775e-06;0.0011264953121019267
7.28800e-06;0.0011656253655848766
7.28825e-06;0.0012047554190678263
7.28850e-06;0.0012438854725509085
7.28875e-06;0.0012830155260338582
7.28900e-06;0.0013180790184893765
7.28925e-06;0.001352381646778043
7.28950e-06;0.0013866842750667094
7.28975e-06;0.0014152188594480591
7.29000e-06;0.0014426742277812929
7.29025e-06;0.0014701295961145264
7.29050e-06;0.0014975849644478531
7.29075e-06;0.0015250403327810868
7.29100e-06;0.0015524243750450056
7.29125e-06;0.0015796714234515446
7.29150e-06;0.0016069184718579914
7.29175e-06;0.0016341655202644382
7.29200e-06;0.0016614125686709774
7.29225e-06;0.0016886596170774242
7.29250e-06;0.0017202818887078282
7.29275e-06;0.001752722776006373
7.29300e-06;0.0017851636633048082
7.29325e-06;0.001817604550603353
7.29350e-06;0.001850045437901788
7.29375e-06;0.001882486325200223
7.29400e-06;0.0019149272124987678
7.29425e-06;0.0019473680997972027
7.29450e-06;0.001979808987095638
7.29475e-06;0.0020122498743941827
7.29500e-06;0.002049081181700405
7.29525e-06;0.0020867339480324354
7.29550e-06;0.0021243867143645933
7.29575e-06;0.0021620394806966237
7.29600e-06;0.0021996922470286537
7.29625e-06;0.0022373450133608115
7.29650e-06;0.002274997779692842
7.29675e-06;0.0023126505460248723
7.29700e-06;0.00235030331235703
7.29725e-06;0.0023879560786890606
7.29750e-06;0.002420660430374951
7.29775e-06;0.0024524389207838913
7.29800e-06;0.0024842174111928315
7.29825e-06;0.002515995901601879
7.29850e-06;0.002547774392010819
7.29875e-06;0.002579552882419759
7.29900e-06;0.0026113313728288066
7.29925e-06;0.0026431098632377463
7.29950e-06;0.0026748883536466864
7.29975e-06;0.002706666844055734
7.30000e-06;0.0027384453344646738
7.30025e-06;0.0027592698005561764
7.30050e-06;0.0027774434362400346
7.30075e-06;0.0027956170719238317
7.30100e-06;0.0028137907076076283
7.30125e-06;0.0028319643432914866
7.30150e-06;0.002850137978975283
7.30175e-06;0.0028683116146591414
7.30200e-06;0.002886485250342938
7.30225e-06;0.0029046588860267347
7.30250e-06;0.002922832521710593
7.30275e-06;0.0029410061573943895
7.30300e-06;0.0029536892306116246
7.30325e-06;0.0029647129883031745
7.30350e-06;0.0029757367459946867
7.30375e-06;0.002986760503686199
7.30400e-06;0.0029977842613777487
7.30425e-06;0.003008808019069261
7.30450e-06;0.003019831776760773
7.30475e-06;0.003030855534452323
7.30500e-06;0.003041879292143835
7.30525e-06;0.0030529030498353473
7.30550e-06;0.003063926807526897
7.30575e-06;0.0030749505652184093
7.30600e-06;0.003085974322909959
7.30625e-06;0.0030969980806014714
7.30650e-06;0.0031080218382929835
7.30675e-06;0.0031150867956435775
7.30700e-06;0.0031213902921121157
7.30725e-06;0.003127693788580654
7.30750e-06;0.0031339972850492133
7.30775e-06;0.0031403007815177515
7.30800e-06;0.0031466042779862897
7.30825e-06;0.003152907774454849
7.30850e-06;0.0031592112709233873
7.30875e-06;0.0031655147673919255
7.30900e-06;0.003171818263860485
7.30925e-06;0.003178121760329023
7.30950e-06;0.0031844252567975614
7.30975e-06;0.003190728753266121
7.31000e-06;0.003197032249734659
7.31025e-06;0.0032033357462032184
7.31050e-06;0.003194768430408548
7.31075e-06;0.003184720330412591
7.31100e-06;0.0031746722304166006
7.31125e-06;0.003164624130420644
7.31150e-06;0.0031545760304246876
7.31175e-06;0.0031445279304286966
7.31200e-06;0.00313447983043274
7.31225e-06;0.0031244317304367835
7.31250e-06;0.0031143836304407925
7.31275e-06;0.0031043355304448362
7.31300e-06;0.0030942874304488795
7.31325e-06;0.003074319579374774
7.31350e-06;0.0030400439324459196
7.31375e-06;0.0030057682855170647
7.31400e-06;0.002971492638588094
7.31425e-06;0.0029372169916592394
7.31450e-06;0.0029029413447302682
7.31475e-06;0.0028686656978014137
7.31500e-06;0.0028343900508725588
7.31525e-06;0.002800114403943588
7.31550e-06;0.002765838757014733
7.31575e-06;0.0027315631100858786
7.31600e-06;0.0026972874631569074
7.31625e-06;0.0026538499557894153
7.31650e-06;0.0026095001419555825
7.31675e-06;0.0025651503281215993
7.31700e-06;0.0025208005142877666
7.31725e-06;0.002476450700453934
7.31750e-06;0.002432100886619951
7.31775e-06;0.0023877510727861183
7.31800e-06;0.0023472494049195285
7.31825e-06;0.002307130922157243
7.31850e-06;0.0022670124393950938
7.31875e-06;0.0022268939566328083
7.31900e-06;0.002186775473870659
7.31925e-06;0.0021466569911085093
7.31950e-06;0.0021065385083462243
7.31975e-06;0.002076747861231459
7.32000e-06;0.0020479856243730576
7.32025e-06;0.002019223387514559
7.32050e-06;0.001990461150656158
7.32075e-06;0.0019616989137977566
7.32100e-06;0.0019329366769392582
7.32125e-06;0.001904174440080857
7.32150e-06;0.001876312618028989
7.32175e-06;0.001849749513165925
7.32200e-06;0.0018231864083029508
7.32225e-06;0.0017966233034399767
7.32250e-06;0.0017700601985769127
7.32275e-06;0.0017434970937139384
7.32300e-06;0.0017169339888508744
7.32325e-06;0.0016903708839879003
7.32350e-06;0.0016620354438062568
7.32375e-06;0.0016335235205857375
7.32400e-06;0.0016050115973653151
7.32425e-06;0.0015764996741448926
7.32450e-06;0.0015479877509243733
7.32475e-06;0.001519475827703951
7.32500e-06;0.0014909639044835283
7.32525e-06;0.0014624519812630092
7.32550e-06;0.0014339400580425867
7.32575e-06;0.0014049522951038462
7.32600e-06;0.0013759171496868922
7.32625e-06;0.0013468820042700363
7.32650e-06;0.0013178468588531805
7.32675e-06;0.0012888117134362263
7.32700e-06;0.0012597765680193705
7.32725e-06;0.0012307414226024162
7.32750e-06;0.0012017062771855604
7.32775e-06;0.0011726711317687046
7.32800e-06;0.0011494054117717216
7.32825e-06;0.0011267141912609704
7.32850e-06;0.0011040229707502194
7.32875e-06;0.0010813317502393915
7.32900e-06;0.0010586405297286405
7.32925e-06;0.0010359493092178896
7.32950e-06;0.0010132580887070616
7.32975e-06;0.0009905668681963106
7.33000e-06;0.0009678756476855597
7.33025e-06;0.0009451844271747317
7.33050e-06;0.000931914584285682
7.33075e-06;0.0009195828896883036
7.33100e-06;0.0009072511950908834
7.33125e-06;0.000894919500493505
7.33150e-06;0.0008825878058960849
7.33175e-06;0.0008702561112987065
7.33200e-06;0.0008579244167013281
7.33225e-06;0.000845592722103908
7.33250e-06;0.0008332610275065296
7.33275e-06;0.0008209293329091512
7.33300e-06;0.0008147413101069965
7.33325e-06;0.0008091650529542185
7.33350e-06;0.0008035887958014405
7.33375e-06;0.0007980125386486437
7.33400e-06;0.0007924362814958658
7.33425e-06;0.0007868600243430878
7.33450e-06;0.0007812837671902909
7.33475e-06;0.0007757075100375129
7.33500e-06;0.000770131252884735
7.33525e-06;0.0007661417378253607
7.33550e-06;0.000764440867083614
7.33575e-06;0.0007627399963418617
7.33600e-06;0.0007610391256001151
7.33625e-06;0.0007593382548583684
7.33650e-06;0.000757637384116616
7.33675e-06;0.0007559365133748694
7.33700e-06;0.0007542356426331227
7.33725e-06;0.0007525347718913704
7.33750e-06;0.0007508339011496238
7.33775e-06;0.0007504244831165188
7.33800e-06;0.0007501436634901996
7.33825e-06;0.0007498628438638813
7.33850e-06;0.0007495820242375632
7.33875e-06;0.0007493812397881907
7.33900e-06;0.0007492958944222559
7.33925e-06;0.000749210549056321
7.33950e-06;0.0007491252036903859
7.33975e-06;0.000749039858324451
7.34000e-06;0.000749986820465179
7.34025e-06;0.0007510365762271998
7.34050e-06;0.0007520863319892205
7.34075e-06;0.0007583847792404115
7.34100e-06;0.0007652058730883867
7.34125e-06;0.0007768846787508873
7.34150e-06;0.000789047198602628
7.34175e-06;0.0008054942875040254
7.34200e-06;0.0008223680190147391
7.34225e-06;0.0008438985156387359
7.34250e-06;0.0008658927168723464
7.34275e-06;0.0008939674350647508
7.34300e-06;0.0009226476301654534
7.34325e-06;0.0009568972674282334
7.34350e-06;0.0009917014905335448
7.34375e-06;0.0010311325696673412
7.34400e-06;0.0010710243751671333
7.34425e-06;0.0011163651042158118
7.34450e-06;0.0011622484182789634
7.34475e-06;0.001208131732342115
7.34500e-06;0.0012602373712467538
7.34525e-06;0.001312962607799211
7.34550e-06;0.001365687844351668
7.34575e-06;0.0014232510698871472
7.34600e-06;0.001481296045679949
7.34625e-06;0.001539341021472751
7.34650e-06;0.0015973859972657496
7.34675e-06;0.0016554309730585515
7.34700e-06;0.0017138245635014127
7.34725e-06;0.0017727209797918702
7.34750e-06;0.0018316173960821283
7.34775e-06;0.001890513812372386
7.34800e-06;0.0019494102286628438
7.34825e-06;0.002008306644953102
7.34850e-06;0.002059201186756314
7.34875e-06;0.002109298929495137
7.34900e-06;0.0021593966722339604
7.34925e-06;0.002209494414972953
7.34950e-06;0.0022595921577117763
7.34975e-06;0.0023096899004505993
7.35000e-06;0.002340385134567918
7.35025e-06;0.002369148333792986
7.35050e-06;0.002397911533018054
7.35075e-06;0.00242667473224322
7.35100e-06;0.002455437931468288
7.35125e-06;0.002484201130693356
7.35150e-06;0.0024932057002634614
7.35175e-06;0.002500242773637256
7.35200e-06;0.0025072798470110506
7.35225e-06;0.002500471996164331
7.35250e-06;0.002492285515513032
7.35275e-06;0.002484099034861705
7.35300e-06;0.0024623944242389336
7.35325e-06;0.002439343724855913
7.35350e-06;0.0024162930254728147
7.35375e-06;0.0023810962378911903
7.35400e-06;0.0023446899847371114
7.35425e-06;0.002308283731582909
7.35450e-06;0.0022611385817949098
7.35475e-06;0.002212924089717281
7.35500e-06;0.002164709597639489
7.35525e-06;0.002105335091579207
7.35550e-06;0.002044849309816138
7.35575e-06;0.0019843635280528643
7.35600e-06;0.0019238777462897952
7.35625e-06;0.0018633919645267263
7.35650e-06;0.0017998115669308505
7.35675e-06;0.00173176763681345
7.35700e-06;0.0016637237066958188
7.35725e-06;0.0015956797765784183
7.35750e-06;0.0015276358464610179
7.35775e-06;0.0014595919163433867
7.35800e-06;0.001393689678825464
7.35825e-06;0.0013280007036701104
7.35850e-06;0.0012623117285145344
7.35875e-06;0.0011966227533591809
7.35900e-06;0.0011394910585428978
7.35925e-06;0.0010832114681893375
7.35950e-06;0.0010269318778359678
7.35975e-06;0.000970652287482598
7.36000e-06;0.0009245978456767009
7.36025e-06;0.0008795615888977156
7.36050e-06;0.0008410282553487591
7.36075e-06;0.0008031424604668995
7.36100e-06;0.0007711349653687932
7.36125e-06;0.0007397128110893674
7.36150e-06;0.0007130767191622183
7.36175e-06;0.000690330918601017
7.36200e-06;0.0006714901007322983
7.36225e-06;0.0006564745797796675
7.36250e-06;0.0006448592633704708
7.36275e-06;0.0006362894840134701
7.36300e-06;0.0006306814277697281
7.36325e-06;0.0006294049847707055
7.36350e-06;0.0006285332086332014
7.36375e-06;0.0006331260075838216
7.36400e-06;0.0006382629500747569
7.36425e-06;0.0006484822136679414
7.36450e-06;0.000659207557267857
7.36475e-06;0.0006739265842161984
7.36500e-06;0.0006890432883784599
7.36525e-06;0.0007076679047075967
7.36550e-06;0.0007266418268317293
7.36575e-06;0.0007494949572670551
7.36600e-06;0.000772734365886757
7.36625e-06;0.0007959737745065375
7.36650e-06;0.0008228214363027892
7.36675e-06;0.0008500283955056748
7.36700e-06;0.0008772353547086527
7.36725e-06;0.0009044423139115383
7.36750e-06;0.000931649273114424
7.36775e-06;0.0009594646307470018
7.36800e-06;0.0009873405705967658
7.36825e-06;0.0010152165104465299
7.36850e-06;0.0010430924502963885
7.36875e-06;0.0010709683901461526
7.36900e-06;0.0010950661508679629
7.36925e-06;0.0011187876935430914
7.36950e-06;0.0011425092362181396
7.36975e-06;0.0011662307788931877
7.37000e-06;0.0011861875088897793
7.37025e-06;0.001205769351824492
7.37050e-06;0.0012253511947592712
7.37075e-06;0.001244933037693984
7.37100e-06;0.0012695950877261407
7.37125e-06;0.0012947630072596378
7.37150e-06;0.0013199309267930496
7.37175e-06;0.0013450988463264617
7.37200e-06;0.0013702667658599588
7.37225e-06;0.0013954346853933706
7.37250e-06;0.0014206026049267827
7.37275e-06;0.0014457705244602798
7.37300e-06;0.0014709384439936918
7.37325e-06;0.0014961063635271037
7.37350e-06;0.0015212742830606008
7.37375e-06;0.0015507822315083551
7.37400e-06;0.00158655003941703
7.37425e-06;0.0016223178473258261
7.37450e-06;0.0016580856552345009
7.37475e-06;0.0016938534631432969
7.37500e-06;0.0017296212710519719
7.37525e-06;0.0017653890789606466
7.37550e-06;0.0018011568868694428
7.37575e-06;0.0018369246947781176
7.37600e-06;0.0018726925026867924
7.37625e-06;0.0019084603105955886
7.37650e-06;0.0019442281185042634
7.37675e-06;0.0019819397596142446
7.37700e-06;0.0020198449609302445
7.37725e-06;0.0020577501622461155
7.37750e-06;0.002095655363561987
7.37775e-06;0.0021335605648779865
7.37800e-06;0.002171465766193858
7.37825e-06;0.002209370967509729
7.37850e-06;0.002243750837480352
7.37875e-06;0.0022730459305498325
7.37900e-06;0.0023023410236194123
7.37925e-06;0.0023316361166888927
7.37950e-06;0.002360931209758373
7.37975e-06;0.0023902263028279533
7.38000e-06;0.0024195213958974338
7.38025e-06;0.002448816488966914
7.38050e-06;0.0024557308968902597
7.38075e-06;0.0024604167133783546
7.38100e-06;0.0024651025298664496
7.38125e-06;0.00246978834635456
7.38150e-06;0.002474474162842655
7.38175e-06;0.00247915997933075
7.38200e-06;0.002483845795818861
7.38225e-06;0.002488531612306956
7.38250e-06;0.002493217428795051
7.38275e-06;0.0024979032452831615
7.38300e-06;0.0024899093089398466
7.38325e-06;0.0024636266763050003
7.38350e-06;0.002437344043670243
7.38375e-06;0.002411061411035485
7.38400e-06;0.002384778778400639
7.38425e-06;0.002358496145765881
7.38450e-06;0.0023322135131311236
7.38475e-06;0.002305930880496277
7.38500e-06;0.0022796482478615195
7.38525e-06;0.002253365615226762
7.38550e-06;0.0022270829825919154
7.38575e-06;0.0021865002422127937
7.38600e-06;0.0021444935464264353
7.38625e-06;0.002102486850639934
7.38650e-06;0.0020604801548535757
7.38675e-06;0.0020184734590672168
7.38700e-06;0.0019764667632807156
7.38725e-06;0.0019340104012741624
7.38750e-06;0.0018909054612516142
7.38775e-06;0.0018478005212292118
7.38800e-06;0.0018046955812068095
7.38825e-06;0.0017615906411842612
7.38850e-06;0.0017184857011618589
7.38875e-06;0.0016753807611394566
7.38900e-06;0.0016374320713424698
7.38925e-06;0.0015999968231587623
7.38950e-06;0.001562561574975055
7.38975e-06;0.001531688538827734
7.39000e-06;0.0015014689451215038
7.39025e-06;0.0014712493514152734
7.39050e-06;0.0014494409687840718
7.39075e-06;0.0014284701455408114
7.39100e-06;0.0014156512683671085
7.39125e-06;0.001403644133866177
7.39150e-06;0.0013997540073887949
7.39175e-06;0.0013966721445740598
7.39200e-06;0.0014017217943656408
7.39225e-06;0.0014075811521361732
7.39250e-06;0.0014221730627784902
7.39275e-06;0.0014376345309162909
7.39300e-06;0.0014617472415640721
7.39325e-06;0.0014867214131020626
7.39350e-06;0.001519591159562432
7.39375e-06;0.0015532471201409035
7.39400e-06;0.0015957957486570386
7.39425e-06;0.001639229878374488
7.39450e-06;0.0016826640080919372
7.39475e-06;0.0017357593192425232
7.39500e-06;0.0017898166575175385
7.39525e-06;0.0018438739957925539
7.39550e-06;0.0019075623770246645
7.39575e-06;0.0019722097842956323
7.39600e-06;0.0020368571915668193
7.39625e-06;0.002101504598837787
7.39650e-06;0.002166152006108755
7.39675e-06;0.0022307994133799426
7.39700e-06;0.0022993062748502577
7.39725e-06;0.0023681974474579976
7.39750e-06;0.002437088620065971
7.39775e-06;0.0025059797926737107
