Time(s);Current(A)
1.20000e-05;7.467322048729163e-05
1.20003e-05;2.7862536974042686e-05
1.20005e-05;-1.5108988838589063e-05
1.20008e-05;-5.381191207321533e-05
1.20010e-05;-8.788328810536983e-05
1.20013e-05;-0.0001171321483708647
1.20015e-05;-0.00014148203244541198
1.20018e-05;-0.00016087386005556536
1.20020e-05;-0.0001752485684918485
1.20023e-05;-0.00018454712962963555
1.20025e-05;-0.0001887084277600976
1.20028e-05;-0.0001876642141735252
1.20030e-05;-0.00018138786503713172
1.20033e-05;-0.00016996053784414913
1.20035e-05;-0.0001535350816188692
1.20038e-05;-0.00013227522171721767
1.20040e-05;-0.00010634473291974624
1.20043e-05;-7.590735799590834e-05
1.20045e-05;-4.112555617415532e-05
1.20048e-05;-2.1572857426783394e-06
1.20050e-05;4.0813389107821454e-05
1.20052e-05;8.753494318068825e-05
1.20055e-05;0.0001377109257474335
1.20058e-05;0.0001910380974753725
1.20060e-05;0.00024721323860025965
1.20063e-05;0.0003059331143217413
1.20065e-05;0.00036692364607594633
1.20068e-05;0.0004305917676597061
1.20070e-05;0.0004943578203250903
1.20073e-05;0.0005608643137625934
1.20075e-05;0.0006273708072000964
1.20078e-05;0.0006938773006371488
1.20080e-05;0.0007603837940746518
1.20083e-05;0.000826890287512155
1.20085e-05;0.0008933967809492073
1.20088e-05;0.0009597416349289031
1.20090e-05;0.0010215632736906121
1.20093e-05;0.0010833849124519024
1.20095e-05;0.0011449811348105132
1.20098e-05;0.0012002694486985266
1.20100e-05;0.0012553071371683667
1.20103e-05;0.0013033314842203448
1.20105e-05;0.0013511337814713655
1.20108e-05;0.0013927223790916106
1.20110e-05;0.0014343109767121377
1.20113e-05;0.001475760776758053
1.20115e-05;0.0015133265542352078
1.20118e-05;0.001550892331712617
1.20120e-05;0.001588458109190026
1.20123e-05;0.0016260238866671807
1.20125e-05;0.0016635896641445898
1.20128e-05;0.001701155441621999
1.20130e-05;0.0017386123748441885
1.20133e-05;0.0017730234800384505
1.20135e-05;0.0018074345852327127
1.20137e-05;0.0018418456904267415
1.20140e-05;0.0018762567956210037
1.20143e-05;0.0019106679008152657
1.20145e-05;0.0019450790060092946
1.20148e-05;0.001979466161898415
1.20150e-05;0.0020131831357470555
1.20153e-05;0.0020469001095956966
1.20155e-05;0.002080617083444109
1.20158e-05;0.00211433405729275
1.20160e-05;0.002148051031141391
1.20163e-05;0.002181768004989803
1.20165e-05;0.002215484978838444
1.20168e-05;0.002249201952687085
1.20170e-05;0.0022829189265354977
1.20173e-05;0.002316468157242566
1.20175e-05;0.0023453233711380065
1.20178e-05;0.002374178585033251
1.20180e-05;0.0024030337989286907
1.20183e-05;0.002431889012824131
1.20185e-05;0.0024607442267193754
1.20188e-05;0.002489599440614816
1.20190e-05;0.0025184546545102557
1.20193e-05;0.0025473098684055005
1.20195e-05;0.0025761650823009404
1.20198e-05;0.0026047953514796466
1.20200e-05;0.002627130911540533
1.20203e-05;0.0026490551310880996
1.20205e-05;0.0026594686607260246
1.20208e-05;0.0026698821903638793
1.20210e-05;0.0026802957200018048
1.20213e-05;0.00269070924963973
1.20215e-05;0.0027011227792775845
1.20218e-05;0.00271153630891551
1.20220e-05;0.0027219498385534354
1.20222e-05;0.00273236336819129
1.20225e-05;0.002742776897829215
1.20228e-05;0.0027531904274671407
1.20230e-05;0.0027636039571049954
1.20233e-05;0.002774017486742921
1.20235e-05;0.002783849841485245
1.20238e-05;0.0027774189695572707
1.20240e-05;0.00277098809762934
1.20243e-05;0.002764557225701366
1.20245e-05;0.0027581263537733917
1.20248e-05;0.0027516954818454613
1.20250e-05;0.002745264609917487
1.20253e-05;0.0027388337379895132
1.20255e-05;0.0027324028660615824
1.20258e-05;0.0027259719941336085
1.20260e-05;0.0027195411222056343
1.20263e-05;0.002713110250277704
1.20265e-05;0.0027066793783497296
1.20268e-05;0.002700025789202473
1.20270e-05;0.0026871398237956656
1.20273e-05;0.002674253858388771
1.20275e-05;0.0026613678929818764
1.20278e-05;0.0026484819275750687
1.20280e-05;0.0026355959621681743
1.20283e-05;0.0026227099967612794
1.20285e-05;0.002609824031354472
1.20288e-05;0.0025976796467032603
1.20290e-05;0.0025861811035798564
1.20293e-05;0.0025746825604565297
1.20295e-05;0.002563184017333126
1.20298e-05;0.0025516854742097216
1.20300e-05;0.0025401869310863953
1.20303e-05;0.002528688387962991
1.20305e-05;0.002517130826142806
1.20307e-05;0.002503921722846695
1.20310e-05;0.002490712619550494
1.20313e-05;0.002477095194081634
1.20315e-05;0.0024520515419993207
1.20318e-05;0.002427007889916838
1.20320e-05;0.0024016103195229586
1.20323e-05;0.0023663089253832315
1.20325e-05;0.002331007531243744
1.20328e-05;0.002295243938587234
1.20330e-05;0.0022465464781444527
1.20333e-05;0.0021978490177020013
1.20335e-05;0.0021486688873383545
1.20338e-05;0.002085982030502274
1.20340e-05;0.0020232951736666185
1.20343e-05;0.0019602336646956115
1.20345e-05;0.0018866881299110163
1.20348e-05;0.0018131425951269193
1.20350e-05;0.0017392092363517373
1.20353e-05;0.0016544232589732499
1.20355e-05;0.0015696372815953367
1.20358e-05;0.0014845860756869931
1.20360e-05;0.0013921128841674149
1.20363e-05;0.0012996396926484631
1.20365e-05;0.0012070120002685772
1.20368e-05;0.0011100608545898186
1.20370e-05;0.0010131097089117168
1.20373e-05;0.0009161585632329582
1.20375e-05;0.0008186757732462973
1.20378e-05;0.0007207299750585131
1.20380e-05;0.0006227841768700652
1.20383e-05;0.0005249698845250341
1.20385e-05;0.00043083556762958355
1.20388e-05;0.0003368187345353159
1.20390e-05;0.00024618267525309927
1.20392e-05;0.00015826731295906353
1.20395e-05;7.365298755664793e-05
1.20398e-05;-7.0314404719816935e-06
1.20400e-05;-8.315721689927678e-05
1.20403e-05;-0.0001540969219029865
1.20405e-05;-0.0002192757470324272
1.20408e-05;-0.00027864448511477917
1.20410e-05;-0.00033280212833308243
1.20413e-05;-0.00038214517405284757
1.20415e-05;-0.0004265676335749385
1.20418e-05;-0.00046583749417519255
1.20420e-05;-0.0004997228324499826
1.20423e-05;-0.0005279926386937995
1.20425e-05;-0.0005504487885114906
1.20428e-05;-0.0005672225746743921
1.20430e-05;-0.0005788509745399094
1.20433e-05;-0.0005857444862163854
1.20435e-05;-0.000587998548580702
1.20438e-05;-0.0005856298070155182
1.20440e-05;-0.000578654858737467
1.20443e-05;-0.0005670910077556709
1.20445e-05;-0.0005509760870681032
1.20448e-05;-0.0005305541486024265
1.20450e-05;-0.0005063236511712568
1.20453e-05;-0.00047870351431276835
1.20455e-05;-0.00044791540282645455
1.20458e-05;-0.00041413158228435136
1.20460e-05;-0.00037752431825914025
1.20463e-05;-0.0003382661845996264
1.20465e-05;-0.0002965427900007786
1.20468e-05;-0.0002526688480167958
1.20470e-05;-0.0002071182794750517
1.20473e-05;-0.00016031526166223047
1.20475e-05;-0.00011256039109931875
1.20477e-05;-6.412324979428887e-05
1.20480e-05;-1.5273435873986787e-05
1.20483e-05;3.371926299921069e-05
1.20485e-05;8.257697522708683e-05
1.20488e-05;0.00013094094040501633
1.20490e-05;0.00017835264984545046
1.20493e-05;0.00022438485185882106
1.20495e-05;0.00026868774288680127
1.20498e-05;0.0003109309372507925
1.20500e-05;0.00035078407737097967
1.20503e-05;0.00038791881799726764
1.20505e-05;0.00042207375813809584
1.20508e-05;0.00045338539062136213
1.20510e-05;0.00048467523893303916
1.20513e-05;0.0005153554929183771
1.20515e-05;0.000545995662816699
1.20518e-05;0.0005755141452470265
1.20520e-05;0.0006050326276775542
1.20523e-05;0.0006344760185190376
1.20525e-05;0.0006618180943334784
1.20528e-05;0.0006891601701481044
1.20530e-05;0.0007165022459627305
1.20533e-05;0.0007438443217771712
1.20535e-05;0.0007711863975917973
1.20538e-05;0.0007985284734064234
1.20540e-05;0.0008258854686914097
1.20543e-05;0.0008536599609035818
1.20545e-05;0.0008814344531157539
1.20548e-05;0.0009092089453277377
1.20550e-05;0.0009369834375399099
1.20553e-05;0.0009647579297520819
1.20555e-05;0.0009925324219640656
1.20558e-05;0.0010202985271741555
1.20560e-05;0.0010478299358789727
1.20562e-05;0.0010753613445836033
1.20565e-05;0.0011028927532884206
1.20568e-05;0.001130424161993238
1.20570e-05;0.0011579555706978687
1.20573e-05;0.001185486979402686
1.20575e-05;0.0012130183881075033
1.20578e-05;0.001240418347704289
1.20580e-05;0.0012641399194830067
1.20583e-05;0.0012878614912618853
1.20585e-05;0.0013115830630407639
1.20588e-05;0.0013353046348194818
1.20590e-05;0.0013590262065983603
1.20593e-05;0.0013827477783772389
1.20595e-05;0.0014064693501559568
1.20598e-05;0.0014298629336549338
1.20600e-05;0.00144407830277111
1.20603e-05;0.0014582936718871898
1.20605e-05;0.0014725090410033662
1.20608e-05;0.0014867244101195423
1.20610e-05;0.0015009397792356224
1.20613e-05;0.0015151551483517985
1.20615e-05;0.0015293705174679749
1.20618e-05;0.0015435858865840547
1.20620e-05;0.001557801255700231
1.20623e-05;0.0015720166248164072
1.20625e-05;0.0015859564161412553
1.20628e-05;0.0015921846146925741
1.20630e-05;0.001598412813243893
1.20633e-05;0.0016046410117951698
1.20635e-05;0.0016108692103464885
1.20638e-05;0.0016170974088978074
1.20640e-05;0.0016233256074490842
1.20643e-05;0.001629553806000403
1.20645e-05;0.0016357820045517218
1.20647e-05;0.0016420102031029986
1.20650e-05;0.0016482384016543174
1.20653e-05;0.0016543210223419241
1.20655e-05;0.0016563298851353563
1.20658e-05;0.0016583387479288019
1.20660e-05;0.0016603476107222475
1.20663e-05;0.001662356473515693
1.20665e-05;0.001664365336309125
1.20668e-05;0.0016663741991025706
1.20670e-05;0.0016683830618960162
1.20673e-05;0.001670391924689448
1.20675e-05;0.0016724007874828937
1.20678e-05;0.0016743485011616204
1.20680e-05;0.0016745850570955715
1.20683e-05;0.0016748216130295238
1.20685e-05;0.0016750581689634763
1.20688e-05;0.0016752947248974274
1.20690e-05;0.0016755312808313797
1.20693e-05;0.0016757678367653323
1.20695e-05;0.001676004392699283
1.20698e-05;0.0016762409486332356
1.20700e-05;0.0016764775045671882
1.20703e-05;0.0016766530573238687
1.20705e-05;0.0016751215361550172
1.20708e-05;0.001673590014986166
1.20710e-05;0.0016717429356265198
1.20713e-05;0.0016610654775289825
1.20715e-05;0.0016503880194314452
1.20718e-05;0.001639428458290873
1.20720e-05;0.0016205747058826963
1.20723e-05;0.001601453029121296
1.20725e-05;0.0015748339284887094
1.20728e-05;0.0015482148278559427
1.20730e-05;0.0015212425647101774
1.20732e-05;0.0014843876275034734
1.20735e-05;0.0014472639237908108
1.20738e-05;0.0014026192299467905
1.20740e-05;0.0013577509807399762
1.20743e-05;0.0013066269011213732
1.20745e-05;0.00125529569815675
1.20748e-05;0.0011981684878451585
1.20750e-05;0.001140819957423285
1.20753e-05;0.0010772781464637074
1.20755e-05;0.001013526429305752
1.20758e-05;0.0009439008312381852
1.20760e-05;0.0008742752331701466
1.20763e-05;0.000804498469381642
1.20765e-05;0.0007304915806771482
1.20768e-05;0.0006564846919721529
1.20770e-05;0.000582391867285586
1.20773e-05;0.0005058942650096003
1.20775e-05;0.0004293966627330963
1.20778e-05;0.00035305952755896046
1.20780e-05;0.0002768621429356662
1.20783e-05;0.00020072737570407288
1.20785e-05;0.0001263999661883896
1.20788e-05;5.367701139493273e-05
1.20790e-05;-1.7231991058099436e-05
1.20793e-05;-8.601597842695128e-05
1.20795e-05;-0.000152215855418205
1.20798e-05;-0.0002153392360296861
1.20800e-05;-0.0002748938294708479
1.20803e-05;-0.0003303881040852105
1.20805e-05;-0.0003813623531039623
1.20808e-05;-0.00042767900029586336
1.20810e-05;-0.00046961805714723436
1.20813e-05;-0.0005073771560154003
1.20815e-05;-0.0005408716273327581
1.20817e-05;-0.0005699433168678125
1.20820e-05;-0.0005944339640158453
1.20823e-05;-0.0006141859406899226
1.20825e-05;-0.0006290614773163521
1.20828e-05;-0.0006391246398353821
1.20830e-05;-0.0006447011573816258
1.20833e-05;-0.0006460648773576742
1.20835e-05;-0.0006433131541365608
1.20838e-05;-0.0006364969836540637
1.20840e-05;-0.0006256675284359404
1.20843e-05;-0.000610876188022139
1.20845e-05;-0.000592186878905457
1.20848e-05;-0.0005697900599274604
1.20850e-05;-0.0005440397876384719
1.20853e-05;-0.000515257926072633
1.20855e-05;-0.000483655492461782
1.20858e-05;-0.00044941459148164776
1.20860e-05;-0.0004127173860148911
1.20863e-05;-0.0003737462728799344
1.20865e-05;-0.00033269132472270215
1.20868e-05;-0.00028980292957612867
1.20870e-05;-0.00024497862144244457
1.20873e-05;-0.000200097555496498
1.20875e-05;-0.00015362821519188677
1.20878e-05;-0.00010713888777965761
1.20880e-05;-6.009025392001793e-05
1.20883e-05;-1.3049518255130025e-05
1.20885e-05;3.3750836588110934e-05
1.20888e-05;7.997982497092233e-05
1.20890e-05;0.00012525456816963164
1.20893e-05;0.000169204935088998
1.20895e-05;0.0002115042791215305
1.20898e-05;0.00025183736212820013
1.20900e-05;0.00028988894546704946
1.20902e-05;0.0003253464434860229
1.20905e-05;0.00035802306638049356
1.20908e-05;0.0003891752632298794
1.20910e-05;0.00042032746007905424
1.20913e-05;0.0004515788033249395
1.20915e-05;0.0004856045959783015
1.20918e-05;0.0005196303886316634
1.20920e-05;0.0005536884183904483
1.20923e-05;0.0005886485507155164
1.20925e-05;0.0006236466682727798
1.20928e-05;0.0006597077402961209
1.20930e-05;0.0006959035249353394
1.20933e-05;0.000735869021333848
1.20935e-05;0.0007759694054056426
1.20938e-05;0.0008198443999468506
1.20940e-05;0.0008637193944880585
1.20943e-05;0.0009076925593852703
1.20945e-05;0.0009544128608072504
1.20948e-05;0.0010011331622292305
1.20950e-05;0.0010480394274101639
1.20953e-05;0.0011001495836097483
1.20955e-05;0.0011522597398093326
1.20958e-05;0.001204369896008564
1.20960e-05;0.0012564800522081483
1.20963e-05;0.0013085902084077328
1.20965e-05;0.001360770145450588
1.20968e-05;0.0014149027850362719
1.20970e-05;0.0014690354246219557
1.20973e-05;0.0015231680642072726
1.20975e-05;0.0015773007037929562
1.20978e-05;0.00163143334337864
1.20980e-05;0.0016854150884882046
1.20983e-05;0.001735174298998892
1.20985e-05;0.0017849335095095793
1.20987e-05;0.0018346927200199297
1.20990e-05;0.001884451930530617
1.20993e-05;0.0019342111410413044
1.20995e-05;0.0019778182023635947
1.20998e-05;0.0020160673665059864
1.21000e-05;0.0020543165306483786
1.21003e-05;0.0020925656947907703
1.21005e-05;0.002130814858932903
1.21008e-05;0.0021685223938389224
1.21010e-05;0.0021910733222453398
1.21013e-05;0.002213201793978538
1.21015e-05;0.002223508508081199
1.21018e-05;0.0022334002645514562
1.21020e-05;0.002231680111756147
1.21023e-05;0.002229548367261014
1.21025e-05;0.0022158989036074033
1.21028e-05;0.0022017954407167295
1.21030e-05;0.0021749875532369755
1.21033e-05;0.0021477246623634806
1.21035e-05;0.0021077292472275336
1.21038e-05;0.002067323007567071
1.21040e-05;0.002015420516899072
1.21043e-05;0.0019631487898528915
1.21045e-05;0.0019005445878953078
1.21048e-05;0.0018375840670284147
1.21050e-05;0.0017646525454567362
1.21053e-05;0.0016913381323165719
1.21055e-05;0.0016073091261657102
1.21058e-05;0.001523280120015418
1.21060e-05;0.0014389249798997838
1.21063e-05;0.0013454435152778625
1.21065e-05;0.0012519620506565745
1.21068e-05;0.001158277953947322
1.21070e-05;0.0010589235303647682
1.21072e-05;0.0009595691067828875
1.21075e-05;0.0008601656261386905
1.21078e-05;0.0007593893640230033
1.21080e-05;0.000658613101907999
1.21083e-05;0.0005579307103502117
1.21085e-05;0.0004598751325132809
1.21088e-05;0.00036192904087197587
1.21090e-05;0.0002671431470349195
1.21093e-05;0.00017517334914984967
1.21095e-05;8.665588023433954e-05
1.21098e-05;2.2489980076592365e-06
1.21100e-05;-7.73890928143123e-05
1.21103e-05;-0.00015160297327381785
1.21105e-05;-0.00021985026696992957
1.21108e-05;-0.00028268554496925676
1.21110e-05;-0.00034189297395516814
1.21113e-05;-0.0003985783063508877
1.21115e-05;-0.00045264059820040135
1.21118e-05;-0.0005036935312827806
1.21120e-05;-0.0005513509569793839
1.21123e-05;-0.0005952284467758665
1.21125e-05;-0.0006349675837902713
1.21128e-05;-0.0006698204684998701
1.21130e-05;-0.0007045318524967246
1.21133e-05;-0.000735283570937749
1.21135e-05;-0.000765890152614932
1.21138e-05;-0.0007924353198170619
1.21140e-05;-0.0008188060881310429
1.21143e-05;-0.0008402965893707931
1.21145e-05;-0.0008616007914639156
1.21148e-05;-0.0008776917172468345
1.21150e-05;-0.0008937826430296445
1.21153e-05;-0.0009097356693395863
1.21155e-05;-0.0009218298048909892
1.21158e-05;-0.0009339239404423103
1.21160e-05;-0.000945861138383005
1.21163e-05;-0.0009534066944799861
1.21165e-05;-0.0009609522505769158
1.21168e-05;-0.0009683422597721517
1.21170e-05;-0.0009713795438340024
1.21173e-05;-0.0009744168278958532
1.21175e-05;-0.0009774541119576834
1.21178e-05;-0.000980491396019534
1.21180e-05;-0.0009835286800813849
1.21183e-05;-0.000986565964143215
1.21185e-05;-0.0009895019021325976
1.21188e-05;-0.000989601836371006
1.21190e-05;-0.0009897017706094137
1.21193e-05;-0.000989801704847822
1.21195e-05;-0.0009899016390862306
1.21198e-05;-0.0009900015733246383
1.21200e-05;-0.0009901015075630467
1.21203e-05;-0.0009901746009851847
1.21205e-05;-0.0009894965981508692
1.21208e-05;-0.0009886120885246115
1.21210e-05;-0.0009819488247492032
1.21213e-05;-0.0009749807693523411
1.21215e-05;-0.0009594836199184005
1.21218e-05;-0.0009437761017066758
1.21220e-05;-0.000922053175760456
1.21223e-05;-0.0008966106960929344
1.21225e-05;-0.0008676362700989952
1.21228e-05;-0.0008347120562655468
1.21230e-05;-0.0007968098785029851
1.21233e-05;-0.0007534186788450371
1.21235e-05;-0.0007047812690207418
1.21238e-05;-0.0006513106303752749
1.21240e-05;-0.0005934196820305458
1.21243e-05;-0.0005315202044953598
1.21245e-05;-0.000465983782970189
1.21248e-05;-0.00039680273902831557
1.21250e-05;-0.0003235871418320669
1.21253e-05;-0.00024627090568643626
1.21255e-05;-0.00016526029665619633
1.21258e-05;-8.106802086435331e-05
1.21260e-05;5.793260452759476e-06
1.21263e-05;9.481156542536732e-05
1.21265e-05;0.00018550016094443086
1.21268e-05;0.0002776309149305633
1.21270e-05;0.0003717184037634468
1.21273e-05;0.00046584413855030375
1.21275e-05;0.0005610401236827531
1.21278e-05;0.0006562361088158475
1.21280e-05;0.000751432093948942
1.21283e-05;0.0008443456922381231
1.21285e-05;0.0009352715633666056
1.21288e-05;0.001026197434495088
1.21290e-05;0.0011168856166163756
1.21293e-05;0.0012009224613989068
1.21295e-05;0.0012846961328306257
1.21298e-05;0.0013611053293112166
1.21300e-05;0.001437166947063245
1.21303e-05;0.0015035021436700599
1.21305e-05;0.0015694321028814982
1.21308e-05;0.0016240221576691936
1.21310e-05;0.0016782070031783436
1.21313e-05;0.001721052731053882
1.21315e-05;0.0017634780165972262
1.21318e-05;0.0017941379124531596
1.21320e-05;0.00182440906774694
1.21323e-05;0.001843801955449528
1.21325e-05;0.001853968274362506
1.21328e-05;0.0018661150558787378
1.21330e-05;0.0018698044696831885
1.21333e-05;0.0018641699280265167
1.21335e-05;0.0018415142576012917
1.21338e-05;0.001827989637433155
1.21340e-05;0.001807859484188909
1.21343e-05;0.0017818544549761373
1.21345e-05;0.0017507655056740842
1.21348e-05;0.0017151587735477589
1.21350e-05;0.0016732828513277935
1.21353e-05;0.0016258358660647377
1.21355e-05;0.0015742349806725099
1.21358e-05;0.0015189427668712153
1.21360e-05;0.0014609736945179383
1.21363e-05;0.0014006258543280046
1.21365e-05;0.0013370977954318564
1.21368e-05;0.0012707436619331406
1.21370e-05;0.0012043895284339753
1.21373e-05;0.0011352806494709124
1.21375e-05;0.0010637237891231877
1.21378e-05;0.000992166928774978
1.21380e-05;0.0009206100684267681
1.21383e-05;0.0008490532080790433
1.21385e-05;0.0007774963477308335
1.21388e-05;0.0007076166268710505
1.21390e-05;0.0006392272819110628
1.21393e-05;0.0005718091322381317
1.21395e-05;0.0005067176466176663
1.21398e-05;0.00044509950153670465
1.21400e-05;0.000387442048945978
1.21403e-05;0.00033379770934704073
1.21405e-05;0.0002847123385161675
1.21408e-05;0.00024071897813533345
1.21410e-05;0.00020205168466935484
1.21413e-05;0.00016870918512840703
1.21415e-05;0.00014101567375139694
1.21418e-05;0.00011961910209469409
1.21420e-05;0.00010457665994363958
1.21423e-05;9.56731055179741e-05
1.21425e-05;9.300230967672392e-05
1.21427e-05;9.665006547758225e-05
1.21430e-05;0.00010651486743260959
1.21433e-05;0.00012234782943194343
1.21435e-05;0.00014410391529920063
1.21438e-05;0.0001719408800682387
1.21440e-05;0.00020564643087934571
1.21443e-05;0.0002448376275169674
1.21445e-05;0.00028932517476507887
1.21448e-05;0.0003389147182464761
1.21450e-05;0.0003932945940881826
1.21453e-05;0.0004520608415391424
1.21455e-05;0.000514937217494405
1.21458e-05;0.0005817745118680648
