Time(s);Current(A)
6.00000e-06;0.0076766882745337986
6.00025e-06;0.007667014292630311
6.00050e-06;0.007657340310726857
6.00075e-06;0.0076476663288234025
6.00100e-06;0.007637992346919915
6.00125e-06;0.007628318365016461
6.00150e-06;0.0076186443831130065
6.00175e-06;0.00760897040120952
6.00200e-06;0.007599296419306066
6.00225e-06;0.007589622437402611
6.00250e-06;0.007579948455499124
6.00275e-06;0.00757027447359567
6.00300e-06;0.00756469495905478
6.00325e-06;0.007564403361956668
6.00350e-06;0.007564111764858555
6.00375e-06;0.0075638201677604424
6.00400e-06;0.00756352857066233
6.00425e-06;0.007563236973564218
6.00450e-06;0.0075629453764661046
6.00475e-06;0.007562653779367993
6.00500e-06;0.007562362182269881
6.00525e-06;0.0075620705851717675
6.00550e-06;0.007561778988073656
6.00575e-06;0.007561487390975543
6.00600e-06;0.0075611957938774305
6.00625e-06;0.007560904196779318
6.00650e-06;0.007560612599681206
6.00675e-06;0.0075664234202150295
6.00700e-06;0.007580115383222082
6.00725e-06;0.007593807346229135
6.00750e-06;0.007607499309236234
6.00775e-06;0.007621191272243287
6.00800e-06;0.007634883235250386
6.00825e-06;0.007648575198257439
6.00850e-06;0.007662267161264492
6.00875e-06;0.007675959124271591
6.00900e-06;0.007689651087278643
6.00925e-06;0.007703343050285696
6.00950e-06;0.007717035013292795
6.00975e-06;0.007730726976299848
6.01000e-06;0.007744418939306901
6.01025e-06;0.007758110902314
6.01050e-06;0.007771214581290384
6.01075e-06;0.007783558503963652
6.01100e-06;0.007795902426636963
6.01125e-06;0.007808246349310232
6.01150e-06;0.0078205902719835
6.01175e-06;0.007832934194656811
6.01200e-06;0.00784527811733008
6.01225e-06;0.007857622040003391
6.01250e-06;0.00786996596267666
6.01275e-06;0.007882309885349928
6.01300e-06;0.007894653808023238
6.01325e-06;0.007906997730696507
6.01350e-06;0.007919341653369777
6.01375e-06;0.007931685576043087
6.01400e-06;0.007944029498716356
6.01425e-06;0.007956373421389626
6.01450e-06;0.007968717344062935
6.01475e-06;0.007981061266736204
6.01500e-06;0.007993405189409473
6.01525e-06;0.008005749112082784
6.01550e-06;0.008018093034756053
6.01575e-06;0.008030436957429322
6.01600e-06;0.008039828997670454
6.01625e-06;0.008049020545039302
6.01650e-06;0.008058212092408182
6.01675e-06;0.00806740363977703
6.01700e-06;0.00807659518714588
6.01725e-06;0.00808578673451476
6.01750e-06;0.00809497828188361
6.01775e-06;0.008104169829252458
6.01800e-06;0.008113361376621338
6.01825e-06;0.008122552923990186
6.01850e-06;0.008131744471359035
6.01875e-06;0.008140936018727915
6.01900e-06;0.008150127566096763
6.01925e-06;0.008159319113465612
6.01950e-06;0.008168510660834492
6.01975e-06;0.008177702208203342
6.02000e-06;0.00818689375557219
6.02025e-06;0.00819608530294107
6.02050e-06;0.008205276850309919
6.02075e-06;0.008214468397678799
6.02100e-06;0.008223659945047647
6.02125e-06;0.008230747073368284
6.02150e-06;0.008235116389284392
6.02175e-06;0.008239485705200486
6.02200e-06;0.008243855021116579
6.02225e-06;0.008248224337032688
6.02250e-06;0.008252593652948781
6.02275e-06;0.008256962968864875
6.02300e-06;0.008261332284780983
6.02325e-06;0.008265701600697077
6.02350e-06;0.008270070916613172
6.02375e-06;0.00827444023252928
6.02400e-06;0.008278809548445374
6.02425e-06;0.008283178864361468
6.02450e-06;0.008287548180277576
6.02475e-06;0.00829191749619367
6.02500e-06;0.008282235819505877
6.02525e-06;0.008271599794558052
6.02550e-06;0.008260963769610228
6.02575e-06;0.008250327744662365
6.02600e-06;0.00823969171971454
6.02625e-06;0.008229055694766715
6.02650e-06;0.008218419669818853
6.02675e-06;0.008207783644871028
6.02700e-06;0.008197147619923203
6.02725e-06;0.00818651159497534
6.02750e-06;0.008175875570027516
6.02775e-06;0.008165239545079691
6.02800e-06;0.008154603520131828
6.02825e-06;0.008143967495184003
6.02850e-06;0.00812919590339787
6.02875e-06;0.00810908331507347
6.02900e-06;0.008088970726749141
6.02925e-06;0.008068858138424742
6.02950e-06;0.008048745550100413
6.02975e-06;0.008028632961776083
6.03000e-06;0.008008520373451684
6.03025e-06;0.007988407785127355
6.03050e-06;0.007968295196803024
6.03075e-06;0.007948182608478627
6.03100e-06;0.007928070020154296
6.03125e-06;0.007909418321098807
6.03150e-06;0.00789265332943603
6.03175e-06;0.007875888337773312
6.03200e-06;0.007859123346110592
6.03225e-06;0.007842358354447817
6.03250e-06;0.007825593362785098
6.03275e-06;0.007808828371122379
6.03300e-06;0.007792063379459603
6.03325e-06;0.007775298387796884
6.03350e-06;0.007758533396134108
6.03375e-06;0.007741768404471389
6.03400e-06;0.007725679337587609
6.03425e-06;0.007710463213167326
6.03450e-06;0.007695247088747094
6.03475e-06;0.007680030964326862
6.03500e-06;0.007664814839906579
6.03525e-06;0.007649598715486347
6.03550e-06;0.007634382591066115
6.03575e-06;0.0076191664666458315
6.03600e-06;0.0076039503422256
6.03625e-06;0.007588734217805368
6.03650e-06;0.007573518093385085
6.03675e-06;0.007558301968964853
6.03700e-06;0.007543085844544621
6.03725e-06;0.007527869720124337
6.03750e-06;0.007512653595704106
6.03775e-06;0.007497437471283822
6.03800e-06;0.007482221346863591
6.03825e-06;0.0074670052224433585
6.03850e-06;0.007451789098023075
6.03875e-06;0.0074363064440653584
6.03900e-06;0.007420805687329622
6.03925e-06;0.007405304930593834
6.03950e-06;0.007389804173858098
6.03975e-06;0.007374303417122362
6.04000e-06;0.007358802660386574
6.04025e-06;0.007343301903650838
6.04050e-06;0.007327801146915103
6.04075e-06;0.007312300390179314
6.04100e-06;0.0072967996334435785
6.04125e-06;0.007281298876707842
6.04150e-06;0.0072657981199720535
6.04175e-06;0.007250297363236318
6.04200e-06;0.007234796606500529
6.04225e-06;0.007219295849764794
6.04250e-06;0.007203795093029058
6.04275e-06;0.00718829433629327
6.04300e-06;0.007172793579557534
6.04325e-06;0.007155358439139814
6.04350e-06;0.0071354250833745355
6.04375e-06;0.007115491727609325
6.04400e-06;0.0070955583718441155
6.04425e-06;0.007075625016078837
6.04450e-06;0.007055691660313627
6.04475e-06;0.0070357583045484165
6.04500e-06;0.007015824948783139
6.04525e-06;0.006995891593017929
6.04550e-06;0.006966564994023009
6.04575e-06;0.006925107221354003
6.04600e-06;0.006883649448685138
6.04625e-06;0.006842191676016133
6.04650e-06;0.006800733903347267
6.04675e-06;0.006759276130678403
6.04700e-06;0.006717818358009397
6.04725e-06;0.006676360585340532
6.04750e-06;0.006634902812671668
6.04775e-06;0.006585649987078332
6.04800e-06;0.006526330016569916
6.04825e-06;0.0064670100460615
6.04850e-06;0.006407690075552881
6.04875e-06;0.006348370105044465
6.04900e-06;0.006289050134536049
6.04925e-06;0.0062297301640274316
6.04950e-06;0.0061704101935190145
6.04975e-06;0.006111090223010598
6.05000e-06;0.0060514180595068485
6.05025e-06;0.0059912910462473845
6.05050e-06;0.005931164032987718
6.05075e-06;0.005871037019728254
6.05100e-06;0.00581091000646879
6.05125e-06;0.005750782993209122
6.05150e-06;0.005690655979949658
6.05175e-06;0.005630528966690194
6.05200e-06;0.005570401953430526
6.05225e-06;0.005521615270114539
6.05250e-06;0.005487474381512997
6.05275e-06;0.0054533334929113405
6.05300e-06;0.005419192604309799
6.05325e-06;0.0053850517157082575
6.05350e-06;0.005350910827106601
6.05375e-06;0.005316769938505059
6.05400e-06;0.005282629049903518
6.05425e-06;0.00524848816130186
6.05450e-06;0.005214347272700318
6.05475e-06;0.005180206384098661
6.05500e-06;0.00514606549549712
6.05525e-06;0.005127664809099805
6.05550e-06;0.005129592258778193
6.05575e-06;0.005131519708456574
6.05600e-06;0.005133447158134955
6.05625e-06;0.005135374607813343
6.05650e-06;0.005137302057491725
6.05675e-06;0.005139229507170106
6.05700e-06;0.005141156956848494
6.05725e-06;0.005143084406526875
6.05750e-06;0.005145011856205256
6.05775e-06;0.005146939305883644
6.05800e-06;0.0051488667555620255
6.05825e-06;0.005159882505063501
6.05850e-06;0.00518263560031788
6.05875e-06;0.005205388695572182
6.05900e-06;0.005228141790826561
6.05925e-06;0.005250894886080863
6.05950e-06;0.005273647981335165
6.05975e-06;0.005296401076589545
6.06000e-06;0.005319154171843846
6.06025e-06;0.005341907267098148
6.06050e-06;0.005364660362352528
6.06075e-06;0.0053877000914045745
6.06100e-06;0.005411110001904624
6.06125e-06;0.005434519912404753
6.06150e-06;0.005457929822904803
6.06175e-06;0.0054813397334048525
6.06200e-06;0.005504749643904981
6.06225e-06;0.005528159554405031
6.06250e-06;0.005551569464905081
6.06275e-06;0.005574979375405209
6.06300e-06;0.005598389285905259
6.06325e-06;0.005620331145678664
6.06350e-06;0.005640377049190009
6.06375e-06;0.0056604229527013545
6.06400e-06;0.0056804688562127675
6.06425e-06;0.005700514759724113
6.06450e-06;0.005720560663235458
6.06475e-06;0.005740606566746872
6.06500e-06;0.005760652470258218
6.06525e-06;0.005780698373769563
6.06550e-06;0.005800744277280976
6.06575e-06;0.005820790180792321
6.06600e-06;0.005840836084303667
6.06625e-06;0.00586480864730868
6.06650e-06;0.005893852407459351
6.06675e-06;0.005922896167610022
6.06700e-06;0.005951939927760791
6.06725e-06;0.005980983687911462
6.06750e-06;0.006010027448062232
6.06775e-06;0.006039071208212903
6.06800e-06;0.006068114968363574
6.06825e-06;0.006097158728514343
6.06850e-06;0.006126202488665014
6.06875e-06;0.006155246248815685
6.06900e-06;0.006184290008966455
6.06925e-06;0.006214649068452883
6.06950e-06;0.006246706809031415
6.06975e-06;0.006278764549610055
6.07000e-06;0.006310822290188587
6.07025e-06;0.006342880030767118
6.07050e-06;0.006374937771345759
6.07075e-06;0.006406995511924291
6.07100e-06;0.006439053252502823
6.07125e-06;0.006471110993081462
6.07150e-06;0.006503168733659994
6.07175e-06;0.006527173182762208
6.07200e-06;0.006550630649533932
6.07225e-06;0.006574088116305656
6.07250e-06;0.006597545583077459
6.07275e-06;0.006621003049849183
6.07300e-06;0.006644460516620907
6.07325e-06;0.006667917983392711
6.07350e-06;0.006691375450164435
6.07375e-06;0.0067148329169361585
6.07400e-06;0.006736243856112341
6.07425e-06;0.006755011748465335
6.07450e-06;0.0067737796408183296
6.07475e-06;0.006792547533171388
6.07500e-06;0.0068113154255243814
6.07525e-06;0.006830083317877376
6.07550e-06;0.006848851210230434
6.07575e-06;0.006867619102583428
6.07600e-06;0.006886386994936486
6.07625e-06;0.00690515488728948
6.07650e-06;0.006923922779642475
6.07675e-06;0.006942690671995533
6.07700e-06;0.0069614585643485265
6.07725e-06;0.006980226456701521
6.07750e-06;0.006998994349054579
6.07775e-06;0.007017762241407573
6.07800e-06;0.0070371180348987716
6.07825e-06;0.007056513758837781
6.07850e-06;0.007075909482776726
6.07875e-06;0.007095305206715669
6.07900e-06;0.007114700930654679
6.07925e-06;0.007134096654593624
6.07950e-06;0.007153492378532567
6.07975e-06;0.007172888102471577
6.08000e-06;0.0071922838264105214
6.08025e-06;0.007211679550349531
6.08050e-06;0.007231075274288475
6.08075e-06;0.007250470998227419
6.08100e-06;0.007269866722166429
6.08125e-06;0.007289262446105373
6.08150e-06;0.007308658170044317
6.08175e-06;0.007324892122858742
6.08200e-06;0.007337042715574342
6.08225e-06;0.0073491933082899434
6.08250e-06;0.007361343901005585
6.08275e-06;0.007373494493721186
6.08300e-06;0.007385645086436786
6.08325e-06;0.007397795679152428
6.08350e-06;0.007409946271868029
6.08375e-06;0.007422096864583629
6.08400e-06;0.007423358150713255
6.08425e-06;0.007409233471206859
6.08450e-06;0.0073951087917004145
6.08475e-06;0.007380984112194018
6.08500e-06;0.007366859432687622
6.08525e-06;0.007352734753181178
6.08550e-06;0.007338610073674781
6.08575e-06;0.007324485394168385
6.08600e-06;0.00731036071466194
6.08625e-06;0.007284676573239727
6.08650e-06;0.007241098336606406
6.08675e-06;0.007197520099972937
6.08700e-06;0.0071539418633396155
6.08725e-06;0.007110363626706294
6.08750e-06;0.0070667853900728255
6.08775e-06;0.007023207153439504
6.08800e-06;0.006979628916806183
6.08825e-06;0.006936050680172713
6.08850e-06;0.006872311592165693
6.08875e-06;0.006808441447131493
6.08900e-06;0.00674457130209751
6.08925e-06;0.006680701157063526
6.08950e-06;0.006616831012029326
6.08975e-06;0.006552960866995343
6.09000e-06;0.006489090721961359
6.09025e-06;0.006425220576927159
6.09050e-06;0.006361745185213118
6.09075e-06;0.006298538916472566
6.09100e-06;0.0062353326477318
6.09125e-06;0.006172126378991248
6.09150e-06;0.006108920110250696
6.09175e-06;0.006045713841509931
6.09200e-06;0.0059825075727693786
6.09225e-06;0.005929336029921476
6.09250e-06;0.005883005658848005
6.09275e-06;0.005836675287774691
6.09300e-06;0.0057903449167012195
6.09325e-06;0.005744014545627905
6.09350e-06;0.005697684174554591
6.09375e-06;0.005651353803481121
6.09400e-06;0.005618475659242092
6.09425e-06;0.005594768567157822
6.09450e-06;0.005571061475073473
6.09475e-06;0.005547354382989204
6.09500e-06;0.005523647290904933
6.09525e-06;0.005499940198820584
6.09550e-06;0.005476233106736315
6.09575e-06;0.005452526014652045
6.09600e-06;0.005428818922567695
6.09625e-06;0.005405111830483426
6.09650e-06;0.005381404738399156
6.09675e-06;0.005357697646314806
6.09700e-06;0.005333990554230537
6.09725e-06;0.005311937812508043
6.09750e-06;0.005305715094492179
6.09775e-06;0.005299492376476314
6.09800e-06;0.005293269658460429
6.09825e-06;0.005287046940444564
6.09850e-06;0.0052808242224287
6.09875e-06;0.005274601504412815
6.09900e-06;0.005268378786396951
6.09925e-06;0.005262156068381087
6.09950e-06;0.005255933350365201
6.09975e-06;0.005249710632349337
6.10000e-06;0.0052434879143334725
6.10025e-06;0.005237265196317588
6.10050e-06;0.005231042478301723
6.10075e-06;0.005228155252013012
6.10100e-06;0.005227541996343768
6.10125e-06;0.005226928740674527
6.10150e-06;0.005226315485005284
6.10175e-06;0.005225702229336043
6.10200e-06;0.005225088973666801
6.10225e-06;0.005224475717997557
6.10250e-06;0.005223862462328316
6.10275e-06;0.005223249206659075
6.10300e-06;0.005222635950989832
6.10325e-06;0.005222022695320591
6.10350e-06;0.005222336020281217
6.10375e-06;0.0052315155404995175
6.10400e-06;0.005240695060717788
6.10425e-06;0.005249874580936058
6.10450e-06;0.005259054101154359
6.10475e-06;0.005268233621372629
6.10500e-06;0.005277413141590899
6.10525e-06;0.0052865926618092
6.10550e-06;0.00529577218202747
6.10575e-06;0.0053049517022457715
6.10600e-06;0.005314131222464042
6.10625e-06;0.005323310742682311
6.10650e-06;0.005342603692897906
6.10675e-06;0.005368791471388952
6.10700e-06;0.005394979249879996
6.10725e-06;0.005421167028371129
6.10750e-06;0.005447354806862174
6.10775e-06;0.0054735425853532195
6.10800e-06;0.005499730363844353
6.10825e-06;0.005525918142335397
6.10850e-06;0.005552105920826442
6.10875e-06;0.005578293699317576
6.10900e-06;0.0056044814778086205
6.10925e-06;0.005631177666286564
6.10950e-06;0.0056627386901258086
6.10975e-06;0.005694299713964946
6.11000e-06;0.00572586073780419
6.11025e-06;0.005757421761643327
6.11050e-06;0.0057889827854824645
6.11075e-06;0.005820543809321709
6.11100e-06;0.005852104833160846
6.11125e-06;0.005883665856999984
6.11150e-06;0.005915226880839228
6.11175e-06;0.0059467879046783655
6.11200e-06;0.005978348928517503
6.11225e-06;0.006004990253664006
6.11250e-06;0.006028277575504023
6.11275e-06;0.006051564897344041
6.11300e-06;0.0060748522191841365
6.11325e-06;0.006098139541024154
6.11350e-06;0.006121426862864172
6.11375e-06;0.006144714184704268
6.11400e-06;0.006168001506544286
6.11425e-06;0.0061912888283843824
6.11450e-06;0.0062145761502244
6.11475e-06;0.006238523545844188
6.11500e-06;0.006268787005952498
6.11525e-06;0.006299050466060704
6.11550e-06;0.006329313926168912
6.11575e-06;0.006359577386277222
6.11600e-06;0.006389840846385429
6.11625e-06;0.006420104306493636
6.11650e-06;0.006450367766601945
6.11675e-06;0.006480631226710153
6.11700e-06;0.006510894686818361
6.11725e-06;0.00654115814692667
6.11750e-06;0.0065779985548320655
6.11775e-06;0.006619322795190051
6.11800e-06;0.006660647035548177
6.11825e-06;0.006701971275906163
6.11850e-06;0.006743295516264288
6.11875e-06;0.006784619756622274
6.11900e-06;0.00682594399698026
6.11925e-06;0.006867268237338385
6.11950e-06;0.00690859247769637
6.11975e-06;0.006949916718054356
6.12000e-06;0.0069912409584124815
6.12025e-06;0.007032150503144356
6.12050e-06;0.007069091939466189
6.12075e-06;0.007106033375788148
6.12100e-06;0.007142974812109982
6.12125e-06;0.007179916248431816
6.12150e-06;0.007216857684753775
6.12175e-06;0.007253799121075608
6.12200e-06;0.007290740557397442
6.12225e-06;0.0073276819937194
6.12250e-06;0.007364623430041234
6.12275e-06;0.007401564866363192
6.12300e-06;0.0074385063026850265
6.12325e-06;0.00746107731884026
6.12350e-06;0.007473851304780299
6.12375e-06;0.007486625290720294
6.12400e-06;0.00749939927666029
6.12425e-06;0.007512173262600329
6.12450e-06;0.007524947248540324
6.12475e-06;0.00753772123448032
6.12500e-06;0.007550495220420359
6.12525e-06;0.007563269206360355
6.12550e-06;0.00757604319230035
6.12575e-06;0.007588817178240389
6.12600e-06;0.007601591164180385
6.12625e-06;0.00761436515012038
6.12650e-06;0.007625081473948263
6.12675e-06;0.007616108594862986
6.12700e-06;0.0076071357157776786
6.12725e-06;0.007598162836692402
6.12750e-06;0.007589189957607125
6.12775e-06;0.007580217078521818
6.12800e-06;0.007571244199436541
6.12825e-06;0.0075622713203512635
6.12850e-06;0.007553298441265956
6.12875e-06;0.007544325562180679
6.12900e-06;0.007535352683095402
6.12925e-06;0.007526379804010095
6.12950e-06;0.007517406924924818
6.12975e-06;0.007508434045839541
6.13000e-06;0.0074956652994528725
6.13025e-06;0.007480121174048253
6.13050e-06;0.0074644491882034855
6.13075e-06;0.007448777202358665
6.13100e-06;0.007433105216513898
6.13125e-06;0.007417433230669077
6.13150e-06;0.00740176124482431
6.13175e-06;0.007386089258979542
6.13200e-06;0.0073706295322036475
6.13225e-06;0.007357200854088436
6.13250e-06;0.007343772175973224
6.13275e-06;0.007330343497857966
6.13300e-06;0.0073169148197427545
6.13325e-06;0.007303486141627543
6.13350e-06;0.007290057463512285
6.13375e-06;0.007276628785397073
6.13400e-06;0.007255359573412377
6.13425e-06;0.0072287450795001165
6.13450e-06;0.007202130585587946
6.13475e-06;0.007175516091675776
6.13500e-06;0.007148901597763515
6.13525e-06;0.007122287103851345
6.13550e-06;0.007095672609939084
6.13575e-06;0.007069058116026914
6.13600e-06;0.007042443622114744
6.13625e-06;0.007015829128202484
6.13650e-06;0.006987177579346737
6.13675e-06;0.006939034011918027
6.13700e-06;0.006890890444489154
6.13725e-06;0.006842746877060444
6.13750e-06;0.006794603309631733
6.13775e-06;0.00674645974220286
6.13800e-06;0.00669831617477415
6.13825e-06;0.00665017260734544
6.13850e-06;0.006602029039916566
6.13875e-06;0.006553885472487857
6.13900e-06;0.006505741905059146
6.13925e-06;0.006452595893830262
6.13950e-06;0.006396039467841588
6.13975e-06;0.006339483041852722
6.14000e-06;0.006282926615864048
6.14025e-06;0.006226370189875373
6.14050e-06;0.0061698137638865076
6.14075e-06;0.006113257337897833
6.14100e-06;0.006056700911909159
6.14125e-06;0.006000144485920293
6.14150e-06;0.005951057747156319
6.14175e-06;0.005907063465715345
6.14200e-06;0.005863069184274223
6.14225e-06;0.00581907490283325
6.14250e-06;0.005775080621392276
6.14275e-06;0.005731086339951154
6.14300e-06;0.005687092058510181
6.14325e-06;0.005643097777069207
6.14350e-06;0.005599103495628085
6.14375e-06;0.005573553012828231
6.14400e-06;0.005560576584955211
6.14425e-06;0.005547600157082236
6.14450e-06;0.00553462372920926
6.14475e-06;0.00552164730133624
6.14500e-06;0.005508670873463265
6.14525e-06;0.005495694445590289
6.14550e-06;0.00548271801771727
6.14575e-06;0.005469741589844293
6.14600e-06;0.005456765161971318
6.14625e-06;0.005443788734098298
6.14650e-06;0.005430812306225323
6.14675e-06;0.005435516680900088
6.14700e-06;0.0054522749381128825
6.14725e-06;0.005469033195325621
6.14750e-06;0.005485791452538359
6.14775e-06;0.0055025497097511535
6.14800e-06;0.005519307966963892
6.14825e-06;0.0055360662241766305
6.14850e-06;0.005552824481389425
6.14875e-06;0.005569582738602163
6.14900e-06;0.005586340995814959
6.14925e-06;0.005603099253027696
6.14950e-06;0.005619857510240435
6.14975e-06;0.005642663335959933
6.15000e-06;0.005669592089935498
6.15025e-06;0.005696520843911063
6.15050e-06;0.0057234495978867195
6.15075e-06;0.0057503783518622845
6.15100e-06;0.0057773071058378495
