Time(s);Current(A)
9.75000e-06;0.005616358808110874
9.75025e-06;0.005581500697646593
9.75050e-06;0.0055466425871823115
9.75075e-06;0.005511784476718266
9.75100e-06;0.005476926366253985
9.75125e-06;0.005442068255789703
9.75150e-06;0.005407210145325422
9.75175e-06;0.005367002581954345
9.75200e-06;0.005316013654056865
9.75225e-06;0.005265024726159385
9.75250e-06;0.005214035798262251
9.75275e-06;0.005163046870364771
9.75300e-06;0.005112057942467291
9.75325e-06;0.005061069014570157
9.75350e-06;0.005010080086672677
9.75375e-06;0.0049590911587751975
9.75400e-06;0.004909210262807137
9.75425e-06;0.004861562510366245
9.75450e-06;0.004813914757925352
9.75475e-06;0.004766267005484782
9.75500e-06;0.004718619253043889
9.75525e-06;0.004670971500602996
9.75550e-06;0.0046233237481624265
9.75575e-06;0.004592893349701782
9.75600e-06;0.004565948754814167
9.75625e-06;0.004539004159926735
9.75650e-06;0.00451205956503912
9.75675e-06;0.004485114970151505
9.75700e-06;0.004458170375264073
9.75725e-06;0.004439761021907117
9.75750e-06;0.004438553717409554
9.75775e-06;0.004437346412912
9.75800e-06;0.0044419125148065
9.75825e-06;0.004458114423196301
9.75850e-06;0.004474316331585991
9.75875e-06;0.004501008585742432
9.75900e-06;0.004548843234027493
9.75925e-06;0.00459667788231223
9.75950e-06;0.004644512530597291
9.75975e-06;0.004692347178882352
9.76000e-06;0.004740181827167413
9.76025e-06;0.00478801647545215
9.76050e-06;0.004835851123737211
9.76075e-06;0.004894559978174217
9.76100e-06;0.004975184864496437
9.76125e-06;0.005055809750819203
9.76150e-06;0.00513643463714197
9.76175e-06;0.00521705952346419
9.76200e-06;0.0052976844097869565
9.76225e-06;0.005378309296109723
9.76250e-06;0.005458934182431944
9.76275e-06;0.005542552185915253
9.76300e-06;0.005632202560885519
9.76325e-06;0.005721852935855177
9.76350e-06;0.005811503310825443
9.76375e-06;0.0059011536857957085
9.76400e-06;0.0059908040607653664
9.76425e-06;0.006080454435735632
9.76450e-06;0.0061643697242620725
9.76475e-06;0.006236726436866855
9.76500e-06;0.006309083149472127
9.76525e-06;0.006381439862077398
9.76550e-06;0.00645379657468218
9.76575e-06;0.006526153287287452
9.76600e-06;0.006598509999892724
9.76625e-06;0.006658588611279548
9.76650e-06;0.006693921760414699
9.76675e-06;0.00672925490954985
9.76700e-06;0.006764588058684762
9.76725e-06;0.006799921207819913
9.76750e-06;0.006835254356955063
9.76775e-06;0.0068705875060899755
9.76800e-06;0.006905920655225126
9.76825e-06;0.006941253804360278
9.76850e-06;0.006976586953495428
9.76875e-06;0.0070119201026303405
9.76900e-06;0.007047253251765491
9.76925e-06;0.007082586400900643
9.76950e-06;0.007091478932906985
9.76975e-06;0.007095018331219556
9.77000e-06;0.007098557729532127
9.77025e-06;0.007102097127844673
9.77050e-06;0.007105636526157244
9.77075e-06;0.007109175924469814
9.77100e-06;0.007112715322782361
9.77125e-06;0.007116254721094931
9.77150e-06;0.007119794119407502
9.77175e-06;0.007123333517720048
9.77200e-06;0.007126872916032619
9.77225e-06;0.00713041231434519
9.77250e-06;0.007129875970910668
9.77275e-06;0.007121125318783261
9.77300e-06;0.007112374666655855
9.77325e-06;0.007103624014528508
9.77350e-06;0.007094873362401102
9.77375e-06;0.007086122710273696
9.77400e-06;0.007077372058146349
9.77425e-06;0.007068621406018943
9.77450e-06;0.007059870753891536
9.77475e-06;0.007050935584905169
9.77500e-06;0.007041963058870281
9.77525e-06;0.007032990532835393
9.77550e-06;0.007024018006800566
9.77575e-06;0.007015045480765677
9.77600e-06;0.0070060729547307896
9.77625e-06;0.006997100428695962
9.77650e-06;0.006988127902661074
9.77675e-06;0.006976329465246855
9.77700e-06;0.006958835645285673
9.77725e-06;0.006941341825324611
9.77750e-06;0.00692384800536343
9.77775e-06;0.006906354185402249
9.77800e-06;0.006888860365441186
9.77825e-06;0.006871366545480005
9.77850e-06;0.006853872725518824
9.77875e-06;0.006836378905557761
9.77900e-06;0.00681888508559658
9.77925e-06;0.0068013912656353995
9.77950e-06;0.006783897445674337
9.77975e-06;0.006766403625713156
9.78000e-06;0.006744469888055745
9.78025e-06;0.006713587876243487
9.78050e-06;0.00668270586443102
9.78075e-06;0.006651823852618553
9.78100e-06;0.006620941840806295
9.78125e-06;0.006590059828993829
9.78150e-06;0.006559177817181362
9.78175e-06;0.006528295805369105
9.78200e-06;0.0064974137935566376
9.78225e-06;0.0064665317817441705
9.78250e-06;0.006435649769931913
9.78275e-06;0.006404767758119446
9.78300e-06;0.006373885746306979
9.78325e-06;0.006343269613770417
9.78350e-06;0.006313189338160327
9.78375e-06;0.006283109062550238
9.78400e-06;0.006253028786940352
9.78425e-06;0.006222948511330263
9.78450e-06;0.006192868235720174
9.78475e-06;0.0061627879601102884
9.78500e-06;0.006132707684500199
9.78525e-06;0.0061026274088901095
9.78550e-06;0.00607254713328002
9.78575e-06;0.006046098624626215
9.78600e-06;0.006026969631472643
9.78625e-06;0.006007840638319071
9.78650e-06;0.005988711645165628
9.78675e-06;0.0059695826520120565
9.78700e-06;0.005950453658858484
9.78725e-06;0.005931324665705042
9.78750e-06;0.00591219567255147
9.78775e-06;0.005893066679397898
9.78800e-06;0.0058739376862444554
9.78825e-06;0.005857448584251376
9.78850e-06;0.005846279956976015
9.78875e-06;0.00583511132970073
9.78900e-06;0.005823942702425369
9.78925e-06;0.005812774075150008
9.78950e-06;0.005801605447874723
9.78975e-06;0.005790436820599362
9.79000e-06;0.005779268193324001
9.79025e-06;0.005768099566048715
9.79050e-06;0.005756930938773355
9.79075e-06;0.005745762311497994
9.79100e-06;0.0057345936842227085
9.79125e-06;0.005723425056947348
9.79150e-06;0.005712256429671987
9.79175e-06;0.005701087802396702
9.79200e-06;0.00568991917512134
9.79225e-06;0.005678750547845979
9.79250e-06;0.005667581920570694
9.79275e-06;0.005658238362603473
9.79300e-06;0.005652573075641942
9.79325e-06;0.005646907788680449
9.79350e-06;0.005641242501718918
9.79375e-06;0.0056355772147573865
9.79400e-06;0.005629911927795855
9.79425e-06;0.005624246640834362
9.79450e-06;0.005618581353872831
9.79475e-06;0.0056129160669113
9.79500e-06;0.005607250779949807
9.79525e-06;0.005601585492988276
9.79550e-06;0.005595920206026745
9.79575e-06;0.005590254919065253
9.79600e-06;0.005584589632103722
9.79625e-06;0.005578924345142191
9.79650e-06;0.005573259058180698
9.79675e-06;0.005567593771219167
9.79700e-06;0.0055619284842576356
9.79725e-06;0.005559925656080877
9.79750e-06;0.005565304200161782
9.79775e-06;0.005570682744242687
9.79800e-06;0.005576061288323555
9.79825e-06;0.005581439832404461
9.79850e-06;0.005586818376485366
9.79875e-06;0.005592196920566234
9.79900e-06;0.005597575464647139
9.79925e-06;0.005602954008728045
9.79950e-06;0.005608332552808913
9.79975e-06;0.005613711096889818
9.80000e-06;0.005619089640970723
9.80025e-06;0.005624468185051592
9.80050e-06;0.0056298467291324965
9.80075e-06;0.005635225273213401
9.80100e-06;0.005646486272935166
9.80125e-06;0.0056606722143075945
9.80150e-06;0.005674858155680024
9.80175e-06;0.0056890440970523565
9.80200e-06;0.005703230038424785
9.80225e-06;0.005717415979797214
9.80250e-06;0.005731601921169643
9.80275e-06;0.005745787862541976
9.80300e-06;0.0057599738039144045
9.80325e-06;0.005774159745286833
9.80350e-06;0.0057883456866591665
9.80375e-06;0.005802531628031595
9.80400e-06;0.005816717569404024
9.80425e-06;0.005830903510776357
9.80450e-06;0.005845078966750422
9.80475e-06;0.005856750114990988
9.80500e-06;0.005868421263231475
9.80525e-06;0.005880092411472041
9.80550e-06;0.005891763559712607
9.80575e-06;0.0059034347079530945
9.80600e-06;0.005915105856193661
9.80625e-06;0.0059267770044342276
9.80650e-06;0.005938448152674715
9.80675e-06;0.005950119300915281
9.80700e-06;0.005961790449155847
9.80725e-06;0.005973461597396334
9.80750e-06;0.0059851327456369
9.80775e-06;0.006000696905487374
9.80800e-06;0.006020089686446848
9.80825e-06;0.006039482467406455
9.80850e-06;0.006058875248366061
9.80875e-06;0.0060782680293255354
9.80900e-06;0.006097660810285142
9.80925e-06;0.006117053591244748
9.80950e-06;0.0061364463722042226
9.80975e-06;0.0061558391531638295
9.81000e-06;0.0061752319341234355
9.81025e-06;0.00619462471508291
9.81050e-06;0.006214017496042517
9.81075e-06;0.0062334471674317824
9.81100e-06;0.006261687661861848
9.81125e-06;0.006289928156291722
9.81150e-06;0.006318168650721787
9.81175e-06;0.006346409145151852
9.81200e-06;0.006374649639581726
9.81225e-06;0.006402890134011791
9.81250e-06;0.006431130628441856
9.81275e-06;0.00645937112287173
9.81300e-06;0.0064876116173017955
9.81325e-06;0.006515852111731861
9.81350e-06;0.006544092606161734
9.81375e-06;0.006572333100591799
9.81400e-06;0.006596870561086732
9.81425e-06;0.006617766235911306
9.81450e-06;0.00663866191073602
9.81475e-06;0.006659557585560734
9.81500e-06;0.006680453260385308
9.81525e-06;0.0067013489352100225
9.81550e-06;0.006722244610034737
9.81575e-06;0.0067431402848593105
9.81600e-06;0.006764035959684025
9.81625e-06;0.00678493163450874
9.81650e-06;0.006805827309333313
9.81675e-06;0.006826722984158027
9.81700e-06;0.0068475332055160905
9.81725e-06;0.006847933922575859
9.81750e-06;0.00684833463963563
9.81775e-06;0.006848735356695401
9.81800e-06;0.00684913607375517
9.81825e-06;0.006849536790814942
9.81850e-06;0.006849937507874713
9.81875e-06;0.006850338224934482
9.81900e-06;0.006850738941994253
9.81925e-06;0.006851139659054025
9.81950e-06;0.006851540376113796
9.81975e-06;0.006851941093173565
9.82000e-06;0.006852341810233336
9.82025e-06;0.006852742527293108
9.82050e-06;0.006853143244352876
9.82075e-06;0.00685348602292796
9.82100e-06;0.006839990910469083
9.82125e-06;0.006826495798010297
9.82150e-06;0.00681300068555142
9.82175e-06;0.006799505573092543
9.82200e-06;0.006786010460633757
9.82225e-06;0.00677251534817488
9.82250e-06;0.006759020235716003
9.82275e-06;0.006745525123257217
9.82300e-06;0.0067320300107983405
9.82325e-06;0.0067185348983394635
9.82350e-06;0.006705039785880678
9.82375e-06;0.006691544673421801
9.82400e-06;0.006678049560962924
9.82425e-06;0.006664554448504138
9.82450e-06;0.006651076294742783
9.82475e-06;0.00664164851631995
9.82500e-06;0.006632220737897182
9.82525e-06;0.0066227929594743495
9.82550e-06;0.006613365181051517
9.82575e-06;0.006603937402628748
9.82600e-06;0.006594509624205915
9.82625e-06;0.006585081845783083
9.82650e-06;0.006575654067360315
9.82675e-06;0.006566226288937482
9.82700e-06;0.00655679851051465
9.82725e-06;0.006547370732091881
9.82750e-06;0.006537942953669049
9.82775e-06;0.0065285151752462155
9.82800e-06;0.006519087396823384
9.82825e-06;0.006509659618400615
9.82850e-06;0.006500231839977782
9.82875e-06;0.00649080406155495
9.82900e-06;0.006481376283132181
9.82925e-06;0.006471948504709349
9.82950e-06;0.006462520726286516
9.82975e-06;0.006453092947863747
9.83000e-06;0.006443665169440915
9.83025e-06;0.006436531585078099
9.83050e-06;0.006431654248754871
9.83075e-06;0.00642677691243161
9.83100e-06;0.0064218995761083485
9.83125e-06;0.00641702223978512
9.83150e-06;0.006412144903461859
9.83175e-06;0.006407267567138598
9.83200e-06;0.006402390230815369
9.83225e-06;0.006397512894492108
9.83250e-06;0.006392635558168847
9.83275e-06;0.006387758221845619
9.83300e-06;0.006382880885522357
9.83325e-06;0.006378003549199096
9.83350e-06;0.006373126212875868
9.83375e-06;0.0063682488765526065
9.83400e-06;0.006363371540229345
9.83425e-06;0.006358494203906118
9.83450e-06;0.0063536168675828565
9.83475e-06;0.006348739531259595
9.83500e-06;0.006343862194936367
9.83525e-06;0.006338984858613106
9.83550e-06;0.0063341075222898445
9.83575e-06;0.006329198933019577
9.83600e-06;0.006316825963369845
9.83625e-06;0.006304452993720113
9.83650e-06;0.0062920800240703805
9.83675e-06;0.0062797070544207325
9.83700e-06;0.006267334084771
9.83725e-06;0.006254961115121268
9.83750e-06;0.006242588145471619
9.83775e-06;0.006230099557343799
9.83800e-06;0.006189996923696178
9.83825e-06;0.006149894290048829
9.83850e-06;0.006109791656401208
9.83875e-06;0.006069689022753588
9.83900e-06;0.0060295863891062385
9.83925e-06;0.005989483755458618
9.83950e-06;0.005949381121810997
9.83975e-06;0.005909164443127728
9.84000e-06;0.005841709516019861
9.84025e-06;0.005774254588911994
9.84050e-06;0.005706799661804584
9.84075e-06;0.005639344734696717
9.84100e-06;0.00557188980758885
9.84125e-06;0.005504434880481439
9.84150e-06;0.0054369799533735726
9.84175e-06;0.005369525026265706
9.84200e-06;0.0052957882024003335
9.84225e-06;0.00521587338448509
9.84250e-06;0.005135958566569847
9.84275e-06;0.005056043748655145
9.84300e-06;0.004976128930739902
9.84325e-06;0.004896214112824659
9.84350e-06;0.004816299294909957
9.84375e-06;0.004736384476994713
9.84400e-06;0.0046565152338976425
9.84425e-06;0.004587530973381603
9.84450e-06;0.004518546712865095
9.84475e-06;0.004449562452348588
9.84500e-06;0.004380578191832081
9.84525e-06;0.004311593931316041
9.84550e-06;0.004242609670799534
9.84575e-06;0.004173726974713995
9.84600e-06;0.0041291016889675024
9.84625e-06;0.004084476403220706
9.84650e-06;0.0040398511174739105
9.84675e-06;0.003995225831727417
9.84700e-06;0.003950600545980621
9.84725e-06;0.0039059752602338257
9.84750e-06;0.0038614611179799215
9.84775e-06;0.0038434922267913947
9.84800e-06;0.0038255233356028684
9.84825e-06;0.0038075544444144634
9.84850e-06;0.0037895855532259367
9.84875e-06;0.00377161666203741
9.84900e-06;0.003753647770849005
9.84925e-06;0.0037356788796604782
9.84950e-06;0.003717709988471952
9.84975e-06;0.003699741097283547
9.85000e-06;0.0036818624121541846
9.85025e-06;0.00368552833063852
9.85050e-06;0.0036891942491228302
9.85075e-06;0.003692860167607165
9.85100e-06;0.0036965260860915006
9.85125e-06;0.003700192004575811
9.85150e-06;0.003703857923060146
9.85175e-06;0.003707523841544481
9.85200e-06;0.0037111897600287914
9.85225e-06;0.0037148556785131267
9.85250e-06;0.0037185567787079276
9.85275e-06;0.0037306605961335134
9.85300e-06;0.0037427644135591817
9.85325e-06;0.00375486823098485
9.85350e-06;0.003766972048410518
9.85375e-06;0.0037790758658361044
9.85400e-06;0.0037911796832617727
9.85425e-06;0.003803283500687441
9.85450e-06;0.003815387318113027
9.85475e-06;0.0038274911355386954
9.85500e-06;0.0038395949529643637
9.85525e-06;0.00385169877038995
9.85550e-06;0.003863784984987493
9.85575e-06;0.0038716669813645536
9.85600e-06;0.003879548977741561
9.85625e-06;0.0038874309741186216
9.85650e-06;0.0038953129704956827
9.85675e-06;0.00390319496687269
9.85700e-06;0.003911076963249751
9.85725e-06;0.003918958959626811
9.85750e-06;0.003926840956003819
9.85775e-06;0.00393472295238088
9.85800e-06;0.003942604948757941
9.85825e-06;0.003950486945134948
9.85850e-06;0.003958354458946676
9.85875e-06;0.003962762990768942
9.85900e-06;0.003967171522591178
9.85925e-06;0.003971580054413444
9.85950e-06;0.00397598858623571
9.85975e-06;0.003980397118057946
9.86000e-06;0.003984805649880212
9.86025e-06;0.003989214181702478
9.86050e-06;0.003993622713524715
9.86075e-06;0.0039980312453469806
9.86100e-06;0.0040024397771692465
9.86125e-06;0.004006848308991483
9.86150e-06;0.004011256840813749
9.86175e-06;0.004015665372636015
9.86200e-06;0.004020073904458251
9.86225e-06;0.004024482436280517
9.86250e-06;0.004028881813242438
9.86275e-06;0.004031094664783555
9.86300e-06;0.004033307516324658
9.86325e-06;0.004035520367865776
9.86350e-06;0.004037733219406894
9.86375e-06;0.004039946070947997
9.86400e-06;0.004042158922489114
9.86425e-06;0.004044371774030232
9.86450e-06;0.004046584625571335
9.86475e-06;0.004048797477112453
9.86500e-06;0.00405101032865357
9.86525e-06;0.004053223180194673
9.86550e-06;0.004055436031735791
9.86575e-06;0.004057648883276909
9.86600e-06;0.004059861734818012
9.86625e-06;0.004062074586359129
9.86650e-06;0.004064235902721899
9.86675e-06;0.004054088677610245
9.86700e-06;0.004043941452498522
9.86725e-06;0.004033794227386799
9.86750e-06;0.0040236470022751445
9.86775e-06;0.0040134997771634215
9.86800e-06;0.004003352552051699
9.86825e-06;0.003993205326940044
9.86850e-06;0.003983058101828321
9.86875e-06;0.003972910876716598
9.86900e-06;0.003962763651604945
9.86925e-06;0.003952616426493222
9.86950e-06;0.003942469201381499
9.86975e-06;0.003932255587167658
9.87000e-06;0.0039061857549183144
9.87025e-06;0.0038801159226689716
9.87050e-06;0.0038540460904198048
9.87075e-06;0.0038279762581704614
9.87100e-06;0.0038019064259211185
9.87125e-06;0.0037758365936717752
9.87150e-06;0.0037497667614226084
9.87175e-06;0.003723696929173265
9.87200e-06;0.0036976270969239222
9.87225e-06;0.0036715572646747554
9.87250e-06;0.003645487432425412
9.87275e-06;0.003619417600176069
9.87300e-06;0.003593336169523574
9.87325e-06;0.0035644846033082178
9.87350e-06;0.0035356330370928616
9.87375e-06;0.0035067814708777006
9.87400e-06;0.0034779299046623444
9.87425e-06;0.0034490783384469883
9.87450e-06;0.0034202267722318277
9.87475e-06;0.0033913752060164715
9.87500e-06;0.0033670711932045467
9.87525e-06;0.0033472395171685616
9.87550e-06;0.0033274078411324425
9.87575e-06;0.003307576165096323
9.87600e-06;0.003287744489060338
9.87625e-06;0.0032679128130242182
9.87650e-06;0.0032480811369880987
9.87675e-06;0.0032283674898516417
9.87700e-06;0.00323684358964931
9.87725e-06;0.0032453196894469787
9.87750e-06;0.0032537957892445897
9.87775e-06;0.003262271889042258
9.87800e-06;0.0032707479888399267
9.87825e-06;0.0032792240886375377
9.87850e-06;0.003287700188435206
9.87875e-06;0.0032961762882328747
9.87900e-06;0.0033046523880304857
9.87925e-06;0.0033131284878281544
9.87950e-06;0.003338429806529408
9.87975e-06;0.003380278054666357
9.88000e-06;0.0034221263028030224
9.88025e-06;0.0034639745509399715
9.88050e-06;0.0035058227990769205
9.88075e-06;0.003547671047213586
9.88100e-06;0.003589519295350535
9.88125e-06;0.003631367543487484
9.88150e-06;0.0036732157916241496
9.88175e-06;0.0037150640397610986
9.88200e-06;0.0037569712411142436
9.88225e-06;0.00381295869109762
9.88250e-06;0.0038689461410813756
9.88275e-06;0.003924933591065131
9.88300e-06;0.003980921041048508
9.88325e-06;0.004036908491032264
9.88350e-06;0.0040928959410160195
9.88375e-06;0.004148883390999396
9.88400e-06;0.004201665386408811
9.88425e-06;0.004251294945528353
9.88450e-06;0.004300924504647559
9.88475e-06;0.004350554063767101
9.88500e-06;0.0044001836228866435
9.88525e-06;0.00444981318200585
9.88550e-06;0.004499442741125392
9.88575e-06;0.00454894669870905
9.88600e-06;0.004568452278219401
9.88625e-06;0.0045879578577298855
9.88650e-06;0.004607463437240369
9.88675e-06;0.0046269690167507205
9.88700e-06;0.004646474596261204
9.88725e-06;0.004665980175771688
9.88750e-06;0.00468548575528204
9.88775e-06;0.004704991334792523
9.88800e-06;0.0047244969143030065
9.88825e-06;0.004744002493813491
9.88850e-06;0.004763508073323842
9.88875e-06;0.004763619447020208
9.88900e-06;0.004744657395462728
9.88925e-06;0.004725695343905377
9.88950e-06;0.004706733292347896
9.88975e-06;0.004687771240790416
9.89000e-06;0.0046688091892330644
9.89025e-06;0.004649847137675584
9.89050e-06;0.0046308850861181035
9.89075e-06;0.004611923034560751
9.89100e-06;0.004592960983003271
9.89125e-06;0.004573998931445791
9.89150e-06;0.004554954988788472
9.89175e-06;0.004516352366562591
9.89200e-06;0.004477749744336711
9.89225e-06;0.004439147122111092
9.89250e-06;0.0044005444998852115
9.89275e-06;0.004361941877659331
9.89300e-06;0.004323339255433711
9.89325e-06;0.004284736633207831
9.89350e-06;0.004246135792128427
9.89375e-06;0.004207960355926249
9.89400e-06;0.004169784919723812
9.89425e-06;0.004131609483521375
9.89450e-06;0.004093434047319197
9.89475e-06;0.0040552586111167604
9.89500e-06;0.004017083174914324
9.89525e-06;0.0039789077387121456
9.89550e-06;0.003940818081494554
9.89575e-06;0.0039232156773806644
9.89600e-06;0.0039056132732668953
9.89625e-06;0.0038880108691530064
9.89650e-06;0.0038704084650391176
9.89675e-06;0.0038528060609252287
9.89700e-06;0.0038352036568114595
9.89725e-06;0.0038176012526975707
9.89750e-06;0.0038001652230506794
9.89775e-06;0.003822465683892073
9.89800e-06;0.0038447661447336173
9.89825e-06;0.003867066605575162
9.89850e-06;0.003889367066416555
9.89875e-06;0.0039116675272581
9.89900e-06;0.003933967988099644
9.89925e-06;0.003956268448941038
9.89950e-06;0.003978723762544576
9.89975e-06;0.004038163749488775
9.90000e-06;0.00409760373643257
9.90025e-06;0.004157043723376769
9.90050e-06;0.004216483710320968
