Time(s);Current(A)
1.30000e-06;0.01273352711859438
1.30025e-06;0.0127417859178547
1.30050e-06;0.012750044717115014
1.30075e-06;0.012758303516375325
1.30100e-06;0.012766562315635645
1.30125e-06;0.012774821114895958
1.30150e-06;0.012783079914156278
1.30175e-06;0.01279133871341659
1.30200e-06;0.012799290889915955
1.30225e-06;0.0128026783641169
1.30250e-06;0.012806065838317842
1.30275e-06;0.012809453312518787
1.30300e-06;0.01281284078671973
1.30325e-06;0.012816228260920675
1.30350e-06;0.012819615735121618
1.30375e-06;0.012823003209322559
1.30400e-06;0.012826390683523505
1.30425e-06;0.012829778157724446
1.30450e-06;0.012833165631925393
1.30475e-06;0.012835795660436258
1.30500e-06;0.012827149572094385
1.30525e-06;0.012818503483752507
1.30550e-06;0.012809857395410636
1.30575e-06;0.012801211307068756
1.30600e-06;0.012792565218726884
1.30625e-06;0.012783919130385011
1.30650e-06;0.012775273042043133
1.30675e-06;0.01276662695370126
1.30700e-06;0.012757980865359382
1.30725e-06;0.01274933477701751
1.30750e-06;0.01274068868867563
1.30775e-06;0.012731218322506569
1.30800e-06;0.01270947690744303
1.30825e-06;0.01268773549237947
1.30850e-06;0.01266599407731593
1.30875e-06;0.012644252662252371
1.30900e-06;0.012622511247188831
1.30925e-06;0.012600769832125292
1.30950e-06;0.012579028417061733
1.30975e-06;0.012557287001998194
1.31000e-06;0.012535545586934635
1.31025e-06;0.012513804171871094
1.31050e-06;0.012492062756807554
1.31075e-06;0.012470178783867868
1.31100e-06;0.012446172547523292
1.31125e-06;0.012422166311178696
1.31150e-06;0.01239816007483412
1.31175e-06;0.012374153838489544
1.31200e-06;0.012350147602144949
1.31225e-06;0.012326141365800373
1.31250e-06;0.012302135129455776
1.31275e-06;0.0122781288931112
1.31300e-06;0.012254122656766604
1.31325e-06;0.012230648504920085
1.31350e-06;0.012215095511056264
1.31375e-06;0.01219954251719243
1.31400e-06;0.012183989523328609
1.31425e-06;0.012168436529464774
1.31450e-06;0.012152883535600954
1.31475e-06;0.012137330541737133
1.31500e-06;0.012121777547873297
1.31525e-06;0.012106224554009478
1.31550e-06;0.012090671560145642
1.31575e-06;0.012075857309383469
1.31600e-06;0.012072040749472695
1.31625e-06;0.012068224189561917
1.31650e-06;0.012064407629651143
1.31675e-06;0.012060591069740367
1.31700e-06;0.012056774509829591
1.31725e-06;0.012052957949918815
1.31750e-06;0.012049141390008039
1.31775e-06;0.012045324830097265
1.31800e-06;0.012041508270186489
1.31825e-06;0.012037691710275713
1.31850e-06;0.012033875150364937
1.31875e-06;0.012030058590454163
1.31900e-06;0.012026242030543387
1.31925e-06;0.01202242547063261
1.31950e-06;0.012018608910721835
1.31975e-06;0.012014792350811059
1.32000e-06;0.012010975790900285
1.32025e-06;0.012010115437301804
1.32050e-06;0.012011550206251042
1.32075e-06;0.012012984975200277
1.32100e-06;0.012014419744149515
1.32125e-06;0.012015854513098752
1.32150e-06;0.01201728928204799
1.32175e-06;0.012018724050997225
1.32200e-06;0.012020158819946461
1.32225e-06;0.012021593588895698
1.32250e-06;0.012023028357844934
1.32275e-06;0.012024463126794172
1.32300e-06;0.012025897895743409
1.32325e-06;0.012027332664692645
1.32350e-06;0.012028767433641882
1.32375e-06;0.012030202202591118
1.32400e-06;0.012031636971540355
1.32425e-06;0.012033071740489591
1.32450e-06;0.01203388863747225
1.32475e-06;0.012025507255841344
1.32500e-06;0.012017125874210447
1.32525e-06;0.012008744492579541
1.32550e-06;0.012000363110948644
1.32575e-06;0.011991981729317739
1.32600e-06;0.011983600347686842
1.32625e-06;0.011975218966055945
1.32650e-06;0.011966837584425039
1.32675e-06;0.011958456202794142
1.32700e-06;0.011950074821163236
1.32725e-06;0.011941693439532339
1.32750e-06;0.01193331205790144
1.32775e-06;0.011918018363373233
1.32800e-06;0.011897358126895382
1.32825e-06;0.011876697890417513
1.32850e-06;0.011856037653939663
1.32875e-06;0.011835377417461811
1.32900e-06;0.011814717180983942
1.32925e-06;0.01179405694450609
1.32950e-06;0.011773396708028223
1.32975e-06;0.011752736471550371
1.33000e-06;0.011732076235072502
1.33025e-06;0.01171141599859465
1.33050e-06;0.0116907557621168
1.33075e-06;0.011669910166929762
1.33100e-06;0.011646305131045722
1.33125e-06;0.011622700095161663
1.33150e-06;0.011599095059277623
1.33175e-06;0.011575490023393583
1.33200e-06;0.011551884987509524
1.33225e-06;0.011528279951625484
1.33250e-06;0.011504957664299185
1.33275e-06;0.01148584466328468
1.33300e-06;0.011466731662270175
1.33325e-06;0.011447618661255654
1.33350e-06;0.011428505660241148
1.33375e-06;0.011409392659226627
1.33400e-06;0.011390279658212122
1.33425e-06;0.011371115359140833
1.33450e-06;0.011351187384350498
1.33475e-06;0.011331259409560163
1.33500e-06;0.011311331434769811
1.33525e-06;0.011291403459979477
1.33550e-06;0.011271475485189126
1.33575e-06;0.011251547510398792
1.33600e-06;0.011231619535608457
1.33625e-06;0.011211691560818105
1.33650e-06;0.01119176358602777
1.33675e-06;0.011171288167889011
1.33700e-06;0.011142662944103371
1.33725e-06;0.011114037720317733
1.33750e-06;0.01108541249653207
1.33775e-06;0.011056787272746432
1.33800e-06;0.011028162048960769
1.33825e-06;0.010999536825175129
1.33850e-06;0.010970911601389466
1.33875e-06;0.010942286377603827
1.33900e-06;0.010913661153818189
1.33925e-06;0.010884704905245436
1.33950e-06;0.01085082068067889
1.33975e-06;0.010816936456112316
1.34000e-06;0.010783052231545768
1.34025e-06;0.010749168006979223
1.34050e-06;0.010715283782412648
1.34075e-06;0.0106813995578461
1.34100e-06;0.010647515333279525
1.34125e-06;0.01061363110871298
1.34150e-06;0.010579746884146432
1.34175e-06;0.010545862659579857
1.34200e-06;0.010512473105097122
1.34225e-06;0.010486447719077913
1.34250e-06;0.010460422333058727
1.34275e-06;0.010434396947039518
1.34300e-06;0.010408371561020332
1.34325e-06;0.010382346175001144
1.34350e-06;0.010356320788981936
1.34375e-06;0.01033029540296275
1.34400e-06;0.010304270016943541
1.34425e-06;0.010278244630924355
1.34450e-06;0.010252219244905169
1.34475e-06;0.010227354668197618
1.34500e-06;0.010219771094737038
1.34525e-06;0.010212187521276454
1.34550e-06;0.010204603947815874
1.34575e-06;0.010197020374355296
1.34600e-06;0.010189436800894711
1.34625e-06;0.010181853227434132
1.34650e-06;0.010174269653973547
1.34675e-06;0.010166686080512967
1.34700e-06;0.010159102507052388
1.34725e-06;0.010151518933591803
1.34750e-06;0.010143935360131225
1.34775e-06;0.010136351786670638
1.34800e-06;0.01012876821321006
1.34825e-06;0.010121184639749474
1.34850e-06;0.010113601066288896
1.34875e-06;0.010106017492828316
1.34900e-06;0.010098433919367732
1.34925e-06;0.010090850345907152
1.34950e-06;0.010083266772446567
1.34975e-06;0.010076288838893381
1.35000e-06;0.010078327084914055
1.35025e-06;0.010080365330934732
1.35050e-06;0.010082403576955406
1.35075e-06;0.010084441822976083
1.35100e-06;0.010086480068996758
1.35125e-06;0.010088518315017432
1.35150e-06;0.010090556561038109
1.35175e-06;0.010092594807058783
1.35200e-06;0.01009463305307946
1.35225e-06;0.010096671299100135
1.35250e-06;0.01009870954512081
1.35275e-06;0.010100747791141486
1.35300e-06;0.01010278603716216
1.35325e-06;0.010104824283182837
1.35350e-06;0.010106862529203512
1.35375e-06;0.010108900775224187
1.35400e-06;0.010110939021244863
1.35425e-06;0.010112977267265537
1.35450e-06;0.010115015513286214
1.35475e-06;0.010117121438229569
1.35500e-06;0.010120234901336653
1.35525e-06;0.010123348364443736
1.35550e-06;0.010126461827550818
1.35575e-06;0.010129575290657904
1.35600e-06;0.010132688753764985
1.35625e-06;0.010135802216872072
1.35650e-06;0.010138915679979155
1.35675e-06;0.01014202914308624
1.35700e-06;0.010145142606193322
1.35725e-06;0.010148256069300404
1.35750e-06;0.01015136953240749
1.35775e-06;0.010154482995514571
1.35800e-06;0.010157596458621658
1.35825e-06;0.01016070992172874
1.35850e-06;0.010163823384835822
1.35875e-06;0.010166936847942908
1.35900e-06;0.01017005031104999
1.35925e-06;0.010173240506529155
1.35950e-06;0.010177573019146267
1.35975e-06;0.010181905531763378
1.36000e-06;0.010186238044380493
1.36025e-06;0.010190570556997604
1.36050e-06;0.010194903069614718
1.36075e-06;0.01019923558223183
1.36100e-06;0.010203568094848944
1.36125e-06;0.010207900607466056
1.36150e-06;0.010212233120083167
1.36175e-06;0.010216565632700281
1.36200e-06;0.010220898145317393
1.36225e-06;0.010225230657934507
1.36250e-06;0.010229563170551619
1.36275e-06;0.01023389568316873
1.36300e-06;0.010238228195785844
1.36325e-06;0.010242560708402956
1.36350e-06;0.010246893221020072
1.36375e-06;0.010250658021709868
1.36400e-06;0.010245971277812318
1.36425e-06;0.010241284533914765
1.36450e-06;0.010236597790017213
1.36475e-06;0.01023191104611966
1.36500e-06;0.01022722430222211
1.36525e-06;0.010222537558324555
1.36550e-06;0.010217850814427006
1.36575e-06;0.010213164070529456
1.36600e-06;0.010197490208453449
1.36625e-06;0.010173286230412809
1.36650e-06;0.010149082252372148
1.36675e-06;0.010124878274331508
1.36700e-06;0.010100674296290867
1.36725e-06;0.010076470318250206
1.36750e-06;0.010052266340209566
1.36775e-06;0.010028062362168905
1.36800e-06;0.010002667838610677
1.36825e-06;0.009959549628020275
1.36850e-06;0.009916431417429835
1.36875e-06;0.009873313206839433
1.36900e-06;0.009830194996248993
1.36925e-06;0.00978707678565859
1.36950e-06;0.009743958575068152
1.36975e-06;0.00970084036447775
1.37000e-06;0.009657722153887348
1.37025e-06;0.009614603943296909
1.37050e-06;0.009571485732706506
1.37075e-06;0.009528367522116067
1.37100e-06;0.009484758856314592
1.37125e-06;0.009440769413701776
1.37150e-06;0.009396779971088924
1.37175e-06;0.009352790528476108
1.37200e-06;0.009308801085863254
1.37225e-06;0.009264811643250439
1.37250e-06;0.009220822200637625
1.37275e-06;0.00917683275802477
1.37300e-06;0.009132843315411955
1.37325e-06;0.009088853872799103
1.37350e-06;0.009044864430186287
1.37375e-06;0.009002383936227563
1.37400e-06;0.008982367206395867
1.37425e-06;0.00896235047656417
1.37450e-06;0.008942333746732456
1.37475e-06;0.00892231701690076
1.37500e-06;0.008902300287069046
1.37525e-06;0.00888228355723735
1.37550e-06;0.008862266827405653
1.37575e-06;0.008860314298209675
1.37600e-06;0.008872386349774528
1.37625e-06;0.00888445840133939
1.37650e-06;0.008896530452904242
1.37675e-06;0.008908602504469093
1.37700e-06;0.008920674556033955
1.37725e-06;0.008932746607598806
1.37750e-06;0.008946908803813443
1.37775e-06;0.008992187046469608
1.37800e-06;0.00903746528912581
1.37825e-06;0.009082743531781975
1.37850e-06;0.00912802177443814
1.37875e-06;0.009173300017094342
1.37900e-06;0.009218578259750507
1.37925e-06;0.00926385650240671
1.37950e-06;0.009309134745062874
1.37975e-06;0.00935441298771904
1.38000e-06;0.009399691230375243
1.38025e-06;0.00945307977923806
1.38050e-06;0.009512764961241855
1.38075e-06;0.0095724501432456
1.38100e-06;0.009632135325249347
1.38125e-06;0.009691820507253143
1.38150e-06;0.009751505689256888
1.38175e-06;0.009811190871260684
1.38200e-06;0.009870876053264428
1.38225e-06;0.009930561235268224
1.38250e-06;0.00999024641727197
1.38275e-06;0.010048173472688146
1.38300e-06;0.010079927244571773
1.38325e-06;0.010111681016455373
1.38350e-06;0.010143434788339
1.38375e-06;0.0101751885602226
1.38400e-06;0.0102069423321062
1.38425e-06;0.010238696103989826
1.38450e-06;0.010270449875873427
1.38475e-06;0.010302203647757052
1.38500e-06;0.010333957419640653
1.38525e-06;0.010365711191524253
1.38550e-06;0.01039746496340788
1.38575e-06;0.01042921873529148
1.38600e-06;0.010460972507175106
1.38625e-06;0.010492726279058706
1.38650e-06;0.010524480050942305
1.38675e-06;0.010556233822825932
1.38700e-06;0.010586038258697755
1.38725e-06;0.010586822870575028
1.38750e-06;0.010587607482452301
1.38775e-06;0.010588392094329576
1.38800e-06;0.010589176706206849
1.38825e-06;0.010589961318084122
1.38850e-06;0.010590745929961395
1.38875e-06;0.010591530541838668
1.38900e-06;0.010592315153715942
1.38925e-06;0.010593099765593215
1.38950e-06;0.010593884377470488
1.38975e-06;0.010594668989347761
1.39000e-06;0.010595453601225035
1.39025e-06;0.01059623821310231
1.39050e-06;0.010597022824979582
1.39075e-06;0.010597807436856855
1.39100e-06;0.010598592048734128
1.39125e-06;0.010598901534549371
1.39150e-06;0.01059213780435122
1.39175e-06;0.010585374074153076
1.39200e-06;0.010578610343954924
1.39225e-06;0.010571846613756779
1.39250e-06;0.010565082883558634
1.39275e-06;0.010558319153360484
1.39300e-06;0.01055155542316234
1.39325e-06;0.010544791692964189
1.39350e-06;0.010538027962766044
1.39375e-06;0.0105312642325679
1.39400e-06;0.010524500502369747
1.39425e-06;0.010517736772171602
1.39450e-06;0.010510973041973452
1.39475e-06;0.01050438318752505
1.39500e-06;0.010500381826606255
1.39525e-06;0.010496380465687459
1.39550e-06;0.010492379104768664
1.39575e-06;0.010488377743849866
1.39600e-06;0.010484376382931072
1.39625e-06;0.010480375022012274
1.39650e-06;0.01047637366109348
1.39675e-06;0.010472372300174686
1.39700e-06;0.010468370939255888
1.39725e-06;0.010464369578337093
1.39750e-06;0.010460368217418296
1.39775e-06;0.010456366856499501
1.39800e-06;0.010452365495580707
1.39825e-06;0.01044848648005322
1.39850e-06;0.010446428824055321
1.39875e-06;0.010444371168057421
1.39900e-06;0.010442313512059523
1.39925e-06;0.010440255856061625
1.39950e-06;0.010438198200063725
1.39975e-06;0.010436140544065827
1.40000e-06;0.010434082888067927
1.40025e-06;0.01043202523207003
1.40050e-06;0.01042996757607213
1.40075e-06;0.010427909920074231
1.40100e-06;0.010425852264076331
1.40125e-06;0.010423794608078431
1.40150e-06;0.010421736952080533
1.40175e-06;0.010419679296082634
1.40200e-06;0.010417621640084735
1.40225e-06;0.010415563984086837
1.40250e-06;0.010413506328088937
1.40275e-06;0.01041144867209104
1.40300e-06;0.01040939101609314
1.40325e-06;0.010407333360095241
1.40350e-06;0.010405275704097343
1.40375e-06;0.010403218048099442
1.40400e-06;0.010401540535110826
1.40425e-06;0.010405522222563312
1.40450e-06;0.010409503910015794
1.40475e-06;0.01041348559746828
1.40500e-06;0.010417467284920762
1.40525e-06;0.010421448972373244
1.40550e-06;0.01042543065982573
1.40575e-06;0.010429412347278212
1.40600e-06;0.010433394034730698
1.40625e-06;0.01043737572218318
1.40650e-06;0.010441357409635662
1.40675e-06;0.010445339097088148
1.40700e-06;0.010449320784540628
1.40725e-06;0.010453302471993114
1.40750e-06;0.010457284159445596
1.40775e-06;0.010461265846898079
1.40800e-06;0.010465247534350564
1.40825e-06;0.010469229221803046
1.40850e-06;0.010473210909255532
1.40875e-06;0.010477192596708014
1.40900e-06;0.0104811742841605
1.40925e-06;0.010485155971612982
1.40950e-06;0.010489137659065464
1.40975e-06;0.010493430656463564
1.41000e-06;0.010502358134407846
1.41025e-06;0.010511285612352136
1.41050e-06;0.010520213090296418
1.41075e-06;0.0105291405682407
1.41100e-06;0.01053806804618499
1.41125e-06;0.010546995524129271
1.41150e-06;0.010555923002073562
1.41175e-06;0.010564850480017844
1.41200e-06;0.010573777957962126
1.41225e-06;0.010582705435906415
1.41250e-06;0.010591632913850697
1.41275e-06;0.010600560391794987
1.41300e-06;0.01060948786973927
1.41325e-06;0.010618415347683558
1.41350e-06;0.01062734282562784
1.41375e-06;0.010630405100563393
1.41400e-06;0.01062891378273746
1.41425e-06;0.010627422464911527
1.41450e-06;0.010625931147085594
1.41475e-06;0.01062443982925966
1.41500e-06;0.010622948511433729
1.41525e-06;0.010621457193607794
1.41550e-06;0.010619965875781862
1.41575e-06;0.010618474557955927
1.41600e-06;0.010616983240129996
1.41625e-06;0.010615491922304062
1.41650e-06;0.01061400060447813
1.41675e-06;0.010612509286652196
1.41700e-06;0.010611017968826263
1.41725e-06;0.01060952665100033
1.41750e-06;0.010607106011860941
1.41775e-06;0.010590850538312224
1.41800e-06;0.010574595064763508
1.41825e-06;0.010558339591214778
1.41850e-06;0.010542084117666063
1.41875e-06;0.010525828644117332
1.41900e-06;0.010509573170568616
1.41925e-06;0.0104933176970199
1.41950e-06;0.01047706222347117
1.41975e-06;0.010460806749922454
1.42000e-06;0.010444551276373724
1.42025e-06;0.010428295802825007
1.42050e-06;0.010412040329276291
1.42075e-06;0.010395784855727562
1.42100e-06;0.010379529382178844
1.42125e-06;0.010363273908630115
1.42150e-06;0.0103470184350814
1.42175e-06;0.010332329995316952
1.42200e-06;0.010318858160278072
1.42225e-06;0.010305386325239195
1.42250e-06;0.010291914490200305
1.42275e-06;0.010278442655161426
1.42300e-06;0.010264970820122536
1.42325e-06;0.010251498985083658
1.42350e-06;0.010238027150044779
1.42375e-06;0.01022455531500589
1.42400e-06;0.010211083479967012
1.42425e-06;0.010197611644928122
1.42450e-06;0.010184139809889243
1.42475e-06;0.010170667974850365
1.42500e-06;0.010157196139811475
1.42525e-06;0.010143724304772598
1.42550e-06;0.010130252469733708
1.42575e-06;0.010117885889949923
1.42600e-06;0.010121973278465396
1.42625e-06;0.01012606066698087
1.42650e-06;0.010130148055496344
1.42675e-06;0.01013423544401182
1.42700e-06;0.010138322832527292
1.42725e-06;0.010142410221042768
1.42750e-06;0.010146497609558242
1.42775e-06;0.010150584998073713
1.42800e-06;0.01015467238658919
1.42825e-06;0.01015875977510466
1.42850e-06;0.010162847163620137
1.42875e-06;0.01016693455213561
1.42900e-06;0.010171021940651082
1.42925e-06;0.010175109329166558
1.42950e-06;0.010179196717682032
1.42975e-06;0.010183284106197506
1.43000e-06;0.01018737149471298
1.43025e-06;0.010194745357779663
1.43050e-06;0.01020467075515873
1.43075e-06;0.010214596152537787
1.43100e-06;0.010224521549916852
1.43125e-06;0.01023444694729591
1.43150e-06;0.010244372344674976
1.43175e-06;0.010254297742054034
1.43200e-06;0.010264223139433091
1.43225e-06;0.010274148536812158
1.43250e-06;0.010284073934191215
1.43275e-06;0.01029399933157028
1.43300e-06;0.010303924728949337
1.43325e-06;0.010313850126328395
1.43350e-06;0.010323775523707461
1.43375e-06;0.010333700921086519
1.43400e-06;0.010343626318465585
1.43425e-06;0.010353551715844643
1.43450e-06;0.010362668600826736
1.43475e-06;0.010359749137385958
1.43500e-06;0.010356829673945182
1.43525e-06;0.010353910210504403
1.43550e-06;0.010350990747063627
1.43575e-06;0.01034807128362285
1.43600e-06;0.010345151820182074
1.43625e-06;0.010342232356741298
1.43650e-06;0.010339312893300518
1.43675e-06;0.010336393429859743
1.43700e-06;0.010333473966418965
1.43725e-06;0.010330554502978189
1.43750e-06;0.010327635039537413
1.43775e-06;0.010324715576096636
1.43800e-06;0.01032179611265586
1.43825e-06;0.01031887664921508
1.43850e-06;0.010315957185774305
1.43875e-06;0.010313037722333529
1.43900e-06;0.010310118258892751
1.43925e-06;0.010307198795451975
1.43950e-06;0.010303829915643027
1.43975e-06;0.01029377056081622
1.44000e-06;0.010283711205989404
1.44025e-06;0.010273651851162595
1.44050e-06;0.010263592496335787
1.44075e-06;0.010253533141508972
1.44100e-06;0.010243473786682163
1.44125e-06;0.010233414431855346
1.44150e-06;0.010223355077028538
1.44175e-06;0.010213295722201731
1.44200e-06;0.010203236367374914
1.44225e-06;0.010193177012548106
1.44250e-06;0.010183117657721289
1.44275e-06;0.010173058302894483
1.44300e-06;0.010162998948067674
1.44325e-06;0.010152939593240857
1.44350e-06;0.010142880238414049
1.44375e-06;0.010132820883587232
1.44400e-06;0.010122761528760425
1.44425e-06;0.010112702173933608
1.44450e-06;0.01010251498682788
1.44475e-06;0.010090424756733345
1.44500e-06;0.0100783345266388
1.44525e-06;0.010066244296544263
1.44550e-06;0.010054154066449718
1.44575e-06;0.010042063836355183
1.44600e-06;0.010029973606260649
1.44625e-06;0.010017883376166103
1.44650e-06;0.010005793146071569
1.44675e-06;0.009993702915977024
1.44700e-06;0.009981612685882489
1.44725e-06;0.009969522455787954
1.44750e-06;0.009957432225693409
1.44775e-06;0.009945341995598872
1.44800e-06;0.009932872199243489
1.44825e-06;0.0099147517885244
1.44850e-06;0.009896631377805297
1.44875e-06;0.009878510967086208
1.44900e-06;0.009860390556367121
1.44925e-06;0.009842270145648016
1.44950e-06;0.00982414973492893
1.44975e-06;0.009806029324209825
1.45000e-06;0.009787908913490738
1.45025e-06;0.009769788502771649
1.45050e-06;0.009751668092052546
1.45075e-06;0.009733547681333457
1.45100e-06;0.009715427270614354
1.45125e-06;0.009697306859895265
1.45150e-06;0.009679436241109389
1.45175e-06;0.00966528428236068
1.45200e-06;0.00965113232361198
