Time(s);Current(A)
3.25000e-06;0.0011158051580554013
3.25025e-06;0.00112595274545116
3.25050e-06;0.0011357430619027315
3.25075e-06;0.001145247235616554
3.25100e-06;0.0011544995856105226
3.25125e-06;0.001163921829794995
3.25150e-06;0.0011742479245524836
3.25175e-06;0.001185856522399016
3.25200e-06;0.0011987155851964056
3.25225e-06;0.0012127253514781816
3.25250e-06;0.0012277861503358295
3.25275e-06;0.0012437996423483408
3.25300e-06;0.0012607092818613284
3.25325e-06;0.0012787009781750046
3.25350e-06;0.0012981562431964913
3.25375e-06;0.001319234017030624
3.25400e-06;0.0013418358911380204
3.25425e-06;0.0013658212228812728
3.25450e-06;0.0013911045643677671
3.25475e-06;0.0014183783847704424
3.25500e-06;0.001445652205173164
3.25525e-06;0.001473081665811556
3.25550e-06;0.0015031583791127465
3.25575e-06;0.0015333287868446567
3.25600e-06;0.0015651434914724228
3.25625e-06;0.0015978614153581813
3.25650e-06;0.0016313278885126223
3.25675e-06;0.0016655424680128803
3.25700e-06;0.001699800064595301
3.25725e-06;0.001734789329854597
3.25750e-06;0.0017698080564336534
3.25775e-06;0.0018053372772369966
3.25800e-06;0.0018410255263155374
3.25825e-06;0.0018766904843465155
3.25850e-06;0.0019121342624831277
3.25875e-06;0.0019469597313846725
3.25900e-06;0.00198173274523872
3.25925e-06;0.0020155730434041966
3.25950e-06;0.002048677289402438
3.25975e-06;0.00208092719415676
3.26000e-06;0.0021121403480709173
3.26025e-06;0.00214212465293512
3.26050e-06;0.0021706383641428317
3.26075e-06;0.0021967975854492307
3.26100e-06;0.0022227146130521552
3.26125e-06;0.0022445122179110305
3.26150e-06;0.002266309822769869
3.26175e-06;0.0022879251714691116
3.26200e-06;0.002306345497869476
3.26225e-06;0.002323050291006614
3.26250e-06;0.0023379234975133742
3.26275e-06;0.002350166896909913
3.26300e-06;0.0023622547120952754
3.26325e-06;0.00237160090407676
3.26350e-06;0.002379236253646402
3.26375e-06;0.002385261449118449
3.26400e-06;0.0023897069528621313
3.26425e-06;0.002392590679908305
3.26450e-06;0.002393930351243312
3.26475e-06;0.00239374442501791
3.26500e-06;0.0023920595588059687
3.26525e-06;0.002388959427604214
3.26550e-06;0.002384587429800151
3.26575e-06;0.002379064147060386
3.26600e-06;0.00237246574109019
3.26625e-06;0.0023648366426515573
3.26650e-06;0.002355905724822282
3.26675e-06;0.0023468868270564267
3.26700e-06;0.002336371496697087
3.26725e-06;0.0023258066234843992
3.26750e-06;0.0023143762281224185
3.26775e-06;0.0023025400578211177
3.26800e-06;0.002290403533260905
3.26825e-06;0.0022780671855649813
3.26850e-06;0.0022656307179636666
3.26875e-06;0.0022531948167247976
3.26900e-06;0.0022408631555599387
3.26925e-06;0.0022287616951651777
3.26950e-06;0.002217039680210439
3.26975e-06;0.002205837469242474
3.27000e-06;0.0021952786825180522
3.27025e-06;0.0021854828009434915
3.27050e-06;0.0021765699522022157
3.27075e-06;0.0021686610395871123
3.27100e-06;0.002161901617284809
3.27125e-06;0.0021565739251353587
3.27150e-06;0.0021530422444413977
3.27175e-06;0.0021514926765332267
3.27200e-06;0.0021519366309082255
3.27225e-06;0.002154357861136224
3.27250e-06;0.002158740961608561
3.27275e-06;0.002165070513446837
3.27300e-06;0.0021733468764950276
3.27325e-06;0.002183716301548377
3.27350e-06;0.0021971720501063985
3.27375e-06;0.002210806395996402
3.27400e-06;0.0022276435668146227
3.27425e-06;0.002247288885203528
3.27450e-06;0.002267135826973951
3.27475e-06;0.002290412139250672
3.27500e-06;0.002313876131284835
3.27525e-06;0.002340532329600112
3.27550e-06;0.0023673651148314917
3.27575e-06;0.0023972014304931605
3.27600e-06;0.0024271833170726163
3.27625e-06;0.002459641189366506
3.27650e-06;0.002492210500758606
3.27675e-06;0.002526675256785412
3.27700e-06;0.0025612225045073987
3.27725e-06;0.0025971728364560962
3.27750e-06;0.0026331785033244905
3.27775e-06;0.002670125350427964
3.27800e-06;0.0027070879059257593
3.27825e-06;0.002744317642261335
3.27850e-06;0.0027815215082290187
3.27875e-06;0.002818285350446643
3.27900e-06;0.002855005267339581
3.27925e-06;0.002890937522980868
3.27950e-06;0.002926129873469054
3.27975e-06;0.002960405174266438
3.28000e-06;0.002993559013110242
3.28025e-06;0.0030253350540672113
3.28050e-06;0.0030548500634406377
3.28075e-06;0.003084212319992537
3.28100e-06;0.003110891752198073
3.28125e-06;0.003136093230084335
3.28150e-06;0.0031606352065887246
3.28175e-06;0.0031848365550126824
3.28200e-06;0.0032090057109249123
3.28225e-06;0.0032325508936944677
3.28250e-06;0.003254796309491304
3.28275e-06;0.003277041725288102
3.28300e-06;0.0032992046903307787
3.28325e-06;0.0033199567474766346
3.28350e-06;0.0033405712521602927
3.28375e-06;0.0033613109909896915
3.28400e-06;0.0033820424748316914
3.28425e-06;0.0034026335512951523
3.28450e-06;0.0034231903731161257
3.28475e-06;0.0034431645647892257
3.28500e-06;0.0034631098155236094
3.28525e-06;0.0034825628158008572
3.28550e-06;0.003502024284389444
3.28575e-06;0.0035216297887383182
3.28600e-06;0.0035412313886138878
3.28625e-06;0.0035607665781083454
3.28650e-06;0.0035802683296245036
3.28675e-06;0.003599201341464291
3.28700e-06;0.003618134353304046
3.28725e-06;0.003637040947460218
3.28750e-06;0.003655498208684806
3.28775e-06;0.0036739554699093935
3.28800e-06;0.0036923886794060137
3.28825e-06;0.0037104127980231907
3.28850e-06;0.003728383775293443
3.28875e-06;0.0037454508823549595
3.28900e-06;0.0037625179894165044
3.28925e-06;0.0037795194832263342
3.28950e-06;0.003795404974771309
3.28975e-06;0.0038112904663163104
3.29000e-06;0.003827127001109952
3.29025e-06;0.003842099385042987
3.29050e-06;0.0038565009996850987
3.29075e-06;0.003870252489596233
3.29100e-06;0.003883222895668273
3.29125e-06;0.003894984359571988
3.29150e-06;0.00390489021158207
3.29175e-06;0.0039126088136258175
3.29200e-06;0.003918146903271497
3.29225e-06;0.003921566361755425
3.29250e-06;0.0039229282424211335
3.29275e-06;0.003922293159490434
3.29300e-06;0.003919688824926053
3.29325e-06;0.0039149562713198475
3.29350e-06;0.003907801648240972
3.29375e-06;0.003898125466221679
3.29400e-06;0.0038860428202626683
3.29425e-06;0.0038717554965543273
3.29450e-06;0.003857195357182052
3.29475e-06;0.003839907060292617
3.29500e-06;0.0038315725602071637
3.29525e-06;0.003800941134239874
3.29550e-06;0.0037718738378495773
3.29575e-06;0.003744673679250849
3.29600e-06;0.0037184790491707445
3.29625e-06;0.0036903251053009008
3.29650e-06;0.003660344166258524
3.29675e-06;0.003629305627513679
3.29700e-06;0.003597402934903053
3.29725e-06;0.003563957478553778
3.29750e-06;0.0035286844122718124
3.29775e-06;0.003493914438563947
3.29800e-06;0.003460240876020293
3.29825e-06;0.003426165331922062
3.29850e-06;0.0033918803787584403
3.29875e-06;0.0033579774194270823
3.29900e-06;0.0033246873612556523
3.29925e-06;0.0032916950531241907
3.29950e-06;0.0032589313452562546
3.29975e-06;0.0032279659703083274
3.30000e-06;0.0031992802241460607
3.30025e-06;0.003172045011172928
3.30050e-06;0.003146490400945274
3.30075e-06;0.003123096691052519
3.30100e-06;0.0031019288059502465
3.30125e-06;0.0030820758637561995
3.30150e-06;0.003062335232656236
3.30175e-06;0.0030429556967004386
3.30200e-06;0.0030241068283364857
3.30225e-06;0.0030053171394545434
3.30250e-06;0.0029867824100445564
3.30275e-06;0.0029688549967224072
3.30300e-06;0.0029516269024924963
3.30325e-06;0.002934579007067868
3.30350e-06;0.002917009861913335
3.30375e-06;0.0028991268250810514
3.30400e-06;0.0028810877593511727
3.30425e-06;0.002862648846021251
3.30450e-06;0.002843984159622317
3.30475e-06;0.0028253659694875834
3.30500e-06;0.0028069037766159815
3.30525e-06;0.002788324039105245
3.30550e-06;0.0027692388180791715
3.30575e-06;0.0027498294048856897
3.30600e-06;0.00273024653952254
3.30625e-06;0.00271038911375257
3.30650e-06;0.002690417576322303
3.30675e-06;0.0026705543377730646
3.30700e-06;0.002650919337255445
3.30725e-06;0.0026313458777893553
3.30750e-06;0.0026117605132911907
3.30775e-06;0.0025922571645514395
3.30800e-06;0.0025730263349869865
3.30825e-06;0.0025539102406511053
3.30850e-06;0.0025351638013860244
3.30875e-06;0.0025172520564110327
3.30900e-06;0.0024996627490209092
3.30925e-06;0.0024829313747544834
3.30950e-06;0.0024666243821342537
3.30975e-06;0.00245106916168926
3.31000e-06;0.0024365017457646278
3.31025e-06;0.0024228709870732015
3.31050e-06;0.002410323929752827
3.31075e-06;0.002399031417018429
3.31100e-06;0.002389259357447056
3.31125e-06;0.0023816062571888007
3.31150e-06;0.0023768795194356136
3.31175e-06;0.002375626717977095
3.31200e-06;0.0023779076373476025
3.31225e-06;0.0023835823922175943
3.31250e-06;0.0023936524719815775
3.31275e-06;0.0024053495342727924
3.31300e-06;0.0024203064308833274
3.31325e-06;0.00244055718624382
3.31350e-06;0.002462628949185598
3.31375e-06;0.002489929859301917
3.31400e-06;0.0025198173977051897
3.31425e-06;0.0025543873894476776
3.31450e-06;0.002591273584168542
3.31475e-06;0.0026322879832855564
3.31500e-06;0.002675344422893819
3.31525e-06;0.002722334347623732
3.31550e-06;0.0027712699938149715
3.31575e-06;0.002823969875134339
3.31600e-06;0.00287853175741406
3.31625e-06;0.0029360595257962884
3.31650e-06;0.0029950543871159496
3.31675e-06;0.0030562120343619182
3.31700e-06;0.0031184395163380697
3.31725e-06;0.0031822520910968597
3.31750e-06;0.0032468487412874018
3.31775e-06;0.003312468758097435
3.31800e-06;0.0033785949892015704
3.31825e-06;0.0034447887489501236
3.31850e-06;0.0035110159121381707
3.31875e-06;0.003576352195701362
3.31900e-06;0.003641247800438465
3.31925e-06;0.0037044353276990192
3.31950e-06;0.0037667779444284575
3.31975e-06;0.0038273620903332014
3.32000e-06;0.0038855627285890345
3.32025e-06;0.003941227254068069
3.32050e-06;0.00399280054356725
3.32075e-06;0.004042787420114586
3.32100e-06;0.004086656684381459
3.32125e-06;0.004127499835891221
3.32150e-06;0.004168342987400982
3.32175e-06;0.0042032777330188965
3.32200e-06;0.004235289851045511
3.32225e-06;0.004261031541105088
3.32250e-06;0.004283671527232703
3.32275e-06;0.00430631151336028
3.32300e-06;0.0043223555008938125
3.32325e-06;0.004335136739077192
3.32350e-06;0.004343058563044699
3.32375e-06;0.004348576649299301
3.32400e-06;0.004350668922525038
3.32425e-06;0.004348823119670648
3.32450e-06;0.004343658983580359
3.32475e-06;0.004335226487462464
3.32500e-06;0.004323601319124306
3.32525e-06;0.004308956850149249
3.32550e-06;0.004291559933491308
3.32575e-06;0.00427165782956723
3.32600e-06;0.0042494299663562865
3.32625e-06;0.00422503140240719
3.32650e-06;0.004198618764012788
3.32675e-06;0.00417034959879864
3.32700e-06;0.00414039781247439
3.32725e-06;0.004108997196042597
3.32750e-06;0.004076441081881821
3.32775e-06;0.0040430109377322535
3.32800e-06;0.004008944767393802
3.32825e-06;0.003974465465182751
3.32850e-06;0.0039397971749486295
3.32875e-06;0.003905164499542428
3.32900e-06;0.003870802168882206
3.32925e-06;0.003836982867144532
3.32950e-06;0.003804016099513629
3.32975e-06;0.0037722037840652806
3.33000e-06;0.0037418208288558063
3.33025e-06;0.0037131329707048863
3.33050e-06;0.0036871809299772714
3.33075e-06;0.0036622902864327763
3.33100e-06;0.0036397608088115396
3.33125e-06;0.003619614344021487
3.33150e-06;0.003600764914553644
3.33175e-06;0.0035828057606725303
3.33200e-06;0.00356576829393197
3.33225e-06;0.0035498145794446326
3.33250e-06;0.0035356014804666562
3.33275e-06;0.0035220630770301147
3.33300e-06;0.003510021519600947
3.33325e-06;0.0034994924087990266
3.33350e-06;0.0034897911687137417
3.33375e-06;0.003480661499755271
3.33400e-06;0.0034721216681377664
3.33425e-06;0.003464272033858489
3.33450e-06;0.003457525661084882
3.33475e-06;0.0034512065210007942
3.33500e-06;0.0034458325482753863
3.33525e-06;0.0034414133736343096
3.33550e-06;0.003437628482780834
3.33575e-06;0.0034340381178403693
3.33600e-06;0.003430972482400969
3.33625e-06;0.0034281664074836573
3.33650e-06;0.0034262484601588566
3.33675e-06;0.0034247698303512247
3.33700e-06;0.0034232912005435923
3.33725e-06;0.003422593966203455
3.33750e-06;0.003422283253709499
3.33775e-06;0.003422360240272462
3.33800e-06;0.0034226290044454526
3.33825e-06;0.003422897768618444
3.33850e-06;0.0034237874016889882
3.33875e-06;0.003424984151197368
3.33900e-06;0.003426180900705749
3.33925e-06;0.0034279256681404306
3.33950e-06;0.003429941515853186
3.33975e-06;0.0034319573635659376
3.34000e-06;0.0034339732112786928
3.34025e-06;0.003436216958430384
3.34050e-06;0.0034386905804903705
3.34075e-06;0.0034413544014100946
3.34100e-06;0.0034443852234274305
3.34125e-06;0.003448458129063838
3.34150e-06;0.0034545504086944006
3.34175e-06;0.0034632190384468135
3.34200e-06;0.00347449050214544
3.34225e-06;0.0034890072635723798
3.34250e-06;0.003504709827841684
3.34275e-06;0.003522634995798417
3.34300e-06;0.0035431213842292437
3.34325e-06;0.0035670997669663496
3.34350e-06;0.0035924478063103027
3.34375e-06;0.0036219167286054114
3.34400e-06;0.0036534240697965307
3.34425e-06;0.0036885470363652475
3.34450e-06;0.0037254584932109483
3.34475e-06;0.0037661413508537607
3.34500e-06;0.0038086897539976435
3.34525e-06;0.0038512381571415262
3.34550e-06;0.003897612949805716
3.34575e-06;0.003945880488464909
3.34600e-06;0.003996822613191671
3.34625e-06;0.0040490877375871604
3.34650e-06;0.0041032615781993916
3.34675e-06;0.004158379576471572
3.34700e-06;0.0042147669886383856
3.34725e-06;0.004271782323825605
3.34750e-06;0.004329803189346684
3.34775e-06;0.004388321446338786
3.34800e-06;0.00444718677096584
3.34825e-06;0.004506223774631903
3.34850e-06;0.0045647415788244135
3.34875e-06;0.004623002557955278
3.34900e-06;0.004679956425539867
3.34925e-06;0.004736263722739832
3.34950e-06;0.0047907118403064265
3.34975e-06;0.004844240303774382
3.35000e-06;0.004895110771256984
3.35025e-06;0.0049446664454522735
3.35050e-06;0.004989573365724482
3.35075e-06;0.005032180752631352
3.35100e-06;0.0050747881395382935
3.35125e-06;0.0051114905995382175
3.35150e-06;0.0051452721528463296
3.35175e-06;0.005179053706154498
3.35200e-06;0.005207386650684919
3.35225e-06;0.0052330244089597916
3.35250e-06;0.005258662167234621
3.35275e-06;0.005278249296660008
3.35300e-06;0.005294843447074077
3.35325e-06;0.0053114375974881185
3.35350e-06;0.005323472149444325
3.35375e-06;0.005333251269308431
3.35400e-06;0.00533975521097471
3.35425e-06;0.005344639066555989
3.35450e-06;0.005346248522816541
3.35475e-06;0.005346238278268221
3.35500e-06;0.005343807595249603
3.35525e-06;0.005338719700927362
3.35550e-06;0.005331645683290691
3.35575e-06;0.0053227983747236385
3.35600e-06;0.005312293052768953
3.35625e-06;0.005300213838019369
3.35650e-06;0.005286644552836543
3.35675e-06;0.005271668547260988
3.35700e-06;0.005255391763763899
3.35725e-06;0.005237998220869306
3.35750e-06;0.00521973762957525
3.35775e-06;0.005200827592096634
3.35800e-06;0.005181423814326617
3.35825e-06;0.00516166257758199
3.35850e-06;0.00514167985495868
3.35875e-06;0.005121611931103352
3.35900e-06;0.005101608018357632
3.35925e-06;0.00508186757625985
3.35950e-06;0.005062630798522605
3.35975e-06;0.0050441167476136806
3.36000e-06;0.005026506951516518
3.36025e-06;0.005009970596058856
3.36050e-06;0.0049946759390758905
3.36075e-06;0.004981316047456505
3.36100e-06;0.004968700817522072
3.36125e-06;0.004959240912177542
3.36150e-06;0.004951341806628683
3.36175e-06;0.0049434427010798376
3.36200e-06;0.004935543595530979
3.36225e-06;0.004927644489982121
3.36250e-06;0.004924265177078825
3.36275e-06;0.0049231216060894555
3.36300e-06;0.004921978035100085
3.36325e-06;0.004920834464110713
3.36350e-06;0.004919690893121344
3.36375e-06;0.0049226534375731625
3.36400e-06;0.004927647096085997
3.36425e-06;0.004932640754598822
3.36450e-06;0.004937634413111657
3.36475e-06;0.00494262807162449
3.36500e-06;0.004950540816110858
3.36525e-06;0.004959897503577146
3.36550e-06;0.0049692541910434495
3.36575e-06;0.004980256697743313
3.36600e-06;0.004992073318570015
3.36625e-06;0.005003889939396736
3.36650e-06;0.005017076449263705
3.36675e-06;0.005030940582770718
3.36700e-06;0.005044804716277708
3.36725e-06;0.005059631334177488
3.36750e-06;0.005074934050621424
3.36775e-06;0.005090236767065335
3.36800e-06;0.005105971500673049
3.36825e-06;0.005121919934102052
3.36850e-06;0.005137868367531028
3.36875e-06;0.005153861248879765
3.36900e-06;0.005169876116652424
3.36925e-06;0.0051858909844250825
3.36950e-06;0.005201400101335313
3.36975e-06;0.005216659045618241
3.37000e-06;0.005231917989901171
3.37025e-06;0.005246366642376296
3.37050e-06;0.005260414479261152
3.37075e-06;0.005273823169599265
3.37100e-06;0.005286540283591899
3.37125e-06;0.005299092879951686
3.37150e-06;0.0053124968315371255
3.37175e-06;0.005326316727221845
3.37200e-06;0.005341542340293278
3.37225e-06;0.00535746329970633
3.37250e-06;0.0053733842591193815
3.37275e-06;0.005390302181218034
3.37300e-06;0.0054077132567504705
3.37325e-06;0.005427489127773215
3.37350e-06;0.005448434758740833
3.37375e-06;0.005469380389708413
3.37400e-06;0.0054903260206760306
3.37425e-06;0.005511271651643648
3.37450e-06;0.0055350963550718875
3.37475e-06;0.005560345208561644
3.37500e-06;0.005585594062051401
3.37525e-06;0.005610842915541157
3.37550e-06;0.005638321148948879
3.37575e-06;0.005666902158195288
3.37600e-06;0.005695483167441697
3.37625e-06;0.0057240641766880575
3.37650e-06;0.005753959852588415
3.37675e-06;0.005784505836051941
3.37700e-06;0.005815051819515415
3.37725e-06;0.005846113835019026
3.37750e-06;0.005877431108794762
3.37775e-06;0.005908748382570499
3.37800e-06;0.00594013357442914
3.37825e-06;0.005971552362365509
3.37850e-06;0.006002971150301879
3.37875e-06;0.0060335320310771715
3.37900e-06;0.006063668543048725
3.37925e-06;0.006093805055020278
3.37950e-06;0.0061224902593322635
3.37975e-06;0.0061504575658071076
3.38000e-06;0.0061784248722819525
3.38025e-06;0.006204074863614438
3.38050e-06;0.0062285785814342465
3.38075e-06;0.006253082299254096
3.38100e-06;0.006274948843069962
3.38125e-06;0.0062955108933131455
3.38150e-06;0.006316072943556364
3.38175e-06;0.006335040995855697
3.38200e-06;0.006353220567732619
3.38225e-06;0.006371400139609512
3.38250e-06;0.006387412459998333
3.38275e-06;0.006402352736740315
3.38300e-06;0.006417293013482271
3.38325e-06;0.0064322332902242525
3.38350e-06;0.006445278013772532
3.38375e-06;0.006457385090827191
3.38400e-06;0.00646949216788187
3.38425e-06;0.0064815992449365496
3.38450e-06;0.006491821687238306
3.38475e-06;0.006501111883917145
3.38500e-06;0.006510402080595999
3.38525e-06;0.006519692277274852
3.38550e-06;0.0065289824739536905
3.38575e-06;0.006537871455264754
3.38600e-06;0.006544788303360735
3.38625e-06;0.006551705151456717
3.38650e-06;0.006558621999552687
3.38675e-06;0.006565538847648668
3.38700e-06;0.00657245569574465
3.38725e-06;0.00657825241944372
3.38750e-06;0.006583495067046874
3.38775e-06;0.006588737714650028
3.38800e-06;0.006593980362253174
3.38825e-06;0.006599223009856328
3.38850e-06;0.006604465657459482
3.38875e-06;0.006609152654140844
3.38900e-06;0.006613564794838077
3.38925e-06;0.006617976935535318
3.38950e-06;0.006622389076232559
3.38975e-06;0.006626801216929793
3.39000e-06;0.006631213357627033
3.39025e-06;0.006635574715537477
3.39050e-06;0.006639920299970064
3.39075e-06;0.006644281411995464
3.39100e-06;0.0066484192395705475
3.39125e-06;0.006651315201386174
3.39150e-06;0.006651468226563685
3.39175e-06;0.006648022986947441
3.39200e-06;0.006640945278270103
3.39225e-06;0.006630439559136243
3.39250e-06;0.006616715846116356
3.39275e-06;0.006599983995010649
3.39300e-06;0.0065803027627922075
3.39325e-06;0.006557241954361112
3.39350e-06;0.006530070450062911
3.39375e-06;0.0064984611013913255
3.39400e-06;0.006462600431261523
3.39425e-06;0.006422825447644548
3.39450e-06;0.0063794759258398
3.39475e-06;0.006332891956027405
3.39500e-06;0.0062833186020516615
3.39525e-06;0.00623069549431378
3.39550e-06;0.0061747725070367574
3.39575e-06;0.006115553292380678
3.39600e-06;0.006053363527932846
3.39625e-06;0.005988622633722546
3.39650e-06;0.0059217517216640665
3.39675e-06;0.005853172372662587
3.39700e-06;0.005783246658083384
3.39725e-06;0.005712144742098354
3.39750e-06;0.005639918799684519
3.39775e-06;0.005566779319331011
3.39800e-06;0.005493138351868989
3.39825e-06;0.0054194671565111615
3.39850e-06;0.005346238379463897
3.39875e-06;0.0052739237322814185
3.39900e-06;0.005202958324289131
3.39925e-06;0.005133656887774469
