Time(s);Current(A)
1.50000e-06;0.013300283536486449
1.50025e-06;0.013298330934270543
1.50050e-06;0.01327974670273495
1.50075e-06;0.013261162471199359
1.50100e-06;0.01324257823966375
1.50125e-06;0.013223994008128157
1.50150e-06;0.013205409776592548
1.50175e-06;0.013186825545056957
1.50200e-06;0.013164289051582673
1.50225e-06;0.013108460857759175
1.50250e-06;0.013052632663935675
1.50275e-06;0.012996804470112127
1.50300e-06;0.012940976276288627
1.50325e-06;0.01288514808246508
1.50350e-06;0.012829319888641581
1.50375e-06;0.012773491694818081
1.50400e-06;0.01270671691839194
1.50425e-06;0.012632828579289672
1.50450e-06;0.012558940240187342
1.50475e-06;0.0124816572370369
1.50500e-06;0.012402168234411752
1.50525e-06;0.012322679231786537
1.50550e-06;0.01224206745545841
1.50575e-06;0.012160726052232283
1.50600e-06;0.012079384649006224
1.50625e-06;0.01199941082065412
1.50650e-06;0.011920325701585497
1.50675e-06;0.011841240582516874
1.50700e-06;0.01176602599387728
1.50725e-06;0.011693326643261939
1.50750e-06;0.011620627292646535
1.50775e-06;0.011560072440227009
1.50800e-06;0.011507409607830638
1.50825e-06;0.011454746775434222
1.50850e-06;0.011402083943037851
1.50875e-06;0.011349421110641435
1.50900e-06;0.011296758278245065
1.50925e-06;0.011244095445848694
1.50950e-06;0.011210804915280089
1.50975e-06;0.011190103344045455
1.51000e-06;0.011169401772810802
1.51025e-06;0.011148700201576168
1.51050e-06;0.011127998630341515
1.51075e-06;0.01110729705910688
1.51100e-06;0.011086595487872246
1.51125e-06;0.011088015702877898
1.51150e-06;0.011103811611068885
1.51175e-06;0.011119607519259885
1.51200e-06;0.011135403427450872
1.51225e-06;0.01115119933564186
1.51250e-06;0.011166995243832861
1.51275e-06;0.011182791152023848
1.51300e-06;0.011198587060214848
1.51325e-06;0.011214382968405837
1.51350e-06;0.011230178876596823
1.51375e-06;0.011245974784787824
1.51400e-06;0.011276360593028157
1.51425e-06;0.011316227549148378
1.51450e-06;0.011356094505268565
1.51475e-06;0.011395961461388788
1.51500e-06;0.011435828417508976
1.51525e-06;0.011475695373629162
1.51550e-06;0.011515562329749384
1.51575e-06;0.011555429285869572
1.51600e-06;0.011595296241989793
1.51625e-06;0.01163516319810998
1.51650e-06;0.011675030154230168
1.51675e-06;0.011712132370981312
1.51700e-06;0.01174743794055058
1.51725e-06;0.011782743510119877
1.51750e-06;0.011818049079689145
1.51775e-06;0.011853354649258413
1.51800e-06;0.01188866021882771
1.51825e-06;0.011923965788396978
1.51850e-06;0.011957236785364849
1.51875e-06;0.011973369651707713
1.51900e-06;0.01198950251805059
1.51925e-06;0.012005635384393453
1.51950e-06;0.012021768250736316
1.51975e-06;0.012037901117079194
1.52000e-06;0.012054033983422058
1.52025e-06;0.012070166849764934
1.52050e-06;0.012070213810951228
1.52075e-06;0.012059807455456189
1.52100e-06;0.012049401099961141
1.52125e-06;0.012038994744466104
1.52150e-06;0.012028588388971057
1.52175e-06;0.012018182033476018
1.52200e-06;0.012007775677980979
1.52225e-06;0.011997369322485931
1.52250e-06;0.011986962966990892
1.52275e-06;0.011976556611495845
1.52300e-06;0.011966150256000806
1.52325e-06;0.011953600890761472
1.52350e-06;0.011922999979512187
1.52375e-06;0.011892399068262904
1.52400e-06;0.011861798157013593
1.52425e-06;0.01183119724576431
1.52450e-06;0.011800596334514999
1.52475e-06;0.011769995423265716
1.52500e-06;0.011739394512016431
1.52525e-06;0.011708793600767122
1.52550e-06;0.011678192689517837
1.52575e-06;0.011647591778268527
1.52600e-06;0.011616990867019244
1.52625e-06;0.01158479911221429
1.52650e-06;0.011551573558483139
1.52675e-06;0.011518348004752014
1.52700e-06;0.011488904958400315
1.52725e-06;0.011461919948889001
1.52750e-06;0.011434934939377665
1.52775e-06;0.011407949929866353
1.52800e-06;0.011380964920355039
1.52825e-06;0.011353979910843703
1.52850e-06;0.011326994901332389
1.52875e-06;0.011302110680702176
1.52900e-06;0.011294922360542265
1.52925e-06;0.011287734040382353
1.52950e-06;0.011280545720222435
1.52975e-06;0.011273357400062523
1.53000e-06;0.011266169079902605
1.53025e-06;0.011258980759742694
1.53050e-06;0.011251792439582782
1.53075e-06;0.011262358394914813
1.53100e-06;0.011284461846107192
1.53125e-06;0.01130656529729959
1.53150e-06;0.011328668748491968
1.53175e-06;0.011350772199684367
1.53200e-06;0.011372875650876746
1.53225e-06;0.011394979102069125
1.53250e-06;0.011417082553261522
1.53275e-06;0.011439186004453901
1.53300e-06;0.0114612894556463
1.53325e-06;0.011497267714118442
1.53350e-06;0.011542262422269068
1.53375e-06;0.01158725713041973
1.53400e-06;0.011632251838570357
1.53425e-06;0.01167724654672102
1.53450e-06;0.011722241254871644
1.53475e-06;0.01176723596302227
1.53500e-06;0.011812230671172933
1.53525e-06;0.01185722537932356
1.53550e-06;0.011902220087474222
1.53575e-06;0.011947753176309443
1.53600e-06;0.011993636128191633
1.53625e-06;0.012039519080073783
1.53650e-06;0.012085402031955933
1.53675e-06;0.012131284983838123
1.53700e-06;0.012177167935720273
1.53725e-06;0.012223050887602463
1.53750e-06;0.012268933839484613
1.53775e-06;0.012314816791366763
1.53800e-06;0.012345304302345815
1.53825e-06;0.01236578719017019
1.53850e-06;0.012386270077994584
1.53875e-06;0.012406752965818961
1.53900e-06;0.012427235853643337
1.53925e-06;0.012447718741467731
1.53950e-06;0.012468201629292108
1.53975e-06;0.0124886845171165
1.54000e-06;0.012509167404940878
1.54025e-06;0.012505366665761733
1.54050e-06;0.012485785375799781
1.54075e-06;0.012466204085837847
1.54100e-06;0.012446622795875897
1.54125e-06;0.012427041505913963
1.54150e-06;0.012407460215952012
1.54175e-06;0.012387878925990078
1.54200e-06;0.012368297636028144
1.54225e-06;0.01232855411894722
1.54250e-06;0.012275708314926458
1.54275e-06;0.01222286251090565
1.54300e-06;0.012170016706884888
1.54325e-06;0.012117170902864126
1.54350e-06;0.012064325098843318
1.54375e-06;0.012011479294822556
1.54400e-06;0.011958633490801748
1.54425e-06;0.011895252439765384
1.54450e-06;0.01182502512970393
1.54475e-06;0.011754797819642416
1.54500e-06;0.01168457050958096
1.54525e-06;0.011614343199519445
1.54550e-06;0.01154411588945799
1.54575e-06;0.011473888579396477
1.54600e-06;0.011403661269335022
1.54625e-06;0.011336897397209859
1.54650e-06;0.011272384216804902
1.54675e-06;0.0112078710364
1.54700e-06;0.011143357855995045
1.54725e-06;0.011078844675590144
1.54750e-06;0.011014331495185242
1.54775e-06;0.010949818314780285
1.54800e-06;0.010885305134375384
1.54825e-06;0.010841226009432171
1.54850e-06;0.010810425817238617
1.54875e-06;0.010779625625045065
1.54900e-06;0.010748825432851487
1.54925e-06;0.010718025240657935
1.54950e-06;0.010687225048464357
1.54975e-06;0.010656424856270804
1.55000e-06;0.010625624664077226
1.55025e-06;0.010594824471883674
1.55050e-06;0.010564024279690122
1.55075e-06;0.010533224087496544
1.55100e-06;0.01050242389530299
1.55125e-06;0.010471623703109412
1.55150e-06;0.01044082351091586
1.55175e-06;0.010410023318722308
1.55200e-06;0.01037922312652873
1.55225e-06;0.010351264759752532
1.55250e-06;0.010347244381307394
1.55275e-06;0.01034322400286226
1.55300e-06;0.010339203624417127
1.55325e-06;0.010335183245971989
1.55350e-06;0.010331162867526856
1.55375e-06;0.010327142489081719
1.55400e-06;0.010323122110636584
1.55425e-06;0.010319101732191447
1.55450e-06;0.010315081353746314
1.55475e-06;0.010311060975301179
1.55500e-06;0.010307040596856042
1.55525e-06;0.010303020218410909
1.55550e-06;0.01029899983996577
1.55575e-06;0.010294979461520637
1.55600e-06;0.010290959083075504
1.55625e-06;0.010286938704630365
1.55650e-06;0.010285764205472944
1.55675e-06;0.010286439081724335
1.55700e-06;0.010287113957975725
1.55725e-06;0.010287788834227117
1.55750e-06;0.010288463710478509
1.55775e-06;0.010289138586729899
1.55800e-06;0.01028981346298129
1.55825e-06;0.010290488339232682
1.55850e-06;0.010291163215484074
1.55875e-06;0.010291838091735464
1.55900e-06;0.010292512967986856
1.55925e-06;0.010293187844238248
1.55950e-06;0.010293862720489638
1.55975e-06;0.01029453759674103
1.56000e-06;0.010291594525653218
1.56025e-06;0.010286300355954774
1.56050e-06;0.010281006186256327
1.56075e-06;0.010275712016557885
1.56100e-06;0.010270417846859437
1.56125e-06;0.010265123677160995
1.56150e-06;0.010259829507462553
1.56175e-06;0.010254535337764105
1.56200e-06;0.010249241168065663
1.56225e-06;0.010243946998367216
1.56250e-06;0.010238652828668772
1.56275e-06;0.010233358658970326
1.56300e-06;0.010228064489271882
1.56325e-06;0.01022277031957344
1.56350e-06;0.010215007220352578
1.56375e-06;0.01020563970397869
1.56400e-06;0.010196272187604796
1.56425e-06;0.01018690467123091
1.56450e-06;0.010177537154857022
1.56475e-06;0.010168169638483127
1.56500e-06;0.010158802122109241
1.56525e-06;0.010149434605735346
1.56550e-06;0.01014006708936146
1.56575e-06;0.010130699572987572
1.56600e-06;0.010121332056613678
1.56625e-06;0.010111964540239791
1.56650e-06;0.010102597023865897
1.56675e-06;0.010093229507492009
1.56700e-06;0.010083861991118114
1.56725e-06;0.010074494474744228
1.56750e-06;0.010065126958370342
1.56775e-06;0.010058107095963437
1.56800e-06;0.010052612840610015
1.56825e-06;0.010047118585256587
1.56850e-06;0.010041624329903165
1.56875e-06;0.010036130074549742
1.56900e-06;0.010030635819196315
1.56925e-06;0.010025141563842892
1.56950e-06;0.010019647308489464
1.56975e-06;0.010014153053136042
1.57000e-06;0.01000865879778262
1.57025e-06;0.010003164542429192
1.57050e-06;0.00999767028707577
1.57075e-06;0.009992176031722342
1.57100e-06;0.00998668177636892
1.57125e-06;0.009981187521015492
1.57150e-06;0.00997569326566207
1.57175e-06;0.009970199010308647
1.57200e-06;0.009967278692556607
1.57225e-06;0.009966031030747481
1.57250e-06;0.009964783368938353
1.57275e-06;0.009963535707129226
1.57300e-06;0.0099622880453201
1.57325e-06;0.009961040383510972
1.57350e-06;0.009959792721701846
1.57375e-06;0.009958545059892718
1.57400e-06;0.009957297398083593
1.57425e-06;0.009956049736274465
1.57450e-06;0.009954802074465337
1.57475e-06;0.009953554412656211
1.57500e-06;0.009953000934337009
1.57525e-06;0.009952898566464016
1.57550e-06;0.009952796198591024
1.57575e-06;0.00995269383071803
1.57600e-06;0.009952591462845037
1.57625e-06;0.009952489094972044
1.57650e-06;0.00995238672709905
1.57675e-06;0.009952284359226057
1.57700e-06;0.009952181991353065
1.57725e-06;0.00995207962348007
1.57750e-06;0.009951977255607078
1.57775e-06;0.009951874887734084
1.57800e-06;0.009951664654933096
1.57825e-06;0.009951384326838137
1.57850e-06;0.009951103998743178
1.57875e-06;0.00995848073805911
1.57900e-06;0.009970833370847624
1.57925e-06;0.009983186003636147
1.57950e-06;0.009995538636424658
1.57975e-06;0.01000789126921317
1.58000e-06;0.010020243902001694
1.58025e-06;0.010035180596586932
1.58050e-06;0.010071884019252558
1.58075e-06;0.010108587441918152
1.58100e-06;0.010145290864583776
1.58125e-06;0.01018199428724937
1.58150e-06;0.010218697709914962
1.58175e-06;0.010255401132580588
1.58200e-06;0.010309284291235394
1.58225e-06;0.010374331585136894
1.58250e-06;0.010439378879038341
1.58275e-06;0.010504426172939788
1.58300e-06;0.010569473466841289
1.58325e-06;0.010634520760742736
1.58350e-06;0.010699568054644237
1.58375e-06;0.010764615348545684
1.58400e-06;0.01082966264244713
1.58425e-06;0.01089626344412719
1.58450e-06;0.010975950148562032
1.58475e-06;0.011055636852996943
1.58500e-06;0.011135323557431786
1.58525e-06;0.011215010261866696
1.58550e-06;0.011294696966301539
1.58575e-06;0.011374383670736381
1.58600e-06;0.011454070375171294
1.58625e-06;0.011533757079606136
1.58650e-06;0.011613443784041047
1.58675e-06;0.011684799348606832
1.58700e-06;0.011750740978272072
1.58725e-06;0.011816682607937366
1.58750e-06;0.011882624237602604
1.58775e-06;0.011948565867267898
1.58800e-06;0.012014507496933138
1.58825e-06;0.012080449126598376
1.58850e-06;0.012127530125706257
1.58875e-06;0.012162354671600609
1.58900e-06;0.012197179217494988
1.58925e-06;0.012232003763389338
1.58950e-06;0.012266828309283717
1.58975e-06;0.012301652855178069
1.59000e-06;0.012336477401072419
1.59025e-06;0.012346251806568863
1.59050e-06;0.012339747547741703
1.59075e-06;0.012333243288914539
1.59100e-06;0.01232673903008738
1.59125e-06;0.012320234771260222
1.59150e-06;0.012313730512433056
1.59175e-06;0.012307226253605898
1.59200e-06;0.012300721994778732
1.59225e-06;0.012294217735951574
1.59250e-06;0.012283896007182594
1.59275e-06;0.012241417992418523
1.59300e-06;0.012198939977654488
1.59325e-06;0.012156461962890417
1.59350e-06;0.012113983948126383
1.59375e-06;0.01207150593336231
1.59400e-06;0.012029027918598277
1.59425e-06;0.011986549903834243
1.59450e-06;0.01194407188907017
1.59475e-06;0.011901593874306136
1.59500e-06;0.011851598079850773
1.59525e-06;0.011796716907105919
1.59550e-06;0.011741835734361066
1.59575e-06;0.011686954561616164
1.59600e-06;0.011632073388871312
1.59625e-06;0.01157719221612641
1.59650e-06;0.011522311043381557
1.59675e-06;0.011467429870636703
1.59700e-06;0.011412548697891803
1.59725e-06;0.011359613565943316
1.59750e-06;0.0113230708209303
1.59775e-06;0.011286528075917316
1.59800e-06;0.011249985330904301
1.59825e-06;0.011213442585891317
1.59850e-06;0.011176899840878333
1.59875e-06;0.011140357095865317
1.59900e-06;0.011103814350852333
1.59925e-06;0.011067271605839316
1.59950e-06;0.011030728860826332
1.59975e-06;0.011017442369015074
1.60000e-06;0.011019268796064182
1.60025e-06;0.01102109522311329
1.60050e-06;0.011022921650162398
1.60075e-06;0.011024748077211505
1.60100e-06;0.011026574504260611
1.60125e-06;0.011028400931309721
1.60150e-06;0.011030227358358827
1.60175e-06;0.011032053785407937
1.60200e-06;0.011054668366631534
1.60225e-06;0.01109079198925432
1.60250e-06;0.011126915611877074
1.60275e-06;0.011163039234499829
1.60300e-06;0.011199162857122615
1.60325e-06;0.011235286479745369
1.60350e-06;0.011271410102368155
1.60375e-06;0.01130753372499091
1.60400e-06;0.011343657347613665
1.60425e-06;0.011390417648769819
1.60450e-06;0.011444090123534464
1.60475e-06;0.011497762598299153
1.60500e-06;0.011551435073063799
1.60525e-06;0.011605107547828442
1.60550e-06;0.011658780022593133
1.60575e-06;0.011712452497357776
1.60600e-06;0.011766124972122467
1.60625e-06;0.01181979744688711
1.60650e-06;0.011873469921651801
1.60675e-06;0.011925479948949628
1.60700e-06;0.011963486424943192
1.60725e-06;0.012001492900936788
1.60750e-06;0.012039499376930352
1.60775e-06;0.012077505852923947
1.60800e-06;0.012115512328917511
1.60825e-06;0.012153518804911074
1.60850e-06;0.012191525280904671
1.60875e-06;0.012229531756898233
1.60900e-06;0.01226753823289183
1.60925e-06;0.012305544708885393
1.60950e-06;0.012317378453281475
1.60975e-06;0.012312204025056908
1.61000e-06;0.012307029596832345
1.61025e-06;0.012301855168607776
1.61050e-06;0.012296680740383212
1.61075e-06;0.012291506312158645
1.61100e-06;0.012286331883934081
1.61125e-06;0.01225732792855748
1.61150e-06;0.012212838516121979
1.61175e-06;0.012168349103686514
1.61200e-06;0.012123859691251014
1.61225e-06;0.012079370278815551
1.61250e-06;0.012034880866380087
1.61275e-06;0.011990391453944586
1.61300e-06;0.01192570800125566
1.61325e-06;0.011847901588081916
1.61350e-06;0.011770095174908237
1.61375e-06;0.011692288761734558
1.61400e-06;0.011614482348560813
1.61425e-06;0.011536675935387134
1.61450e-06;0.011458869522213389
1.61475e-06;0.01138106310903971
1.61500e-06;0.01130325669586603
1.61525e-06;0.011224761518950662
1.61550e-06;0.011140464571703562
1.61575e-06;0.011056167624456392
1.61600e-06;0.01097187067720929
1.61625e-06;0.01088757372996212
1.61650e-06;0.01080327678271502
1.61675e-06;0.01071897983546792
1.61700e-06;0.010634682888220748
1.61725e-06;0.010550385940973649
1.61750e-06;0.010466088993726478
1.61775e-06;0.010395472075275492
1.61800e-06;0.010333745031018245
1.61825e-06;0.010272017986760947
1.61850e-06;0.0102102909425037
1.61875e-06;0.010148563898246402
1.61900e-06;0.010088418533596348
1.61925e-06;0.01004159637582324
1.61950e-06;0.009994774218050092
1.61975e-06;0.009947952060276984
1.62000e-06;0.009901129902503837
1.62025e-06;0.009854307744730728
1.62050e-06;0.009816457564418407
1.62075e-06;0.009784437762980552
1.62100e-06;0.009752417961542697
1.62125e-06;0.009720398160104815
1.62150e-06;0.00968837835866696
1.62175e-06;0.00965635855722908
1.62200e-06;0.009624338755791224
1.62225e-06;0.00959231895435337
1.62250e-06;0.009560299152915487
1.62275e-06;0.009528279351477632
1.62300e-06;0.00949625955003975
1.62325e-06;0.009464239748601895
1.62350e-06;0.00943221994716404
1.62375e-06;0.009407026281568592
1.62400e-06;0.009386268534184375
1.62425e-06;0.00936551078680014
1.62450e-06;0.009344753039415921
1.62475e-06;0.009323995292031685
1.62500e-06;0.009303237544647467
1.62525e-06;0.009282479797263248
1.62550e-06;0.009261722049879014
1.62575e-06;0.009240964302494796
1.62600e-06;0.00922020655511056
1.62625e-06;0.009199448807726341
1.62650e-06;0.009178691060342123
1.62675e-06;0.009157933312957887
1.62700e-06;0.00914042552246313
1.62725e-06;0.009125029694473078
1.62750e-06;0.009109633866483039
1.62775e-06;0.009094238038492998
1.62800e-06;0.009081936247352384
1.62825e-06;0.009071403593272982
1.62850e-06;0.009060870939193569
1.62875e-06;0.009050338285114166
1.62900e-06;0.009042555127767474
1.62925e-06;0.009049537917839308
1.62950e-06;0.009057243798469394
1.62975e-06;0.009064949679099488
1.63000e-06;0.009076470335831222
1.63025e-06;0.009099765431516393
1.63050e-06;0.009123060527201543
1.63075e-06;0.009146355622886694
1.63100e-06;0.009187974722725856
1.63125e-06;0.009244590106502148
1.63150e-06;0.009301205490278486
1.63175e-06;0.009357820874054776
1.63200e-06;0.009414436257831067
1.63225e-06;0.009471051641607406
1.63250e-06;0.009527667025383695
1.63275e-06;0.009584282409160035
1.63300e-06;0.009642908745673182
1.63325e-06;0.009730284284916135
1.63350e-06;0.009817659824159015
1.63375e-06;0.009905035363401895
1.63400e-06;0.009992410902644848
1.63425e-06;0.010079786441887728
1.63450e-06;0.010167161981130683
1.63475e-06;0.010254537520373561
1.63500e-06;0.010341913059616441
1.63525e-06;0.010433326737310358
1.63550e-06;0.010527654812957712
1.63575e-06;0.010621982888605146
1.63600e-06;0.0107163109642525
1.63625e-06;0.010810639039899855
1.63650e-06;0.010904967115547289
1.63675e-06;0.010999295191194643
1.63700e-06;0.011082015221177296
1.63725e-06;0.011156357513511649
1.63750e-06;0.011230699805846064
1.63775e-06;0.011305042098180415
1.63800e-06;0.011379384390514767
1.63825e-06;0.011453726682849183
1.63850e-06;0.011528068975183535
1.63875e-06;0.011577286006326282
1.63900e-06;0.011608369679565037
1.63925e-06;0.011639453352803792
1.63950e-06;0.011670537026042574
1.63975e-06;0.011701620699281328
1.64000e-06;0.01173270437252011
1.64025e-06;0.011763788045758866
1.64050e-06;0.011794871718997622
1.64075e-06;0.011825955392236404
1.64100e-06;0.011857039065475158
1.64125e-06;0.01188812273871394
1.64150e-06;0.011919206411952696
1.64175e-06;0.011946973236221403
1.64200e-06;0.011937014492172332
1.64225e-06;0.011927055748123258
1.64250e-06;0.011917097004074178
1.64275e-06;0.011907138260025107
1.64300e-06;0.011897179515976027
1.64325e-06;0.011887220771926955
1.64350e-06;0.011877262027877882
1.64375e-06;0.011867303283828802
1.64400e-06;0.01185734453977973
1.64425e-06;0.01184738579573065
1.64450e-06;0.011837427051681578
1.64475e-06;0.011827468307632507
1.64500e-06;0.011808910274117427
1.64525e-06;0.011784145977017215
1.64550e-06;0.011759381679916981
1.64575e-06;0.011734617382816769
1.64600e-06;0.011709853085716536
1.64625e-06;0.011685088788616323
1.64650e-06;0.01166040810510862
1.64675e-06;0.011636678435748584
1.64700e-06;0.011612948766388569
1.64725e-06;0.011589219097028534
1.64750e-06;0.011565489427668517
1.64775e-06;0.011541759758308501
1.64800e-06;0.011518030088948467
1.64825e-06;0.011495775951992797
1.64850e-06;0.011474586733605772
1.64875e-06;0.011453397515218764
1.64900e-06;0.011432208296831756
1.64925e-06;0.011411019078444731
1.64950e-06;0.011389829860057724
1.64975e-06;0.011368640641670697
1.65000e-06;0.011347451423283689
1.65025e-06;0.011320471792155134
1.65050e-06;0.011289313114852807
1.65075e-06;0.011258154437550506
1.65100e-06;0.011226995760248179
1.65125e-06;0.011195837082945878
1.65150e-06;0.011164678405643549
1.65175e-06;0.011133519728341248
