Time(s);Current(A)
7.00000e-06;0.0008319850029163595
7.00025e-06;0.0008566305922084089
7.00050e-06;0.0008833258045629821
7.00075e-06;0.0009149385598281761
7.00100e-06;0.000948449461773244
7.00125e-06;0.000986514478042928
7.00150e-06;0.0010263607373906867
7.00175e-06;0.0010704806309639113
7.00200e-06;0.0011163889709911768
7.00225e-06;0.001166588227890803
7.00250e-06;0.0012167874847902591
7.00275e-06;0.0012688732592918747
7.00300e-06;0.001325485247138711
7.00325e-06;0.0013820972349855472
7.00350e-06;0.0014387092228325753
7.00375e-06;0.0014953212106794116
7.00400e-06;0.0015519331985262479
7.00425e-06;0.0016092214701477362
7.00450e-06;0.0016666850043240682
7.00475e-06;0.0017241485385004
7.00500e-06;0.0017816120726769267
7.00525e-06;0.0018390756068532585
7.00550e-06;0.0018916948909910092
7.00575e-06;0.0019326916442026871
7.00600e-06;0.001973688397414226
7.00625e-06;0.002014685150625765
7.00650e-06;0.0020556819038374426
7.00675e-06;0.002096678657048982
7.00700e-06;0.0021376754102606596
7.00725e-06;0.0021786721634721984
7.00750e-06;0.0022196689166837373
7.00775e-06;0.0022606656698954154
7.00800e-06;0.0023016624231069543
7.00825e-06;0.002321304762349413
7.00850e-06;0.002335412991068409
7.00875e-06;0.0023495212197873574
7.00900e-06;0.0023636294485063058
7.00925e-06;0.002377737677225302
7.00950e-06;0.0023918459059442503
7.00975e-06;0.0024059541346631986
7.01000e-06;0.0024200623633821947
7.01025e-06;0.002434170592101143
7.01050e-06;0.0024482788208200915
7.01075e-06;0.0024569670784584906
7.01100e-06;0.002452651510738223
7.01125e-06;0.002448335943017941
7.01150e-06;0.0024440203752976735
7.01175e-06;0.002439704807577406
7.01200e-06;0.002435389239857124
7.01225e-06;0.0024310736721368563
7.01250e-06;0.0024267581044165884
7.01275e-06;0.0024224425366963067
7.01300e-06;0.002415724884682659
7.01325e-06;0.002403244049769736
7.01350e-06;0.0023907632148567714
7.01375e-06;0.0023782823799438487
7.01400e-06;0.002365801545030926
7.01425e-06;0.0023533207101179613
7.01450e-06;0.0023408398752050386
7.01475e-06;0.002328359040292116
7.01500e-06;0.002315878205379151
7.01525e-06;0.002303779011866002
7.01550e-06;0.002292595468646513
7.01575e-06;0.002281411925427062
7.01600e-06;0.0022702283822076106
7.01625e-06;0.002259044838988122
7.01650e-06;0.0022478612957686707
7.01675e-06;0.00223667775254922
7.01700e-06;0.002225494209329731
7.01725e-06;0.00221431066611028
7.01750e-06;0.002203127122890829
7.01775e-06;0.00219194357967134
7.01800e-06;0.002181717448541244
7.01825e-06;0.0021717394358715886
7.01850e-06;0.0021617614232018988
7.01875e-06;0.002151783410532243
7.01900e-06;0.0021418053978625876
7.01925e-06;0.0021318273851928977
7.01950e-06;0.002121849372523242
7.01975e-06;0.0021118713598535527
7.02000e-06;0.0021018933471838967
7.02025e-06;0.002091915334514241
7.02050e-06;0.0020812512622428586
7.02075e-06;0.0020689411665681897
7.02100e-06;0.0020566310708935213
7.02125e-06;0.0020443209752188107
7.02150e-06;0.002032010879544142
7.02175e-06;0.0020197007838694734
7.02200e-06;0.002007390688194763
7.02225e-06;0.001995080592520094
7.02250e-06;0.001982770496845425
7.02275e-06;0.001970460401170715
7.02300e-06;0.001958150305496046
7.02325e-06;0.0019458402098213774
7.02350e-06;0.0019336905861875532
7.02375e-06;0.0019219259739058582
7.02400e-06;0.0019101613616241233
7.02425e-06;0.0018983967493424283
7.02450e-06;0.0018866321370607333
7.02475e-06;0.0018748675247789986
7.02500e-06;0.0018631029124973036
7.02525e-06;0.0018513383002156086
7.02550e-06;0.0018395736879338737
7.02575e-06;0.0018278090756521786
7.02600e-06;0.0018160444633704836
7.02625e-06;0.0018042798510887487
7.02650e-06;0.00179526671486897
7.02675e-06;0.0017928550371519537
7.02700e-06;0.0017904433594349294
7.02725e-06;0.001788031681717913
7.02750e-06;0.0017856200040008968
7.02775e-06;0.0017832083262838722
7.02800e-06;0.0017807966485668559
7.02825e-06;0.0017783849708498316
7.02850e-06;0.0017759732931328152
7.02875e-06;0.001773561615415799
7.02900e-06;0.0017711499376987744
7.02925e-06;0.001768738259981758
7.02950e-06;0.001766326582264742
7.02975e-06;0.001768413220169368
7.03000e-06;0.0017812924084135272
7.03025e-06;0.0017941715966576868
7.03050e-06;0.0018070507849018897
7.03075e-06;0.0018199299731460493
7.03100e-06;0.0018328091613902086
7.03125e-06;0.0018456883496344115
7.03150e-06;0.001858567537878571
7.03175e-06;0.0018714467261227304
7.03200e-06;0.0018843259143669336
7.03225e-06;0.001897205102611093
7.03250e-06;0.0019100842908552958
7.03275e-06;0.0019229634790994554
7.03300e-06;0.001937757579071333
7.03325e-06;0.00195714601678079
7.03350e-06;0.0019765344544901814
7.03375e-06;0.001995922892199573
7.03400e-06;0.0020153113299090303
7.03425e-06;0.0020346997676184216
7.03450e-06;0.0020540882053278133
7.03475e-06;0.0020734766430372704
7.03500e-06;0.0020928650807466617
7.03525e-06;0.0021095128450050273
7.03550e-06;0.0021254503490897494
7.03575e-06;0.002141387853174417
7.03600e-06;0.0021573253572590855
7.03625e-06;0.0021732628613438075
7.03650e-06;0.0021892003654284753
7.03675e-06;0.002205137869513198
7.03700e-06;0.0022210753735978656
7.03725e-06;0.002233896177412138
7.03750e-06;0.0022392392612562975
7.03775e-06;0.002244582345100439
7.03800e-06;0.0022499254289445802
7.03825e-06;0.00225526851278874
7.03850e-06;0.002260611596632881
7.03875e-06;0.0022659546804770225
7.03900e-06;0.002271297764321182
7.03925e-06;0.0022766408481653235
7.03950e-06;0.002281983932009465
7.03975e-06;0.0022873270158536244
7.04000e-06;0.002292670099697766
7.04025e-06;0.002298013183541907
7.04050e-06;0.0023033562673860667
7.04075e-06;0.002300937383380454
7.04100e-06;0.002296506943919279
7.04125e-06;0.002292076504458119
7.04150e-06;0.0022876460649969587
7.04175e-06;0.0022832156255357837
7.04200e-06;0.0022787851860746238
7.04225e-06;0.002274354746613464
7.04250e-06;0.002269924307152289
7.04275e-06;0.0022654938676911285
7.04300e-06;0.0022610634282299686
7.04325e-06;0.0022566329887687936
7.04350e-06;0.0022522025493076337
7.04375e-06;0.0022477721098464734
7.04400e-06;0.0022426556376181277
7.04425e-06;0.0022358932063698904
7.04450e-06;0.0022291307751216537
7.04475e-06;0.0022223683438733935
7.04500e-06;0.0022156059126251567
7.04525e-06;0.0022088434813768965
7.04550e-06;0.0022020810501286597
7.04575e-06;0.0021953186188804225
7.04600e-06;0.0021885561876321628
7.04625e-06;0.0021817937563839256
7.04650e-06;0.002174867845070807
7.04675e-06;0.0021678995670250654
7.04700e-06;0.002160931288979347
7.04725e-06;0.0021539630109336286
7.04750e-06;0.002146994732887887
7.04775e-06;0.0021400264548421684
7.04800e-06;0.00213305817679645
7.04825e-06;0.0021260898987507082
7.04850e-06;0.00211912162070499
7.04875e-06;0.0021100783954231895
7.04900e-06;0.002096056868401021
7.04925e-06;0.0020820353413789
7.04950e-06;0.0020680138143567314
7.04975e-06;0.0020539922873346102
7.05000e-06;0.002039970760312489
7.05025e-06;0.0020259492332903206
7.05050e-06;0.0020119277062681995
7.05075e-06;0.0019979061792460783
7.05100e-06;0.00198388465222391
7.05125e-06;0.0019698631252017887
7.05150e-06;0.0019502628932176673
7.05175e-06;0.001929216910025126
7.05200e-06;0.001908170926832656
7.05225e-06;0.0018871249436401862
7.05250e-06;0.001866078960447645
7.05275e-06;0.001845032977255175
7.05300e-06;0.001823986994062705
7.05325e-06;0.0018029410108701637
7.05350e-06;0.0017818950276776938
7.05375e-06;0.0017608490444851526
7.05400e-06;0.00173979709347416
7.05425e-06;0.0017187308242189168
7.05450e-06;0.001697664554963602
7.05475e-06;0.001676598285708359
7.05500e-06;0.0016555320164531157
7.05525e-06;0.001634465747197801
7.05550e-06;0.0016133994779425577
7.05575e-06;0.0015923332086873144
7.05600e-06;0.0015727916821039294
7.05625e-06;0.0015569083830474888
7.05650e-06;0.0015410250839910482
7.05675e-06;0.0015251417849345538
7.05700e-06;0.0015092584858781132
7.05725e-06;0.0014933751868216726
7.05750e-06;0.0014774918877651783
7.05775e-06;0.0014616085887087377
7.05800e-06;0.001444952981567209
7.05825e-06;0.001426444419990737
7.05850e-06;0.001407935858414328
7.05875e-06;0.001389427296837856
7.05900e-06;0.001370918735261447
7.05925e-06;0.0013524101736850378
7.05950e-06;0.001333901612108566
7.05975e-06;0.0013153930505321568
7.06000e-06;0.0012968844889557477
7.06025e-06;0.0012783759273792758
7.06050e-06;0.0012598673658028667
7.06075e-06;0.001235988642728158
7.06100e-06;0.0012107182135986745
7.06125e-06;0.0011854477844692767
7.06150e-06;0.0011601773553398791
7.06175e-06;0.0011349069262103957
7.06200e-06;0.0011096364970809979
7.06225e-06;0.0010843660679516
7.06250e-06;0.0010590956388221166
7.06275e-06;0.0010338252096927189
7.06300e-06;0.0010085547805632356
7.06325e-06;0.0009826803694669396
7.06350e-06;0.0009553568591243514
7.06375e-06;0.0009280333487816708
7.06400e-06;0.0009007098384390828
7.06425e-06;0.0008733863280964947
7.06450e-06;0.0008460628177538142
7.06475e-06;0.000819599639953263
7.06500e-06;0.0007952006086115661
7.06525e-06;0.0007708015772697867
7.06550e-06;0.0007464025459280899
7.06575e-06;0.0007220035145863932
7.06600e-06;0.0006976044832446137
7.06625e-06;0.0006746418433406686
7.06650e-06;0.000655125454920653
7.06675e-06;0.0006356090665005713
7.06700e-06;0.0006173029651317521
7.06725e-06;0.0006019006359773873
7.06750e-06;0.0005864983068230747
7.06775e-06;0.0005720004865415395
7.06800e-06;0.0005596728024519563
7.06825e-06;0.0005473451183624149
7.06850e-06;0.0005360771696219746
7.06875e-06;0.0005273517830433553
7.06900e-06;0.0005186263964647656
7.06925e-06;0.0005108174254487919
7.06950e-06;0.0005052071576618429
7.06975e-06;0.0004995968898749128
7.07000e-06;0.0004947516497404011
7.07025e-06;0.0004917418965162615
7.07050e-06;0.0004887321432921319
7.07075e-06;0.00048651308331523616
7.07100e-06;0.0004861910882363386
7.07125e-06;0.0004858690931574421
7.07150e-06;0.00048611523725611294
7.07175e-06;0.00048772448505483395
7.07200e-06;0.000489333732853555
7.07225e-06;0.0004916717105137527
7.07250e-06;0.0004957580878790012
7.07275e-06;0.0004998444652442497
7.07300e-06;0.0005039308426095121
7.07325e-06;0.0005080172199747607
7.07350e-06;0.0005121035973400092
7.07375e-06;0.0005161899747052716
7.07400e-06;0.0005207012330254317
7.07425e-06;0.0005262318838194056
7.07450e-06;0.0005317625346133982
7.07475e-06;0.0005372931854073722
7.07500e-06;0.000542823836201346
7.07525e-06;0.0005483544869953386
7.07550e-06;0.0005538851377893126
7.07575e-06;0.00055918776735989
7.07600e-06;0.000563943318704605
7.07625e-06;0.0005686988700493202
7.07650e-06;0.0005734544213940513
7.07675e-06;0.0005782834163523351
7.07700e-06;0.000583288620354708
7.07725e-06;0.0005882938243570978
7.07750e-06;0.0005932990283594707
7.07775e-06;0.0005995739087377449
7.07800e-06;0.0006088950507258155
7.07825e-06;0.0006182161927138545
7.07850e-06;0.0006284123394139082
7.07875e-06;0.0006407078346670062
7.07900e-06;0.0006537496242284015
7.07925e-06;0.000668581954863219
7.07950e-06;0.0006844859646385853
7.07975e-06;0.0007029611926278417
7.08000e-06;0.000722620599711174
7.08025e-06;0.000745121139685794
7.08050e-06;0.0007676216796604139
7.08075e-06;0.0007912431779734098
7.08100e-06;0.0008175541272493008
7.08125e-06;0.0008438650765251918
7.08150e-06;0.0008718018742414289
7.08175e-06;0.0009036394767456081
7.08200e-06;0.0009354770792497872
7.08225e-06;0.0009673146817540742
7.08250e-06;0.0009991522842582533
7.08275e-06;0.0010309898867624325
7.08300e-06;0.0010628274892667195
7.08325e-06;0.0010970551127657355
7.08350e-06;0.0011319021229793218
7.08375e-06;0.001166749133193026
7.08400e-06;0.001201596143406612
7.08425e-06;0.0012364431536203162
7.08450e-06;0.0012712901638339022
7.08475e-06;0.0013051022483267047
7.08500e-06;0.001336431294975085
7.08525e-06;0.0013677603416233591
7.08550e-06;0.0013990893882716332
7.08575e-06;0.0014304184349200136
7.08600e-06;0.0014617474815682876
7.08625e-06;0.0014930765282165617
7.08650e-06;0.0015158798926661
7.08675e-06;0.0015364737810073398
7.08700e-06;0.0015570676693485795
7.08725e-06;0.0015776615576898888
7.08750e-06;0.0015982554460311285
7.08775e-06;0.0016188493343723682
7.08800e-06;0.0016363525809583333
7.08825e-06;0.0016464406282814608
7.08850e-06;0.0016565286756046226
7.08875e-06;0.0016645206089760836
7.08900e-06;0.0016674834565267936
7.08925e-06;0.0016704463040775137
7.08950e-06;0.0016714385316757756
7.08975e-06;0.0016677027639983492
7.09000e-06;0.0016639669963209103
7.09025e-06;0.001657215157944576
7.09050e-06;0.0016432270343587922
7.09075e-06;0.0016292389107729613
7.09100e-06;0.0016152507871871776
7.09125e-06;0.001601262663601394
7.09150e-06;0.001587274540015563
7.09175e-06;0.0015732864164297795
7.09200e-06;0.0015592982928439958
7.09225e-06;0.0015374635426762546
7.09250e-06;0.0015135952972931564
7.09275e-06;0.0014897270519099773
7.09300e-06;0.001465858806526879
7.09325e-06;0.0014419905611437807
7.09350e-06;0.0014181223157606014
7.09375e-06;0.0013942540703775032
7.09400e-06;0.00136968955191132
7.09425e-06;0.0013434545054251711
7.09450e-06;0.0013172194589391114
7.09475e-06;0.0012909844124530515
7.09500e-06;0.0012647493659669027
7.09525e-06;0.001238514319480843
7.09550e-06;0.0012135498012758707
7.09575e-06;0.0011916335886065332
7.09600e-06;0.0011697173759372698
7.09625e-06;0.0011478011632680067
7.09650e-06;0.0011258849505986692
7.09675e-06;0.0011039687379294058
7.09700e-06;0.001084193554716444
7.09725e-06;0.0010695552205141744
7.09750e-06;0.0010549168863119047
7.09775e-06;0.0010421705057156398
7.09800e-06;0.00103396338074727
7.09825e-06;0.0010257562557789
7.09850e-06;0.0010195091568915716
7.09875e-06;0.0010179646360117863
7.09900e-06;0.001016420115132001
7.09925e-06;0.0010168904276370828
7.09950e-06;0.0010221948141659126
7.09975e-06;0.0010274992006947424
7.10000e-06;0.0010346991938889078
7.10025e-06;0.0010464472072859658
7.10050e-06;0.0010581952206830236
7.10075e-06;0.0010716385389433034
7.10100e-06;0.001089149304796331
7.10125e-06;0.0011066600706494177
7.10150e-06;0.0011262835437734447
7.10175e-06;0.0011509759141148255
7.10200e-06;0.0011756682844562898
7.10225e-06;0.0012003606547976707
7.10250e-06;0.0012250530251390515
7.10275e-06;0.0012497453954805158
7.10300e-06;0.0012744377658218966
7.10325e-06;0.001303090485541503
7.10350e-06;0.0013327695509685507
7.10375e-06;0.0013624486163954978
7.10400e-06;0.001392127681822445
7.10425e-06;0.0014218067472494926
7.10450e-06;0.0014514858126764398
7.10475e-06;0.0014788017861153996
7.10500e-06;0.0015004481286661877
7.10525e-06;0.0015220944712169026
7.10550e-06;0.0015437408137676906
7.10575e-06;0.0015653871563184056
7.10600e-06;0.0015870334988691203
7.10625e-06;0.0016086798414199086
7.10650e-06;0.0016303261839706233
7.10675e-06;0.001651972526521338
7.10700e-06;0.0016736188690721263
7.10725e-06;0.001695265211622841
7.10750e-06;0.0017169115541735558
7.10775e-06;0.001738557896724344
7.10800e-06;0.0017602042392750588
7.10825e-06;0.0017818505818257735
7.10850e-06;0.0017974366064747102
7.10875e-06;0.001798482458442939
7.10900e-06;0.0017995283104111678
7.10925e-06;0.0018005741623794002
7.10950e-06;0.0018016200143476289
7.10975e-06;0.0018026658663158612
7.11000e-06;0.0018037117182840901
7.11025e-06;0.001804757570252319
7.11050e-06;0.0018058034222205514
7.11075e-06;0.00180684927418878
7.11100e-06;0.001807895126157009
7.11125e-06;0.0018089409781252414
7.11150e-06;0.00180998683009347
7.11175e-06;0.001811032682061699
7.11200e-06;0.0018120785340299313
7.11225e-06;0.0018100032609261586
7.11250e-06;0.0018004396516928256
7.11275e-06;0.0017908760424594603
7.11300e-06;0.0017813124332261272
7.11325e-06;0.0017717488239927942
7.11350e-06;0.0017621852147594289
7.11375e-06;0.0017526216055260958
7.11400e-06;0.0017430579962927303
7.11425e-06;0.0017334943870593973
7.11450e-06;0.0017237367471088212
7.11475e-06;0.0017135135804021253
7.11500e-06;0.0017032904136954638
7.11525e-06;0.0016930672469888024
7.11550e-06;0.0016828440802821064
7.11575e-06;0.001672620913575445
7.11600e-06;0.0016623977468687835
7.11625e-06;0.0016521745801620876
7.11650e-06;0.0016419514134554261
7.11675e-06;0.0016330495240136334
7.11700e-06;0.0016273176992281436
7.11725e-06;0.0016215858744426733
7.11750e-06;0.0016158540496572027
7.11775e-06;0.001610122224871713
7.11800e-06;0.0016043904000862424
7.11825e-06;0.0015986585753007525
7.11850e-06;0.001592926750515282
7.11875e-06;0.0015871949257298117
7.11900e-06;0.0015814631009443219
7.11925e-06;0.0015757312761588513
7.11950e-06;0.001569999451373381
7.11975e-06;0.0015642676265878912
7.12000e-06;0.0015585358018024207
7.12025e-06;0.0015528039770169502
7.12050e-06;0.0015470721522314603
7.12075e-06;0.00154134032744599
7.12100e-06;0.0015356085026605195
7.12125e-06;0.0015298766778750297
7.12150e-06;0.0015260106917779426
7.12175e-06;0.0015226282477486207
7.12200e-06;0.0015192458037192873
7.12225e-06;0.0015158633596899654
7.12250e-06;0.0015124809156606322
7.12275e-06;0.0015090984716313103
7.12300e-06;0.0015057160276019884
7.12325e-06;0.0015023335835726553
7.12350e-06;0.0014989511395433334
7.12375e-06;0.0014955686955140115
7.12400e-06;0.001492186251484678
7.12425e-06;0.0014888038074553564
7.12450e-06;0.0014854213634260345
7.12475e-06;0.001482038919396701
7.12500e-06;0.0014786564753673792
7.12525e-06;0.0014752740313380575
7.12550e-06;0.0014718915873087241
7.12575e-06;0.0014685091432794022
7.12600e-06;0.0014660314771484364
7.12625e-06;0.0014657245926641795
7.12650e-06;0.0014654177081799234
7.12675e-06;0.0014651108236956663
7.12700e-06;0.0014648039392114104
7.12725e-06;0.0014644970547271544
7.12750e-06;0.0014641901702428972
7.12775e-06;0.0014638832857586412
7.12800e-06;0.0014635764012743853
7.12825e-06;0.0014632695167901282
7.12850e-06;0.001462962632305872
7.12875e-06;0.0014626557478216163
7.12900e-06;0.001462348863337359
7.12925e-06;0.001462041978853103
7.12950e-06;0.0014617350943688472
7.12975e-06;0.00146142820988459
7.13000e-06;0.001461121325400334
7.13025e-06;0.0014622984505527792
7.13050e-06;0.001467036074793944
7.13075e-06;0.0014717736990350926
7.13100e-06;0.0014765113232762573
7.13125e-06;0.0014812489475174062
7.13150e-06;0.001485986571758555
7.13175e-06;0.0014907241959997196
7.13200e-06;0.0014954618202408683
7.13225e-06;0.0015001994444820172
7.13250e-06;0.001504937068723182
7.13275e-06;0.0015096746929643306
7.13300e-06;0.0015144123172054793
7.13325e-06;0.0015191499414466442
7.13350e-06;0.0015238875656877929
7.13375e-06;0.0015286251899289415
7.13400e-06;0.0015333628141701063
7.13425e-06;0.001538100438411255
7.13450e-06;0.001543000800683898
7.13475e-06;0.0015482916109687858
7.13500e-06;0.0015535824212536558
7.13525e-06;0.0015588732315385439
7.13550e-06;0.001564164041823414
7.13575e-06;0.001569454852108284
7.13600e-06;0.0015747456623931718
7.13625e-06;0.0015800205084831708
7.13650e-06;0.0015852570525973092
7.13675e-06;0.0015904935967114653
7.13700e-06;0.0015957301408256036
7.13725e-06;0.0016009666849397422
7.13750e-06;0.0016062032290538983
7.13775e-06;0.0016114397731680366
7.13800e-06;0.0016197424880595127
7.13825e-06;0.0016354016903932854
7.13850e-06;0.001651060892727005
7.13875e-06;0.0016667200950607247
7.13900e-06;0.0016823792973944974
7.13925e-06;0.001698038499728217
7.13950e-06;0.0017136977020619896
7.13975e-06;0.0017293569043957094
7.14000e-06;0.001745016106729429
7.14025e-06;0.0017606753090632016
7.14050e-06;0.0017763345113969214
7.14075e-06;0.001803053218122013
7.14100e-06;0.0018326380545142843
7.14125e-06;0.0018622228909064551
7.14150e-06;0.0018918077272986257
7.14175e-06;0.001921392563690897
7.14200e-06;0.0019509774000830676
7.14225e-06;0.0019805622364752386
7.14250e-06;0.0020101470728675097
7.14275e-06;0.0020397319092596805
7.14300e-06;0.0020693167456518513
7.14325e-06;0.0021004335891319803
7.14350e-06;0.0021352260892274484
7.14375e-06;0.002170018589323034
7.14400e-06;0.0022048110894185018
7.14425e-06;0.00223807488233395
7.14450e-06;0.0022702969340215183
7.14475e-06;0.0023025189857089775
7.14500e-06;0.0023347410373964366
7.14525e-06;0.002364881563213241
7.14550e-06;0.0023999297843083117
7.14575e-06;0.002423930069863384
7.14600e-06;0.0024620494047331676
7.14625e-06;0.0024830229930490957
7.14650e-06;0.0025046014082268503
7.14675e-06;0.002529684023013288
7.14700e-06;0.0025514237504165437
7.14725e-06;0.002564772881166248
7.14750e-06;0.0025781220119159972
7.14775e-06;0.0025914711426657014
7.14800e-06;0.002604820273415451
