Time(s);Current(A)
1.50000e-06;-0.007459947466944012
1.50025e-06;-0.007448464649439803
1.50050e-06;-0.0074446582435947276
1.50075e-06;-0.007442577436132393
1.50100e-06;-0.007448859287882153
1.50125e-06;-0.007457352018440072
1.50150e-06;-0.007478413219111886
1.50175e-06;-0.007502797210240753
1.50200e-06;-0.00752718120136964
1.50225e-06;-0.0075515651924985055
1.50250e-06;-0.007581448529155448
1.50275e-06;-0.007624736816344761
1.50300e-06;-0.007668025103534037
1.50325e-06;-0.007711313390723349
1.50350e-06;-0.007754601677912624
1.50375e-06;-0.007807180212731889
1.50400e-06;-0.007862214857633689
1.50425e-06;-0.007917249502535442
1.50450e-06;-0.007977190555118929
1.50475e-06;-0.008038428739690195
1.50500e-06;-0.008099666924261461
1.50525e-06;-0.008163194913068354
1.50550e-06;-0.00822732826908324
1.50575e-06;-0.008291461625098183
1.50600e-06;-0.008355496155656839
1.50625e-06;-0.008419504559226352
1.50650e-06;-0.008481993015002508
1.50675e-06;-0.008544079634439249
1.50700e-06;-0.008603285092842113
1.50725e-06;-0.008661728844028245
1.50750e-06;-0.008704095149472894
1.50775e-06;-0.008742210978702248
1.50800e-06;-0.008780326807931602
1.50825e-06;-0.008818442637160988
1.50850e-06;-0.00885655846639034
1.50875e-06;-0.008894674295619727
1.50900e-06;-0.00893279012484908
1.50925e-06;-0.008970905954078434
1.50950e-06;-0.00900902178330782
1.50975e-06;-0.009047137612537174
1.51000e-06;-0.009085253441766559
1.51025e-06;-0.009123369270995912
1.51050e-06;-0.009154711994470533
1.51075e-06;-0.009169544908346114
1.51100e-06;-0.009184377822221692
1.51125e-06;-0.009199210736097287
1.51150e-06;-0.009214043649972867
1.51175e-06;-0.00922887656384846
1.51200e-06;-0.00924370947772404
1.51225e-06;-0.00925854239159962
1.51250e-06;-0.009273375305475213
1.51275e-06;-0.009288208219350794
1.51300e-06;-0.009303041133226386
1.51325e-06;-0.009317874047101967
1.51350e-06;-0.009332706960977547
1.51375e-06;-0.009337821835352814
1.51400e-06;-0.009340367502130239
1.51425e-06;-0.009342913168907667
1.51450e-06;-0.009345458835685093
1.51475e-06;-0.00934800450246252
1.51500e-06;-0.009350550169239946
1.51525e-06;-0.00935309583601737
1.51550e-06;-0.009355641502794798
1.51575e-06;-0.009358187169572223
1.51600e-06;-0.009360732836349651
1.51625e-06;-0.009363278503127076
1.51650e-06;-0.009365824169904502
1.51675e-06;-0.00936836983668193
1.51700e-06;-0.009370915503459355
1.51725e-06;-0.009373461170236783
1.51750e-06;-0.009376006837014207
1.51775e-06;-0.009378552503791633
1.51800e-06;-0.00938109817056906
1.51825e-06;-0.009382648053225574
1.51850e-06;-0.009383934675362407
1.51875e-06;-0.009385221297499238
1.51900e-06;-0.009386507919636071
1.51925e-06;-0.009387794541772902
1.51950e-06;-0.009389081163909734
1.51975e-06;-0.009390367786046565
1.52000e-06;-0.009391654408183396
1.52025e-06;-0.009392941030320229
1.52050e-06;-0.00939422765245706
1.52075e-06;-0.009395514274593892
1.52100e-06;-0.009396800896730723
1.52125e-06;-0.009398087518867554
1.52150e-06;-0.009399374141004387
1.52175e-06;-0.009400660763141219
1.52200e-06;-0.00940194738527805
1.52225e-06;-0.009403234007414883
1.52250e-06;-0.009404520629551714
1.52275e-06;-0.009408173047175632
1.52300e-06;-0.0094124509222017
1.52325e-06;-0.00941672879722777
1.52350e-06;-0.009421006672253837
1.52375e-06;-0.009425284547279904
1.52400e-06;-0.009429562422305976
1.52425e-06;-0.009433840297332043
1.52450e-06;-0.009438118172358114
1.52475e-06;-0.00944239604738418
1.52500e-06;-0.009446673922410248
1.52525e-06;-0.00945091758335742
1.52550e-06;-0.00945507784564692
1.52575e-06;-0.009459238107936425
1.52600e-06;-0.009463398370225926
1.52625e-06;-0.009467558632515428
1.52650e-06;-0.009471718894804932
1.52675e-06;-0.009475879157094434
1.52700e-06;-0.009480039419383938
1.52725e-06;-0.00948419968167344
1.52750e-06;-0.009488359943962944
1.52775e-06;-0.009492520206252445
1.52800e-06;-0.009495185161345926
1.52825e-06;-0.009497454794460266
1.52850e-06;-0.009499724427574604
1.52875e-06;-0.009499757781793546
1.52900e-06;-0.00949486412148024
1.52925e-06;-0.009488824184143001
1.52950e-06;-0.009482784246805756
1.52975e-06;-0.009470725900566006
1.53000e-06;-0.009457076436912432
1.53025e-06;-0.009443426973258867
1.53050e-06;-0.009420404369868119
1.53075e-06;-0.00939490374178686
1.53100e-06;-0.009369403113705623
1.53125e-06;-0.009343902485624365
1.53150e-06;-0.009318401857543127
1.53175e-06;-0.00928858262033413
1.53200e-06;-0.00924823654108215
1.53225e-06;-0.00920789046183017
1.53250e-06;-0.009167544382578156
1.53275e-06;-0.009127198303326176
1.53300e-06;-0.009086852224074161
1.53325e-06;-0.009037846142076816
1.53350e-06;-0.008986550571047629
1.53375e-06;-0.0089352550000184
1.53400e-06;-0.008883959428989213
1.53425e-06;-0.008832663857959984
1.53450e-06;-0.00877734165906199
1.53475e-06;-0.00872095492004641
1.53500e-06;-0.008664568181030783
1.53525e-06;-0.008608181442015203
1.53550e-06;-0.008551794702999577
1.53575e-06;-0.008495108025655205
1.53600e-06;-0.008438342052087194
1.53625e-06;-0.008382467349093495
1.53650e-06;-0.008327709234193561
1.53675e-06;-0.008274201249734341
1.53700e-06;-0.008222162831976326
1.53725e-06;-0.008171905431663662
1.53750e-06;-0.008129997085779895
1.53775e-06;-0.008090193724880604
1.53800e-06;-0.008050390363981278
1.53825e-06;-0.008010587003081987
1.53850e-06;-0.007970783642182662
1.53875e-06;-0.007930980281283369
1.53900e-06;-0.007891176920384078
1.53925e-06;-0.00785415170656812
1.53950e-06;-0.007823898375701625
1.53975e-06;-0.007793645044835106
1.54000e-06;-0.007763391713968612
1.54025e-06;-0.007733138383102118
1.54050e-06;-0.007702885052235598
1.54075e-06;-0.007672631721369104
1.54100e-06;-0.007642378390502584
1.54125e-06;-0.007614017487326097
1.54150e-06;-0.007586156894896237
1.54175e-06;-0.007558296302466401
1.54200e-06;-0.007530435710036564
1.54225e-06;-0.007502575117606704
1.54250e-06;-0.007474714525176867
1.54275e-06;-0.007447757418393202
1.54300e-06;-0.007421039170711346
1.54325e-06;-0.00739432092302949
1.54350e-06;-0.00736760267534761
1.54375e-06;-0.007340884427665754
1.54400e-06;-0.0073141661799838754
1.54425e-06;-0.007288405127435302
1.54450e-06;-0.007262897133439159
1.54475e-06;-0.007237389139442995
1.54500e-06;-0.007212250728100276
1.54525e-06;-0.0071872100252059245
1.54550e-06;-0.007162670017495781
1.54575e-06;-0.007138262381121525
1.54600e-06;-0.007114831827736366
1.54625e-06;-0.007091659590757358
1.54650e-06;-0.007069676205602206
1.54675e-06;-0.0070480071232586275
1.54700e-06;-0.00702708788673703
1.54725e-06;-0.007006932221489915
1.54750e-06;-0.006987600361232036
1.54775e-06;-0.006969229405117168
1.54800e-06;-0.006951956994151063
1.54825e-06;-0.0069359434299859045
1.54850e-06;-0.006921726561969659
1.54875e-06;-0.006910350184464463
1.54900e-06;-0.006902627047698146
1.54925e-06;-0.006898754032058735
1.54950e-06;-0.006898657767015082
1.54975e-06;-0.006902232060616666
1.55000e-06;-0.006909369734576767
1.55025e-06;-0.006921424610244935
1.55050e-06;-0.0069345837325629645
1.55075e-06;-0.00695425796912032
1.55100e-06;-0.006975654639610823
1.55125e-06;-0.007005319133705557
1.55150e-06;-0.007037169434434832
1.55175e-06;-0.007069019735164107
1.55200e-06;-0.0071119001353494
1.55225e-06;-0.007157696619104511
1.55250e-06;-0.007203493102859662
1.55275e-06;-0.007249289586614774
1.55300e-06;-0.007295086070369885
1.55325e-06;-0.007351999128924375
1.55350e-06;-0.007411851132975583
1.55375e-06;-0.007471703137026843
1.55400e-06;-0.007531555141078051
1.55425e-06;-0.00759140714512931
1.55450e-06;-0.007656401559418014
1.55475e-06;-0.007722755498891643
1.55500e-06;-0.007789109438365328
1.55525e-06;-0.007856960859721221
1.55550e-06;-0.0079252081779891
1.55575e-06;-0.007993455496256923
1.55600e-06;-0.008060831063512615
1.55625e-06;-0.008127976161513437
1.55650e-06;-0.008193047766401274
1.55675e-06;-0.00825757119135455
1.55700e-06;-0.008319023784056332
1.55725e-06;-0.008379664525195982
1.55750e-06;-0.008425525660672414
1.55775e-06;-0.00846747943652675
1.55800e-06;-0.008509433212381122
1.55825e-06;-0.008551386988235458
1.55850e-06;-0.00859334076408983
1.55875e-06;-0.008635294539944166
1.55900e-06;-0.008677248315798502
1.55925e-06;-0.008719202091652873
1.55950e-06;-0.00876115586750721
1.55975e-06;-0.008803109643361581
1.56000e-06;-0.008838559596322267
1.56025e-06;-0.008858156131147776
1.56050e-06;-0.0088777526659733
1.56075e-06;-0.008897349200798807
1.56100e-06;-0.008916945735624331
1.56125e-06;-0.008936542270449838
1.56150e-06;-0.008956138805275345
1.56175e-06;-0.00897573534010087
1.56200e-06;-0.008995331874926377
1.56225e-06;-0.009014928409751901
1.56250e-06;-0.009034524944577408
1.56275e-06;-0.009043946008015658
1.56300e-06;-0.00905067693025947
1.56325e-06;-0.009057407852503281
1.56350e-06;-0.0090641387747471
1.56375e-06;-0.009070869696990912
1.56400e-06;-0.00907760061923473
1.56425e-06;-0.00908433154147854
1.56450e-06;-0.009091062463722353
1.56475e-06;-0.00909779338596617
1.56500e-06;-0.009104524308209983
1.56525e-06;-0.0091112552304538
1.56550e-06;-0.009113252173394724
1.56575e-06;-0.009113997570117171
1.56600e-06;-0.009114742966839619
1.56625e-06;-0.009115488363562066
1.56650e-06;-0.009116233760284512
1.56675e-06;-0.00911697915700696
1.56700e-06;-0.009117724553729407
1.56725e-06;-0.009118469950451853
1.56750e-06;-0.009119215347174301
1.56775e-06;-0.009119960743896748
1.56800e-06;-0.009120706140619194
1.56825e-06;-0.009118284810883519
1.56850e-06;-0.009115026277545983
1.56875e-06;-0.009111767744208446
1.56900e-06;-0.009108509210870907
1.56925e-06;-0.009105250677533368
1.56950e-06;-0.009101992144195829
1.56975e-06;-0.009098733610858292
1.57000e-06;-0.009095475077520754
1.57025e-06;-0.009089771867650535
1.57050e-06;-0.009078109627236475
1.57075e-06;-0.009066447386822407
1.57100e-06;-0.00905478514640835
1.57125e-06;-0.009043122905994282
1.57150e-06;-0.009031460665580224
1.57175e-06;-0.009019798425166167
1.57200e-06;-0.009008136184752099
1.57225e-06;-0.008996473944338041
1.57250e-06;-0.008978983630611084
1.57275e-06;-0.008959952519460104
1.57300e-06;-0.008940921408309124
1.57325e-06;-0.008921890297158128
1.57350e-06;-0.008902859186007148
1.57375e-06;-0.00888382807485615
1.57400e-06;-0.00886479696370517
1.57425e-06;-0.00884576585255419
1.57450e-06;-0.008824373426821673
1.57475e-06;-0.00880235672832712
1.57500e-06;-0.008780340029832549
1.57525e-06;-0.008758323331337995
1.57550e-06;-0.008736306632843442
1.57575e-06;-0.00871428993434887
1.57600e-06;-0.008692273235854316
1.57625e-06;-0.008670256537359743
1.57650e-06;-0.00864942887483594
1.57675e-06;-0.008628915563807443
1.57700e-06;-0.008608402252778962
1.57725e-06;-0.008587888941750482
1.57750e-06;-0.008569988858143534
1.57775e-06;-0.008552779646779146
1.57800e-06;-0.008535570435414742
1.57825e-06;-0.008518361224050353
1.57850e-06;-0.0085049003210621
1.57875e-06;-0.008492430377449275
1.57900e-06;-0.008485977246800449
1.57925e-06;-0.008481114811638376
1.57950e-06;-0.008476252376476309
1.57975e-06;-0.008478615371193427
1.58000e-06;-0.008482888589606625
1.58025e-06;-0.00848716180801982
1.58050e-06;-0.008503013686968675
1.58075e-06;-0.008521926675373109
1.58100e-06;-0.008540839663777557
1.58125e-06;-0.008559752652181991
1.58150e-06;-0.008578665640586423
1.58175e-06;-0.008597578628990873
1.58200e-06;-0.008630735741665146
1.58225e-06;-0.008667658646017524
1.58250e-06;-0.008704581550369872
1.58275e-06;-0.008741504454722219
1.58300e-06;-0.008778427359074597
1.58325e-06;-0.008815350263426945
1.58350e-06;-0.008862713485331195
1.58375e-06;-0.008912836867158753
1.58400e-06;-0.008962960248986313
1.58425e-06;-0.009013083630813913
1.58450e-06;-0.009063207012641473
1.58475e-06;-0.009113330394469073
1.58500e-06;-0.009163453776296633
1.58525e-06;-0.009215904984292544
1.58550e-06;-0.009268971611548051
1.58575e-06;-0.00932203823880356
1.58600e-06;-0.009375104866059112
1.58625e-06;-0.009428171493314621
1.58650e-06;-0.009481238120570173
1.58675e-06;-0.00953430474782568
1.58700e-06;-0.009582657812956356
1.58725e-06;-0.009629764729662163
1.58750e-06;-0.00967687164636793
1.58775e-06;-0.009710411995694479
1.58800e-06;-0.009740365682509036
1.58825e-06;-0.009770319369323596
1.58850e-06;-0.009800273056138177
1.58875e-06;-0.009830226742952735
1.58900e-06;-0.009860180429767319
1.58925e-06;-0.009890134116581876
1.58950e-06;-0.00992008780339646
1.58975e-06;-0.009950041490211017
1.59000e-06;-0.009972787291562348
1.59025e-06;-0.00997796348439811
1.59050e-06;-0.009983139677233868
1.59075e-06;-0.00998831587006963
1.59100e-06;-0.009993492062905389
1.59125e-06;-0.009998668255741146
1.59150e-06;-0.010003844448576908
1.59175e-06;-0.010009020641412666
1.59200e-06;-0.010014196834248429
1.59225e-06;-0.010019373027084185
1.59250e-06;-0.01001027538232317
1.59275e-06;-0.00999740409042083
1.59300e-06;-0.009984532798518499
1.59325e-06;-0.009971661506616158
1.59350e-06;-0.009958790214713829
1.59375e-06;-0.009945918922811487
1.59400e-06;-0.009933047630909157
1.59425e-06;-0.009920176339006827
1.59450e-06;-0.009907305047104485
1.59475e-06;-0.00988847222720338
1.59500e-06;-0.009868063327783526
1.59525e-06;-0.009847654428363687
1.59550e-06;-0.00982724552894385
1.59575e-06;-0.009806836629523995
1.59600e-06;-0.009786427730104158
1.59625e-06;-0.009766018830684304
1.59650e-06;-0.009745609931264465
1.59675e-06;-0.009725201031844629
1.59700e-06;-0.009709848566992547
1.59725e-06;-0.009695832897499248
1.59750e-06;-0.009681817228005938
1.59775e-06;-0.009667801558512639
1.59800e-06;-0.009653785889019328
1.59825e-06;-0.009639770219526028
1.59850e-06;-0.00962575455003273
1.59875e-06;-0.009611738880539419
1.59900e-06;-0.00959772321104612
1.59925e-06;-0.00958370754155281
1.59950e-06;-0.009569691872059511
1.59975e-06;-0.009555676202566213
1.60000e-06;-0.009541660533072902
1.60025e-06;-0.009527644863579604
1.60050e-06;-0.009513629194086293
1.60075e-06;-0.009499613524592993
1.60100e-06;-0.009485597855099694
1.60125e-06;-0.009471582185606384
1.60150e-06;-0.009457566516113085
1.60175e-06;-0.009448221895291561
1.60200e-06;-0.009440112183396698
1.60225e-06;-0.009432002471501827
1.60250e-06;-0.009423892759606964
1.60275e-06;-0.0094157830477121
1.60300e-06;-0.00940767333581723
1.60325e-06;-0.009399563623922367
1.60350e-06;-0.009391453912027496
1.60375e-06;-0.009383344200132633
1.60400e-06;-0.00937523448823777
1.60425e-06;-0.009367124776342899
1.60450e-06;-0.009359015064448035
1.60475e-06;-0.009350905352553165
1.60500e-06;-0.009342795640658302
1.60525e-06;-0.009334685928763438
1.60550e-06;-0.009326576216868568
1.60575e-06;-0.009318466504973704
1.60600e-06;-0.009310356793078834
1.60625e-06;-0.00930224708118397
1.60650e-06;-0.009296418842150983
1.60675e-06;-0.009291193767717839
1.60700e-06;-0.009285968693284692
1.60725e-06;-0.009280743618851544
1.60750e-06;-0.0092755185444184
1.60775e-06;-0.00927029346998525
1.60800e-06;-0.009265068395552105
1.60825e-06;-0.00925984332111896
1.60850e-06;-0.00925461824668581
1.60875e-06;-0.009249393172252665
1.60900e-06;-0.009247291874187257
1.60925e-06;-0.009252804949039429
1.60950e-06;-0.0092583180238916
1.60975e-06;-0.009263831098743777
1.61000e-06;-0.009269344173595949
1.61025e-06;-0.009274857248448124
1.61050e-06;-0.009280370323300296
1.61075e-06;-0.009285883398152473
1.61100e-06;-0.009291396473004645
1.61125e-06;-0.009296909547856816
1.61150e-06;-0.009302422622708991
1.61175e-06;-0.0093188262906941
1.61200e-06;-0.009338109160250489
1.61225e-06;-0.009357392029806861
1.61250e-06;-0.009376674899363231
1.61275e-06;-0.00939595776891962
1.61300e-06;-0.009415240638475993
1.61325e-06;-0.00943452350803238
1.61350e-06;-0.009453806377588752
1.61375e-06;-0.009475110896690364
1.61400e-06;-0.009501343295298536
1.61425e-06;-0.009527575693906687
1.61450e-06;-0.009553808092514859
1.61475e-06;-0.00958004049112301
1.61500e-06;-0.00960627288973116
1.61525e-06;-0.009632505288339333
1.61550e-06;-0.009658737686947482
1.61575e-06;-0.009684970085555656
1.61600e-06;-0.009710785853082859
1.61625e-06;-0.009736491473729358
1.61650e-06;-0.009762197094375834
1.61675e-06;-0.00978790271502231
1.61700e-06;-0.009813608335668808
1.61725e-06;-0.00983531973828496
1.61750e-06;-0.009855975169138345
1.61775e-06;-0.009876630599991712
1.61800e-06;-0.009897286030845078
1.61825e-06;-0.009917941461698462
1.61850e-06;-0.009931335664531723
1.61875e-06;-0.009942810179532711
1.61900e-06;-0.00995428469453369
1.61925e-06;-0.00995602889194149
1.61950e-06;-0.009955200635731798
1.61975e-06;-0.009954372379522108
1.62000e-06;-0.009938677091755872
1.62025e-06;-0.009919051331141
1.62050e-06;-0.00989942557052611
1.62075e-06;-0.009879799809911239
1.62100e-06;-0.009860174049296367
1.62125e-06;-0.009840548288681479
1.62150e-06;-0.009800993055094543
1.62175e-06;-0.009756168965239549
1.62200e-06;-0.009711344875384593
1.62225e-06;-0.009666520785529637
1.62250e-06;-0.009621696695674644
1.62275e-06;-0.009576872605819688
1.62300e-06;-0.009517389766729906
1.62325e-06;-0.009454031519449785
1.62350e-06;-0.009390673272169666
1.62375e-06;-0.00932731502488949
1.62400e-06;-0.00926395677760937
1.62425e-06;-0.00919305514028584
1.62450e-06;-0.009120159218519084
1.62475e-06;-0.009047263296752263
1.62500e-06;-0.008974367374985505
1.62525e-06;-0.008901471453218748
1.62550e-06;-0.008826718153038359
1.62575e-06;-0.00875147380826745
1.62600e-06;-0.008677122207245386
1.62625e-06;-0.008603006625434912
1.62650e-06;-0.008530364218127588
1.62675e-06;-0.008459421670186837
1.62700e-06;-0.008390421004372747
1.62725e-06;-0.008324963055453232
1.62750e-06;-0.008260330200097492
1.62775e-06;-0.008202771037647726
1.62800e-06;-0.00814708198341683
1.62825e-06;-0.008091392929185981
1.62850e-06;-0.008042763572703292
1.62875e-06;-0.007996000624468416
1.62900e-06;-0.007949237676233501
1.62925e-06;-0.00790377222644228
1.62950e-06;-0.00785864980292259
1.62975e-06;-0.00781352737940286
1.63000e-06;-0.007771398569238131
1.63025e-06;-0.007730061195882072
1.63050e-06;-0.007688723822526047
1.63075e-06;-0.007647970919993741
1.63100e-06;-0.007607372536989695
1.63125e-06;-0.007566774153985683
1.63150e-06;-0.007526175770981637
1.63175e-06;-0.007485577387977624
1.63200e-06;-0.007445013018496944
1.63225e-06;-0.00740453155880885
1.63250e-06;-0.00736405009912079
1.63275e-06;-0.007323568639432696
1.63300e-06;-0.007283087179744636
1.63325e-06;-0.007242605720056542
1.63350e-06;-0.007201645333569587
1.63375e-06;-0.007160558330765706
1.63400e-06;-0.007119471327961788
1.63425e-06;-0.007079365459377018
1.63450e-06;-0.00703951897824249
1.63475e-06;-0.006999672497107996
1.63500e-06;-0.006960156252591296
1.63525e-06;-0.006920727314411054
1.63550e-06;-0.006881950255948501
1.63575e-06;-0.006843345538246794
1.63600e-06;-0.00680570759131283
1.63625e-06;-0.006769217241652011
1.63650e-06;-0.006733902601800376
1.63675e-06;-0.006699660317061856
1.63700e-06;-0.00666642767507757
1.63725e-06;-0.006634331000328066
1.63750e-06;-0.006603585288373164
1.63775e-06;-0.006574415843085334
1.63800e-06;-0.006547048315453569
1.63825e-06;-0.006521733226875121
1.63850e-06;-0.006499122801441106
1.63875e-06;-0.006480398013000277
1.63900e-06;-0.006466466031227689
1.63925e-06;-0.006457554868377457
1.63950e-06;-0.0064536000100003195
1.63975e-06;-0.006454499941935652
1.64000e-06;-0.00646015241343557
1.64025e-06;-0.00647240067424194
1.64050e-06;-0.006486131162959496
1.64075e-06;-0.00650835579171563
1.64100e-06;-0.006532826059533008
1.64125e-06;-0.006567947563155278
1.64150e-06;-0.006605884988232239
1.64175e-06;-0.006643822413309233
1.64200e-06;-0.006696140673251441
1.64225e-06;-0.006752260867746166
1.64250e-06;-0.006808381062240938
1.64275e-06;-0.006864501256735662
1.64300e-06;-0.006920621451230434
1.64325e-06;-0.006991141779176428
1.64350e-06;-0.00706546914374037
1.64375e-06;-0.007139796508304375
1.64400e-06;-0.007214123872868317
1.64425e-06;-0.007288451237432322
1.64450e-06;-0.007369548280790805
1.64475e-06;-0.007452435058609008
1.64500e-06;-0.007535321836427281
1.64525e-06;-0.007620210167337164
1.64550e-06;-0.007705627659031527
1.64575e-06;-0.007791045150725819
1.64600e-06;-0.007875489549278547
1.64625e-06;-0.007959676686241557
1.64650e-06;-0.008041349298474413
1.64675e-06;-0.008122357132998399
1.64700e-06;-0.008199542079686503
1.64725e-06;-0.008275716350048229
1.64750e-06;-0.008344610314779594
