Time(s);Current(A)
7.25000e-06;-0.0020309858645047455
7.25025e-06;-0.0020454036232641056
7.25050e-06;-0.002059825230942241
7.25075e-06;-0.002074246838620425
7.25100e-06;-0.002088107420900816
7.25125e-06;-0.002101952384684835
7.25150e-06;-0.0021157973484689013
7.25175e-06;-0.002130716226616237
7.25200e-06;-0.002145665001676712
7.25225e-06;-0.0021606137767372375
7.25250e-06;-0.0021755625517977124
7.25275e-06;-0.0021913362720434827
7.25300e-06;-0.002207132958100538
7.25325e-06;-0.002222929644157539
7.25350e-06;-0.0022387263302145405
7.25375e-06;-0.0022557056260385545
7.25400e-06;-0.002272717844768358
7.25425e-06;-0.0022897300634981614
7.25450e-06;-0.0023067422822280223
7.25475e-06;-0.002323754500957826
7.25500e-06;-0.002340766719687687
7.25525e-06;-0.0023578178662068947
7.25550e-06;-0.002374912399524264
7.25575e-06;-0.00239200693284169
7.25600e-06;-0.0024091014661590587
7.25625e-06;-0.0024261959994764273
7.25650e-06;-0.002443290532793854
7.25675e-06;-0.0024603850661112227
7.25700e-06;-0.0024761789428666206
7.25725e-06;-0.0024919366103883095
7.25750e-06;-0.002507694277909945
7.25775e-06;-0.0025219908631372756
7.25800e-06;-0.0025362467730073923
7.25825e-06;-0.0025505026828774604
7.25850e-06;-0.002560899048672931
7.25875e-06;-0.002571187967862112
7.25900e-06;-0.002581476887051259
7.25925e-06;-0.00259176580624044
7.25950e-06;-0.002602054725429587
7.25975e-06;-0.0026123436446187334
7.26000e-06;-0.002622632563807915
7.26025e-06;-0.002627362380383262
7.26050e-06;-0.0026319374360080196
7.26075e-06;-0.0026365124916327928
7.26100e-06;-0.0026410875472575503
7.26125e-06;-0.002645662602882308
7.26150e-06;-0.0026502376585070806
7.26175e-06;-0.002654812714131838
7.26200e-06;-0.002653596296269486
7.26225e-06;-0.002652218648438155
7.26250e-06;-0.0026508410006068285
7.26275e-06;-0.002649463352775502
7.26300e-06;-0.0026480857049441704
7.26325e-06;-0.0026467080571128438
7.26350e-06;-0.0026453304092815123
7.26375e-06;-0.0026439527614501857
7.26400e-06;-0.002642575113618859
7.26425e-06;-0.0026411974657875275
7.26450e-06;-0.0026378601387655044
7.26475e-06;-0.0026323386598358155
7.26500e-06;-0.0026268171809061074
7.26525e-06;-0.0026212957019764184
7.26550e-06;-0.0026157742230467295
7.26575e-06;-0.002610252744117022
7.26600e-06;-0.0026047312651873325
7.26625e-06;-0.0025992097862576435
7.26650e-06;-0.002593688307327936
7.26675e-06;-0.002588166828398247
7.26700e-06;-0.0025826453494685576
7.26725e-06;-0.0025769925554305507
7.26750e-06;-0.002571336105685451
7.26775e-06;-0.0025656796559403315
7.26800e-06;-0.0025600232061952317
7.26825e-06;-0.0025543667564501315
7.26850e-06;-0.0025487103067050126
7.26875e-06;-0.0025430538569599123
7.26900e-06;-0.0025390856728039046
7.26925e-06;-0.0025369991377077296
7.26950e-06;-0.0025349126026115616
7.26975e-06;-0.002532826067515393
7.27000e-06;-0.0025307395324192183
7.27025e-06;-0.0025286529973230503
7.27050e-06;-0.0025265664622268823
7.27075e-06;-0.002524479927130707
7.27100e-06;-0.0025279984556999128
7.27125e-06;-0.002531673024738158
7.27150e-06;-0.002535347593776416
7.27175e-06;-0.002539022162814661
7.27200e-06;-0.002542696731852919
7.27225e-06;-0.0025463713008911644
7.27250e-06;-0.002552530912945299
7.27275e-06;-0.002561460218870146
7.27300e-06;-0.002570389524794963
7.27325e-06;-0.0025793188307197796
7.27350e-06;-0.0025882481366446266
7.27375e-06;-0.0025971774425694433
7.27400e-06;-0.00260610674849426
7.27425e-06;-0.0026179791928428488
7.27450e-06;-0.0026299335718003984
7.27475e-06;-0.0026418879507579484
7.27500e-06;-0.002654973290470371
7.27525e-06;-0.00266809011522147
7.27550e-06;-0.002681206939972569
7.27575e-06;-0.002694995560546638
7.27600e-06;-0.0027088028833766
7.27625e-06;-0.0027226102062066085
7.27650e-06;-0.002736432026597321
7.27675e-06;-0.0027502542505884768
7.27700e-06;-0.0027640764745796792
7.27725e-06;-0.002777377919005729
7.27750e-06;-0.0027906648653471242
7.27775e-06;-0.002803220590968178
7.27800e-06;-0.0028157559599918587
7.27825e-06;-0.0028268791004804924
7.27850e-06;-0.002837962925661458
7.27875e-06;-0.0028490467508423857
7.27900e-06;-0.002857734023519758
7.27925e-06;-0.002866354578101072
7.27950e-06;-0.0028749751326823565
7.27975e-06;-0.0028790447600592056
7.28000e-06;-0.0028829876932793476
7.28025e-06;-0.0028869306264994767
7.28050e-06;-0.0028908735597196187
7.28075e-06;-0.0028948164929397473
7.28100e-06;-0.002898759426159876
7.28125e-06;-0.002899572382160931
7.28150e-06;-0.002896896835684456
7.28175e-06;-0.002894221289207981
7.28200e-06;-0.002891545742731497
7.28225e-06;-0.002888870196255022
7.28250e-06;-0.0028861946497785477
7.28275e-06;-0.0028835191033020637
7.28300e-06;-0.002874673825878577
7.28325e-06;-0.002865656788102988
7.28350e-06;-0.0028566397503273695
7.28375e-06;-0.0028476227125517808
7.28400e-06;-0.0028386056747761925
7.28425e-06;-0.0028295886370005735
7.28450e-06;-0.002820571599224985
7.28475e-06;-0.002811554561449366
7.28500e-06;-0.0028008012332600956
7.28525e-06;-0.002788112730152494
7.28550e-06;-0.00277542422704485
7.28575e-06;-0.0027627357239372484
7.28600e-06;-0.0027500472208296474
7.28625e-06;-0.002737358717722003
7.28650e-06;-0.0027246702146144016
7.28675e-06;-0.0027119817115068
7.28700e-06;-0.0026992932083991557
7.28725e-06;-0.0026867113316528905
7.28750e-06;-0.0026741324232988466
7.28775e-06;-0.0026615535149447597
7.28800e-06;-0.0026501455866539446
7.28825e-06;-0.002638770257507162
7.28850e-06;-0.002627394928360341
7.28875e-06;-0.002617536217736906
7.28900e-06;-0.00260771972855446
7.28925e-06;-0.002598725183109368
7.28950e-06;-0.0025892694373029694
7.28975e-06;-0.002577505522987754
7.29000e-06;-0.0025656777262901376
7.29025e-06;-0.0025501646043444804
7.29050e-06;-0.002534548885905206
7.29075e-06;-0.0025189331674659848
7.29100e-06;-0.0025004484044063675
7.29125e-06;-0.002481883769449885
7.29150e-06;-0.0024590749358292183
7.29175e-06;-0.0024361479471281923
7.29200e-06;-0.002413220958427089
7.29225e-06;-0.0023846094157486345
7.29250e-06;-0.0023558396196553294
7.29275e-06;-0.002327069823561927
7.29300e-06;-0.0022937125634568626
7.29325e-06;-0.002260227592039917
7.29350e-06;-0.0022267426206230853
7.29375e-06;-0.0021908355329154404
7.29400e-06;-0.002152228886045427
7.29425e-06;-0.0021136222391755447
7.29450e-06;-0.0020750155923056623
7.29475e-06;-0.0020337309255945
7.29500e-06;-0.0019923717049630794
7.29525e-06;-0.001950028009346818
7.29550e-06;-0.001907656906737934
7.29575e-06;-0.0018645645504817606
7.29600e-06;-0.0018211232016940558
7.29625e-06;-0.0017775988492711062
7.29650e-06;-0.0017342534339935744
7.29675e-06;-0.001691349116859811
7.29700e-06;-0.0016491478386500404
7.29725e-06;-0.0016078606791138353
7.29750e-06;-0.001567589703161814
7.29775e-06;-0.0015284306956295196
7.29800e-06;-0.0014905932916778942
7.29825e-06;-0.001454349874428832
7.29850e-06;-0.0014199743722879722
7.29875e-06;-0.001387740937031832
7.29900e-06;-0.0013579235002188267
7.29925e-06;-0.0013307959871014252
7.29950e-06;-0.0013065961922920893
7.29975e-06;-0.001285469275440899
7.30000e-06;-0.0012674812800745204
7.30025e-06;-0.0012526766371072934
7.30050e-06;-0.0012410987820667344
7.30075e-06;-0.0012327911378679736
7.30100e-06;-0.001227797240688196
7.30125e-06;-0.0012261605165955662
7.30150e-06;-0.0012295264822305284
7.30175e-06;-0.0012330291864336691
7.30200e-06;-0.001242852713862859
7.30225e-06;-0.0012528522079311836
7.30250e-06;-0.001268786244515095
7.30275e-06;-0.0012848854939935246
7.30300e-06;-0.0013065266625941474
7.30325e-06;-0.0013283221137696428
7.30350e-06;-0.0013540142940772974
7.30375e-06;-0.001382226874600597
7.30400e-06;-0.0014127402447099205
7.30425e-06;-0.0014453633515971688
7.30450e-06;-0.0014799049248886763
7.30475e-06;-0.0015161735809486106
7.30500e-06;-0.0015539781595120344
7.30525e-06;-0.0015931271668340446
7.30550e-06;-0.0016334204917836759
7.30575e-06;-0.00167463524441531
7.30600e-06;-0.0017165289925250196
7.30625e-06;-0.00175885413358594
7.30650e-06;-0.0018013628225311703
7.30675e-06;-0.0018438072111406844
7.30700e-06;-0.0018859395644562175
7.30725e-06;-0.0019275119241486795
7.30750e-06;-0.0019682711155218206
7.30775e-06;-0.0020079495477987003
7.30800e-06;-0.0020462674536405006
7.30825e-06;-0.002082941792966003
7.30850e-06;-0.0021176896702366555
7.30875e-06;-0.0021490115337392027
7.30900e-06;-0.0021802394781580965
7.30925e-06;-0.002206632939114405
7.30950e-06;-0.0022328918119363323
7.30975e-06;-0.002254554806983252
7.31000e-06;-0.0022760898564863005
7.31025e-06;-0.002297624905989422
7.31050e-06;-0.00231330664084638
7.31075e-06;-0.002328825424127627
7.31100e-06;-0.0023443442074089263
7.31125e-06;-0.002353731277572718
7.31150e-06;-0.0023629476457711126
7.31175e-06;-0.0023721640139695386
7.31200e-06;-0.0023765011223849343
7.31225e-06;-0.0023807023961292394
7.31250e-06;-0.0023849036698735584
7.31275e-06;-0.002384242975196371
7.31300e-06;-0.0023834469272257185
7.31325e-06;-0.0023826508792550633
7.31350e-06;-0.0023776834602100535
7.31375e-06;-0.0023725999135467296
7.31400e-06;-0.0023675163668833883
7.31425e-06;-0.002359314032462917
7.31450e-06;-0.0023510248734977383
7.31475e-06;-0.0023427357145325875
7.31500e-06;-0.002331704402357362
7.31525e-06;-0.002320596750840529
7.31550e-06;-0.0023094890993237338
7.31575e-06;-0.0022967753143965488
7.31600e-06;-0.00228401681600599
7.31625e-06;-0.0022712583176154742
7.31650e-06;-0.0022577517601916836
7.31675e-06;-0.0022442243774055625
7.31700e-06;-0.0022306969946194874
7.31725e-06;-0.0022171946805322157
7.31750e-06;-0.002203693064337326
7.31775e-06;-0.0021901914481424816
7.31800e-06;-0.002177760340894679
7.31825e-06;-0.002165359035755564
7.31850e-06;-0.0021537428963368816
7.31875e-06;-0.0021430018599515547
7.31900e-06;-0.002132260823566264
7.31925e-06;-0.0021226896497240667
7.31950e-06;-0.002112524250936593
7.31975e-06;-0.002102341402736391
7.32000e-06;-0.002090074643439975
7.32025e-06;-0.0020777498697334374
7.32050e-06;-0.002063393889604712
7.32075e-06;-0.0020489813623216792
7.32100e-06;-0.002034568835038598
7.32125e-06;-0.002017729778524324
7.32150e-06;-0.002000823169386471
7.32175e-06;-0.0019839165602485607
7.32200e-06;-0.001962977061944631
7.32225e-06;-0.001941925291247594
7.32250e-06;-0.0019208735205504851
7.32275e-06;-0.0018963300840784871
7.32300e-06;-0.0018716894424375319
7.32325e-06;-0.0018470488007966601
7.32350e-06;-0.0018224081591557883
7.32375e-06;-0.0017939581135333134
7.32400e-06;-0.0017654020171657754
7.32425e-06;-0.0017368459207982375
7.32450e-06;-0.0017082898244306028
7.32475e-06;-0.0016777027670422117
7.32500e-06;-0.001647059169331334
7.32525e-06;-0.0016158281938854068
7.32550e-06;-0.0015845808663155346
7.32575e-06;-0.0015528646898961044
7.32600e-06;-0.0015209215088180985
7.32625e-06;-0.0014889463211761119
7.32650e-06;-0.0014571322599889476
7.32675e-06;-0.0014256726847997972
7.32700e-06;-0.001394760734934043
7.32725e-06;-0.0013645480894476033
7.32750e-06;-0.001335097042103152
7.32775e-06;-0.0013064635794614284
7.32800e-06;-0.001278795209991273
7.32825e-06;-0.0012522908090480656
7.32850e-06;-0.0012271506109852517
7.32875e-06;-0.0012035745103697135
7.32900e-06;-0.0011817627320957738
7.32925e-06;-0.0011619685172233995
7.32950e-06;-0.0011445311893351563
7.32975e-06;-0.001129723903773728
7.33000e-06;-0.001117640086595271
7.33025e-06;-0.0011082897227443177
7.33050e-06;-0.0011016807253096963
7.33075e-06;-0.0010978207840088633
7.33100e-06;-0.001096717808777443
7.33125e-06;-0.0010984126751556141
7.33150e-06;-0.0011044345353676242
7.33175e-06;-0.001110574745102064
7.33200e-06;-0.001123617832475364
7.33225e-06;-0.001136853090413913
7.33250e-06;-0.0011500883483524173
7.33275e-06;-0.0011696114135885533
7.33300e-06;-0.0011893095263260075
7.33325e-06;-0.0012124721596661866
7.33350e-06;-0.001237955825215831
7.33375e-06;-0.0012656434359625843
7.33400e-06;-0.0012953803556255195
7.33425e-06;-0.001326979424804648
7.33450e-06;-0.0013602522929687523
7.33475e-06;-0.001395011053175669
7.33500e-06;-0.0014310673580473032
7.33525e-06;-0.001468246212531886
7.33550e-06;-0.0015063938338900139
7.33575e-06;-0.0015453400302294067
7.33600e-06;-0.0015848704174813517
7.33625e-06;-0.00162475025315927
7.33650e-06;-0.0016647442618978846
7.33675e-06;-0.0017046171683315122
7.33700e-06;-0.0017441336970948755
7.33725e-06;-0.001783066727700619
7.33750e-06;-0.0018212025051006701
7.33775e-06;-0.0018583169933640742
7.33800e-06;-0.0018941586772393756
7.33825e-06;-0.0019284631656692338
7.33850e-06;-0.00196096573021194
7.33875e-06;-0.0019902641502174217
7.33900e-06;-0.0020194747335242707
7.33925e-06;-0.002044144069186652
7.33950e-06;-0.0020686869801649333
7.33975e-06;-0.002088820518445833
7.34000e-06;-0.002108831303335162
7.34025e-06;-0.0021288420882244227
7.34050e-06;-0.002143241486511847
7.34075e-06;-0.002157484668306777
7.34100e-06;-0.002171727850101659
7.34125e-06;-0.0021800974810710196
7.34150e-06;-0.002188303597106628
7.34175e-06;-0.0021965097131422086
7.34200e-06;-0.002199979581790281
7.34225e-06;-0.0022033175971181433
7.34250e-06;-0.002206655612445994
7.34275e-06;-0.002205304195426261
7.34300e-06;-0.002203822228379399
7.34325e-06;-0.002202340261332542
7.34350e-06;-0.0021968264622329926
7.34375e-06;-0.002191200420169936
7.34400e-06;-0.0021855743781068987
7.34425e-06;-0.002176917666272697
7.34450e-06;-0.0021681765830282146
7.34475e-06;-0.0021594354997837317
7.34500e-06;-0.002148063713327045
7.34525e-06;-0.0021366186902075954
7.34550e-06;-0.0021251736670881457
7.34575e-06;-0.0021121870700082685
7.34600e-06;-0.0020991575567485396
7.34625e-06;-0.002086128043488811
7.34650e-06;-0.002072406498227323
7.34675e-06;-0.002058665687351232
7.34700e-06;-0.0020449248764751403
7.34725e-06;-0.002031267577589608
7.34750e-06;-0.0020176126036108104
7.34775e-06;-0.002003957629632013
7.34800e-06;-0.001991544084801044
7.34825e-06;-0.0019791651003596843
7.34850e-06;-0.0019667861159182822
7.34875e-06;-0.001956501236170841
7.34900e-06;-0.0019462746546147394
7.34925e-06;-0.0019360480730586031
7.34950e-06;-0.0019300521451712912
7.34975e-06;-0.0019241739952813072
7.35000e-06;-0.001918295845391303
7.35025e-06;-0.0019124176955013189
7.35050e-06;-0.0019065395456113346
7.35075e-06;-0.0019006613957213306
7.35100e-06;-0.0018977478815866773
7.35125e-06;-0.0018981385893167778
7.35150e-06;-0.0018985292970468799
7.35175e-06;-0.0018989200047769804
7.35200e-06;-0.001899310712507081
7.35225e-06;-0.001899701420237183
7.35250e-06;-0.0019000921279672836
7.35275e-06;-0.0019062221609499248
7.35300e-06;-0.001912511972133935
7.35325e-06;-0.0019188017833179454
7.35350e-06;-0.001925091594501977
7.35375e-06;-0.0019313814056859874
7.35400e-06;-0.0019376712168699976
7.35425e-06;-0.0019439610280540293
7.35450e-06;-0.0019521068816812288
7.35475e-06;-0.0019623213793269222
7.35500e-06;-0.001972535876972651
7.35525e-06;-0.0019827503746183443
7.35550e-06;-0.001992964872264038
7.35575e-06;-0.0020031793699097663
7.35600e-06;-0.0020133938675554602
7.35625e-06;-0.0020236083652011537
7.35650e-06;-0.002034676195313678
7.35675e-06;-0.002045767781516061
7.35700e-06;-0.0020568593677184814
7.35725e-06;-0.002067675273742098
7.35750e-06;-0.0020784835050511544
7.35775e-06;-0.0020887262182285363
7.35800e-06;-0.0020989531878357107
7.35825e-06;-0.002108311662943794
7.35850e-06;-0.002117645959863231
7.35875e-06;-0.002125813769452672
7.35900e-06;-0.002133949104972582
7.35925e-06;-0.0021404258289321673
7.35950e-06;-0.0021468563784792435
7.35975e-06;-0.0021500856098835433
7.36000e-06;-0.0021532257191642992
7.36025e-06;-0.0021563658284450443
7.36050e-06;-0.0021537685005986996
7.36075e-06;-0.0021510114471150745
7.36100e-06;-0.0021482543936314595
7.36125e-06;-0.002145497340147844
7.36150e-06;-0.0021427402866642195
7.36175e-06;-0.0021362553005965525
7.36200e-06;-0.0021256153635099743
7.36225e-06;-0.0021149754264234324
7.36250e-06;-0.00210433548933689
7.36275e-06;-0.002093695552250312
7.36300e-06;-0.0020830556151637696
7.36325e-06;-0.0020658660343288826
7.36350e-06;-0.00204849411667736
7.36375e-06;-0.0020311221990258967
7.36400e-06;-0.002013750281374433
7.36425e-06;-0.0019963783637229108
7.36450e-06;-0.001976886105836366
7.36475e-06;-0.001955030631979338
7.36500e-06;-0.0019331751581222367
7.36525e-06;-0.001911319684265209
7.36550e-06;-0.0018894642104081815
7.36575e-06;-0.0018676087365510799
7.36600e-06;-0.0018443041398569305
7.36625e-06;-0.0018209592007479133
7.36650e-06;-0.0017975697495969621
7.36675e-06;-0.0017741790592665462
7.36700e-06;-0.0017512686572672407
7.36725e-06;-0.0017283716261090318
7.36750e-06;-0.0017064121793879383
7.36775e-06;-0.0016844788342637385
7.36800e-06;-0.0016639685153377235
7.36825e-06;-0.0016434978123170316
7.36850e-06;-0.0016256519983828186
7.36875e-06;-0.0016078792592505733
7.36900e-06;-0.0015901065201183277
7.36925e-06;-0.0015750903184953973
7.36950e-06;-0.0015601508566606686
7.36975e-06;-0.001545356408187581
7.37000e-06;-0.0015305659967698479
7.37025e-06;-0.001515775585352165
7.37050e-06;-0.0015012221561971312
7.37075e-06;-0.0014866753244378176
7.37100e-06;-0.0014721284926785037
7.37125e-06;-0.001458029386369732
7.37150e-06;-0.0014439427443776
7.37175e-06;-0.0014298561023854683
7.37200e-06;-0.0014146830305569631
7.37225e-06;-0.0013994797133953137
7.37250e-06;-0.0013842763962336642
7.37275e-06;-0.0013690730790719633
7.37300e-06;-0.0013533795914527347
7.37325e-06;-0.0013376724578820487
7.37350e-06;-0.0013219653243113096
7.37375e-06;-0.0013062581907406236
7.37400e-06;-0.0012896461331447287
7.37425e-06;-0.0012730088831914492
7.37450e-06;-0.0012563716332382258
7.37475e-06;-0.0012397343832849462
7.37500e-06;-0.0012230869665947257
7.37525e-06;-0.0012064282186120842
7.37550e-06;-0.0011897694706293864
7.37575e-06;-0.001173110722646745
7.37600e-06;-0.0011564519746641035
7.37625e-06;-0.0011399833435654047
7.37650e-06;-0.0011235200051679614
7.37675e-06;-0.0011074354155453253
7.37700e-06;-0.0010917472542770112
7.37725e-06;-0.0010765197131495006
7.37750e-06;-0.0010617405291683017
7.37775e-06;-0.001047388357839661
7.37800e-06;-0.0010335181143097001
7.37825e-06;-0.001020228182786664
7.37850e-06;-0.001007618324895059
7.37875e-06;-0.000995788082041392
7.37900e-06;-0.000984837102587936
7.37925e-06;-0.0009748185439198519
7.37950e-06;-0.0009660543144476465
7.37975e-06;-0.0009573243003599846
7.38000e-06;-0.0009501105838868327
7.38025e-06;-0.0009429390799201584
7.38050e-06;-0.000937402515715559
7.38075e-06;-0.0009319114669194566
7.38100e-06;-0.0009286104842109806
7.38125e-06;-0.0009253704711815433
7.38150e-06;-0.000922130458152117
7.38175e-06;-0.0009221190714670854
7.38200e-06;-0.0009221975671436303
7.38225e-06;-0.0009222760628201749
7.38250e-06;-0.0009223545584967195
7.38275e-06;-0.0009224330541732644
7.38300e-06;-0.0009242555823456451
7.38325e-06;-0.0009280219143366681
7.38350e-06;-0.0009317882463276784
7.38375e-06;-0.0009355545783186887
7.38400e-06;-0.0009393209103097117
7.38425e-06;-0.000943087242300722
7.38450e-06;-0.0009494053286073115
7.38475e-06;-0.0009557944537023925
7.38500e-06;-0.000962183578797452
7.38525e-06;-0.0009685727038925116
7.38550e-06;-0.0009749618289875926
7.38575e-06;-0.000981350954082652
7.38600e-06;-0.000988834267474359
7.38625e-06;-0.0009963480421885066
7.38650e-06;-0.0010038618169026286
7.38675e-06;-0.001011375591616751
7.38700e-06;-0.0010188893663308986
7.38725e-06;-0.0010264031410450209
7.38750e-06;-0.0010336092012566526
7.38775e-06;-0.0010408066949439247
7.38800e-06;-0.0010480041886311968
7.38825e-06;-0.0010543110639374888
7.38850e-06;-0.0010605931451441284
7.38875e-06;-0.001066875226350768
7.38900e-06;-0.001072134417811527
7.38925e-06;-0.001077365132844194
7.38950e-06;-0.001082713281894416
7.38975e-06;-0.0010880647002132818
7.39000e-06;-0.0010934161185321297
7.39025e-06;-0.0010997281135134637
7.39050e-06;-0.0011060668501767473
7.39075e-06;-0.0011124055868400094
7.39100e-06;-0.0011193484262889688
7.39125e-06;-0.001126308083473772
7.39150e-06;-0.0011332677406585517
7.39175e-06;-0.0011422818956199202
7.39200e-06;-0.0011513532461474153
7.39225e-06;-0.0011604245966749104
7.39250e-06;-0.0011694959472024363
7.39275e-06;-0.0011785672977299314
7.39300e-06;-0.0011876386482574264
7.39325e-06;-0.0011978244041622775
7.39350e-06;-0.0012092522157241493
7.39375e-06;-0.0012206800272860211
7.39400e-06;-0.0012321078388479315
