Time(s);Current(A)
4.30000e-06;-0.011012344215758283
4.30025e-06;-0.011021545743724503
4.30050e-06;-0.011028977946222644
4.30075e-06;-0.011036410148720761
4.30100e-06;-0.011043842351218879
4.30125e-06;-0.01105127455371702
4.30150e-06;-0.011058706756215135
4.30175e-06;-0.011066138958713253
4.30200e-06;-0.011068613455001307
4.30225e-06;-0.011061113079690725
4.30250e-06;-0.011053612704380144
4.30275e-06;-0.011046112329069536
4.30300e-06;-0.011038611953758954
4.30325e-06;-0.011031111578448348
4.30350e-06;-0.011023611203137766
4.30375e-06;-0.011016110827827184
4.30400e-06;-0.010998982038396268
4.30425e-06;-0.010979909134144752
4.30450e-06;-0.010960836229893236
4.30475e-06;-0.010941763325641656
4.30500e-06;-0.01092269042139014
4.30525e-06;-0.010903617517138624
4.30550e-06;-0.010884544612887043
4.30575e-06;-0.010865471708635527
4.30600e-06;-0.010842960336425527
4.30625e-06;-0.010819754688249077
4.30650e-06;-0.010796549040072705
4.30675e-06;-0.010773343391896333
4.30700e-06;-0.010750137743719882
4.30725e-06;-0.01072693209554351
4.30750e-06;-0.010703726447367059
4.30775e-06;-0.010680520799190686
4.30800e-06;-0.010660836679326876
4.30825e-06;-0.010641863606505363
4.30850e-06;-0.010622890533683914
4.30875e-06;-0.010603917460862464
4.30900e-06;-0.01058494438804095
4.30925e-06;-0.010567700163202012
4.30950e-06;-0.010553934368892313
4.30975e-06;-0.010540168574582568
4.31000e-06;-0.01052640278027287
4.31025e-06;-0.010512636985963171
4.31050e-06;-0.010498871191653426
4.31075e-06;-0.010485360700602136
4.31100e-06;-0.01047190175893812
4.31125e-06;-0.010458442817274056
4.31150e-06;-0.010444983875610039
4.31175e-06;-0.010431524933945977
4.31200e-06;-0.01041806599228196
4.31225e-06;-0.010404607050617944
4.31250e-06;-0.010391148108953882
4.31275e-06;-0.010377689167289865
4.31300e-06;-0.010364230225625848
4.31325e-06;-0.010350073453054802
4.31350e-06;-0.010334512649385964
4.31375e-06;-0.010318951845717128
4.31400e-06;-0.010303391042048238
4.31425e-06;-0.0102878302383794
4.31450e-06;-0.010272269434710563
4.31475e-06;-0.010256708631041674
4.31500e-06;-0.010241147827372838
4.31525e-06;-0.010225587023704
4.31550e-06;-0.01021002622003511
4.31575e-06;-0.010194465416366273
4.31600e-06;-0.010180189432802607
4.31625e-06;-0.010166172872834214
4.31650e-06;-0.010152156312865823
4.31675e-06;-0.010138139752897382
4.31700e-06;-0.010124123192928991
4.31725e-06;-0.0101101066329606
4.31750e-06;-0.01009609007299216
4.31775e-06;-0.010082073513023768
4.31800e-06;-0.010068056953055375
4.31825e-06;-0.010054040393086936
4.31850e-06;-0.010040023833118543
4.31875e-06;-0.010026007273150152
4.31900e-06;-0.010019734143024818
4.31925e-06;-0.010015024522375201
4.31950e-06;-0.010010314901725586
4.31975e-06;-0.010005605281075953
4.32000e-06;-0.010000895660426338
4.32025e-06;-0.009996186039776705
4.32050e-06;-0.00999147641912709
4.32075e-06;-0.009986766798477474
4.32100e-06;-0.009982057177827842
4.32125e-06;-0.009977347557178226
4.32150e-06;-0.009972637936528611
4.32175e-06;-0.009967928315878978
4.32200e-06;-0.009971561799050383
4.32225e-06;-0.009976879874468854
4.32250e-06;-0.009982197949887344
4.32275e-06;-0.009987516025305815
4.32300e-06;-0.009992834100724287
4.32325e-06;-0.009998152176142777
4.32350e-06;-0.010003470251561248
4.32375e-06;-0.01000878832697972
4.32400e-06;-0.010014106402398209
4.32425e-06;-0.010019424477816681
4.32450e-06;-0.010024742553235152
4.32475e-06;-0.010030060628653642
4.32500e-06;-0.010037030005757073
4.32525e-06;-0.010047321790758863
4.32550e-06;-0.01005761357576062
4.32575e-06;-0.010067905360762375
4.32600e-06;-0.010078197145764167
4.32625e-06;-0.010088488930765922
4.32650e-06;-0.01009878071576768
4.32675e-06;-0.01010907250076947
4.32700e-06;-0.010119364285771225
4.32725e-06;-0.010129656070772982
4.32750e-06;-0.010139947855774772
4.32775e-06;-0.01015023964077653
4.32800e-06;-0.010160531425778285
4.32825e-06;-0.010169125451600586
4.32850e-06;-0.010177376675509811
4.32875e-06;-0.010185627899419038
4.32900e-06;-0.010193879123328291
4.32925e-06;-0.010202130347237517
4.32950e-06;-0.010210381571146772
4.32975e-06;-0.010218632795055997
4.33000e-06;-0.010226884018965224
4.33025e-06;-0.010235135242874477
4.33050e-06;-0.010240418915056868
4.33075e-06;-0.010239731893098666
4.33100e-06;-0.010239044871140465
4.33125e-06;-0.010238357849182263
4.33150e-06;-0.010237670827224063
4.33175e-06;-0.010236983805265859
4.33200e-06;-0.010236296783307659
4.33225e-06;-0.010235609761349459
4.33250e-06;-0.010234922739391255
4.33275e-06;-0.010234235717433053
4.33300e-06;-0.010225436174515998
4.33325e-06;-0.010214998597337356
4.33350e-06;-0.01020456102015875
4.33375e-06;-0.01019412344298011
4.33400e-06;-0.010183685865801505
4.33425e-06;-0.0101732482886229
4.33450e-06;-0.010162810711444257
4.33475e-06;-0.010152373134265652
4.33500e-06;-0.010141935557087046
4.33525e-06;-0.010130042732249845
4.33550e-06;-0.010115221958899282
4.33575e-06;-0.01010040118554872
4.33600e-06;-0.010085580412198107
4.33625e-06;-0.010070759638847545
4.33650e-06;-0.010055938865496983
4.33675e-06;-0.01004111809214637
4.33700e-06;-0.010026297318795807
4.33725e-06;-0.010011476545445245
4.33750e-06;-0.009996655772094633
4.33775e-06;-0.00998432262744611
4.33800e-06;-0.009972491770688565
4.33825e-06;-0.00996066091393106
4.33850e-06;-0.009948830057173556
4.33875e-06;-0.009936999200416012
4.33900e-06;-0.009925168343658508
4.33925e-06;-0.009913337486901002
4.33950e-06;-0.009904722988293035
4.33975e-06;-0.009896757918496677
4.34000e-06;-0.009888792848700319
4.34025e-06;-0.009880827778903934
4.34050e-06;-0.009872862709107576
4.34075e-06;-0.00986489763931122
4.34100e-06;-0.009856932569514833
4.34125e-06;-0.0098492777782115
4.34150e-06;-0.009841685636583235
4.34175e-06;-0.009834093494954945
4.34200e-06;-0.00982650135332668
4.34225e-06;-0.009818909211698389
4.34250e-06;-0.009811317070070123
4.34275e-06;-0.009802452792155202
4.34300e-06;-0.00979333165169003
4.34325e-06;-0.00978421051122489
4.34350e-06;-0.00977508937075975
4.34375e-06;-0.009765968230294578
4.34400e-06;-0.009756847089829438
4.34425e-06;-0.009747725949364298
4.34450e-06;-0.009738604808899126
4.34475e-06;-0.009729483668433986
4.34500e-06;-0.009720362527968845
4.34525e-06;-0.009711241387503674
4.34550e-06;-0.009702120247038534
4.34575e-06;-0.009693490242485097
4.34600e-06;-0.009684959405311805
4.34625e-06;-0.009676428568138542
4.34650e-06;-0.00966789773096525
4.34675e-06;-0.009659366893791986
4.34700e-06;-0.009650836056618723
4.34725e-06;-0.009642305219445431
4.34750e-06;-0.009633774382272168
4.34775e-06;-0.009625243545098904
4.34800e-06;-0.009616712707925612
4.34825e-06;-0.009608181870752349
4.34850e-06;-0.009599651033579086
4.34875e-06;-0.009596707894608788
4.34900e-06;-0.00959489299199575
4.34925e-06;-0.009593078089382713
4.34950e-06;-0.009591263186769668
4.34975e-06;-0.009589448284156633
4.35000e-06;-0.009587633381543595
4.35025e-06;-0.009585818478930551
4.35050e-06;-0.009584003576317513
4.35075e-06;-0.00958218867370447
4.35100e-06;-0.009584453515965163
4.35125e-06;-0.009594926777503468
4.35150e-06;-0.009605400039041811
4.35175e-06;-0.009615873300580117
4.35200e-06;-0.009626346562118424
4.35225e-06;-0.009636819823656766
4.35250e-06;-0.009647293085195073
4.35275e-06;-0.00965776634673338
4.35300e-06;-0.009668239608271722
4.35325e-06;-0.009678712869810029
4.35350e-06;-0.009697842713808002
4.35375e-06;-0.009718720445881629
4.35400e-06;-0.009739598177955184
4.35425e-06;-0.00976047591002874
4.35450e-06;-0.009781353642102366
4.35475e-06;-0.009802231374175921
4.35500e-06;-0.009823109106249546
4.35525e-06;-0.009843986838323101
4.35550e-06;-0.00986621310317428
4.35575e-06;-0.009891152606914231
4.35600e-06;-0.009916092110654098
4.35625e-06;-0.009941031614393966
4.35650e-06;-0.009965971118133916
4.35675e-06;-0.009990910621873784
4.35700e-06;-0.010015850125613651
4.35725e-06;-0.010040789629353602
4.35750e-06;-0.01006572913309347
4.35775e-06;-0.01008808699162521
4.35800e-06;-0.010109923578986211
4.35825e-06;-0.01013176016634714
4.35850e-06;-0.010153596753708066
4.35875e-06;-0.010175433341069066
4.35900e-06;-0.010197269928429994
4.35925e-06;-0.010219106515790995
4.35950e-06;-0.010235877029119352
4.35975e-06;-0.010251624629487444
4.36000e-06;-0.010267372229855588
4.36025e-06;-0.010283119830223678
4.36050e-06;-0.01029886743059177
4.36075e-06;-0.010314615030959914
4.36100e-06;-0.010330362631328005
4.36125e-06;-0.010340429299691955
4.36150e-06;-0.010349348906458378
4.36175e-06;-0.01035826851322477
4.36200e-06;-0.010367188119991162
4.36225e-06;-0.010376107726757585
4.36250e-06;-0.010385027333523977
4.36275e-06;-0.01039394694029037
4.36300e-06;-0.01040286654705679
4.36325e-06;-0.010411786153823183
4.36350e-06;-0.010420705760589606
4.36375e-06;-0.010429625367355998
4.36400e-06;-0.01043854497412239
4.36425e-06;-0.010447464580888813
4.36450e-06;-0.010456384187655205
4.36475e-06;-0.010465303794421597
4.36500e-06;-0.010472726331620255
4.36525e-06;-0.010477136774906998
4.36550e-06;-0.01048154721819374
4.36575e-06;-0.010485957661480498
4.36600e-06;-0.01049036810476724
4.36625e-06;-0.010494778548053982
4.36650e-06;-0.01049918899134074
4.36675e-06;-0.010503599434627482
4.36700e-06;-0.010508009877914224
4.36725e-06;-0.010512420321200982
4.36750e-06;-0.010516830764487724
4.36775e-06;-0.010521241207774482
4.36800e-06;-0.010525651651061224
4.36825e-06;-0.010530062094347967
4.36850e-06;-0.010534472537634725
4.36875e-06;-0.010538882980921467
4.36900e-06;-0.010543011364645366
4.36925e-06;-0.01054708279650074
4.36950e-06;-0.0105511542283561
4.36975e-06;-0.010558217676199869
4.37000e-06;-0.010565885254956704
4.37025e-06;-0.010573552833713513
4.37050e-06;-0.010586314898257235
4.37075e-06;-0.01060010561250133
4.37100e-06;-0.010613896326745378
4.37125e-06;-0.010634824801507152
4.37150e-06;-0.010657194492423977
4.37175e-06;-0.010679564183340724
4.37200e-06;-0.010701933874257549
4.37225e-06;-0.010724303565174296
4.37250e-06;-0.010750659298617255
4.37275e-06;-0.010785034922840572
4.37300e-06;-0.01081941054706377
4.37325e-06;-0.01085378617128697
4.37350e-06;-0.010888161795510286
4.37375e-06;-0.010922537419733485
4.37400e-06;-0.010964693360946838
4.37425e-06;-0.011008420259676787
4.37450e-06;-0.011052147158406588
4.37475e-06;-0.01109587405713639
4.37500e-06;-0.011139600955866339
4.37525e-06;-0.011187459905129713
4.37550e-06;-0.011236153174620908
4.37575e-06;-0.011284846444112269
4.37600e-06;-0.011333539713603465
4.37625e-06;-0.011382232983094827
4.37650e-06;-0.011431899871739057
4.37675e-06;-0.011481763348045257
4.37700e-06;-0.011531234354712936
4.37725e-06;-0.011580058914209088
4.37750e-06;-0.01162801577773603
4.37775e-06;-0.011674953490415793
4.37800e-06;-0.011720718100777164
4.37825e-06;-0.011765075503569304
4.37850e-06;-0.011807737361041399
4.37875e-06;-0.011848410612078506
4.37900e-06;-0.011886801271660308
4.37925e-06;-0.011922615041853343
4.37950e-06;-0.011955446818883048
4.37975e-06;-0.0119847110530199
4.38000e-06;-0.012009918130290165
4.38025e-06;-0.01203088397868442
4.38050e-06;-0.012047590263118791
4.38075e-06;-0.012060039934017433
4.38100e-06;-0.012066466766226426
4.38125e-06;-0.012071821871030482
4.38150e-06;-0.012069920355565172
4.38175e-06;-0.012066553624457937
4.38200e-06;-0.012053730686741608
4.38225e-06;-0.012038998405374623
4.38250e-06;-0.01202426612400764
4.38275e-06;-0.011996064243314125
4.38300e-06;-0.011965142657456258
4.38325e-06;-0.011934221071598389
4.38350e-06;-0.011903299485740416
4.38375e-06;-0.011872377899882549
4.38400e-06;-0.011827730337361272
4.38425e-06;-0.011780311303416504
4.38450e-06;-0.011732892269471898
4.38475e-06;-0.01168547323552713
4.38500e-06;-0.011638054201582523
4.38525e-06;-0.011583302197236665
4.38550e-06;-0.011527069561062909
4.38575e-06;-0.011470836924889342
4.38600e-06;-0.011411685626710235
4.38625e-06;-0.01135194500883875
4.38650e-06;-0.011292204390967465
4.38675e-06;-0.011232186371061315
4.38700e-06;-0.011172112339708115
4.38725e-06;-0.011112038308355119
4.38750e-06;-0.011053783662415148
4.38775e-06;-0.010995896376467152
4.38800e-06;-0.010940830377695185
4.38825e-06;-0.01088633403724156
4.38850e-06;-0.010837350868514234
4.38875e-06;-0.010789480888178998
4.38900e-06;-0.010741610907843601
4.38925e-06;-0.010702867557771006
4.38950e-06;-0.01066596700516045
4.38975e-06;-0.01062906645254977
4.39000e-06;-0.010601563475019934
4.39025e-06;-0.010575958002594315
4.39050e-06;-0.01055035253016861
4.39075e-06;-0.010534564351917478
4.39100e-06;-0.010520758426071378
4.39125e-06;-0.010506952500225231
4.39150e-06;-0.010507954909727633
4.39175e-06;-0.010511947334384581
4.39200e-06;-0.010515939759041542
4.39225e-06;-0.01051993218369849
4.39250e-06;-0.010523924608355438
4.39275e-06;-0.010527917033012398
4.39300e-06;-0.010548774933154611
4.39325e-06;-0.010573038214529863
4.39350e-06;-0.010597301495905032
4.39375e-06;-0.010621564777280202
4.39400e-06;-0.010645828058655455
4.39425e-06;-0.010670091340030625
4.39450e-06;-0.010705602654027216
4.39475e-06;-0.01074338510702789
4.39500e-06;-0.010781167560028435
4.39525e-06;-0.01081895001302898
4.39550e-06;-0.010856732466029653
4.39575e-06;-0.01090000840916002
4.39600e-06;-0.010944393566685558
4.39625e-06;-0.01098877872421125
4.39650e-06;-0.011033163881736788
4.39675e-06;-0.011077549039262327
4.39700e-06;-0.011122850320882541
4.39725e-06;-0.011168336581088048
4.39750e-06;-0.011213411000004492
4.39775e-06;-0.011257790892972425
4.39800e-06;-0.011301160120126141
4.39825e-06;-0.011343215025805913
4.39850e-06;-0.011383676183572037
4.39875e-06;-0.011422266372210532
4.39900e-06;-0.011458708832460305
4.39925e-06;-0.011492726186650426
4.39950e-06;-0.011524062596902324
4.39975e-06;-0.011551289972070744
4.40000e-06;-0.01157778004572182
4.40025e-06;-0.011599227678752736
4.40050e-06;-0.011619657170749571
4.40075e-06;-0.011634871427003866
4.40100e-06;-0.011649032652412182
4.40125e-06;-0.011656451381154134
4.40150e-06;-0.011662508703179433
4.40175e-06;-0.011668566025204753
4.40200e-06;-0.011663619545333154
4.40225e-06;-0.011656451240142024
4.40250e-06;-0.011649282934950872
4.40275e-06;-0.011642114629759743
4.40300e-06;-0.011634946324568613
4.40325e-06;-0.01162293323098026
4.40350e-06;-0.011601172455695934
4.40375e-06;-0.011579411680411607
4.40400e-06;-0.011557650905127205
4.40425e-06;-0.011535890129842878
4.40450e-06;-0.011514129354558552
4.40475e-06;-0.011483788969199098
4.40500e-06;-0.011451716237594918
4.40525e-06;-0.011419643505990739
4.40550e-06;-0.011387570774386452
4.40575e-06;-0.011355498042782273
4.40600e-06;-0.011323425311177986
4.40625e-06;-0.011288288113611966
4.40650e-06;-0.01125253215644561
4.40675e-06;-0.011216776199279136
4.40700e-06;-0.011181020242112783
4.40725e-06;-0.011145264284946428
4.40750e-06;-0.011109508327779953
4.40775e-06;-0.01107580499069864
4.40800e-06;-0.011042516107032442
4.40825e-06;-0.011009227223366133
4.40850e-06;-0.010984316513961133
4.40875e-06;-0.010961097478022751
4.40900e-06;-0.01093787844208429
4.40925e-06;-0.010914659406145907
4.40950e-06;-0.010891440370207525
4.40975e-06;-0.010868221334269065
4.41000e-06;-0.010845002298330682
4.41025e-06;-0.010821783262392222
4.41050e-06;-0.010811724454067044
4.41075e-06;-0.01080432288432061
4.41100e-06;-0.010796921314574149
4.41125e-06;-0.010789519744827714
4.41150e-06;-0.01078211817508128
4.41175e-06;-0.01077471660533482
4.41200e-06;-0.010767315035588386
4.41225e-06;-0.010759913465841951
4.41250e-06;-0.010763508891499504
4.41275e-06;-0.010769324768147334
4.41300e-06;-0.010775140644795164
4.41325e-06;-0.010780956521443015
4.41350e-06;-0.010786772398090845
4.41375e-06;-0.010792588274738675
4.41400e-06;-0.010798404151386524
4.41425e-06;-0.010804220028034354
4.41450e-06;-0.010817302695069446
4.41475e-06;-0.010831852631237341
4.41500e-06;-0.010846402567405237
4.41525e-06;-0.010860952503573182
4.41550e-06;-0.010875502439741077
4.41575e-06;-0.010890052375908973
4.41600e-06;-0.010904602312076917
4.41625e-06;-0.010919152248244813
4.41650e-06;-0.01093599632746869
4.41675e-06;-0.010953303627057156
4.41700e-06;-0.010970610926645563
4.41725e-06;-0.010987918226233972
4.41750e-06;-0.011005225525822438
4.41775e-06;-0.011022532825410845
4.41800e-06;-0.011039840124999253
4.41825e-06;-0.01105489212169093
4.41850e-06;-0.011069488740402878
4.41875e-06;-0.011084085359114877
4.41900e-06;-0.011098681977826826
4.41925e-06;-0.011113278596538774
4.41950e-06;-0.011127875215250771
4.41975e-06;-0.01114247183396272
4.42000e-06;-0.011152038133172379
4.42025e-06;-0.011160588738776032
4.42050e-06;-0.011169139344379658
4.42075e-06;-0.011177689949983284
4.42100e-06;-0.011186240555586938
4.42125e-06;-0.011194791161190563
4.42150e-06;-0.01120334176679419
4.42175e-06;-0.011211892372397843
4.42200e-06;-0.011220442978001469
4.42225e-06;-0.011228993583605094
4.42250e-06;-0.011235556827327782
4.42275e-06;-0.011238121512303498
4.42300e-06;-0.011240686197279222
4.42325e-06;-0.011243250882254937
4.42350e-06;-0.011245815567230652
4.42375e-06;-0.011248380252206376
4.42400e-06;-0.011250944937182091
4.42425e-06;-0.011253509622157806
4.42450e-06;-0.011256074307133532
4.42475e-06;-0.011258638992109247
4.42500e-06;-0.011261203677084962
4.42525e-06;-0.011261339459656764
4.42550e-06;-0.011260984812020352
4.42575e-06;-0.011260630164383938
4.42600e-06;-0.011260275516747523
4.42625e-06;-0.01125992086911111
4.42650e-06;-0.011259566221474697
4.42675e-06;-0.011259211573838282
4.42700e-06;-0.011258800444804148
4.42725e-06;-0.011258275675577436
4.42750e-06;-0.011257750906350726
4.42775e-06;-0.011257226137124016
4.42800e-06;-0.011256701367897304
4.42825e-06;-0.011256176598670594
4.42850e-06;-0.011255651829443884
4.42875e-06;-0.011255127060217172
4.42900e-06;-0.011255382555243092
4.42925e-06;-0.011255795596804934
4.42950e-06;-0.011257734220414572
4.42975e-06;-0.011259980880905403
4.43000e-06;-0.011262227541396233
4.43025e-06;-0.011268087402135389
4.43050e-06;-0.01127467681979165
4.43075e-06;-0.011281266237447914
4.43100e-06;-0.01129131517359202
4.43125e-06;-0.011302062636103083
4.43150e-06;-0.011312810098614182
4.43175e-06;-0.011328892203722234
4.43200e-06;-0.011346051449630495
4.43225e-06;-0.011363210695538813
4.43250e-06;-0.011380369941447073
4.43275e-06;-0.011397529187355334
4.43300e-06;-0.01142080011150492
4.43325e-06;-0.011445305071088202
4.43350e-06;-0.011469810030671485
4.43375e-06;-0.01149431499025485
4.43400e-06;-0.011518819949838133
4.43425e-06;-0.011547448488087907
4.43450e-06;-0.011576909635972535
4.43475e-06;-0.011606370783857062
4.43500e-06;-0.0116376081829467
4.43525e-06;-0.01166920423261321
4.43550e-06;-0.01170172353514172
4.43575e-06;-0.01173442925565589
4.43600e-06;-0.011767711089055369
4.43625e-06;-0.011801361079359958
4.43650e-06;-0.011835164975225687
4.43675e-06;-0.011868945512450041
4.43700e-06;-0.011902524964877937
4.43725e-06;-0.011935725449897737
4.43750e-06;-0.011968390781146003
4.43775e-06;-0.012000410995808236
4.43800e-06;-0.012031671407001579
4.43825e-06;-0.01206201205045035
4.43850e-06;-0.012091244210252143
4.43875e-06;-0.01211917665236615
4.43900e-06;-0.012145616131066322
4.43925e-06;-0.012170372805587333
4.43950e-06;-0.012193527270821371
4.43975e-06;-0.01221571435712411
4.44000e-06;-0.012237630291162666
4.44025e-06;-0.012259482903387495
4.44050e-06;-0.012281163734101562
4.44075e-06;-0.012302522371000754
4.44100e-06;-0.012323138055476631
4.44125e-06;-0.012343615510585989
4.44150e-06;-0.012363261147023569
4.44175e-06;-0.012382738827349077
4.44200e-06;-0.01240253936851601
4.44225e-06;-0.012422405099914343
4.44250e-06;-0.012442270831312607
4.44275e-06;-0.012462103346787505
4.44300e-06;-0.012481929155491473
4.44325e-06;-0.012501754964195371
4.44350e-06;-0.012521580772899272
4.44375e-06;-0.012541406581603238
4.44400e-06;-0.012561364427476848
4.44425e-06;-0.01258134893354753
4.44450e-06;-0.012601333439618143
4.44475e-06;-0.012621317945688756
4.44500e-06;-0.012641302451759439
4.44525e-06;-0.01266091783748726
4.44550e-06;-0.012680458692527414
4.44575e-06;-0.012699999547567634
4.44600e-06;-0.012719540402607785
4.44625e-06;-0.012739081257647939
4.44650e-06;-0.012758622112688158
4.44675e-06;-0.01277690148584866
4.44700e-06;-0.01279492614773734
4.44725e-06;-0.01281295080962608
