Time(s);Current(A)
8.75000e-06;0.014324445480151944
8.75025e-06;0.014329195672317286
8.75050e-06;0.014333945864482662
8.75075e-06;0.014338696056648037
8.75100e-06;0.014343536639523157
8.75125e-06;0.014348867380928644
8.75150e-06;0.014354198122334133
8.75175e-06;0.01435952886373962
8.75200e-06;0.01436485960514507
8.75225e-06;0.014370190346550557
8.75250e-06;0.014375521087956044
8.75275e-06;0.014380851829361494
8.75300e-06;0.014386182570766981
8.75325e-06;0.014391513312172468
8.75350e-06;0.01439684405357792
8.75375e-06;0.014402174794983407
8.75400e-06;0.014407505536388894
8.75425e-06;0.014408587167190156
8.75450e-06;0.014407437628572287
8.75475e-06;0.014406288089954417
8.75500e-06;0.014405138551336554
8.75525e-06;0.014403989012718684
8.75550e-06;0.014402839474100815
8.75575e-06;0.01439921152155678
8.75600e-06;0.014382143960773947
8.75625e-06;0.014365076399991112
8.75650e-06;0.014348008839208393
8.75675e-06;0.014330941278425557
8.75700e-06;0.014313873717642723
8.75725e-06;0.014296806156860003
8.75750e-06;0.014266334838555024
8.75775e-06;0.014228825328809258
8.75800e-06;0.014191315819063747
8.75825e-06;0.01415380630931798
8.75850e-06;0.014116296799572214
8.75875e-06;0.014078787289826703
8.75900e-06;0.014041277780080937
8.75925e-06;0.01400376827033517
8.75950e-06;0.013963898427176328
8.75975e-06;0.013911229286830418
8.76000e-06;0.01385856014648451
8.76025e-06;0.013805891006138599
8.76050e-06;0.013753221865793046
8.76075e-06;0.013700552725447136
8.76100e-06;0.013647883585101226
8.76125e-06;0.013595214444755673
8.76150e-06;0.013542545304409763
8.76175e-06;0.013488041145897831
8.76200e-06;0.013432573435999259
8.76225e-06;0.01337710572610031
8.76250e-06;0.013323292109325677
8.76275e-06;0.013270347041840864
8.76300e-06;0.01321740197435569
8.76325e-06;0.013167565201481402
8.76350e-06;0.013119360565901348
8.76375e-06;0.013071155930320967
8.76400e-06;0.01302797993325182
8.76425e-06;0.012987444428632814
8.76450e-06;0.012946908924013532
8.76475e-06;0.012918274221550329
8.76500e-06;0.012895888522305788
8.76525e-06;0.012873502823061095
8.76550e-06;0.012851117123816402
8.76575e-06;0.012828731424571862
8.76600e-06;0.012806345725327168
8.76625e-06;0.012788314701321473
8.76650e-06;0.012793897621955276
8.76675e-06;0.012799480542589118
8.76700e-06;0.012805063463222958
8.76725e-06;0.012810646383856763
8.76750e-06;0.012816229304490603
8.76775e-06;0.012821812225124444
8.76800e-06;0.012847224667516472
8.76825e-06;0.012883049411841407
8.76850e-06;0.012918874156166342
8.76875e-06;0.012954698900491278
8.76900e-06;0.01299052364481597
8.76925e-06;0.013026348389140905
8.76950e-06;0.013062173133465839
8.76975e-06;0.013097997877790531
8.77000e-06;0.013133822622115467
8.77025e-06;0.01317248280653568
8.77050e-06;0.01322651863248428
8.77075e-06;0.013280554458433246
8.77100e-06;0.01333459028438221
8.77125e-06;0.013388626110330811
8.77150e-06;0.013442661936279778
8.77175e-06;0.013496697762228744
8.77200e-06;0.013550733588177344
8.77225e-06;0.01360476941412631
8.77250e-06;0.013658805240075277
8.77275e-06;0.0137091026175457
8.77300e-06;0.013757436969644678
8.77325e-06;0.013805771321743656
8.77350e-06;0.013854105673842307
8.77375e-06;0.013902440025941286
8.77400e-06;0.013950774378040265
8.77425e-06;0.01399617702861443
8.77450e-06;0.014025682044180228
8.77475e-06;0.014055187059746028
8.77500e-06;0.014084692075311626
8.77525e-06;0.014114197090877426
8.77550e-06;0.014143702106443223
8.77575e-06;0.014173207122008823
8.77600e-06;0.014184536110787118
8.77625e-06;0.014186321032834215
8.77650e-06;0.0141881059548813
8.77675e-06;0.014189890876928396
8.77700e-06;0.014191675798975494
8.77725e-06;0.01419346072102259
8.77750e-06;0.014195245643069676
8.77775e-06;0.014197030565116772
8.77800e-06;0.01419881548716387
8.77825e-06;0.014200600409210956
8.77850e-06;0.014202385331258052
8.77875e-06;0.014187399896354098
8.77900e-06;0.01416360849919448
8.77925e-06;0.0141398171020347
8.77950e-06;0.014116025704874923
8.77975e-06;0.014092234307715305
8.78000e-06;0.014068442910555526
8.78025e-06;0.014044651513395746
8.78050e-06;0.014020860116236128
8.78075e-06;0.013997068719076348
8.78100e-06;0.01397327732191657
8.78125e-06;0.013949485924756953
8.78150e-06;0.013920683182063541
8.78175e-06;0.013889249027304689
8.78200e-06;0.013857814872546052
8.78225e-06;0.013826380717787202
8.78250e-06;0.01379494656302835
8.78275e-06;0.013763512408269713
8.78300e-06;0.013734441025592665
8.78325e-06;0.01370661031309543
8.78350e-06;0.013678779600598386
8.78375e-06;0.013650948888101151
8.78400e-06;0.013623118175603917
8.78425e-06;0.013595287463106872
8.78450e-06;0.013570710307612888
8.78475e-06;0.013547841565377883
8.78500e-06;0.013524972823143034
8.78525e-06;0.01350210408090803
8.78550e-06;0.013479235338673025
8.78575e-06;0.01345636659643802
8.78600e-06;0.013433497854203169
8.78625e-06;0.013410629111968164
8.78650e-06;0.013384962370250445
8.78675e-06;0.013357826424394058
8.78700e-06;0.013330690478537487
8.78725e-06;0.013303554532680915
8.78750e-06;0.013276418586824528
8.78775e-06;0.013249282640967957
8.78800e-06;0.013222146695111386
8.78825e-06;0.013195010749254998
8.78850e-06;0.013163736369213695
8.78875e-06;0.013130288934934642
8.78900e-06;0.013096841500655817
8.78925e-06;0.013063394066376766
8.78950e-06;0.013029946632097713
8.78975e-06;0.01299649919781889
8.79000e-06;0.012963051763539837
8.79025e-06;0.012929604329260786
8.79050e-06;0.01289615689498196
8.79075e-06;0.012862709460702908
8.79100e-06;0.012829262026423857
8.79125e-06;0.012796325664839785
8.79150e-06;0.012763657662889998
8.79175e-06;0.01273098966094021
8.79200e-06;0.012698321658990645
8.79225e-06;0.012665653657040858
8.79250e-06;0.012632985655091071
8.79275e-06;0.012600317653141506
8.79300e-06;0.012567649651191719
8.79325e-06;0.012534981649241932
8.79350e-06;0.012502313647292365
8.79375e-06;0.012469645645342578
8.79400e-06;0.012445478086172645
8.79425e-06;0.012425774032373299
8.79450e-06;0.012406069978574085
8.79475e-06;0.012386365924774738
8.79500e-06;0.012366661870975392
8.79525e-06;0.012346957817176178
8.79550e-06;0.01232725376337683
8.79575e-06;0.012310632896622067
8.79600e-06;0.012310731120109601
8.79625e-06;0.01231082934359714
8.79650e-06;0.012310927567084675
8.79675e-06;0.01231102579057221
8.79700e-06;0.012311124014059746
8.79725e-06;0.012311222237547282
8.79750e-06;0.012311320461034819
8.79775e-06;0.012326561384672365
8.79800e-06;0.012349753602753881
8.79825e-06;0.012372945820835242
8.79850e-06;0.01239613803891676
8.79875e-06;0.012419330256998278
8.79900e-06;0.012442522475079638
8.79925e-06;0.012465714693161156
8.79950e-06;0.012488906911242673
8.79975e-06;0.012512099129324035
8.80000e-06;0.012535291347405551
8.80025e-06;0.012558483565487069
8.80050e-06;0.012589747301307092
8.80075e-06;0.012625249317851434
8.80100e-06;0.012660751334395776
8.80125e-06;0.012696253350939877
8.80150e-06;0.01273175536748422
8.80175e-06;0.012767257384028561
8.80200e-06;0.012802759400572664
8.80225e-06;0.012838261417117006
8.80250e-06;0.012873763433661348
8.80275e-06;0.012909265450205449
8.80300e-06;0.012944767466749791
8.80325e-06;0.012973340184715637
8.80350e-06;0.012998274390873577
8.80375e-06;0.013023208597031348
8.80400e-06;0.013048142803189286
8.80425e-06;0.013073077009347227
8.80450e-06;0.013098011215504997
8.80475e-06;0.013122945421662936
8.80500e-06;0.013147879627820876
8.80525e-06;0.013172813833978647
8.80550e-06;0.013197748040136587
8.80575e-06;0.013211194624511265
8.80600e-06;0.013218609162924506
8.80625e-06;0.013226023701337797
8.80650e-06;0.013233438239751089
8.80675e-06;0.013240852778164329
8.80700e-06;0.013248267316577621
8.80725e-06;0.013255681854990911
8.80750e-06;0.013263096393404153
8.80775e-06;0.013270510931817445
8.80800e-06;0.013277925470230736
8.80825e-06;0.013275999111250101
8.80850e-06;0.013269167931805492
8.80875e-06;0.013262336752360881
8.80900e-06;0.013255505572916318
8.80925e-06;0.013248674393471709
8.80950e-06;0.013241843214027098
8.80975e-06;0.013235012034582534
8.81000e-06;0.013228180855137925
8.81025e-06;0.013221349675693314
8.81050e-06;0.01321451849624875
8.81075e-06;0.01320768731680414
8.81100e-06;0.01320085613735953
8.81125e-06;0.013194024957914966
8.81150e-06;0.013184206818680051
8.81175e-06;0.013172820253962204
8.81200e-06;0.013161433689244354
8.81225e-06;0.013150047124526582
8.81250e-06;0.013138660559808734
8.81275e-06;0.013127273995090885
8.81300e-06;0.013115887430373112
8.81325e-06;0.013104500865655264
8.81350e-06;0.013093114300937415
8.81375e-06;0.013081727736219644
8.81400e-06;0.013070341171501795
8.81425e-06;0.013058954606783945
8.81450e-06;0.013047568042066174
8.81475e-06;0.013036003081470904
8.81500e-06;0.013024344446819113
8.81525e-06;0.0130126858121674
8.81550e-06;0.01300102717751561
8.81575e-06;0.01298936854286382
8.81600e-06;0.012977709908212107
8.81625e-06;0.012966051273560316
8.81650e-06;0.012954392638908525
8.81675e-06;0.012942734004256813
8.81700e-06;0.012931075369605022
8.81725e-06;0.012919416734953231
8.81750e-06;0.012903667853289362
8.81775e-06;0.012885771220032797
8.81800e-06;0.012867874586776231
8.81825e-06;0.012849977953519788
8.81850e-06;0.01283208132026322
8.81875e-06;0.012814184687006656
8.81900e-06;0.012796288053750212
8.81925e-06;0.012778391420493647
8.81950e-06;0.012760494787237082
8.81975e-06;0.012742598153980636
8.82000e-06;0.012724701520724071
8.82025e-06;0.012704701586980676
8.82050e-06;0.012683597229236157
8.82075e-06;0.012662492871491782
8.82100e-06;0.012641388513747265
8.82125e-06;0.012620284156002748
8.82150e-06;0.012599179798258371
8.82175e-06;0.012578075440513854
8.82200e-06;0.012556971082769337
8.82225e-06;0.01253586672502496
8.82250e-06;0.012515331399899932
8.82275e-06;0.012497881748006116
8.82300e-06;0.012480432096112418
8.82325e-06;0.012462982444218602
8.82350e-06;0.012445532792324784
8.82375e-06;0.012428083140431086
8.82400e-06;0.01241063348853727
8.82425e-06;0.012393183836643453
8.82450e-06;0.012375734184749755
8.82475e-06;0.012358284532855939
8.82500e-06;0.012343444256108074
8.82525e-06;0.012329974138573256
8.82550e-06;0.012316504021038345
8.82575e-06;0.012303033903503435
8.82600e-06;0.012289563785968616
8.82625e-06;0.012276093668433706
8.82650e-06;0.012262623550898797
8.82675e-06;0.012249153433363979
8.82700e-06;0.012235683315829068
8.82725e-06;0.012222213198294158
8.82750e-06;0.01220874308075934
8.82775e-06;0.012195272963224429
8.82800e-06;0.01218180284568952
8.82825e-06;0.012168332728154702
8.82850e-06;0.012154530407816822
8.82875e-06;0.012140553650801321
8.82900e-06;0.01212657689378582
8.82925e-06;0.012112600136770414
8.82950e-06;0.012098623379754913
8.82975e-06;0.012084646622739413
8.83000e-06;0.012070669865724007
8.83025e-06;0.012056693108708506
8.83050e-06;0.012042716351693005
8.83075e-06;0.012028739594677599
8.83100e-06;0.012014762837662098
8.83125e-06;0.012000786080646598
8.83150e-06;0.01198680932363119
8.83175e-06;0.011972832566615691
8.83200e-06;0.011961067632088563
8.83225e-06;0.01195046410548148
8.83250e-06;0.011939860578874324
8.83275e-06;0.011929257052267168
8.83300e-06;0.011918653525660084
8.83325e-06;0.011908049999052928
8.83350e-06;0.011897446472445772
8.83375e-06;0.011886842945838689
8.83400e-06;0.011876239419231533
8.83425e-06;0.011865635892624377
8.83450e-06;0.011855032366017293
8.83475e-06;0.011844428839410137
8.83500e-06;0.01183382531280298
8.83525e-06;0.011823221786195897
8.83550e-06;0.011812618259588742
8.83575e-06;0.011802014732981586
8.83600e-06;0.011791411206374502
8.83625e-06;0.011780807679767346
8.83650e-06;0.01177020415316019
8.83675e-06;0.011759600626553107
8.83700e-06;0.011750474150551818
8.83725e-06;0.011742123260422012
8.83750e-06;0.011733772370292208
8.83775e-06;0.01172542148016246
8.83800e-06;0.011717070590032656
8.83825e-06;0.01170871969990285
8.83850e-06;0.011700368809773104
8.83875e-06;0.011692017919643298
8.83900e-06;0.011683667029513494
8.83925e-06;0.011675316139383746
8.83950e-06;0.011666965249253942
8.83975e-06;0.011658614359124136
8.84000e-06;0.01165026346899439
8.84025e-06;0.011641912578864584
8.84050e-06;0.01163356168873478
8.84075e-06;0.011625210798605031
8.84100e-06;0.011616859908475228
8.84125e-06;0.011608509018345422
8.84150e-06;0.011600158128215673
8.84175e-06;0.01159180723808587
8.84200e-06;0.01158378109507107
8.84225e-06;0.01157592547381993
8.84250e-06;0.011568069852568738
8.84275e-06;0.011560214231317544
8.84300e-06;0.011552358610066404
8.84325e-06;0.011544689439690468
8.84350e-06;0.011538031329938846
8.84375e-06;0.011531373220187267
8.84400e-06;0.011524715110435645
8.84425e-06;0.011518057000684022
8.84450e-06;0.011511398890932445
8.84475e-06;0.011511602525048403
8.84500e-06;0.011515409198611852
8.84525e-06;0.011519215872175274
8.84550e-06;0.01152302254573872
8.84575e-06;0.011526829219302169
8.84600e-06;0.011530635892865616
8.84625e-06;0.011537691540261418
8.84650e-06;0.011562365284151352
8.84675e-06;0.011587039028041285
8.84700e-06;0.01161171277193105
8.84725e-06;0.011636386515820983
8.84750e-06;0.011661060259710917
8.84775e-06;0.011685734003600684
8.84800e-06;0.011726617888443093
8.84825e-06;0.01177601357122346
8.84850e-06;0.01182540925400349
8.84875e-06;0.011874804936783858
8.84900e-06;0.011924200619564224
8.84925e-06;0.011973596302344255
8.84950e-06;0.012022991985124621
8.84975e-06;0.012072387667904987
8.85000e-06;0.012121783350685018
8.85025e-06;0.012173366878407274
8.85050e-06;0.012236814356193438
8.85075e-06;0.012300261833979172
8.85100e-06;0.012363709311765338
8.85125e-06;0.012427156789551502
8.85150e-06;0.012490604267337236
8.85175e-06;0.0125540517451234
8.85200e-06;0.012617499222909565
8.85225e-06;0.0126809467006953
8.85250e-06;0.012744394178481465
8.85275e-06;0.012803204567259464
8.85300e-06;0.012859580062671214
8.85325e-06;0.012915955558083347
8.85350e-06;0.01297233105349548
8.85375e-06;0.013028706548907231
8.85400e-06;0.013082495143884926
8.85425e-06;0.013122255844565918
8.85450e-06;0.013162016545246912
8.85475e-06;0.013201777245927636
8.85500e-06;0.013241537946608628
8.85525e-06;0.013281298647289622
8.85550e-06;0.013302597295633593
8.85575e-06;0.013314201687800896
8.85600e-06;0.0133258060799682
8.85625e-06;0.013337410472135424
8.85650e-06;0.013349014864302726
8.85675e-06;0.01336061925647003
8.85700e-06;0.013372223648637254
8.85725e-06;0.013383828040804558
8.85750e-06;0.01339543243297186
8.85775e-06;0.013407036825139086
8.85800e-06;0.013418641217306388
8.85825e-06;0.013430245609473692
8.85850e-06;0.013441850001640917
8.85875e-06;0.013453454393808219
8.85900e-06;0.013465058785975523
8.85925e-06;0.013476663178142747
8.85950e-06;0.013484680491348253
8.85975e-06;0.013473246277215042
8.86000e-06;0.013461812063081911
8.86025e-06;0.0134503778489487
8.86050e-06;0.013438943634815492
8.86075e-06;0.01342750942068236
8.86100e-06;0.01341607520654915
8.86125e-06;0.01340464099241594
8.86150e-06;0.013393206778282808
8.86175e-06;0.013381772564149599
8.86200e-06;0.01337033835001639
8.86225e-06;0.013358904135883257
8.86250e-06;0.013347469921750049
8.86275e-06;0.013336035707616838
8.86300e-06;0.013324601493483629
8.86325e-06;0.013313167279350497
8.86350e-06;0.013301733065217288
8.86375e-06;0.013292982018582918
8.86400e-06;0.01328563987885832
8.86425e-06;0.013278297739133672
8.86450e-06;0.013270955599409023
8.86475e-06;0.013263613459684425
8.86500e-06;0.013256271319959777
8.86525e-06;0.013248929180235128
8.86550e-06;0.01324158704051053
8.86575e-06;0.013234244900785883
8.86600e-06;0.013226902761061234
8.86625e-06;0.013219560621336635
8.86650e-06;0.013212218481611986
8.86675e-06;0.013204876341887339
8.86700e-06;0.01319753420216274
8.86725e-06;0.013190192062438091
8.86750e-06;0.013182849922713444
8.86775e-06;0.01318183871958369
8.86800e-06;0.013184151833820733
8.86825e-06;0.013186464948057775
8.86850e-06;0.013188778062294803
8.86875e-06;0.013191091176531845
8.86900e-06;0.013193404290768887
8.86925e-06;0.013195717405005913
8.86950e-06;0.013198030519242955
8.86975e-06;0.013200343633479997
8.87000e-06;0.013202656747717024
8.87025e-06;0.013204969861954066
8.87050e-06;0.01320728297619111
8.87075e-06;0.013209596090428136
8.87100e-06;0.013211909204665178
8.87125e-06;0.01321422231890222
8.87150e-06;0.013216535433139262
8.87175e-06;0.013219970264642677
8.87200e-06;0.013223994099705661
8.87225e-06;0.013228017934768646
8.87250e-06;0.013232041769831605
8.87275e-06;0.01323606560489459
8.87300e-06;0.013240089439957574
8.87325e-06;0.013244113275020532
8.87350e-06;0.013248137110083517
8.87375e-06;0.013252160945146502
8.87400e-06;0.01325618478020946
8.87425e-06;0.013260208615272445
8.87450e-06;0.01326423245033543
8.87475e-06;0.013266718135282084
8.87500e-06;0.013260862947508374
8.87525e-06;0.013255007759734663
8.87550e-06;0.013249152571960993
8.87575e-06;0.013243297384187282
8.87600e-06;0.01323744219641357
8.87625e-06;0.013231587008639899
8.87650e-06;0.013225731820866189
8.87675e-06;0.013219876633092478
8.87700e-06;0.013214021445318806
8.87725e-06;0.013208166257545095
8.87750e-06;0.013202311069771384
8.87775e-06;0.013196455881997714
8.87800e-06;0.013180551229679125
8.87825e-06;0.013159369694703358
8.87850e-06;0.013138188159727735
8.87875e-06;0.013117006624751968
8.87900e-06;0.0130958250897762
8.87925e-06;0.013074643554800576
8.87950e-06;0.013053462019824809
8.87975e-06;0.013032280484849041
8.88000e-06;0.013011098949873274
8.88025e-06;0.012989917414897651
8.88050e-06;0.012968735879921884
8.88075e-06;0.012947554344946117
8.88100e-06;0.012926372809970494
8.88125e-06;0.012905191274994727
8.88150e-06;0.01288400974001896
8.88175e-06;0.012862828205043336
8.88200e-06;0.012843095668161286
8.88225e-06;0.012824123987032098
8.88250e-06;0.01280515230590304
8.88275e-06;0.012786180624773852
8.88300e-06;0.012767208943644665
8.88325e-06;0.012748237262515606
8.88350e-06;0.012729265581386418
8.88375e-06;0.01271029390025723
8.88400e-06;0.012691322219128172
8.88425e-06;0.012672350537998985
8.88450e-06;0.012653378856869797
8.88475e-06;0.012634407175740738
8.88500e-06;0.01261543549461155
8.88525e-06;0.012596463813482364
8.88550e-06;0.012577492132353305
8.88575e-06;0.012558520451224117
8.88600e-06;0.01255305936985558
8.88625e-06;0.012554692581846452
8.88650e-06;0.012556325793837335
8.88675e-06;0.012557959005828217
8.88700e-06;0.012559592217819089
8.88725e-06;0.012561225429809973
8.88750e-06;0.012562858641800855
8.88775e-06;0.012564491853791727
8.88800e-06;0.01256612506578261
8.88825e-06;0.012567758277773493
8.88850e-06;0.012569391489764376
8.88875e-06;0.012571024701755248
8.88900e-06;0.012582110052137186
8.88925e-06;0.012598074181133024
8.88950e-06;0.012614038310128754
8.88975e-06;0.012630002439124592
8.89000e-06;0.01264596656812043
8.89025e-06;0.01266193069711616
8.89050e-06;0.012677894826111997
8.89075e-06;0.012693858955107835
8.89100e-06;0.012709823084103565
8.89125e-06;0.012725787213099403
8.89150e-06;0.012741751342095242
8.89175e-06;0.012757715471090971
8.89200e-06;0.012774246552046653
8.89225e-06;0.012791065262072961
8.89250e-06;0.012807883972099157
8.89275e-06;0.012824702682125466
8.89300e-06;0.012841521392151774
8.89325e-06;0.012858340102177969
8.89350e-06;0.012875158812204277
8.89375e-06;0.012891977522230586
8.89400e-06;0.01290879623225678
8.89425e-06;0.012925614942283089
8.89450e-06;0.012939853795782103
8.89475e-06;0.012940886499471265
8.89500e-06;0.012941919203160433
8.89525e-06;0.0129429519068496
8.89550e-06;0.01294398461053876
8.89575e-06;0.012945017314227928
8.89600e-06;0.012946050017917097
8.89625e-06;0.012947082721606258
8.89650e-06;0.012948115425295425
8.89675e-06;0.012949148128984593
8.89700e-06;0.01295018083267376
8.89725e-06;0.012935290481102606
8.89750e-06;0.012912321960813723
8.89775e-06;0.012889353440524842
8.89800e-06;0.012866384920236115
8.89825e-06;0.012843416399947233
8.89850e-06;0.012820447879658352
8.89875e-06;0.012797479359369625
8.89900e-06;0.012774510839080743
8.89925e-06;0.01275154231879186
8.89950e-06;0.012728573798503133
8.89975e-06;0.012705605278214252
8.90000e-06;0.012680497669513865
8.90025e-06;0.012644440179792438
8.90050e-06;0.012608382690070766
8.90075e-06;0.012572325200349095
8.90100e-06;0.012536267710627668
8.90125e-06;0.012500210220905996
8.90150e-06;0.012464152731184326
8.90175e-06;0.012428095241462898
