Time(s);Current(A)
9.00000e-06;0.01116254844664041
9.00025e-06;0.011217731304877663
9.00050e-06;0.011272914163114914
9.00075e-06;0.011328097021351792
9.00100e-06;0.011390785510606405
9.00125e-06;0.011466227606203989
9.00150e-06;0.011541669701801063
9.00175e-06;0.011617111797398648
9.00200e-06;0.011692553892996234
9.00225e-06;0.011767995988593308
9.00250e-06;0.011843438084190892
9.00275e-06;0.011918880179788477
9.00300e-06;0.011994322275385551
9.00325e-06;0.012067318143334343
9.00350e-06;0.012136157368838477
9.00375e-06;0.012204996594342144
9.00400e-06;0.012273835819846278
9.00425e-06;0.012342675045350412
9.00450e-06;0.012411514270854077
9.00475e-06;0.012480353496358211
9.00500e-06;0.012549192721862345
9.00525e-06;0.012618031947366012
9.00550e-06;0.012673677315540414
9.00575e-06;0.012706903614329598
9.00600e-06;0.012740129913118556
9.00625e-06;0.01277335621190774
9.00650e-06;0.012806582510696923
9.00675e-06;0.01283980880948588
9.00700e-06;0.012873035108275064
9.00725e-06;0.012906261407064247
9.00750e-06;0.012939487705853205
9.00775e-06;0.012972714004642389
9.00800e-06;0.013005940303431572
9.00825e-06;0.013039166602220756
9.00850e-06;0.013072392901009713
9.00875e-06;0.013105619199798897
9.00900e-06;0.01313884549858808
9.00925e-06;0.013162922067151354
9.00950e-06;0.01317145136764237
9.00975e-06;0.013179980668133385
9.01000e-06;0.013188509968624341
9.01025e-06;0.013197039269115357
9.01050e-06;0.013205568569606372
9.01075e-06;0.01321409787009733
9.01100e-06;0.013222627170588344
9.01125e-06;0.01323115647107936
9.01150e-06;0.013239685771570317
9.01175e-06;0.013248215072061332
9.01200e-06;0.013256744372552347
9.01225e-06;0.013265273673043304
9.01250e-06;0.01327380297353432
9.01275e-06;0.013282332274025335
9.01300e-06;0.013287760783151619
9.01325e-06;0.013287920411840909
9.01350e-06;0.013288080040530198
9.01375e-06;0.013288239669219486
9.01400e-06;0.013288399297908775
9.01425e-06;0.013288558926598065
9.01450e-06;0.013288718555287352
9.01475e-06;0.013288878183976642
9.01500e-06;0.013289037812665931
9.01525e-06;0.01328919744135522
9.01550e-06;0.013289357070044508
9.01575e-06;0.013289516698733798
9.01600e-06;0.013289676327423087
9.01625e-06;0.013289835956112377
9.01650e-06;0.013289995584801666
9.01675e-06;0.013290527461190587
9.01700e-06;0.013291691862761537
9.01725e-06;0.013292856264332496
9.01750e-06;0.013294020665903452
9.01775e-06;0.013295185067474402
9.01800e-06;0.013296349469045359
9.01825e-06;0.013297513870616317
9.01850e-06;0.013298678272187267
9.01875e-06;0.013299842673758224
9.01900e-06;0.013301007075329182
9.01925e-06;0.01330217147690013
9.01950e-06;0.013303335878471089
9.01975e-06;0.013304500280042045
9.02000e-06;0.013305664681612995
9.02025e-06;0.013306829083183954
9.02050e-06;0.013308727836099554
9.02075e-06;0.01331187440255013
9.02100e-06;0.013315020969000727
9.02125e-06;0.013318167535451326
9.02150e-06;0.013321314101901903
9.02175e-06;0.0133244606683525
9.02200e-06;0.013327607234803099
9.02225e-06;0.013330753801253675
9.02250e-06;0.013333900367704273
9.02275e-06;0.013337046934154871
9.02300e-06;0.013339963672212038
9.02325e-06;0.013342489884695682
9.02350e-06;0.013345016097179327
9.02375e-06;0.013347542309662954
9.02400e-06;0.013350068522146598
9.02425e-06;0.013352594734630243
9.02450e-06;0.01335512094711387
9.02475e-06;0.013357647159597514
9.02500e-06;0.013360173372081159
9.02525e-06;0.013362699584564803
9.02550e-06;0.013362215531595513
9.02575e-06;0.01335661642027692
9.02600e-06;0.013351017308958324
9.02625e-06;0.013345418197639769
9.02650e-06;0.013339819086321175
9.02675e-06;0.013334219975002582
9.02700e-06;0.013328620863684026
9.02725e-06;0.01331620842761079
9.02750e-06;0.013292218755503411
9.02775e-06;0.013268229083396194
9.02800e-06;0.013244239411288815
9.02825e-06;0.013220249739181436
9.02850e-06;0.013196260067074219
9.02875e-06;0.01317227039496684
9.02900e-06;0.013140652149540676
9.02925e-06;0.013096071393578712
9.02950e-06;0.013051490637616446
9.02975e-06;0.01300690988165418
9.03000e-06;0.012962329125692217
9.03025e-06;0.01291774836972995
9.03050e-06;0.012873167613767684
9.03075e-06;0.01282858685780572
9.03100e-06;0.012784006101843454
9.03125e-06;0.012735034189368616
9.03150e-06;0.012678600801440459
9.03175e-06;0.01262216741351192
9.03200e-06;0.012565734025583381
9.03225e-06;0.012509300637655225
9.03250e-06;0.012452867249726685
9.03275e-06;0.012396433861798147
9.03300e-06;0.01234000047386999
9.03325e-06;0.012283567085941452
9.03350e-06;0.01222829255849008
9.03375e-06;0.012174987172648817
9.03400e-06;0.012121681786807914
9.03425e-06;0.012068376400966651
9.03450e-06;0.012015071015125387
9.03475e-06;0.011970272544793974
9.03500e-06;0.011926739837169008
9.03525e-06;0.011883207129544044
9.03550e-06;0.011839674421919374
9.03575e-06;0.011801052195099367
9.03600e-06;0.011770773882210353
9.03625e-06;0.011740495569321547
9.03650e-06;0.011710217256432533
9.03675e-06;0.011679938943543522
9.03700e-06;0.011649660630654715
9.03725e-06;0.011619382317765702
9.03750e-06;0.01158910400487669
9.03775e-06;0.011558825691987882
9.03800e-06;0.01152854737909887
9.03825e-06;0.011498269066209857
9.03850e-06;0.011471273016823227
9.03875e-06;0.011449854206255156
9.03900e-06;0.011428435395687083
9.03925e-06;0.011407016585119155
9.03950e-06;0.011385597774551082
9.03975e-06;0.01136417896398301
9.04000e-06;0.011342760153415083
9.04025e-06;0.01132134134284701
9.04050e-06;0.011299922532278938
9.04075e-06;0.011278503721711011
9.04100e-06;0.011257084911142938
9.04125e-06;0.011237349098053889
9.04150e-06;0.011220473042832194
9.04175e-06;0.011203596987610386
9.04200e-06;0.011186720932388577
9.04225e-06;0.011169844877166768
9.04250e-06;0.011152968821945074
9.04275e-06;0.011136092766723267
9.04300e-06;0.011119216711501458
9.04325e-06;0.011102340656279764
9.04350e-06;0.011085464601057955
9.04375e-06;0.011072471443875645
9.04400e-06;0.011060056031650507
9.04425e-06;0.011047640619425286
9.04450e-06;0.011035225207200065
9.04475e-06;0.011022809794974928
9.04500e-06;0.011010394382749707
9.04525e-06;0.010997978970524486
9.04550e-06;0.010985563558299348
9.04575e-06;0.010973148146074127
9.04600e-06;0.010960500882951089
9.04625e-06;0.010947459657604524
9.04650e-06;0.010934418432257873
9.04675e-06;0.01092137720691122
9.04700e-06;0.010908335981564658
9.04725e-06;0.010895294756218005
9.04750e-06;0.010882253530871354
9.04775e-06;0.010869212305524789
9.04800e-06;0.010856171080178138
9.04825e-06;0.010843129854831487
9.04850e-06;0.010830088629484922
9.04875e-06;0.010814835034137214
9.04900e-06;0.010795822168442128
9.04925e-06;0.01077680930274717
9.04950e-06;0.010757796437052084
9.04975e-06;0.010738783571356998
9.05000e-06;0.01071977070566204
9.05025e-06;0.010700757839966954
9.05050e-06;0.010681744974271866
9.05075e-06;0.01066273210857678
9.05100e-06;0.010643719242881823
9.05125e-06;0.010624706377186736
9.05150e-06;0.010604731957163544
9.05175e-06;0.010583123659140149
9.05200e-06;0.010561515361116608
9.05225e-06;0.010539907063093065
9.05250e-06;0.01051829876506967
9.05275e-06;0.010496690467046129
9.05300e-06;0.010475082169022586
9.05325e-06;0.01045347387099919
9.05350e-06;0.010434009272446459
9.05375e-06;0.010414863639662887
9.05400e-06;0.010395718006879445
9.05425e-06;0.010376572374095873
9.05450e-06;0.010357426741312301
9.05475e-06;0.010338281108528859
9.05500e-06;0.010319135475745287
9.05525e-06;0.010301952568009037
9.05550e-06;0.010288104732647142
9.05575e-06;0.010274256897285153
9.05600e-06;0.010267215642043699
9.05625e-06;0.010271740162331585
9.05650e-06;0.010276264682619501
9.05675e-06;0.010280789202907417
9.05700e-06;0.010285313723195303
9.05725e-06;0.010289838243483219
9.05750e-06;0.01030516330660881
9.05775e-06;0.0103388407070089
9.05800e-06;0.010372518107409216
9.05825e-06;0.010406195507809534
9.05850e-06;0.010439872908209623
9.05875e-06;0.01047355030860994
9.05900e-06;0.010519545080274511
9.05925e-06;0.010586469591784295
9.05950e-06;0.010653394103293624
9.05975e-06;0.010720318614803407
9.06000e-06;0.010787243126313191
9.06025e-06;0.01085416763782252
9.06050e-06;0.010921092149332304
9.06075e-06;0.010988016660842086
9.06100e-06;0.011054941172351417
9.06125e-06;0.011140746629910363
9.06150e-06;0.011229361425048217
9.06175e-06;0.011317976220185471
9.06200e-06;0.011406591015323325
9.06225e-06;0.01149520581046118
9.06250e-06;0.011583820605598434
9.06275e-06;0.011672435400736288
9.06300e-06;0.011761050195874142
9.06325e-06;0.011849436665215568
9.06350e-06;0.011937435162204977
9.06375e-06;0.012025433659194387
9.06400e-06;0.01211011380245351
9.06425e-06;0.01218915538219177
9.06450e-06;0.012268196961930029
9.06475e-06;0.012347238541667752
9.06500e-06;0.01241981570185799
9.06525e-06;0.012481408487499542
9.06550e-06;0.012543001273140677
9.06575e-06;0.012604594058782228
9.06600e-06;0.012658431243143257
9.06625e-06;0.012699090070393182
9.06650e-06;0.012739748897643385
9.06675e-06;0.012780407724893588
9.06700e-06;0.012821066552143516
9.06725e-06;0.012861725379393717
9.06750e-06;0.01290238420664392
9.06775e-06;0.012943043033894123
9.06800e-06;0.012983701861144049
9.06825e-06;0.013024360688394252
9.06850e-06;0.013065019515644455
9.06875e-06;0.013105678342894382
9.06900e-06;0.013139802219514675
9.06925e-06;0.013162821874811874
9.06950e-06;0.013185841530108919
9.06975e-06;0.013208861185406118
9.07000e-06;0.013231880840703317
9.07025e-06;0.013254900496000362
9.07050e-06;0.013277920151297562
9.07075e-06;0.013300939806594761
9.07100e-06;0.013323959461891806
9.07125e-06;0.013346979117189005
9.07150e-06;0.013369998772486204
9.07175e-06;0.01339301842778325
9.07200e-06;0.013412921643434649
9.07225e-06;0.013427529389000525
9.07250e-06;0.013442137134566302
9.07275e-06;0.013456744880132179
9.07300e-06;0.013471352625698055
9.07325e-06;0.013485960371263834
9.07350e-06;0.01350056811682971
9.07375e-06;0.013515175862395586
9.07400e-06;0.013529783607961364
9.07425e-06;0.01354439135352724
9.07450e-06;0.013552155108352624
9.07475e-06;0.013558900530709591
9.07500e-06;0.013565645953066603
9.07525e-06;0.013572391375423614
9.07550e-06;0.01357913679778058
9.07575e-06;0.013585882220137593
9.07600e-06;0.013592627642494604
9.07625e-06;0.013599373064851617
9.07650e-06;0.013606118487208583
9.07675e-06;0.013606924434423595
9.07700e-06;0.013597637995288629
9.07725e-06;0.013588351556153724
9.07750e-06;0.013579065117018757
9.07775e-06;0.01356977867788379
9.07800e-06;0.013560492238748886
9.07825e-06;0.013551205799613919
9.07850e-06;0.013541919360478952
9.07875e-06;0.013532632921344047
9.07900e-06;0.01352334648220908
9.07925e-06;0.013514060043074113
9.07950e-06;0.013490886130003337
9.07975e-06;0.013465645869073032
9.08000e-06;0.013440405608142728
9.08025e-06;0.013415165347212593
9.08050e-06;0.013389925086282289
9.08075e-06;0.013364684825351985
9.08100e-06;0.01333944456442185
9.08125e-06;0.013314204303491546
9.08150e-06;0.013288964042561241
9.08175e-06;0.013263723781631107
9.08200e-06;0.013236436097563455
9.08225e-06;0.01320566942169383
9.08250e-06;0.013174902745824415
9.08275e-06;0.013144136069954791
9.08300e-06;0.013113369394085167
9.08325e-06;0.013082602718215751
9.08350e-06;0.013051836042346127
9.08375e-06;0.013021069366476503
9.08400e-06;0.012994505452764399
9.08425e-06;0.012968566877297924
9.08450e-06;0.01294262830183145
9.08475e-06;0.012916689726364977
9.08500e-06;0.012890751150898678
9.08525e-06;0.012864812575432205
9.08550e-06;0.01283887399996573
9.08575e-06;0.012815193234677407
9.08600e-06;0.012795348951920254
9.08625e-06;0.012775504669163102
9.08650e-06;0.012755660386406084
9.08675e-06;0.012735816103648932
9.08700e-06;0.01271597182089178
9.08725e-06;0.012696127538134762
9.08750e-06;0.01267628325537761
9.08775e-06;0.012656438972620459
9.08800e-06;0.01263659468986344
9.08825e-06;0.012616750407106287
9.08850e-06;0.012596631507163404
9.08875e-06;0.012576045976302686
9.08900e-06;0.012555460445441828
9.08925e-06;0.012534874914580971
9.08950e-06;0.012514289383720253
9.08975e-06;0.012493703852859396
9.09000e-06;0.012473118321998539
9.09025e-06;0.01245253279113782
9.09050e-06;0.012431947260276962
9.09075e-06;0.012411361729416105
9.09100e-06;0.012390776198555387
9.09125e-06;0.012370410524767285
9.09150e-06;0.012350418433234863
9.09175e-06;0.012330426341702578
9.09200e-06;0.012310434250170157
9.09225e-06;0.012290442158637737
9.09250e-06;0.012270450067105452
9.09275e-06;0.012250457975573031
9.09300e-06;0.012230465884040611
9.09325e-06;0.01221047379250819
9.09350e-06;0.012190481700975905
9.09375e-06;0.012170489609443485
9.09400e-06;0.012150497517911064
9.09425e-06;0.01213050542637878
9.09450e-06;0.012110513334846359
9.09475e-06;0.012090521243313938
9.09500e-06;0.012080420663484541
9.09525e-06;0.012071791863487011
9.09550e-06;0.01206316306348948
9.09575e-06;0.012054534263492006
9.09600e-06;0.012045905463494476
9.09625e-06;0.012037276663496944
9.09650e-06;0.012028647863499473
9.09675e-06;0.012020019063501941
9.09700e-06;0.01201139026350441
9.09725e-06;0.012002761463506938
9.09750e-06;0.011994132663509407
9.09775e-06;0.011985503863511876
9.09800e-06;0.011976875063514403
9.09825e-06;0.011968246263516872
9.09850e-06;0.011965705501317396
9.09875e-06;0.011973509563895332
9.09900e-06;0.011981313626473322
9.09925e-06;0.011989117689051311
9.09950e-06;0.011996921751629247
9.09975e-06;0.012004725814207237
9.10000e-06;0.012012529876785225
9.10025e-06;0.012020333939363163
9.10050e-06;0.012028138001941151
9.10075e-06;0.012035942064519141
9.10100e-06;0.012043746127097077
9.10125e-06;0.012051550189675067
9.10150e-06;0.012059354252253057
9.10175e-06;0.012067158314831046
9.10200e-06;0.012074962377408982
9.10225e-06;0.012082766439986972
9.10250e-06;0.012093249098275888
9.10275e-06;0.012104130310725662
9.10300e-06;0.01211501152317551
9.10325e-06;0.012125892735625357
9.10350e-06;0.01213677394807513
9.10375e-06;0.012147655160524979
9.10400e-06;0.012158536372974826
9.10425e-06;0.0121694175854246
9.10450e-06;0.012180298797874448
9.10475e-06;0.012191180010324296
9.10500e-06;0.01220206122277407
9.10525e-06;0.012212942435223917
9.10550e-06;0.012223823647673765
9.10575e-06;0.012234704860123539
9.10600e-06;0.012245586072573386
9.10625e-06;0.012254343153496366
9.10650e-06;0.012259490899329132
9.10675e-06;0.012264638645161932
9.10700e-06;0.012269786390994733
9.10725e-06;0.0122749341368275
9.10750e-06;0.0122800818826603
9.10775e-06;0.012285229628493101
9.10800e-06;0.012290377374325867
9.10825e-06;0.012295525120158668
9.10850e-06;0.012300672865991468
9.10875e-06;0.012305820611824234
9.10900e-06;0.012310968357657036
9.10925e-06;0.012316116103489837
9.10950e-06;0.012321263849322603
9.10975e-06;0.012326411595155403
9.11000e-06;0.012331559340988204
9.11025e-06;0.01233670708682097
9.11050e-06;0.012341854832653772
9.11075e-06;0.012347002578486572
9.11100e-06;0.012352150324319373
9.11125e-06;0.01235641419176403
9.11150e-06;0.012359176168557438
9.11175e-06;0.012361938145350847
9.11200e-06;0.012364700122144237
9.11225e-06;0.012367462098937645
9.11250e-06;0.012370224075731052
9.11275e-06;0.012372986052524442
9.11300e-06;0.012375748029317851
9.11325e-06;0.01237851000611126
9.11350e-06;0.01238127198290465
9.11375e-06;0.012384033959698058
9.11400e-06;0.012386795936491467
9.11425e-06;0.012389557913284856
9.11450e-06;0.012392319890078263
9.11475e-06;0.012395081866871672
9.11500e-06;0.012397843843665062
9.11525e-06;0.01240060582045847
9.11550e-06;0.01240336779725188
9.11575e-06;0.012406129774045269
9.11600e-06;0.012408891750838678
9.11625e-06;0.01241286800307972
9.11650e-06;0.012418907558335862
9.11675e-06;0.012424947113592046
9.11700e-06;0.012430986668848228
9.11725e-06;0.01243702622410437
9.11750e-06;0.012443065779360555
9.11775e-06;0.012449105334616737
9.11800e-06;0.01245514488987288
9.11825e-06;0.012461184445129064
9.11850e-06;0.012467224000385246
9.11875e-06;0.012473263555641389
9.11900e-06;0.012479303110897573
9.11925e-06;0.012485342666153755
9.11950e-06;0.012493973679663947
9.11975e-06;0.012507008112217185
9.12000e-06;0.012520042544770514
9.12025e-06;0.012533076977323842
9.12050e-06;0.012546111409877082
9.12075e-06;0.01255914584243041
9.12100e-06;0.012572180274983738
9.12125e-06;0.012585214707536978
9.12150e-06;0.012598249140090306
9.12175e-06;0.012611283572643633
9.12200e-06;0.012624318005196873
9.12225e-06;0.012637352437750202
9.12250e-06;0.012650386870303528
9.12275e-06;0.012663777261645408
9.12300e-06;0.012677772499971221
9.12325e-06;0.012691767738297034
9.12350e-06;0.012705762976622752
9.12375e-06;0.012719758214948564
9.12400e-06;0.012733753453274377
9.12425e-06;0.012745323380504799
9.12450e-06;0.012756532440350117
9.12475e-06;0.012767741500195435
9.12500e-06;0.012778950560040676
9.12525e-06;0.012790159619885992
9.12550e-06;0.012799003469299068
9.12575e-06;0.012803828341117282
9.12600e-06;0.012808653212935528
9.12625e-06;0.012805178574245872
9.12650e-06;0.012787601365094265
9.12675e-06;0.012770024155942538
9.12700e-06;0.012752446946790811
9.12725e-06;0.012734869737639204
9.12750e-06;0.012717292528487478
9.12775e-06;0.01269971531933575
9.12800e-06;0.012652999908238467
9.12825e-06;0.012601948959829827
9.12850e-06;0.01255089801142084
9.12875e-06;0.012499847063011852
9.12900e-06;0.01244879611460321
9.12925e-06;0.012397745166194223
9.12950e-06;0.0123349722239386
9.12975e-06;0.012252281210126142
9.13000e-06;0.012169590196313123
9.13025e-06;0.012086899182500103
9.13050e-06;0.012004208168687646
9.13075e-06;0.011921517154874627
9.13100e-06;0.011838826141061609
9.13125e-06;0.01175613512724915
9.13150e-06;0.011658123882839334
9.13175e-06;0.011557833107540261
9.13200e-06;0.011457542332241869
9.13225e-06;0.011357251556942796
9.13250e-06;0.011256960781643724
9.13275e-06;0.011156670006345331
9.13300e-06;0.01105637923104626
9.13325e-06;0.010956688266103284
9.13350e-06;0.010858016501968592
9.13375e-06;0.01075934473783323
9.13400e-06;0.010663492376802084
9.13425e-06;0.010572430759865381
9.13450e-06;0.010481369142928063
9.13475e-06;0.01039502129103211
9.13500e-06;0.01031668309266886
9.13525e-06;0.01023834489430508
9.13550e-06;0.010170886075034455
9.13575e-06;0.01012191355205155
9.13600e-06;0.010072941029068316
9.13625e-06;0.01002396850608508
9.13650e-06;0.009974995983101845
9.13675e-06;0.009926023460118942
9.13700e-06;0.009877050937135706
9.13725e-06;0.009866666476326884
9.13750e-06;0.009862023618371853
9.13775e-06;0.009857380760416791
9.13800e-06;0.00985273790246173
9.13825e-06;0.0098480950445067
9.13850e-06;0.009843452186551638
9.13875e-06;0.009856373842545401
9.13900e-06;0.009899141209974347
9.13925e-06;0.009941908577403584
9.13950e-06;0.00998467594483282
9.13975e-06;0.010027443312261766
9.14000e-06;0.010070210679691001
9.14025e-06;0.010112978047120236
9.14050e-06;0.010155745414549182
9.14075e-06;0.010198512781978418
9.14100e-06;0.010253223834401422
9.14125e-06;0.010328229657112433
9.14150e-06;0.010403235479823955
9.14175e-06;0.010478241302535475
9.14200e-06;0.010553247125246489
9.14225e-06;0.010628252947958008
9.14250e-06;0.01070325877066953
9.14275e-06;0.010778264593380542
9.14300e-06;0.010853270416092064
9.14325e-06;0.010928267916656366
9.14350e-06;0.01100325127618528
9.14375e-06;0.0110782346357147
9.14400e-06;0.011153217995244123
9.14425e-06;0.011228201354773037
9.14450e-06;0.011303184714302458
9.14475e-06;0.01137816807383188
9.14500e-06;0.011432443484071934
9.14525e-06;0.011483637712876615
9.14550e-06;0.011534831941681645
9.14575e-06;0.011586026170486673
9.14600e-06;0.011637220399291354
9.14625e-06;0.011688414628096383
9.14650e-06;0.011725157708640395
9.14675e-06;0.011737345324553825
9.14700e-06;0.011749532940467338
9.14725e-06;0.011761720556380851
9.14750e-06;0.011773908172294281
9.14775e-06;0.011786095788207794
9.14800e-06;0.011798283404121307
9.14825e-06;0.011810471020034737
9.14850e-06;0.01182265863594825
9.14875e-06;0.011799242530999766
9.14900e-06;0.011770528869918265
9.14925e-06;0.011741815208836569
9.14950e-06;0.011713101547754873
9.14975e-06;0.01168438788667337
9.15000e-06;0.011655674225591673
9.15025e-06;0.011626960564509977
9.15050e-06;0.011598246903428476
9.15075e-06;0.011559651538844999
9.15100e-06;0.011504265133406815
9.15125e-06;0.011448878727969005
9.15150e-06;0.01139349232253082
9.15175e-06;0.011338105917092636
