Time(s);Current(A)
1.45500e-05;0.0037644208807018683
1.45503e-05;0.003765008988958011
1.45505e-05;0.0037646123160959655
1.45508e-05;0.0037642156432339193
1.45510e-05;0.003763818970371876
1.45513e-05;0.00376342229750983
1.45515e-05;0.0037630256246477837
1.45518e-05;0.003762628951785738
1.45520e-05;0.0037622322789236944
1.45523e-05;0.0037618356060616486
1.45525e-05;0.0037614389331996024
1.45528e-05;0.0037610422603375593
1.45530e-05;0.003760645587475513
1.45533e-05;0.0037602489146134673
1.45535e-05;0.0037598522417514237
1.45538e-05;0.003759455568889378
1.45540e-05;0.0037590588960273318
1.45543e-05;0.0037570576272315756
1.45545e-05;0.003745623314321734
1.45548e-05;0.0037341890014118925
1.45550e-05;0.0037227546885021286
1.45553e-05;0.003711320375592287
1.45555e-05;0.0036998860626824455
1.45558e-05;0.0036884517497726816
1.45560e-05;0.00367701743686284
1.45563e-05;0.0036655831239529985
1.45565e-05;0.003654148811043234
1.45568e-05;0.0036427144981333926
1.45570e-05;0.003631280185223551
1.45573e-05;0.003619845872313787
1.45575e-05;0.003603503078444367
1.45578e-05;0.0035844631383553796
1.45580e-05;0.003565423198266521
1.45583e-05;0.0035463832581775338
1.45585e-05;0.0035273433180885464
1.45588e-05;0.003508303377999688
1.45590e-05;0.0034892634379107006
1.45593e-05;0.0034702234978217133
1.45595e-05;0.003451183557732855
1.45598e-05;0.003432143617643868
1.45600e-05;0.0034131036775548805
1.45603e-05;0.003394063737465893
1.45605e-05;0.0033754731346201422
1.45608e-05;0.0033595240803093993
1.45610e-05;0.003343575025998656
1.45613e-05;0.003327625971688021
1.45615e-05;0.003311676917377278
1.45618e-05;0.0032957278630665345
1.45620e-05;0.0032797788087558996
1.45623e-05;0.0032638297544451563
1.45625e-05;0.003247880700134413
1.45628e-05;0.0032341206427136415
1.45630e-05;0.0032332291859192325
1.45633e-05;0.0032323377291248235
1.45635e-05;0.0032314462723304206
1.45638e-05;0.0032305548155360116
1.45640e-05;0.0032296633587416026
1.45643e-05;0.0032287719019471997
1.45645e-05;0.0032278804451527907
1.45648e-05;0.0032269889883583818
1.45650e-05;0.003229184325147391
1.45653e-05;0.003249526199296676
1.45655e-05;0.0032698680734459607
1.45658e-05;0.003290209947595108
1.45660e-05;0.0033105518217443927
1.45663e-05;0.0033308936958936775
1.45665e-05;0.0033512355700428247
1.45668e-05;0.0033715774441921095
1.45670e-05;0.0033919193183413942
1.45673e-05;0.0034122611924905415
1.45675e-05;0.003441759021692016
1.45678e-05;0.003476287928688329
1.45680e-05;0.0035108168356844083
1.45683e-05;0.003545345742680721
1.45685e-05;0.0035798746496770338
1.45688e-05;0.003614403556673113
1.45690e-05;0.003648932463669426
1.45693e-05;0.003683461370665739
1.45695e-05;0.0037179902776620513
1.45698e-05;0.003752318971036317
1.45700e-05;0.0037854706553652534
1.45703e-05;0.0038186223396941893
1.45705e-05;0.003851774024022901
1.45708e-05;0.0038849257083518373
1.45710e-05;0.003918077392680773
1.45713e-05;0.003951229077009484
1.45715e-05;0.003984380761338421
1.45718e-05;0.004017532445667357
1.45720e-05;0.004050684129996068
1.45723e-05;0.0040810892467234424
1.45725e-05;0.004095347935039192
1.45728e-05;0.004109606623354844
1.45730e-05;0.004123865311670594
1.45733e-05;0.0041381239999863425
1.45735e-05;0.004152382688301996
1.45738e-05;0.004166641376617744
1.45740e-05;0.004180900064933494
1.45743e-05;0.004195158753249146
1.45745e-05;0.004209417441564896
1.45748e-05;0.004220242788856552
1.45750e-05;0.004210884327442545
1.45753e-05;0.004201525866028474
1.45755e-05;0.004192167404614404
1.45758e-05;0.004182808943200396
1.45760e-05;0.004173450481786326
1.45763e-05;0.0041640920203722545
1.45765e-05;0.004154733558958248
1.45768e-05;0.0041453750975441765
1.45770e-05;0.004136016636130106
1.45773e-05;0.004126658174716098
1.45775e-05;0.004107545737650877
1.45778e-05;0.004083073618275492
1.45780e-05;0.004058601498900106
1.45783e-05;0.004034129379524887
1.45785e-05;0.004009657260149502
1.45788e-05;0.003985185140774116
1.45790e-05;0.003960713021398897
1.45793e-05;0.003936240902023511
1.45795e-05;0.0039117687826481255
1.45798e-05;0.0038872966632729064
1.45800e-05;0.0038624527418523124
1.45803e-05;0.003835423083184569
1.45805e-05;0.0038089379541676378
1.45808e-05;0.0037856539875834867
1.45810e-05;0.003762370020999336
1.45813e-05;0.003739086054415343
1.45815e-05;0.0037158020878311922
1.45818e-05;0.003692518121247041
1.45820e-05;0.0036692341546630484
1.45823e-05;0.0036459501880788973
1.45825e-05;0.003625275983324146
1.45828e-05;0.0036199439578576864
1.45830e-05;0.0036146119323911905
1.45833e-05;0.0036092799069246946
1.45835e-05;0.0036039478814582347
1.45838e-05;0.003598615855991739
1.45840e-05;0.0035932838305252433
1.45843e-05;0.0035879518050587833
1.45845e-05;0.003586809696084008
1.45848e-05;0.003610299126009887
1.45850e-05;0.0036337885559356064
1.45853e-05;0.0036572779858614853
1.45855e-05;0.0036807674157873643
1.45858e-05;0.0037042568457130837
1.45860e-05;0.0037277462756389627
1.45863e-05;0.0037512357055648413
1.45865e-05;0.0037747251354907202
1.45868e-05;0.0038016900582577054
1.45870e-05;0.0038490865904141423
1.45873e-05;0.003896483122570579
1.45875e-05;0.003943879654726695
1.45878e-05;0.0039912761868831316
1.45880e-05;0.004038672719039568
1.45883e-05;0.004086069251195684
1.45885e-05;0.004133465783352121
1.45888e-05;0.004180862315508558
1.45890e-05;0.004229261136419235
1.45893e-05;0.004283552178452818
1.45895e-05;0.004337843220486401
1.45898e-05;0.004392134262519615
1.45900e-05;0.004446425304553199
1.45903e-05;0.004500716346586782
1.45905e-05;0.004555007388619996
1.45908e-05;0.004609298430653579
1.45910e-05;0.004661613264280317
1.45913e-05;0.004702310430976232
1.45915e-05;0.0047430075976724224
1.45918e-05;0.004783704764368613
1.45920e-05;0.004824401931064528
1.45923e-05;0.004865099097760719
1.45925e-05;0.00490579626445691
1.45928e-05;0.004946493431152825
1.45930e-05;0.004981726901475823
1.45933e-05;0.004984840578934931
1.45935e-05;0.004987954256394018
1.45938e-05;0.004991067933853125
1.45940e-05;0.004994181611312233
1.45943e-05;0.00499729528877132
1.45945e-05;0.005000408966230428
1.45948e-05;0.0050035226436895355
1.45950e-05;0.005006636321148643
1.45953e-05;0.0050097499986077295
1.45955e-05;0.005012863676066837
1.45958e-05;0.004988676531183735
1.45960e-05;0.004949487940751034
1.45963e-05;0.004910299350318067
1.45965e-05;0.0048711107598851
1.45968e-05;0.004831922169452399
1.45970e-05;0.004792733579019432
1.45973e-05;0.004753544988586465
1.45975e-05;0.004714356398153763
1.45978e-05;0.0046751678077207965
1.45980e-05;0.004635979217287829
1.45983e-05;0.004593907552957457
1.45985e-05;0.004534886971612694
1.45988e-05;0.00447586639026793
1.45990e-05;0.004416845808923567
1.45993e-05;0.004357825227578804
1.45995e-05;0.00429880464623404
1.45998e-05;0.004239784064889677
1.46000e-05;0.004180763483544913
1.46003e-05;0.004124059778203904
1.46005e-05;0.0040686291659878865
1.46008e-05;0.004013198553771494
1.46010e-05;0.0039577679415551004
1.46013e-05;0.0039023373293390826
1.46015e-05;0.0038469067171226896
1.46018e-05;0.0037914761049062965
1.46020e-05;0.0037401803694723994
1.46023e-05;0.0037131926073854372
1.46025e-05;0.0036862048452984755
1.46028e-05;0.0036592170832116964
1.46030e-05;0.0036322293211247343
1.46033e-05;0.0036052415590377726
1.46035e-05;0.0035782537969508105
1.46038e-05;0.0035512660348640318
1.46040e-05;0.0035242782727770696
1.46043e-05;0.003503841683174062
1.46045e-05;0.0035219179041151793
1.46048e-05;0.003539994125056419
1.46050e-05;0.003558070345997659
1.46053e-05;0.003576146566938776
1.46055e-05;0.0035942227878800154
1.46058e-05;0.003612299008821255
1.46060e-05;0.0036303752297623722
1.46063e-05;0.003648451450703612
1.46065e-05;0.003671632009955969
1.46068e-05;0.003724819780103727
1.46070e-05;0.0037780075502518453
1.46073e-05;0.003831195320399964
1.46075e-05;0.0038843830905477216
1.46078e-05;0.00393757086069584
1.46080e-05;0.003990758630843958
1.46083e-05;0.004043946400991716
1.46085e-05;0.004107011502739518
1.46088e-05;0.004175504069285322
1.46090e-05;0.004243996635830662
1.46093e-05;0.004312489202376467
1.46095e-05;0.004380981768922271
1.46098e-05;0.004449474335467611
1.46100e-05;0.004517966902013416
1.46103e-05;0.004585427346788975
1.46105e-05;0.004646820189114872
1.46108e-05;0.004708213031441185
1.46110e-05;0.004769605873767498
1.46113e-05;0.004830998716093396
1.46115e-05;0.004892391558419709
1.46118e-05;0.0049537844007460224
1.46120e-05;0.005015177243072336
1.46123e-05;0.005072938291247483
1.46125e-05;0.005109348871171023
1.46128e-05;0.005145759451094563
1.46130e-05;0.0051821700310178565
1.46133e-05;0.005218580610941397
1.46135e-05;0.005254991190864937
1.46138e-05;0.005291401770788231
1.46140e-05;0.005327812350711772
1.46143e-05;0.005360122740138184
1.46145e-05;0.005368329068758219
1.46148e-05;0.005376535397378311
1.46150e-05;0.005384741725998401
1.46153e-05;0.005392948054618437
1.46155e-05;0.005401154383238529
1.46158e-05;0.005409360711858619
1.46160e-05;0.005417567040478655
1.46163e-05;0.0054257733690987455
1.46165e-05;0.005433979697718837
1.46168e-05;0.005442186026338872
1.46170e-05;0.005450392354958963
1.46173e-05;0.005445469586283172
1.46175e-05;0.005433332549998565
1.46178e-05;0.005421195513713876
1.46180e-05;0.005409058477429187
1.46183e-05;0.00539692144114458
1.46185e-05;0.005384784404859891
1.46188e-05;0.005372647368575202
1.46190e-05;0.005360510332290595
1.46193e-05;0.0053483732960059064
1.46195e-05;0.005336236259721217
1.46198e-05;0.00532409922343661
1.46200e-05;0.0053116673411977
1.46203e-05;0.005297502128564612
1.46205e-05;0.005283336915931524
1.46208e-05;0.005269171703298532
1.46210e-05;0.005255006490665444
1.46213e-05;0.005240841278032355
1.46215e-05;0.0052266760653993626
1.46218e-05;0.005212510852766274
1.46220e-05;0.005198345640133186
1.46223e-05;0.005184180427500194
1.46225e-05;0.005170015214867106
1.46228e-05;0.005155850002234018
1.46230e-05;0.005141684789601026
1.46233e-05;0.0051275195769679375
1.46235e-05;0.005113354364334849
1.46238e-05;0.0050991891517018564
1.46240e-05;0.005085268518562753
1.46243e-05;0.005072785711056877
1.46245e-05;0.005060302903551086
1.46248e-05;0.005047820096045211
1.46250e-05;0.005035337288539335
1.46253e-05;0.005022854481033543
1.46255e-05;0.005010371673527667
1.46258e-05;0.004997888866021791
1.46260e-05;0.004985406058516001
1.46263e-05;0.004972923251010125
1.46265e-05;0.004960440443504249
1.46268e-05;0.004947957635998457
1.46270e-05;0.004935474828492581
1.46273e-05;0.004922992020986706
1.46275e-05;0.004910509213480915
1.46278e-05;0.004898026405975039
1.46280e-05;0.004885381137808554
1.46283e-05;0.004871780801420892
1.46285e-05;0.004858180465033139
1.46288e-05;0.004844580128645385
1.46290e-05;0.004830979792257632
1.46293e-05;0.00481737945586997
1.46295e-05;0.004803779119482217
1.46298e-05;0.004790178783094463
1.46300e-05;0.004776578446706803
1.46303e-05;0.004762978110319049
1.46305e-05;0.004749784637231367
1.46308e-05;0.004738983018312663
1.46310e-05;0.004728181399393887
1.46313e-05;0.00471737978047511
1.46315e-05;0.004706578161556407
1.46318e-05;0.00469577654263763
1.46320e-05;0.004684974923718854
1.46323e-05;0.004674173304800151
1.46325e-05;0.004663371685881374
1.46328e-05;0.004652570066962597
1.46330e-05;0.004640369327143449
1.46333e-05;0.004619943482826767
1.46335e-05;0.004599517638510086
1.46338e-05;0.004579091794193543
1.46340e-05;0.004558665949876862
1.46343e-05;0.00453824010556018
1.46345e-05;0.004517814261243638
1.46348e-05;0.004497388416926956
1.46350e-05;0.004476962572610275
1.46353e-05;0.004456536728293732
1.46355e-05;0.004436110883977051
1.46358e-05;0.00441568503966037
1.46360e-05;0.004392667440515525
1.46363e-05;0.004354413520983624
1.46365e-05;0.004316159601451723
1.46368e-05;0.00427790568192008
1.46370e-05;0.004239651762388178
1.46373e-05;0.004201397842856277
1.46375e-05;0.004163143923324375
1.46378e-05;0.004124890003792733
1.46380e-05;0.004086636084260831
1.46383e-05;0.004048382164728929
1.46385e-05;0.004010128245197287
1.46388e-05;0.003971874325665385
1.46390e-05;0.003932938893295173
1.46393e-05;0.003889997006363806
1.46395e-05;0.003847055119432148
1.46398e-05;0.0038041132325004902
1.46400e-05;0.0037611713455691234
1.46403e-05;0.0037182294586374657
1.46405e-05;0.003675287571705808
1.46408e-05;0.003632345684774441
1.46410e-05;0.0035954531480428945
1.46413e-05;0.0035618846502957118
1.46415e-05;0.0035283161525487567
1.46418e-05;0.0034947476548015735
1.46420e-05;0.0034611791570543908
1.46423e-05;0.0034276106593074352
1.46425e-05;0.0033940421615602525
1.46428e-05;0.0033627842883892493
1.46430e-05;0.0033451100366193895
1.46433e-05;0.0033274357848494095
1.46435e-05;0.0033116062684209785
1.46438e-05;0.00330662151956079
1.46440e-05;0.003301636770700567
1.46443e-05;0.0032985188935999153
1.46445e-05;0.0033063759188904085
1.46448e-05;0.003314232944180955
1.46450e-05;0.003324065108849026
1.46453e-05;0.003345508655909021
1.46455e-05;0.0033669522029691618
1.46458e-05;0.0033914533907063982
1.46460e-05;0.00343392973276607
1.46463e-05;0.0034764060748254545
1.46465e-05;0.0035188824168851263
1.46468e-05;0.003561358758944798
1.46470e-05;0.003603835101004182
1.46473e-05;0.003646311443063854
1.46475e-05;0.003688787785123526
1.46478e-05;0.003734082729522
1.46480e-05;0.0037959475777706608
1.46483e-05;0.0038578124260193213
1.46485e-05;0.0039196772742675625
1.46488e-05;0.003981542122516223
1.46490e-05;0.004043406970764884
1.46493e-05;0.004105271819013125
1.46495e-05;0.004167136667261786
1.46498e-05;0.004228775827780994
1.46500e-05;0.004289088222929003
1.46503e-05;0.004349400618077421
1.46505e-05;0.004409713013225838
1.46508e-05;0.004470025408373847
1.46510e-05;0.004530337803522264
1.46513e-05;0.004590650198670682
1.46515e-05;0.00465096259381869
1.46518e-05;0.004711274988967108
1.46520e-05;0.0047569464590935025
1.46523e-05;0.00479457293199765
1.46525e-05;0.004832199404902051
1.46528e-05;0.004869825877806453
1.46530e-05;0.004907452350710599
1.46533e-05;0.004945078823615001
1.46535e-05;0.004982705296519403
1.46538e-05;0.0050203317694235495
1.46540e-05;0.005053856947264753
1.46543e-05;0.00506327157075623
1.46545e-05;0.005072686194247706
1.46548e-05;0.0050821008177391195
1.46550e-05;0.005091515441230596
1.46553e-05;0.005100930064722073
1.46555e-05;0.0051103446882134855
1.46558e-05;0.005119759311704963
1.46560e-05;0.005129173935196439
1.46563e-05;0.0051385885586878515
1.46565e-05;0.005148003182179329
1.46568e-05;0.005157417805670805
1.46570e-05;0.0051638748875184265
1.46573e-05;0.0051529452738338
1.46575e-05;0.005142015660149173
1.46578e-05;0.00513108604646462
1.46580e-05;0.005120156432779993
1.46583e-05;0.005109226819095367
1.46585e-05;0.005098297205410813
1.46588e-05;0.005087367591726187
1.46590e-05;0.00507643797804156
1.46593e-05;0.005065508364357007
1.46595e-05;0.005054578750672381
1.46598e-05;0.0050436491369877535
1.46600e-05;0.005032366773504019
1.46603e-05;0.005019010676461458
1.46605e-05;0.005005654579418897
1.46608e-05;0.004992298482376427
1.46610e-05;0.0049789423853338665
1.46613e-05;0.004965586288291306
1.46615e-05;0.004952230191248836
1.46618e-05;0.004938874094206276
1.46620e-05;0.004925517997163715
1.46623e-05;0.004912161900121245
1.46625e-05;0.004898805803078684
1.46628e-05;0.004885449706036124
1.46630e-05;0.004872093608993563
1.46633e-05;0.004858737511951093
1.46635e-05;0.004845381414908532
1.46638e-05;0.004832144710105673
1.46640e-05;0.00481960988435358
1.46643e-05;0.004807075058601401
1.46645e-05;0.004794540232849222
1.46648e-05;0.004782005407097128
1.46650e-05;0.004769470581344949
1.46653e-05;0.00475693575559277
1.46655e-05;0.004744400929840676
1.46658e-05;0.004731866104088498
1.46660e-05;0.004719331278336319
1.46663e-05;0.0047067964525842245
1.46665e-05;0.004694261626832046
1.46668e-05;0.004681726801079867
1.46670e-05;0.004669191975327773
1.46673e-05;0.004656657149575595
1.46675e-05;0.0046437956534776175
1.46678e-05;0.0046290137388263234
1.46680e-05;0.00461423182417493
1.46683e-05;0.004599449909523536
1.46685e-05;0.004584667994872242
1.46688e-05;0.004569886080220848
1.46690e-05;0.004555104165569454
1.46693e-05;0.004540322250918161
1.46695e-05;0.004525540336266767
1.46698e-05;0.004510758421615373
1.46700e-05;0.004495976506964079
1.46703e-05;0.004481194592312685
1.46705e-05;0.004466412677661291
1.46708e-05;0.00445503863294297
1.46710e-05;0.00444553716827803
1.46713e-05;0.004436035703613088
1.46715e-05;0.004426534238948147
1.46718e-05;0.00441703277428327
1.46720e-05;0.004407531309618329
1.46723e-05;0.004398029844953388
1.46725e-05;0.004388528380288511
1.46728e-05;0.004379026915623569
1.46730e-05;0.004369525450958629
1.46733e-05;0.004360023986293752
1.46735e-05;0.00435052252162881
1.46738e-05;0.004343391247750662
1.46740e-05;0.004350193771116011
1.46743e-05;0.0043569962944814055
1.46745e-05;0.0043637988178468
1.46748e-05;0.004370601341212149
1.46750e-05;0.0043774038645775434
1.46753e-05;0.004384206387942938
1.46755e-05;0.004391008911308287
1.46758e-05;0.004397811434673681
1.46760e-05;0.004404613958039076
1.46763e-05;0.004411416481404425
1.46765e-05;0.004418219004769819
1.46768e-05;0.004425021528135214
1.46770e-05;0.004433708266315224
1.46773e-05;0.0044534718626711494
1.46775e-05;0.004473235459027074
1.46778e-05;0.004492999055382866
1.46780e-05;0.004512762651738791
1.46783e-05;0.004532526248094717
1.46785e-05;0.004552289844450508
1.46788e-05;0.004572053440806433
1.46790e-05;0.004591817037162359
1.46793e-05;0.00461158063351815
1.46795e-05;0.004631344229874075
1.46798e-05;0.004651107826230001
1.46800e-05;0.004670871422585926
1.46803e-05;0.0046897969968384915
1.46805e-05;0.004703796035159633
1.46808e-05;0.004717795073480775
1.46810e-05;0.004731794111801821
1.46813e-05;0.0047457931501229626
1.46815e-05;0.004759792188444105
1.46818e-05;0.004773791226765151
1.46820e-05;0.004787790265086292
1.46823e-05;0.0048017893034074345
1.46825e-05;0.004815788341728481
1.46828e-05;0.004829787380049622
1.46830e-05;0.004843786418370764
1.46833e-05;0.004857785456691811
1.46835e-05;0.004871784495012952
1.46838e-05;0.004885783533334094
1.46840e-05;0.004899782571655141
1.46843e-05;0.004913781609976282
1.46845e-05;0.004925423157622428
1.46848e-05;0.00492320556900492
1.46850e-05;0.004920987980387397
1.46853e-05;0.004918770391769874
1.46855e-05;0.004916552803152366
1.46858e-05;0.004914335214534844
1.46860e-05;0.00491211762591732
1.46863e-05;0.004909900037299813
1.46865e-05;0.004907682448682289
1.46868e-05;0.004905464860064767
1.46870e-05;0.004903247271447258
1.46873e-05;0.004901029682829736
1.46875e-05;0.0048988120942122125
1.46878e-05;0.004896594505594705
1.46880e-05;0.0048943769169771814
1.46883e-05;0.004892159328359659
1.46885e-05;0.004889941739742136
1.46888e-05;0.004886906305515661
1.46890e-05;0.004879062948246251
1.46893e-05;0.00487121959097684
1.46895e-05;0.004863376233707482
1.46898e-05;0.0048555328764380715
1.46900e-05;0.004847689519168661
1.46903e-05;0.004839846161899303
1.46905e-05;0.004832002804629892
1.46908e-05;0.004824159447360482
1.46910e-05;0.004816316090091124
1.46913e-05;0.004808472732821713
1.46915e-05;0.004800629375552303
1.46918e-05;0.004792786018282945
1.46920e-05;0.004784942661013534
1.46923e-05;0.004775391024283468
1.46925e-05;0.004764900710283356
1.46928e-05;0.0047544103962831735
1.46930e-05;0.004743920082282991
1.46933e-05;0.004733429768282879
1.46935e-05;0.004722939454282696
1.46938e-05;0.0047124491402825135
1.46940e-05;0.004701958826282402
1.46943e-05;0.004691468512282219
1.46945e-05;0.004680978198282036
1.46948e-05;0.004670487884281925
1.46950e-05;0.004659997570281743
1.46953e-05;0.00464950725628156
1.46955e-05;0.0046374372647865
1.46958e-05;0.00461608071877692
1.46960e-05;0.004594724172767339
1.46963e-05;0.004573367626757904
1.46965e-05;0.004552011080748324
1.46968e-05;0.004530654534738743
1.46970e-05;0.004509297988729163
1.46973e-05;0.004487941442719728
1.46975e-05;0.004466584896710147
1.46978e-05;0.0044452283507005665
1.46980e-05;0.004423871804691132
1.46983e-05;0.004402515258681551
1.46985e-05;0.004380693328898136
1.46988e-05;0.0043561355167589105
1.46990e-05;0.004331577704619519
1.46993e-05;0.004307019892480127
1.46995e-05;0.004282462080340901
1.46998e-05;0.0042579042682015095
1.47000e-05;0.004233346456062118
1.47003e-05;0.004208788643922892
