Time(s);Current(A)
1.10000e-05;0.0020007472127294393
1.10003e-05;0.002009399368778941
1.10005e-05;0.0020180515248285013
1.10008e-05;0.0020267036808780618
1.10010e-05;0.0020353558369275633
1.10013e-05;0.0020440079929771237
1.10015e-05;0.002052660149026684
1.10018e-05;0.0020613123050761857
1.10020e-05;0.002069964461125746
1.10023e-05;0.0020786166171753062
1.10025e-05;0.002083708924287702
1.10028e-05;0.0020864845810080273
1.10030e-05;0.0020892602377283525
1.10033e-05;0.002092035894448659
1.10035e-05;0.0020948115511689844
1.10038e-05;0.00209758720788931
1.10040e-05;0.0021003628646096163
1.10043e-05;0.002103138521329942
1.10045e-05;0.002105914178050267
1.10047e-05;0.002108689834770574
1.10050e-05;0.002111465491490899
1.10053e-05;0.0021142411482112243
1.10055e-05;0.002117016804931531
1.10058e-05;0.0021197924616518566
1.10060e-05;0.002122568118372182
1.10062e-05;0.002123950545848834
1.10065e-05;0.002113554837865662
1.10068e-05;0.0021031591298824896
1.10070e-05;0.0020927634218993177
1.10073e-05;0.002082367713916216
1.10075e-05;0.0020719720059330436
1.10078e-05;0.0020615762979498712
1.10080e-05;0.0020511805899667696
1.10083e-05;0.0020407848819835976
1.10085e-05;0.0020303891740004252
1.10088e-05;0.0020199934660173236
1.10090e-05;0.002009597758034151
1.10093e-05;0.0019992020500509793
1.10095e-05;0.0019888063420678776
1.10098e-05;0.001978410634084705
1.10100e-05;0.0019680149261015333
1.10103e-05;0.0019555125485938712
1.10105e-05;0.001941639209321409
1.10108e-05;0.0019277658700489466
1.10110e-05;0.0019138925307765782
1.10113e-05;0.0019000191915041157
1.10115e-05;0.0018861458522316534
1.10118e-05;0.001872272512959285
1.10120e-05;0.0018583991736868227
1.10123e-05;0.0018445258344143602
1.10125e-05;0.0018306524951419917
1.10128e-05;0.0018167791558695294
1.10130e-05;0.001802905816597067
1.10132e-05;0.0017890324773246985
1.10135e-05;0.001777543619135563
1.10138e-05;0.001767606514724713
1.10140e-05;0.0017576694103139303
1.10143e-05;0.00174773230590308
1.10145e-05;0.0017377952014922301
1.10147e-05;0.0017278580970814473
1.10150e-05;0.0017179209926705971
1.10153e-05;0.0017079838882597472
1.10155e-05;0.001698046783848897
1.10158e-05;0.0016881096794381144
1.10160e-05;0.0016781725750272642
1.10163e-05;0.0016682354706164142
1.10165e-05;0.0016582983662056315
1.10168e-05;0.0016477852985360179
1.10170e-05;0.0016368974100430015
1.10173e-05;0.0016260095215500589
1.10175e-05;0.0016151216330570425
1.10178e-05;0.0016042337445640262
1.10180e-05;0.0015933458560710837
1.10183e-05;0.0015824579675780674
1.10185e-05;0.001571570079085051
1.10188e-05;0.0015606821905921084
1.10190e-05;0.001549794302099092
1.10193e-05;0.0015389064136060756
1.10195e-05;0.001528018525113133
1.10198e-05;0.0015172487017670066
1.10200e-05;0.0015065557119252823
1.10203e-05;0.0014958627220836302
1.10205e-05;0.001485169732241906
1.10208e-05;0.0014744767424001814
1.10210e-05;0.0014637837525585294
1.10213e-05;0.001453090762716805
1.10215e-05;0.0014423977728750806
1.10217e-05;0.0014317047830334287
1.10220e-05;0.0014210117931917042
1.10223e-05;0.0014103188033499797
1.10225e-05;0.0013996258135083278
1.10228e-05;0.001390957790794364
1.10230e-05;0.0013836075602048368
1.10232e-05;0.0013762573296153594
1.10235e-05;0.0013689070990258324
1.10238e-05;0.0013615568684363052
1.10240e-05;0.001355200348230521
1.10243e-05;0.0013572444954496822
1.10245e-05;0.0013592886426688575
1.10248e-05;0.0013613327898880328
1.10250e-05;0.0013633769371071943
1.10253e-05;0.0013654210843263696
1.10255e-05;0.001373296409260191
1.10258e-05;0.0013849665020017603
1.10260e-05;0.0013966365947434087
1.10263e-05;0.0014131075019704392
1.10265e-05;0.001432702645355538
1.10268e-05;0.0014522977887407695
1.10270e-05;0.0014761473206602483
1.10273e-05;0.0015027654899702602
1.10275e-05;0.0015293836592804523
1.10278e-05;0.0015597089684201324
1.10280e-05;0.0015924467807576865
1.10283e-05;0.0016251845930954627
1.10285e-05;0.0016625443478530703
1.10288e-05;0.0017029119338178708
1.10290e-05;0.0017432795197829447
1.10293e-05;0.0017836471057480188
1.10295e-05;0.0018240146917128193
1.10298e-05;0.0018643822776778932
1.10300e-05;0.0019051534642253736
1.10302e-05;0.0019493366250481993
1.10305e-05;0.001993519785871324
1.10308e-05;0.0020377029466944496
1.10310e-05;0.0020818861075172753
1.10313e-05;0.0021260692683404
1.10315e-05;0.002170252429163525
1.10317e-05;0.0022083419149026015
1.10320e-05;0.0022424658068671563
1.10323e-05;0.002276589698831711
1.10325e-05;0.002310713590796266
1.10328e-05;0.002344837482760589
1.10330e-05;0.002378961374725144
1.10333e-05;0.0024130852666896987
1.10335e-05;0.0024472091586540223
1.10338e-05;0.002481333050618577
1.10340e-05;0.002515456942583132
1.10343e-05;0.0025495808345474555
1.10345e-05;0.0025726314669622177
1.10348e-05;0.002588475930925618
1.10350e-05;0.002604320394888911
1.10353e-05;0.0026201648588523112
1.10355e-05;0.0026360093228157116
1.10358e-05;0.0026518537867790044
1.10360e-05;0.0026676982507424047
1.10363e-05;0.0026835427147058047
1.10365e-05;0.002699387178669098
1.10368e-05;0.002715231642632498
1.10370e-05;0.002731076106595898
1.10373e-05;0.0027395015000257726
1.10375e-05;0.002743098769290326
1.10378e-05;0.002746696038554879
1.10380e-05;0.002750293307819408
1.10383e-05;0.002753890577083961
1.10385e-05;0.002757487846348514
1.10387e-05;0.002761085115613043
1.10390e-05;0.0027646823848775965
1.10393e-05;0.0027682796541421495
1.10395e-05;0.0027718769234066783
1.10398e-05;0.0027754741926712314
1.10400e-05;0.0027790714619357845
1.10402e-05;0.0027826687312003133
1.10405e-05;0.002783174500962733
1.10408e-05;0.002781668409079182
1.10410e-05;0.002780162317195631
1.10413e-05;0.0027786562253120906
1.10415e-05;0.0027771501334285394
1.10418e-05;0.0027756440415449887
1.10420e-05;0.002774137949661448
1.10423e-05;0.002772631857777897
1.10425e-05;0.0027711257658943464
1.10428e-05;0.0027696196740108056
1.10430e-05;0.002768113582127255
1.10433e-05;0.0027666074902437036
1.10435e-05;0.002765101398360163
1.10438e-05;0.0027584604176338428
1.10440e-05;0.002748477794473957
1.10443e-05;0.0027384951713141396
1.10445e-05;0.002728512548154254
1.10448e-05;0.0027185299249943688
1.10450e-05;0.002708547301834551
1.10453e-05;0.0026985646786746656
1.10455e-05;0.0026885820555147804
1.10458e-05;0.0026785994323549624
1.10460e-05;0.0026686168091950772
1.10463e-05;0.0026586341860351916
1.10465e-05;0.002648651562875374
1.10468e-05;0.002636843697615379
1.10470e-05;0.002609605529793018
1.10472e-05;0.0025823673619708417
1.10475e-05;0.0025551291941484804
1.10478e-05;0.0025278910263261197
1.10480e-05;0.002500652858503943
1.10483e-05;0.0024734146906815824
1.10485e-05;0.002446176522859221
1.10487e-05;0.0024189383550370447
1.10490e-05;0.002391700187214684
1.10493e-05;0.0023644620193923227
1.10495e-05;0.002337223851569962
1.10498e-05;0.0023099856837477855
1.10500e-05;0.0022790209741558294
1.10503e-05;0.002245631135122544
1.10505e-05;0.0022122412960894843
1.10508e-05;0.0021788514570561988
1.10510e-05;0.0021454616180229128
1.10513e-05;0.002112071778989853
1.10515e-05;0.0020786819399565676
1.10518e-05;0.0020458864095889776
1.10520e-05;0.002018115068906063
1.10523e-05;0.0019903437282229606
1.10525e-05;0.001962572387539858
1.10528e-05;0.0019348010468569433
1.10530e-05;0.0019070297061738407
1.10533e-05;0.0018792583654907381
1.10535e-05;0.0018514870248078237
1.10538e-05;0.0018290958990403003
1.10540e-05;0.0018102060670730407
1.10543e-05;0.001791316235105909
1.10545e-05;0.0017724264031386493
1.10548e-05;0.0017535365711713895
1.10550e-05;0.0017346467392042578
1.10553e-05;0.0017157569072369981
1.10555e-05;0.0016968670752697385
1.10557e-05;0.0016779772433026068
1.10560e-05;0.0016594129437448076
1.10563e-05;0.001643600642716876
1.10565e-05;0.0016277883416890516
1.10568e-05;0.0016119760406611199
1.10570e-05;0.0015961637396331883
1.10572e-05;0.0015803514386053636
1.10575e-05;0.001564539137577432
1.10578e-05;0.0015487268365495003
1.10580e-05;0.0015329145355215687
1.10583e-05;0.001517102234493744
1.10585e-05;0.0015020151081835713
1.10588e-05;0.001487399905352975
1.10590e-05;0.0014727847025224777
1.10593e-05;0.0014581694996918812
1.10595e-05;0.0014435542968612848
1.10598e-05;0.0014289390940307874
1.10600e-05;0.001414323891200191
1.10603e-05;0.0013997086883695946
1.10605e-05;0.0013850934855390972
1.10608e-05;0.0013704782827085008
1.10610e-05;0.0013558630798779043
1.10613e-05;0.0013434833456920858
1.10615e-05;0.0013325583921480813
1.10618e-05;0.001321633438604077
1.10620e-05;0.0013107084850601466
1.10623e-05;0.0012997835315161422
1.10625e-05;0.0012888585779721377
1.10628e-05;0.0012779336244282075
1.10630e-05;0.001267008670884203
1.10633e-05;0.0012560837173401986
1.10635e-05;0.0012451587637962683
1.10638e-05;0.0012342338102522639
1.10640e-05;0.0012279985267914918
1.10642e-05;0.0012248151498161523
1.10645e-05;0.0012216317728407913
1.10648e-05;0.00121844839586543
1.10650e-05;0.0012152650188900905
1.10653e-05;0.0012120816419147293
1.10655e-05;0.0012088982649393683
1.10657e-05;0.0012057148879640288
1.10660e-05;0.0012025315109886676
1.10663e-05;0.0011993481340133066
1.10665e-05;0.0011961647570379453
1.10668e-05;0.0011929813800626058
1.10670e-05;0.0011943444221456838
1.10673e-05;0.0011986661469429772
1.10675e-05;0.0012029878717402414
1.10678e-05;0.0012073095965375348
1.10680e-05;0.0012116313213348282
1.10683e-05;0.0012159530461320926
1.10685e-05;0.001220274770929386
1.10688e-05;0.0012245964957266794
1.10690e-05;0.0012289182205239436
1.10693e-05;0.001233239945321237
1.10695e-05;0.0012375616701185304
1.10698e-05;0.0012418833949157948
1.10700e-05;0.001247608286726066
1.10703e-05;0.0012542463204912094
1.10705e-05;0.0012608843542563078
1.10708e-05;0.0012675223880214512
1.10710e-05;0.0012741604217865945
1.10713e-05;0.0012807984555516928
1.10715e-05;0.0012874364893168363
1.10718e-05;0.0012940745230819795
1.10720e-05;0.0013007125568470779
1.10723e-05;0.0013073505906122213
1.10725e-05;0.0013139886243773648
1.10727e-05;0.0013206266581424631
1.10730e-05;0.0013272646919076064
1.10733e-05;0.0013339027256727498
1.10735e-05;0.0013403626732223948
1.10738e-05;0.001345317108603277
1.10740e-05;0.0013502715439841593
1.10742e-05;0.001355225979365008
1.10745e-05;0.00136018041474589
1.10748e-05;0.0013651348501267724
1.10750e-05;0.0013700892855076211
1.10753e-05;0.0013750437208885032
1.10755e-05;0.0013799981562693856
1.10758e-05;0.0013849525916502677
1.10760e-05;0.0013899070270311164
1.10763e-05;0.0013948614624119985
1.10765e-05;0.0013998158977928808
1.10768e-05;0.0014047703331737296
1.10770e-05;0.0014097247685546117
1.10773e-05;0.0014152241110054226
1.10775e-05;0.0014210780637788304
1.10778e-05;0.0014269320165522779
1.10780e-05;0.0014327859693257256
1.10783e-05;0.0014386399220991334
1.10785e-05;0.0014444938748725809
1.10788e-05;0.0014503478276460286
1.10790e-05;0.0014562017804194364
1.10793e-05;0.0014620557331928839
1.10795e-05;0.0014679096859663316
1.10798e-05;0.0014737636387397394
1.10800e-05;0.0014796175915131869
1.10803e-05;0.0014854715442866344
1.10805e-05;0.0014913254970600424
1.10808e-05;0.0014965591960161982
1.10810e-05;0.0015013892510880376
1.10812e-05;0.001506219306159844
1.10815e-05;0.0015110493612316834
1.10818e-05;0.0015158794163035226
1.10820e-05;0.0015207094713753293
1.10823e-05;0.0015255395264471684
1.10825e-05;0.0015303695815190076
1.10827e-05;0.0015351996365908142
1.10830e-05;0.0015400296916626534
1.10833e-05;0.0015448597467344928
1.10835e-05;0.0015496898018062992
1.10838e-05;0.0015545198568781386
1.10840e-05;0.0015593499119499778
1.10843e-05;0.0015622760170488463
1.10845e-05;0.0015639630846096876
1.10848e-05;0.0015656501521705403
1.10850e-05;0.001567337219731393
1.10853e-05;0.0015690242872922343
1.10855e-05;0.001570711354853087
1.10858e-05;0.0015723984224139398
1.10860e-05;0.001574085489974781
1.10863e-05;0.0015757725575356338
1.10865e-05;0.0015774596250964865
1.10868e-05;0.0015791466926573278
1.10870e-05;0.0015808337602181805
1.10873e-05;0.0015825208277790333
1.10875e-05;0.0015842078953398745
1.10878e-05;0.0015858949629007273
1.10880e-05;0.00158758203046158
1.10883e-05;0.0015892690980224213
1.10885e-05;0.001590956165583274
1.10888e-05;0.0015926432331441268
1.10890e-05;0.001594330300704968
1.10893e-05;0.0015950287451458906
1.10895e-05;0.001595083821234647
1.10897e-05;0.001595138897323403
1.10900e-05;0.0015951939734121594
1.10903e-05;0.0015952490495009157
1.10905e-05;0.0015953041255896718
1.10908e-05;0.001595359201678428
1.10910e-05;0.0015954142777671843
1.10912e-05;0.0015954693538559404
1.10915e-05;0.0015955244299446967
1.10918e-05;0.0015955795060334532
1.10920e-05;0.001595634582122209
1.10923e-05;0.0015956896582109655
1.10925e-05;0.0015957447342997218
1.10928e-05;0.0015957998103884783
1.10930e-05;0.0015958548864772341
1.10933e-05;0.0015959099625659906
1.10935e-05;0.001595965038654747
1.10938e-05;0.001596020114743503
1.10940e-05;0.0015960751908322593
1.10943e-05;0.001591315664008676
1.10945e-05;0.0015834229278964354
1.10948e-05;0.0015755301917841414
1.10950e-05;0.0015676374556718475
1.10953e-05;0.0015597447195596068
1.10955e-05;0.0015518519834473129
1.10958e-05;0.001543959247335019
1.10960e-05;0.0015360665112227785
1.10963e-05;0.0015281737751104843
1.10965e-05;0.0015202810389981904
1.10968e-05;0.00151238830288595
1.10970e-05;0.0015032835979541391
1.10973e-05;0.0014839331038984948
1.10975e-05;0.0014645826098429815
1.10978e-05;0.0014452321157873373
1.10980e-05;0.001425881621731693
1.10983e-05;0.0014065311276761797
1.10985e-05;0.0013871806336205354
1.10988e-05;0.0013678301395648911
1.10990e-05;0.0013484796455093778
1.10993e-05;0.0013291291514537335
1.10995e-05;0.0013097786573980892
1.10997e-05;0.001290428163342576
1.11000e-05;0.0012685904392099668
1.11003e-05;0.0012451340951155528
1.11005e-05;0.0012216777510212977
1.11008e-05;0.0011982214069268836
1.11010e-05;0.0011747650628324698
1.11013e-05;0.0011513087187380558
1.11015e-05;0.0011281259139183364
1.11018e-05;0.0011072555660528373
1.11020e-05;0.0010863852181873385
1.11023e-05;0.0010655148703219808
1.11025e-05;0.001044644522456482
1.11028e-05;0.0010237741745909828
1.11030e-05;0.0010029038267256253
1.11033e-05;0.0009864863689105585
1.11035e-05;0.0009729667277433847
1.11038e-05;0.0009594470865763025
1.11040e-05;0.0009459274454091288
1.11043e-05;0.0009324078042419549
1.11045e-05;0.0009188881630748728
1.11048e-05;0.0009053685219076991
1.11050e-05;0.0008918488807405252
1.11053e-05;0.0008783292395734431
1.11055e-05;0.000868245339232636
1.11058e-05;0.000860397323194513
1.11060e-05;0.000852549307156443
1.11063e-05;0.0008447012911183199
1.11065e-05;0.0008368532750801968
1.11068e-05;0.0008290052590421269
1.11070e-05;0.0008211572430040038
1.11073e-05;0.0008133092269658807
1.11075e-05;0.0008054612109278107
1.11078e-05;0.0007999007367148138
1.11080e-05;0.0007958289309193284
1.11082e-05;0.0007917571251238707
1.11085e-05;0.0007876853193283853
1.11088e-05;0.0007836135135329001
1.11090e-05;0.0007795417077374424
1.11093e-05;0.000775469901941957
1.11095e-05;0.0007713980961464717
1.11098e-05;0.0007673262903509863
1.11100e-05;0.0007632544845555286
1.11103e-05;0.0007591826787600434
1.11105e-05;0.0007563991352651342
1.11108e-05;0.0007544539569443467
1.11110e-05;0.000752508778623546
1.11113e-05;0.0007505636003027452
1.11115e-05;0.0007486184219819577
1.11118e-05;0.000746673243661157
1.11120e-05;0.0007447280653403562
1.11123e-05;0.0007427828870195688
1.11125e-05;0.000740837708698768
1.11128e-05;0.0007388925303779673
1.11130e-05;0.0007369473520571798
1.11133e-05;0.0007355688362207494
1.11135e-05;0.0007345590885243252
1.11138e-05;0.000733549340827908
1.11140e-05;0.0007349223405523584
1.11143e-05;0.0007378459658408994
1.11145e-05;0.0007434995331587282
1.11148e-05;0.0007509296706082007
1.11150e-05;0.0007583598080576733
1.11153e-05;0.0007729653322474459
1.11155e-05;0.0007880664364260283
1.11158e-05;0.0008075924238327785
1.11160e-05;0.0008308125104108428
1.11163e-05;0.0008546629673716092
1.11165e-05;0.0008819601141718159
1.11167e-05;0.000912591433712733
1.11170e-05;0.0009458316340384986
1.11173e-05;0.000980159731741305
1.11175e-05;0.0010197757216878567
1.11178e-05;0.0010593917116346768
1.11180e-05;0.001103691763481195
1.11183e-05;0.001149311123610405
1.11185e-05;0.0011951802577071023
1.11188e-05;0.0012414403135874764
1.11190e-05;0.00128924559088093
1.11193e-05;0.0013442710132570979
1.11195e-05;0.0013972574911350524
1.11198e-05;0.001454412990369848
1.11200e-05;0.0015115684896042563
1.11203e-05;0.0015687239888390518
1.11205e-05;0.0016258794880738474
1.11208e-05;0.0016827827839672673
1.11210e-05;0.00173943813969643
1.11213e-05;0.0017960934954255926
1.11215e-05;0.0018527488511543714
1.11218e-05;0.0019094042068835341
1.11220e-05;0.0019565569435590273
1.11223e-05;0.001994367690855575
1.11225e-05;0.0020321784381523785
1.11228e-05;0.0020699891854491824
1.11230e-05;0.0021077999327457297
1.11233e-05;0.0021456106800425336
1.11235e-05;0.002183421427339337
1.11238e-05;0.002221232174635885
1.11240e-05;0.0022590429219326883
1.11243e-05;0.0022968536692294923
1.11245e-05;0.0023346644165260395
1.11248e-05;0.0023724751638228435
1.11250e-05;0.002410285911119647
1.11252e-05;0.002430688411606198
1.11255e-05;0.0024339769295272182
1.11258e-05;0.0024372654474482387
1.11260e-05;0.0024405539653692366
1.11263e-05;0.0024438424832902567
1.11265e-05;0.0024471310012112767
1.11268e-05;0.002450419519132297
1.11270e-05;0.002453708037053295
1.11273e-05;0.002456996554974315
1.11275e-05;0.0024602850728953356
1.11278e-05;0.0024635735908163335
1.11280e-05;0.0024668621087373535
1.11283e-05;0.0024701506266583736
1.11285e-05;0.0024636489237833668
1.11288e-05;0.0024475224913272906
1.11290e-05;0.0024313960588712145
1.11293e-05;0.0024152696264152476
1.11295e-05;0.0023991431939591715
1.11298e-05;0.0023830167615030953
1.11300e-05;0.0023668903290471285
1.11303e-05;0.0023507638965910523
1.11305e-05;0.0023323414844507962
1.11308e-05;0.0023116619032390565
1.11310e-05;0.0022909823220271766
1.11313e-05;0.0022703027408152968
1.11315e-05;0.002249623159603557
1.11318e-05;0.002228943578391677
1.11320e-05;0.0022082639971797973
1.11323e-05;0.002187584415968058
1.11325e-05;0.0021706988902055707
1.11328e-05;0.002157543286217261
1.11330e-05;0.0021443876822290404
1.11333e-05;0.002131232078240731
1.11335e-05;0.002118076474252421
1.11337e-05;0.0021049208702642007
1.11340e-05;0.002091765266275891
1.11343e-05;0.002078609662287581
1.11345e-05;0.0020654540582993606
1.11348e-05;0.002052298454311051
1.11350e-05;0.0020391428503227413
1.11353e-05;0.0020259872463344315
1.11355e-05;0.002012831642346211
1.11358e-05;0.0019997183924196876
1.11360e-05;0.0019965005004572464
1.11363e-05;0.0019932826084948264
1.11365e-05;0.001990064716532385
1.11368e-05;0.0019868468245699436
1.11370e-05;0.0019836289326075236
1.11373e-05;0.001980411040645082
1.11375e-05;0.0019771931486826408
1.11378e-05;0.001973975256720221
1.11380e-05;0.001970757364757779
1.11383e-05;0.001967539472795338
1.11385e-05;0.001964321580832918
1.11388e-05;0.0019611036888704764
1.11390e-05;0.001957885796908035
1.11393e-05;0.0019570259554914544
1.11395e-05;0.001958484304779897
1.11398e-05;0.0019599426540683395
1.11400e-05;0.001961401003356772
1.11403e-05;0.0019628593526452146
1.11405e-05;0.001964317701933657
1.11408e-05;0.0019657760512220897
1.11410e-05;0.0019672344005105323
1.11413e-05;0.001968692749798975
1.11415e-05;0.0019701510990874074
1.11418e-05;0.00197160944837585
1.11420e-05;0.001973067797664292
1.11422e-05;0.001974526146952725
1.11425e-05;0.001975984496241167
1.11428e-05;0.0019774428455296097
1.11430e-05;0.0019789011948180423
1.11433e-05;0.0019799021092842552
1.11435e-05;0.001980453321281191
1.11438e-05;0.001981004533278127
1.11440e-05;0.0019815557452750594
1.11443e-05;0.001982106957271995
1.11445e-05;0.0019826581692689313
1.11448e-05;0.0019832093812658636
1.11450e-05;0.0019837605932627998
1.11453e-05;0.0019843118052597355
1.11455e-05;0.001984863017256668
1.11458e-05;0.001985414229253604
1.11460e-05;0.00198596544125054
1.11463e-05;0.0019865166532474724
1.11465e-05;0.001987067865244408
1.11468e-05;0.0019876190772413443
1.11470e-05;0.0019881702892382766
1.11473e-05;0.001987812376782193
1.11475e-05;0.0019865607074638046
1.11478e-05;0.0019853090381454254
