Time(s);Current(A)
6.75000e-06;0.0004233108229824206
6.75025e-06;0.0004304603099013543
6.75050e-06;0.0004391415164071147
6.75075e-06;0.00044898386434288814
6.75100e-06;0.0004602450137743159
6.75125e-06;0.0004725817054994255
6.75150e-06;0.00048645219991639264
6.75175e-06;0.0005014854148902994
6.75200e-06;0.000516518629864257
6.75225e-06;0.000533401258894773
6.75250e-06;0.0005516858620861377
6.75275e-06;0.0005699704652775644
6.75300e-06;0.000588255068468929
6.75325e-06;0.0006065396716602937
6.75350e-06;0.0006249350070796822
6.75375e-06;0.0006448289145135719
6.75400e-06;0.0006647228219474618
6.75425e-06;0.0006846167293814191
6.75450e-06;0.0007045106368153089
6.75475e-06;0.0007244045442491988
6.75500e-06;0.000742889702691328
6.75525e-06;0.000760306939280792
6.75550e-06;0.0007777241758703149
6.75575e-06;0.0007951414124597788
6.75600e-06;0.0008125586490492427
6.75625e-06;0.0008299758856387656
6.75650e-06;0.0008470761720732829
6.75675e-06;0.0008598870782536818
6.75700e-06;0.000872697984434124
6.75725e-06;0.0008855088906145229
6.75750e-06;0.0008983197967949218
6.75775e-06;0.0009111307029753641
6.75800e-06;0.0009239416091557629
6.75825e-06;0.0009360076699369915
6.75850e-06;0.0009475090902584243
6.75875e-06;0.0009590105105798183
6.75900e-06;0.0009705119309012123
6.75925e-06;0.0009820133512226453
6.75950e-06;0.0009935147715440392
6.75975e-06;0.001005016191865472
6.76000e-06;0.001016517612186866
6.76025e-06;0.00102801903250826
6.76050e-06;0.001039520452829693
6.76075e-06;0.0010510218731510869
6.76100e-06;0.0010625232934724808
6.76125e-06;0.0010740247137939135
6.76150e-06;0.0010855261341153077
6.76175e-06;0.0010970104796238552
6.76200e-06;0.0011082637466366856
6.76225e-06;0.0011195170136494776
6.76250e-06;0.0011307702806622698
6.76275e-06;0.0011420235476751
6.76300e-06;0.0011532768146878922
6.76325e-06;0.0011645300817006842
6.76350e-06;0.0011757833487135146
6.76375e-06;0.0011870366157263066
6.76400e-06;0.001198289882739137
6.76425e-06;0.0012095431497519292
6.76450e-06;0.0012207964167647212
6.76475e-06;0.0012320496837775513
6.76500e-06;0.0012433029507903435
6.76525e-06;0.0012545562178031358
6.76550e-06;0.0012641901151692271
6.76575e-06;0.001272596426753243
6.76600e-06;0.0012810027383372586
6.76625e-06;0.0012894090499213028
6.76650e-06;0.0012978153615053184
6.76675e-06;0.001306221673089334
6.76700e-06;0.001310542516202544
6.76725e-06;0.0013117663128706962
6.76750e-06;0.0013129901095388483
6.76775e-06;0.0013142139062070045
6.76800e-06;0.0013154377028751563
6.76825e-06;0.0013166614995433125
6.76850e-06;0.0013132037341140356
6.76875e-06;0.0013061970451392379
6.76900e-06;0.0012991903561644165
6.76925e-06;0.0012886563715554214
6.76950e-06;0.0012754484712175465
6.76975e-06;0.001262240570879627
6.77000e-06;0.0012456346984859228
6.77025e-06;0.0012264529459084987
6.77050e-06;0.0012072711933310096
6.77075e-06;0.001185222425973409
6.77100e-06;0.0011610002780119515
6.77125e-06;0.0011367781300504118
6.77150e-06;0.0011090723501432761
6.77175e-06;0.0010787257543763973
6.77200e-06;0.0010483791586094156
6.77225e-06;0.001018032562842537
6.77250e-06;0.0009876859670755554
6.77275e-06;0.0009570494964117229
6.77300e-06;0.000922490062978591
6.77325e-06;0.000887930629545342
6.77350e-06;0.00085337119611221
6.77375e-06;0.0008188117626790781
6.77400e-06;0.0007842523292458291
6.77425e-06;0.0007498750204823899
6.77450e-06;0.0007156357738689274
6.77475e-06;0.000681396527255349
6.77500e-06;0.0006471572806418866
6.77525e-06;0.0006132163214671084
6.77550e-06;0.0005833121744778318
6.77575e-06;0.0005534080274886564
6.77600e-06;0.0005235038804994811
6.77625e-06;0.0004935997335102045
6.77650e-06;0.00046686904123473174
6.77675e-06;0.00044254403063508085
6.77700e-06;0.0004200732870626784
6.77725e-06;0.0004002213913977206
6.77750e-06;0.000382484954637375
6.77775e-06;0.00036687991074291253
6.77800e-06;0.00035346426979165674
6.77825e-06;0.00034230110432327657
6.77850e-06;0.0003334534572397428
6.77875e-06;0.0003269777085326943
6.77900e-06;0.00032287891504502073
6.77925e-06;0.0003210753379852947
6.77950e-06;0.00032145878533628884
6.77975e-06;0.0003239599758392219
6.78000e-06;0.00032853599522985873
6.78025e-06;0.00033514708367067536
6.78050e-06;0.00034375347277994695
6.78075e-06;0.00035431123499687656
6.78100e-06;0.0003672214845255233
6.78125e-06;0.0003812838587736927
6.78150e-06;0.00039710393778170895
6.78175e-06;0.00041425646943634104
6.78200e-06;0.000432915367495794
6.78225e-06;0.0004527161876508632
6.78250e-06;0.00047404496952681513
6.78275e-06;0.0004965320441292104
6.78300e-06;0.0005190191187316057
6.78325e-06;0.0005428499798706761
6.78350e-06;0.0005676995171650341
6.78375e-06;0.0005925490544593921
6.78400e-06;0.0006173985917538343
6.78425e-06;0.0006422481290481923
6.78450e-06;0.0006668892520923352
6.78475e-06;0.0006913723838028581
6.78500e-06;0.000715855515513298
6.78525e-06;0.0007403386472238209
6.78550e-06;0.0007648217789342608
6.78575e-06;0.0007874974927887909
6.78600e-06;0.0008088030682900368
6.78625e-06;0.0008301086437912105
6.78650e-06;0.0008494492359194032
6.78675e-06;0.0008673002449530841
6.78700e-06;0.0008825080171151281
6.78725e-06;0.0008957120466435522
6.78750e-06;0.0009050482714891105
6.78775e-06;0.0009114524529657929
6.78800e-06;0.0009139555387052664
6.78825e-06;0.0009135013443271571
6.78850e-06;0.0009092733084805358
6.78875e-06;0.0009021844593923587
6.78900e-06;0.0008910736503265066
6.78925e-06;0.0008769139383173746
6.78950e-06;0.0008583457027258773
6.78975e-06;0.0008364355242507954
6.79000e-06;0.0008104764185541533
6.79025e-06;0.0007814479670182042
6.79050e-06;0.0007488308192903922
6.79075e-06;0.0007134932102843002
6.79100e-06;0.0006747918804356478
6.79125e-06;0.0006335406350152216
6.79150e-06;0.0005890639483031072
6.79175e-06;0.0005421421707639929
6.79200e-06;0.0004926006637114344
6.79225e-06;0.0004410732341065315
6.79250e-06;0.00038759462756262237
6.79275e-06;0.0003326369040847671
6.79300e-06;0.00027624919656119164
6.79325e-06;0.0002187774696563737
6.79350e-06;0.00016034257220978124
6.79375e-06;0.00010117752987930269
6.79400e-06;4.1759543409701024e-05
6.79425e-06;-1.7751592429909485e-05
6.79450e-06;-7.688898355854628e-05
6.79475e-06;-0.00013530601707436072
6.79500e-06;-0.00019269293808317538
6.79525e-06;-0.0002487850395770522
6.79550e-06;-0.00030329460888571313
6.79575e-06;-0.00035586874723492245
6.79600e-06;-0.0004061230373464689
6.79625e-06;-0.0004536698744059867
6.79650e-06;-0.0004981217198175383
6.79675e-06;-0.000539150747519553
6.79700e-06;-0.0005762115404328428
6.79725e-06;-0.000611422809710922
6.79750e-06;-0.0006444317540716878
6.79775e-06;-0.0006757711952649555
6.79800e-06;-0.0007046830713196878
6.79825e-06;-0.0007317546977109496
6.79850e-06;-0.0007559447855264208
6.79875e-06;-0.0007779504827731363
6.79900e-06;-0.0007973004941808347
6.79925e-06;-0.000814637325841776
6.79950e-06;-0.0008301782946719629
6.79975e-06;-0.0008443578845972968
6.80000e-06;-0.0008561706532801567
6.80025e-06;-0.0008661892200587412
6.80050e-06;-0.0008762077868372918
6.80075e-06;-0.0008832682892085631
6.80100e-06;-0.0008880863895355844
6.80125e-06;-0.0008929044898625894
6.80150e-06;-0.0008957706958899305
6.80175e-06;-0.0008971572411780012
6.80200e-06;-0.0008985437864660673
6.80225e-06;-0.0008972221343240992
6.80250e-06;-0.0008938474952903601
6.80275e-06;-0.0008904728562566211
6.80300e-06;-0.0008870982172228706
6.80325e-06;-0.0008837235781891316
6.80350e-06;-0.0008803489391553924
6.80375e-06;-0.0008769743001216419
6.80400e-06;-0.0008718354551479043
6.80425e-06;-0.0008653592292177713
6.80450e-06;-0.0008588830032876163
6.80475e-06;-0.0008524067773574833
6.80500e-06;-0.0008459305514273502
6.80525e-06;-0.0008394543254971953
6.80550e-06;-0.0008329780995670622
6.80575e-06;-0.0008268342449769822
6.80600e-06;-0.0008209423491239821
6.80625e-06;-0.000815050453271002
6.80650e-06;-0.0008091569095953113
6.80675e-06;-0.0008032410654475496
6.80700e-06;-0.0007973252212997879
6.80725e-06;-0.0007914093771520062
6.80750e-06;-0.0007827390807872709
6.80775e-06;-0.0007719807334436175
6.80800e-06;-0.0007588110774580137
6.80825e-06;-0.0007438134952738629
6.80850e-06;-0.0007267698127764924
6.80875e-06;-0.0007081750553554872
6.80900e-06;-0.0006871770016597394
6.80925e-06;-0.0006643570956522409
6.80950e-06;-0.0006383042491741578
6.80975e-06;-0.0006098006270129333
6.81000e-06;-0.0005784395364859663
6.81025e-06;-0.0005449123021494913
6.81050e-06;-0.0005090757595844495
6.81075e-06;-0.0004714886136588226
6.81100e-06;-0.00043230676663599707
6.81125e-06;-0.00039067797445994224
6.81150e-06;-0.0003468643996489926
6.81175e-06;-0.00030100862191774865
6.81200e-06;-0.0002533911979254563
6.81225e-06;-0.00020430703278084077
6.81250e-06;-0.00015405099821718388
6.81275e-06;-0.00010290143004678437
6.81300e-06;-5.102548542144768e-05
6.81325e-06;1.5576973595019337e-06
6.81350e-06;5.489101885740419e-05
6.81375e-06;0.00010855668748359147
6.81400e-06;0.00016222235610959692
6.81425e-06;0.00021552659176785703
6.81450e-06;0.0002685568413143187
6.81475e-06;0.0003204870458289599
6.81500e-06;0.00037158334584156506
6.81525e-06;0.00042116000275772
6.81550e-06;0.0004695846729976305
6.81575e-06;0.0005158866453568349
6.81600e-06;0.0005605794769364307
6.81625e-06;0.0006023713515376679
6.81650e-06;0.0006419641151796512
6.81675e-06;0.0006780440021358213
6.81700e-06;0.0007114609038509211
6.81725e-06;0.0007417748674074343
6.81750e-06;0.0007697366053493849
6.81775e-06;0.0007947681676601072
6.81800e-06;0.0008175784694036322
6.81825e-06;0.0008371622869225773
6.81850e-06;0.0008543002230061772
6.81875e-06;0.0008680108524984312
6.81900e-06;0.0008791233643549127
6.81925e-06;0.0008872479254535809
6.81950e-06;0.0008931074287432656
6.81975e-06;0.0008962696282370456
6.82000e-06;0.0008973870989112661
6.82025e-06;0.000895804120438832
6.82050e-06;0.0008921740287697941
6.82075e-06;0.0008853317228357929
6.82100e-06;0.0008760543530087608
6.82125e-06;0.0008667769831817287
6.82150e-06;0.0008545073142873304
6.82175e-06;0.0008399692912873682
6.82200e-06;0.000825431268287406
6.82225e-06;0.0008084340445417061
6.82250e-06;0.0007895725893197352
6.82275e-06;0.0007707111340977642
6.82300e-06;0.0007498202397241972
6.82325e-06;0.0007273909006539186
6.82350e-06;0.000704961561583564
6.82375e-06;0.0006825322225132855
6.82400e-06;0.0006600149050960114
6.82425e-06;0.0006363069506759384
6.82450e-06;0.0006125989962559457
6.82475e-06;0.000588891041835953
6.82500e-06;0.00056518308741588
6.82525e-06;0.0005422784960389192
6.82550e-06;0.0005199829052383756
6.82575e-06;0.0004976873144377565
6.82600e-06;0.0004767758545396599
6.82625e-06;0.0004569136544061574
6.82650e-06;0.00043856290290263306
6.82675e-06;0.00042135792614557605
6.82700e-06;0.00040519154144060676
6.82725e-06;0.0003898124759480538
6.82750e-06;0.0003744334104555529
6.82775e-06;0.00035914668032049446
6.82800e-06;0.00034392994629300444
6.82825e-06;0.0003287132122655144
6.82850e-06;0.00031349647823797285
6.82875e-06;0.00029858157372202206
6.82900e-06;0.00028389547528333444
6.82925e-06;0.00026920937684459705
6.82950e-06;0.0002545232784059094
6.82975e-06;0.00023925942042423337
6.83000e-06;0.0002235575837506373
6.83025e-06;0.00020785574707709445
6.83050e-06;0.0001921539104035516
6.83075e-06;0.00017619785696509357
6.83100e-06;0.00016004909095712069
6.83125e-06;0.0001439003249491478
6.83150e-06;0.00012775155894112023
6.83175e-06;0.00011112031751395567
6.83200e-06;9.412332885588091e-05
6.83225e-06;7.712634019786374e-05
6.83250e-06;6.012804821962611e-05
6.83275e-06;4.312876824123268e-05
6.83300e-06;2.6226591654808533e-05
6.83325e-06;9.386633066480299e-06
6.83350e-06;-7.485296400455187e-06
6.83375e-06;-2.4345850475352342e-05
6.83400e-06;-4.109499108003672e-05
6.83425e-06;-5.762668358156907e-05
6.83450e-06;-7.383492106557624e-05
6.83475e-06;-8.948390065269298e-05
6.83500e-06;-0.00010482959375298877
6.83525e-06;-0.00011978873980292034
6.83550e-06;-0.0001341922133987562
6.83575e-06;-0.0001478936643470443
6.83600e-06;-0.0001612138690906941
6.83625e-06;-0.00017366956177021733
6.83650e-06;-0.000185469899003798
6.83675e-06;-0.00019630459149043862
6.83700e-06;-0.00020640726348840495
6.83725e-06;-0.00021650993548633703
6.83750e-06;-0.00022687091803348384
6.83775e-06;-0.00023742771650062176
6.83800e-06;-0.00024798451496772393
6.83825e-06;-0.0002587065298796533
6.83850e-06;-0.00026955378942538884
6.83875e-06;-0.0002804010489710876
6.83900e-06;-0.0002915616737401095
6.83925e-06;-0.0003029598493938392
6.83950e-06;-0.00031435802504753034
6.83975e-06;-0.0003269300731847163
6.84000e-06;-0.00034039199175486313
6.84025e-06;-0.0003538539103249644
6.84050e-06;-0.00036731582889511124
6.84075e-06;-0.0003807777474652125
6.84100e-06;-0.00039423966603531377
6.84125e-06;-0.00040770158460546067
6.84150e-06;-0.0004222431554560597
6.84175e-06;-0.0004376031717985783
6.84200e-06;-0.0004529631881411489
6.84225e-06;-0.0004683232044836675
6.84250e-06;-0.00048368322082618606
6.84275e-06;-0.0004990432371687567
6.84300e-06;-0.0005144032535112753
6.84325e-06;-0.0005299374757740813
6.84350e-06;-0.000545603757268136
6.84375e-06;-0.0005612700387621375
6.84400e-06;-0.000576936320256139
6.84425e-06;-0.0005926026017501936
6.84450e-06;-0.0006082688832441953
6.84475e-06;-0.000622857876594773
6.84500e-06;-0.0006366302166205258
6.84525e-06;-0.0006504025566462786
6.84550e-06;-0.000664174896672078
6.84575e-06;-0.0006779472366978307
6.84600e-06;-0.0006917195767235835
6.84625e-06;-0.0007038140873426601
6.84650e-06;-0.000714636695943962
6.84675e-06;-0.0007254593045452639
6.84700e-06;-0.0007343355701143149
6.84725e-06;-0.0007417363831611578
6.84750e-06;-0.0007464909960836078
6.84775e-06;-0.000749239620039612
6.84800e-06;-0.0007493314655600559
6.84825e-06;-0.0007474093030775409
6.84850e-06;-0.0007429483128118632
6.84875e-06;-0.0007365627286828426
6.84900e-06;-0.0007274472780999168
6.84925e-06;-0.0007162624141209199
6.84950e-06;-0.000702020203013513
6.84975e-06;-0.0006854603272103886
6.85000e-06;-0.0006661046815783675
6.85025e-06;-0.0006446296635762746
6.85050e-06;-0.00062070097402333
6.85075e-06;-0.0005949122444786011
6.85100e-06;-0.0005668183701555066
6.85125e-06;-0.0005369770486348981
6.85150e-06;-0.0005048936217864524
6.85175e-06;-0.0004711105356765459
6.85200e-06;-0.0004355173829931981
6.85225e-06;-0.0003985520840611524
6.85250e-06;-0.0003602590994765788
6.85275e-06;-0.00032095964423793947
6.85300e-06;-0.0002806936020266815
6.85325e-06;-0.00023969482505937096
6.85350e-06;-0.00019797672707309844
6.85375e-06;-0.00015571333774087848
6.85400e-06;-0.00011344994840851534
6.85425e-06;-7.118655907629537e-05
6.85450e-06;-2.9130292090999388e-05
6.85475e-06;1.2404548816629849e-05
6.85500e-06;5.3186987835336644e-05
6.85525e-06;9.303803612971113e-05
6.85550e-06;0.00013176189868908074
6.85575e-06;0.000169111128279386
6.85600e-06;0.00020481303949733707
6.85625e-06;0.0002385924036930926
6.85650e-06;0.0002701740521597026
6.85675e-06;0.0002992765425775605
6.85700e-06;0.00032558930369223666
6.85725e-06;0.0003488005995747808
6.85750e-06;0.0003687001305131471
6.85775e-06;0.00038520317954714205
6.85800e-06;0.0003982751782702362
6.85825e-06;0.0004078858878026126
6.85850e-06;0.0004140051189277923
6.85875e-06;0.0004165987470028537
6.85900e-06;0.0004156144219752727
6.85925e-06;0.0004109990875655081
6.85950e-06;0.0004027632363892218
6.85975e-06;0.00039099599827106444
6.86000e-06;0.0003758179212779919
6.86025e-06;0.0003573523057902633
6.86050e-06;0.00033572241507401335
6.86075e-06;0.00031104907434829915
6.86100e-06;0.00028344170413329936
6.86125e-06;0.00025300924620959856
6.86150e-06;0.00021990044439150784
6.86175e-06;0.000184313325287028
6.86200e-06;0.00014646556085069813
6.86225e-06;0.00010657652520959453
6.86250e-06;6.486558034189694e-05
6.86275e-06;2.1550532839615087e-05
6.86300e-06;-2.3157971450884608e-05
6.86325e-06;-6.904959116887138e-05
6.86350e-06;-0.00011604898765428629
6.86375e-06;-0.00016353152324656662
6.86400e-06;-0.0002112835657332528
6.86425e-06;-0.0002592399116853688
6.86450e-06;-0.00030719625763748473
6.86475e-06;-0.0003542127921047842
6.86500e-06;-0.0004005168893486793
6.86525e-06;-0.00044682098659257446
6.86550e-06;-0.0004912668823605859
6.86575e-06;-0.0005343041425446504
6.86600e-06;-0.0005750293050696291
6.86625e-06;-0.0006140017496691234
6.86650e-06;-0.000649952058513485
6.86675e-06;-0.0006836113951364035
6.86700e-06;-0.0007139677989561276
6.86725e-06;-0.000741820368430035
6.86750e-06;-0.0007666337841459631
6.86775e-06;-0.000789143326905471
6.86800e-06;-0.0008084573257576418
6.86825e-06;-0.0008253488979164828
6.86850e-06;-0.0008388126668481074
6.86875e-06;-0.0008496779416648589
6.86900e-06;-0.0008571520814222059
6.86925e-06;-0.0008620555238813869
6.86950e-06;-0.0008639455547950236
6.86975e-06;-0.000863551226996164
6.87000e-06;-0.0008602580280818031
6.87025e-06;-0.0008547672994278172
6.87050e-06;-0.0008464447287378665
6.87075e-06;-0.0008359754406383093
6.87100e-06;-0.0008229097482822117
6.87125e-06;-0.0008078758154138204
6.87150e-06;-0.0007902182516915392
6.87175e-06;-0.0007705718079544227
6.87200e-06;-0.0007509253642173729
6.87225e-06;-0.0007286746583651328
6.87250e-06;-0.0007044497552409765
6.87275e-06;-0.0006802248521169024
6.87300e-06;-0.0006539826672648078
6.87325e-06;-0.0006262112538220349
6.87350e-06;-0.0005984398403793561
6.87375e-06;-0.0005706684269366774
6.87400e-06;-0.0005421551287217994
6.87425e-06;-0.0005130794343931597
6.87450e-06;-0.0004840037400644216
6.87475e-06;-0.0004549280457357819
6.87500e-06;-0.0004265218517262303
6.87525e-06;-0.00039862318178478495
6.87550e-06;-0.00037072451184343413
6.87575e-06;-0.0003442242896690957
6.87600e-06;-0.0003187841803574065
6.87625e-06;-0.00029452095368549374
6.87650e-06;-0.0002720823268384506
6.87675e-06;-0.00025165065659860634
6.87700e-06;-0.00023220454665318617
6.87725e-06;-0.0002129180963663547
6.87750e-06;-0.00019375267831370956
6.87775e-06;-0.00017406984040898346
6.87800e-06;-0.00015399476515824359
6.87825e-06;-0.00013391968990743574
6.87850e-06;-0.0001138342736263954
6.87875e-06;-9.387172406021074e-05
6.87900e-06;-7.396238545283238e-05
6.87925e-06;-5.36040423129956e-05
6.87950e-06;-3.236140506895055e-05
6.87975e-06;-1.0189967794489417e-05
6.88000e-06;1.2752311311838424e-05
6.88025e-06;3.628609564264332e-05
6.88050e-06;6.023207153104367e-05
6.88075e-06;8.443586434501761e-05
6.88100e-06;0.00010891370048536946
6.88125e-06;0.0001339169268437943
6.88150e-06;0.00015983612765394658
6.88175e-06;0.00018622970027927445
6.88200e-06;0.0002131962523423675
6.88225e-06;0.0002405971594714168
6.88250e-06;0.0002679980666005589
6.88275e-06;0.00029554505043939217
6.88300e-06;0.0003232027697684958
6.88325e-06;0.00035086048909750575
6.88350e-06;0.0003785182084265157
6.88375e-06;0.00040612658106024
6.88400e-06;0.0004330671302666324
6.88425e-06;0.00046000767947302484
6.88450e-06;0.00048694822867950856
6.88475e-06;0.000513888777885901
6.88500e-06;0.0005394466934496917
6.88525e-06;0.0005639564842689131
6.88550e-06;0.0005884662750880514
6.88575e-06;0.0006113583513260109
6.88600e-06;0.0006330240964304369
6.88625e-06;0.0006546898415347896
6.88650e-06;0.0006740088901214735
6.88675e-06;0.0006915489926356609
6.88700e-06;0.0007090890951497888
6.88725e-06;0.0007252363811782642
6.88750e-06;0.000740327823215638
6.88775e-06;0.0007554192652530117
6.88800e-06;0.0007685266163699199
6.88825e-06;0.0007801298996518753
6.88850e-06;0.0007917331829338308
6.88875e-06;0.0008033364662158256
6.88900e-06;0.000814939749497781
6.88925e-06;0.0008265430327797365
6.88950e-06;0.0008381463160617313
6.88975e-06;0.0008497495993436867
6.89000e-06;0.0008613528826256422
6.89025e-06;0.0008710712767740328
6.89050e-06;0.0008793608043877024
6.89075e-06;0.0008876503320013721
6.89100e-06;0.0008959398596150698
6.89125e-06;0.0009042293872287394
6.89150e-06;0.0009125189148424371
6.89175e-06;0.0009208084424561068
6.89200e-06;0.0009290979700697764
6.89225e-06;0.0009373874976834741
6.89250e-06;0.0009445199519290522
6.89275e-06;0.0009507752705467073
6.89300e-06;0.0009570305891643837
6.89325e-06;0.0009632859077820388
6.89350e-06;0.000969541226399694
6.89375e-06;0.0009757965450173703
6.89400e-06;0.0009820518636350255
6.89425e-06;0.0009883071822526807
6.89450e-06;0.0009945625008703572
