Time(s);Current(A)
1.25000e-05;0.0028377450371666097
1.25003e-05;0.0028921785466079685
1.25005e-05;0.0029466120560489584
1.25008e-05;0.003001045565490317
1.25010e-05;0.0030554790749316757
1.25012e-05;0.003106375206685398
1.25015e-05;0.0031555814558147633
1.25018e-05;0.003204787704944128
1.25020e-05;0.003253993954073493
1.25023e-05;0.0033032002032025247
1.25025e-05;0.0033524064523318894
1.25028e-05;0.0033979166081018787
1.25030e-05;0.0034262075730512767
1.25033e-05;0.0034544985380008664
1.25035e-05;0.0034827895029504556
1.25038e-05;0.0035110804678998536
1.25040e-05;0.003539371432849443
1.25043e-05;0.0035676623977990325
1.25045e-05;0.0035797321220184387
1.25048e-05;0.0035840526050523046
1.25050e-05;0.00358837308808617
1.25053e-05;0.0035817628091051167
1.25055e-05;0.003569930666235432
1.25058e-05;0.003558098523365747
1.25060e-05;0.003535115453895677
1.25063e-05;0.003506805343103159
1.25065e-05;0.0034784952323106415
1.25068e-05;0.0034402591230259004
1.25070e-05;0.0033972811473444763
1.25073e-05;0.003354303171663052
1.25075e-05;0.0032983238461555702
1.25078e-05;0.003236133491712057
1.25080e-05;0.003173943137268543
1.25083e-05;0.0031117527828254513
1.25085e-05;0.003049562428381938
1.25088e-05;0.0029873720739384243
1.25090e-05;0.002922521067544755
1.25093e-05;0.0028452747374394134
1.25095e-05;0.0027680284073340724
1.25097e-05;0.0026907820772292543
1.25100e-05;0.002613535747123913
1.25103e-05;0.0025362894170185713
1.25105e-05;0.0024590430869132303
1.25108e-05;0.0023820173512514
1.25110e-05;0.0023050969983752136
1.25113e-05;0.0022281766454990276
1.25115e-05;0.0021512562926233624
1.25118e-05;0.002074335939747176
1.25120e-05;0.002006118316892527
1.25123e-05;0.0019420581783544813
1.25125e-05;0.0018779980398160015
1.25128e-05;0.0018139379012775216
1.25130e-05;0.001749877762739476
1.25133e-05;0.0016964060386877027
1.25135e-05;0.001647992631630179
1.25138e-05;0.0015995792245729833
1.25140e-05;0.0015556434252775822
1.25143e-05;0.0015138466770616287
1.25145e-05;0.0014720499288459585
1.25148e-05;0.00143579994165245
1.25150e-05;0.0014021997634156872
1.25153e-05;0.0013685995851791524
1.25155e-05;0.0013395828166026878
1.25158e-05;0.001312755642984709
1.25160e-05;0.0012859284693669119
1.25163e-05;0.0012621831535246596
1.25165e-05;0.0012399101084914431
1.25168e-05;0.0012176370634583776
1.25170e-05;0.0011991666893816533
1.25173e-05;0.0011825129343228083
1.25175e-05;0.0011658591792640762
1.25178e-05;0.0011515770516159424
1.25180e-05;0.0011384279022104828
1.25182e-05;0.0011252787528051125
1.25185e-05;0.0011157933158130343
1.25188e-05;0.0011080581143061588
1.25190e-05;0.0011003229127992834
1.25193e-05;0.0010925877112924604
1.25195e-05;0.001084852509785585
1.25198e-05;0.0010771173082787095
1.25200e-05;0.0010693821067718863
1.25203e-05;0.0010616469052650108
1.25205e-05;0.001057062638697612
1.25208e-05;0.0010539836426102086
1.25210e-05;0.0010509046465227842
1.25213e-05;0.0010478256504353597
1.25215e-05;0.001044746654347956
1.25218e-05;0.0010416676582605316
1.25220e-05;0.0010385886621731072
1.25223e-05;0.0010355096660857035
1.25225e-05;0.0010331630409006573
1.25228e-05;0.0010311662853006772
1.25230e-05;0.0010291695297007107
1.25233e-05;0.0010289325939596614
1.25235e-05;0.0010295363626237645
1.25238e-05;0.0010301401312878635
1.25240e-05;0.0010352072878754618
1.25243e-05;0.0010424067024155683
1.25245e-05;0.001053137796924261
1.25248e-05;0.0010655560521342258
1.25250e-05;0.0010811776311609703
1.25253e-05;0.0010983295079792428
1.25255e-05;0.0011194156319293872
1.25258e-05;0.0011423812317121521
1.25260e-05;0.0011698786663399637
1.25263e-05;0.001199541057510823
1.25265e-05;0.0012339767450444952
1.25267e-05;0.0012706927405645998
1.25270e-05;0.0013074087360849531
1.25273e-05;0.0013490550370397168
1.25275e-05;0.0013930566526459652
1.25278e-05;0.0014370582682519154
1.25280e-05;0.0014873706952970153
1.25283e-05;0.001540697934881193
1.25285e-05;0.0015940251744650093
1.25288e-05;0.001647352414049187
1.25290e-05;0.0017006796536333647
1.25293e-05;0.0017540068932171812
1.25295e-05;0.0018108966289841501
1.25298e-05;0.0018694882470315565
1.25300e-05;0.0019280798650785657
1.25303e-05;0.001986671483125972
1.25305e-05;0.002045263101173378
1.25308e-05;0.0021038547192203877
1.25310e-05;0.0021618466487472302
1.25313e-05;0.0022154421759260296
1.25315e-05;0.0022670743054412725
1.25318e-05;0.002318706434956865
1.25320e-05;0.002370338564472458
1.25323e-05;0.002421970693987701
1.25325e-05;0.002473602823503294
1.25328e-05;0.0025218020244379266
1.25330e-05;0.0025540080545703872
1.25333e-05;0.002586214084703066
1.25335e-05;0.002618420114835745
1.25338e-05;0.0026506261449682055
1.25340e-05;0.0026828321751008843
1.25343e-05;0.002715038205233563
1.25345e-05;0.0027347174619106376
1.25348e-05;0.00274841240514996
1.25350e-05;0.0027621073483892825
1.25352e-05;0.0027674479594608898
1.25355e-05;0.002768797523481725
1.25358e-05;0.0027701470875025605
1.25360e-05;0.002763729074782424
1.25363e-05;0.002753600320901787
1.25365e-05;0.0027434715670210815
1.25368e-05;0.002722018457413279
1.25370e-05;0.0026951554555942926
1.25373e-05;0.002668292453775125
1.25375e-05;0.0026414294519559573
1.25378e-05;0.0026145664501369716
1.25380e-05;0.0025877034483178037
1.25383e-05;0.002560840446498636
1.25385e-05;0.0025232568234028027
1.25388e-05;0.002480551725235741
1.25390e-05;0.002437846627068679
1.25393e-05;0.0023951415289019066
1.25395e-05;0.0023524364307348448
1.25398e-05;0.002309731332567783
1.25400e-05;0.002267026234401011
1.25403e-05;0.002221518764585258
1.25405e-05;0.0021746725405901684
1.25408e-05;0.0021278263165953964
1.25410e-05;0.002080980092600307
1.25413e-05;0.0020341338686052173
1.25415e-05;0.0019872876446104452
1.25418e-05;0.0019453074282213178
1.25420e-05;0.0019056518100069588
1.25423e-05;0.0018659961917928687
1.25425e-05;0.0018263405735785099
1.25428e-05;0.0017866849553641508
1.25430e-05;0.0017470293371500607
1.25433e-05;0.0017150770241084008
1.25435e-05;0.0016868047482954769
1.25437e-05;0.0016585324724827447
1.25440e-05;0.001635276766495425
1.25443e-05;0.0016144175855457967
1.25445e-05;0.0015935584045961683
1.25448e-05;0.0015782046775475432
1.25450e-05;0.001565481026143361
1.25453e-05;0.001552757374739179
1.25455e-05;0.0015453426992506315
1.25458e-05;0.0015404642375792482
1.25460e-05;0.001535585775907865
1.25463e-05;0.0015353437167548313
1.25465e-05;0.0015373165684087339
1.25468e-05;0.0015392894200626365
1.25470e-05;0.0015457502259522528
1.25473e-05;0.0015543550256600029
1.25475e-05;0.001562959825367753
1.25478e-05;0.0015772702701381187
1.25480e-05;0.0015943064262461007
1.25483e-05;0.0016113425823540827
1.25485e-05;0.0016283787384619491
1.25488e-05;0.0016454148945699311
1.25490e-05;0.0016624510506779132
1.25493e-05;0.0016794872067857798
1.25495e-05;0.001697581203542335
1.25498e-05;0.0017206034199766151
1.25500e-05;0.0017436256364107392
1.25503e-05;0.0017666478528450193
1.25505e-05;0.0017896700692792992
1.25508e-05;0.0018126922857134233
1.25510e-05;0.0018357145021477034
1.25513e-05;0.0018587367185819836
1.25515e-05;0.0018801715257713938
1.25518e-05;0.0019008479928734148
1.25520e-05;0.0019215244599754358
1.25522e-05;0.0019422009270773167
1.25525e-05;0.0019628773941793376
1.25528e-05;0.0019835538612813586
1.25530e-05;0.002001561975098789
1.25533e-05;0.00201829535823765
1.25535e-05;0.0020350287413766245
1.25538e-05;0.002051762124515599
1.25540e-05;0.00206849550765446
1.25543e-05;0.002085228890793435
1.25545e-05;0.002105869893332866
1.25548e-05;0.0021283776510572865
1.25550e-05;0.00215088540878186
1.25553e-05;0.0021733931665064332
1.25555e-05;0.002195900924230854
1.25558e-05;0.002218408681955427
1.25560e-05;0.0022409164396800002
1.25563e-05;0.002263424197404421
1.25565e-05;0.0022859319551289943
1.25568e-05;0.002308439712853567
1.25570e-05;0.002330947470577988
1.25573e-05;0.0023534552283025613
1.25575e-05;0.0023819065107305417
1.25578e-05;0.0024131971447999214
1.25580e-05;0.002444487778869513
1.25583e-05;0.002475778412939105
1.25585e-05;0.0025070690470084846
1.25588e-05;0.0025383596810780763
1.25590e-05;0.002569650315147668
1.25593e-05;0.002600940949217048
1.25595e-05;0.00263223158328664
1.25598e-05;0.0026635222173562317
1.25600e-05;0.0026948128514256114
1.25603e-05;0.002726103485495203
1.25605e-05;0.002756193136281923
1.25607e-05;0.0027857090511076528
1.25610e-05;0.002815224965933582
1.25613e-05;0.002844740880759512
1.25615e-05;0.0028742567955854412
1.25618e-05;0.0029037727104111706
1.25620e-05;0.0029332886252371004
1.25623e-05;0.0029628045400630298
1.25625e-05;0.002992320454888759
1.25628e-05;0.003012184771650616
1.25630e-05;0.0030274383090886097
1.25633e-05;0.0030426918465264997
1.25635e-05;0.0030579453839644933
1.25638e-05;0.0030731989214024865
1.25640e-05;0.003088452458840377
1.25643e-05;0.00310370599627837
1.25645e-05;0.0031189595337163638
1.25648e-05;0.0031342130711542538
1.25650e-05;0.0031345715377796295
1.25653e-05;0.003127814303556438
1.25655e-05;0.003121057069333292
1.25658e-05;0.0031142998351101005
1.25660e-05;0.003107542600886909
1.25663e-05;0.003100785366663763
1.25665e-05;0.0030940281324405715
1.25668e-05;0.00308727089821738
1.25670e-05;0.003080513663994234
1.25673e-05;0.003073756429771043
1.25675e-05;0.0030549415290926753
1.25678e-05;0.003030366417636593
1.25680e-05;0.0030057913061803444
1.25683e-05;0.002981216194724096
1.25685e-05;0.0029566410832680134
1.25688e-05;0.002932065971811765
1.25690e-05;0.002907490860355516
1.25692e-05;0.002882915748899434
1.25695e-05;0.0028583406374431855
1.25698e-05;0.0028337655259869365
1.25700e-05;0.0028057399058114964
1.25703e-05;0.002776065902212486
1.25705e-05;0.0027463918986132744
1.25708e-05;0.002716717895014063
1.25710e-05;0.002687043891415052
1.25713e-05;0.0026573698878158405
1.25715e-05;0.002627695884216629
1.25718e-05;0.0025980218806176186
1.25720e-05;0.0025734404894950562
1.25723e-05;0.0025512919506485337
1.25725e-05;0.002529143411802161
1.25728e-05;0.0025069948729556386
1.25730e-05;0.002484846334109116
1.25733e-05;0.0024626977952627435
1.25735e-05;0.002440549256416221
1.25738e-05;0.0024184007175696983
1.25740e-05;0.00240787734939138
1.25743e-05;0.002402907579302582
1.25745e-05;0.002397937809213784
1.25748e-05;0.0023929680391250197
1.25750e-05;0.002387998269036222
1.25753e-05;0.002383028498947424
1.25755e-05;0.0023780587288586594
1.25758e-05;0.0023730889587698614
1.25760e-05;0.0023681191886810635
1.25763e-05;0.0023631494185922994
1.25765e-05;0.002358179648503501
1.25768e-05;0.002364899523569125
1.25770e-05;0.0023772037975956996
1.25773e-05;0.002389508071622358
1.25775e-05;0.002401812345649016
1.25777e-05;0.0024141166196755912
1.25780e-05;0.0024264208937022497
1.25783e-05;0.0024387251677289077
1.25785e-05;0.002451029441755566
1.25788e-05;0.002463333715782141
1.25790e-05;0.0024756379898087993
1.25793e-05;0.0024879422638354578
1.25795e-05;0.002504946770060757
1.25798e-05;0.0025241966799286
1.25800e-05;0.002543446589796443
1.25803e-05;0.0025626964996641557
1.25805e-05;0.0025819464095319985
1.25808e-05;0.0026011963193998417
1.25810e-05;0.002620446229267554
1.25813e-05;0.002639288741194242
1.25815e-05;0.0026562332862049673
1.25818e-05;0.0026731778312155782
1.25820e-05;0.002690122376226304
1.25823e-05;0.0027070669212370295
1.25825e-05;0.0027240114662476405
1.25828e-05;0.0027409560112583663
1.25830e-05;0.0027579005562690917
1.25833e-05;0.0027611761787954313
1.25835e-05;0.0027579218583229483
1.25838e-05;0.002754667537850465
1.25840e-05;0.0027514132173780035
1.25843e-05;0.0027481588969055205
1.25845e-05;0.002744904576433037
1.25848e-05;0.002741650255960576
1.25850e-05;0.0027383959354880926
1.25853e-05;0.002735141615015609
1.25855e-05;0.0027318872945431482
1.25858e-05;0.002703989750353008
1.25860e-05;0.0026643195996259206
1.25862e-05;0.002624649448899102
1.25865e-05;0.0025849792981720147
1.25868e-05;0.0025453091474449273
1.25870e-05;0.00250563899671784
1.25873e-05;0.0024659688459910214
1.25875e-05;0.002426298695263934
1.25878e-05;0.0023866285445368466
1.25880e-05;0.002346958393810028
1.25883e-05;0.0022920790298323443
1.25885e-05;0.0022299338922938316
1.25888e-05;0.00216778875475574
1.25890e-05;0.0021056436172172278
1.25893e-05;0.002043498479678715
1.25895e-05;0.001981353342140624
1.25898e-05;0.0019155357705591975
1.25900e-05;0.001847963796975847
1.25903e-05;0.0017803918233929544
1.25905e-05;0.0017128198498096037
1.25908e-05;0.001645247876226253
1.25910e-05;0.0015776759026433604
1.25913e-05;0.0015124451341560416
1.25915e-05;0.0014483328105092974
1.25918e-05;0.0013842204868629877
1.25920e-05;0.0013245138445914114
1.25923e-05;0.0012669118925974095
1.25925e-05;0.001209309940603798
1.25928e-05;0.0011573035146130548
1.25930e-05;0.0011079701936824546
1.25933e-05;0.0010635452772691971
1.25935e-05;0.0010214652129650241
1.25938e-05;0.0009820728753249333
1.25940e-05;0.0009439645234519576
1.25943e-05;0.0009083094875592028
1.25945e-05;0.0008738264543268119
1.25947e-05;0.0008425101908654353
1.25950e-05;0.0008127067625321826
1.25953e-05;0.0007866815307496345
1.25955e-05;0.0007624612260309367
1.25958e-05;0.0007382409213120746
1.25960e-05;0.0007161706351118626
1.25963e-05;0.0006951274597460868
1.25965e-05;0.0006759722928620786
1.25968e-05;0.0006577190688915462
1.25970e-05;0.0006421813219339337
1.25973e-05;0.0006279408176915505
1.25975e-05;0.0006137003134490707
1.25978e-05;0.0006014507834967743
1.25980e-05;0.0005901523854752423
1.25983e-05;0.0005788539874536337
1.25985e-05;0.0005693319794057436
1.25988e-05;0.000560658591670962
1.25990e-05;0.0005519852039361217
1.25993e-05;0.0005451237360752632
1.25995e-05;0.0005391278619373758
1.25998e-05;0.0005331319877994477
1.26000e-05;0.0005286200318950864
1.26003e-05;0.0005248169761616699
1.26005e-05;0.0005210139204282276
1.26008e-05;0.0005172108646947853
1.26010e-05;0.0005134078089613687
1.26013e-05;0.0005096047532279264
1.26015e-05;0.0005061242126528344
1.26018e-05;0.0005041461909646616
1.26020e-05;0.0005021681692764754
1.26023e-05;0.0005001901475882892
1.26025e-05;0.0004982121259001163
1.26028e-05;0.0004962341042119302
1.26030e-05;0.000494256082523744
1.26032e-05;0.0004915734774003525
1.26035e-05;0.0004885542773713575
1.26038e-05;0.0004855350773423626
1.26040e-05;0.00048251587731338815
1.26043e-05;0.0004794966772843932
1.26045e-05;0.00047647747725539834
1.26048e-05;0.00047277896582728613
1.26050e-05;0.00046591570948405046
1.26053e-05;0.0004590524531407683
1.26055e-05;0.0004521891967974861
1.26058e-05;0.00044532594045425044
1.26060e-05;0.0004384626841109682
1.26063e-05;0.00043159942776768603
1.26065e-05;0.00042255902017425076
1.26068e-05;0.00041247853984704194
1.26070e-05;0.00040239805951983306
1.26073e-05;0.00039120927214080805
1.26075e-05;0.0003794910222610306
1.26078e-05;0.0003677727723812532
1.26080e-05;0.0003546923013981245
1.26083e-05;0.00034096106762250875
1.26085e-05;0.00032722983384689307
1.26088e-05;0.0003134986000713704
1.26090e-05;0.00029976736629575473
1.26093e-05;0.00028521095452523065
1.26095e-05;0.00027026033719238917
1.26098e-05;0.0002553097198594464
1.26100e-05;0.0002403591025265036
1.26103e-05;0.00022540848519366212
1.26105e-05;0.00021050948328466213
1.26108e-05;0.00019563513919173533
1.26110e-05;0.00018076079509890932
1.26113e-05;0.00016608379997211186
1.26115e-05;0.00015232620519417547
1.26117e-05;0.00013856861041633233
1.26120e-05;0.00012481101563839591
1.26123e-05;0.00011180382470588957
1.26125e-05;9.960311684834003e-05
1.26128e-05;8.812968614956128e-05
1.26130e-05;7.747994353302407e-05
1.26133e-05;6.780609413257139e-05
1.26135e-05;5.9389589492810004e-05
1.26138e-05;5.2532262277135114e-05
1.26140e-05;4.73805265779937e-05
1.26143e-05;4.3946700568768344e-05
1.26145e-05;4.221137787495317e-05
1.26148e-05;4.215512900849088e-05
1.26150e-05;4.3758508862948784e-05
1.26153e-05;4.703702754697688e-05
1.26155e-05;5.208714103242619e-05
1.26158e-05;5.901805693467764e-05
1.26160e-05;6.784162237722922e-05
1.26163e-05;7.848568621462965e-05
1.26165e-05;9.085822566317363e-05
1.26168e-05;0.00010486720456358784
1.26170e-05;0.00012042059682327682
1.26173e-05;0.0001374482547777135
1.26175e-05;0.0001559307654537762
1.26178e-05;0.00017585667130736203
1.26180e-05;0.0001971535417423445
1.26183e-05;0.00022005634418209206
1.26185e-05;0.00024351954670609097
1.26188e-05;0.0002682367242772983
1.26190e-05;0.0002935529531345622
1.26193e-05;0.00031997100936665405
1.26195e-05;0.0003469154326160837
1.26198e-05;0.00037385985586569595
1.26200e-05;0.0004014704713104481
1.26202e-05;0.000429399341326347
1.26205e-05;0.00045732821134243504
1.26208e-05;0.0004852570813585231
1.26210e-05;0.0005128968662611272
1.26213e-05;0.000539189874642421
1.26215e-05;0.0005654828830237149
1.26218e-05;0.0005917758914050088
1.26220e-05;0.0006180688997861246
1.26223e-05;0.0006423049378977242
1.26225e-05;0.0006655583163560453
1.26228e-05;0.0006868595788911422
1.26230e-05;0.0007072282729860832
1.26233e-05;0.0007249025047050562
1.26235e-05;0.0007412895328589309
1.26238e-05;0.000753829385774963
1.26240e-05;0.0007645313589990217
1.26243e-05;0.000771133508669874
1.26245e-05;0.0007757770830269225
1.26248e-05;0.0007763845867615798
1.26250e-05;0.0007750639713507795
1.26253e-05;0.0007696173379481007
1.26255e-05;0.0007621996155757375
1.26258e-05;0.0007503089663072431
1.26260e-05;0.000736281502103659
1.26263e-05;0.0007179980127731258
1.26265e-05;0.0006976813272233486
1.26268e-05;0.0006735237491617476
1.26270e-05;0.0006475312928038215
1.26273e-05;0.0006180167085884609
1.26275e-05;0.0005868195269184657
1.26278e-05;0.0005530971816656428
1.26280e-05;0.0005181685105815351
1.26283e-05;0.0005049081752495992
1.26285e-05;0.0004617696707703106
1.26288e-05;0.0004240167274523003
1.26290e-05;0.0003698683654663859
1.26293e-05;0.0003195312124325166
1.26295e-05;0.0002685129837594395
1.26298e-05;0.00022221930121068848
1.26300e-05;0.00017512080076564692
1.26303e-05;0.00012735972086662948
1.26305e-05;7.937133017670153e-05
1.26308e-05;3.10869186143766e-05
1.26310e-05;-1.897127534863918e-05
1.26313e-05;-6.963947239433464e-05
1.26315e-05;-0.00011719870490116231
1.26318e-05;-0.00016184023881096683
1.26320e-05;-0.00020509236092553727
1.26323e-05;-0.0002467276384352244
1.26325e-05;-0.00028633511897606736
1.26328e-05;-0.000323819569525688
1.26330e-05;-0.00035996818262210527
1.26333e-05;-0.00039391607029953433
1.26335e-05;-0.00042322922570836943
1.26338e-05;-0.00044801561190399043
1.26340e-05;-0.00046932657375460757
1.26343e-05;-0.0004871586597458919
1.26345e-05;-0.0005013967901175524
1.26348e-05;-0.0005121236117439425
1.26350e-05;-0.0005199744863616243
1.26353e-05;-0.000524550001576
1.26355e-05;-0.0005244678471371321
1.26358e-05;-0.0005199380456711497
1.26360e-05;-0.0005117615978131192
1.26363e-05;-0.0005000786906442165
1.26365e-05;-0.00048495961819020316
1.26368e-05;-0.00046659845372071875
1.26370e-05;-0.0004455355702947654
1.26373e-05;-0.00042166303985533796
1.26375e-05;-0.0003942573394985052
1.26378e-05;-0.0003635924449882652
1.26380e-05;-0.0003303124250566449
1.26383e-05;-0.0002946474239453096
1.26385e-05;-0.00025678374180308295
1.26388e-05;-0.0002169852776904056
1.26390e-05;-0.0001757327511757335
1.26393e-05;-0.00013310081333307362
1.26395e-05;-8.877850403319646e-05
1.26398e-05;-4.3079707569158266e-05
1.26400e-05;3.449900497920973e-06
1.26403e-05;5.050690751373563e-05
1.26405e-05;9.775491473859861e-05
1.26408e-05;0.00014500292196378177
1.26410e-05;0.00019204774132083462
1.26413e-05;0.00023808324173845184
1.26415e-05;0.00028392956314803714
1.26418e-05;0.0003286066443281166
1.26420e-05;0.00037185974876517187
1.26423e-05;0.0004133674694693275
1.26425e-05;0.00045282558466822433
1.26428e-05;0.0004898995141943408
1.26430e-05;0.0005239690510275735
1.26433e-05;0.000554500482575871
1.26435e-05;0.000584369802835576
1.26438e-05;0.0006109500692572367
1.26440e-05;0.0006369382732590021
1.26443e-05;0.0006599853928707201
1.26445e-05;0.000682335213379285
1.26448e-05;0.0007012211837277773
1.26450e-05;0.0007193374992663342
1.26453e-05;0.0007336305359227884
1.26455e-05;0.0007473563830431429
1.26458e-05;0.0007582647024250661
1.26460e-05;0.0007685448449354462
1.26463e-05;0.0007757045036431245
1.26465e-05;0.0007828641623507542
1.26468e-05;0.0007892014975109377
1.26470e-05;0.0007914539205602091
