Time(s);Current(A)
1.27500e-05;0.006848241228812577
1.27503e-05;0.006842749445321214
1.27505e-05;0.0068378228223656004
1.27508e-05;0.006833548534141883
1.27510e-05;0.006830012108880726
1.27513e-05;0.006827182018328294
1.27515e-05;0.006824387737815947
1.27518e-05;0.006820472016895362
1.27520e-05;0.006814868811563289
1.27523e-05;0.006807651887963518
1.27525e-05;0.0067989865176389585
1.27528e-05;0.006789037098130979
1.27530e-05;0.006777966104257869
1.27533e-05;0.006765864072280534
1.27535e-05;0.006752420657077916
1.27538e-05;0.006737020020410323
1.27540e-05;0.00671941707669946
1.27543e-05;0.006699768367322802
1.27545e-05;0.006678286718595844
1.27548e-05;0.006655133457616577
1.27550e-05;0.006629409086342265
1.27553e-05;0.006603684715067953
1.27555e-05;0.006577807748312527
1.27558e-05;0.006548364450777346
1.27560e-05;0.006518827719638489
1.27563e-05;0.006487057831973601
1.27565e-05;0.006454091370699895
1.27568e-05;0.006420160732615931
1.27570e-05;0.006385299698833804
1.27573e-05;0.006350399982775249
1.27575e-05;0.006314596217716731
1.27577e-05;0.0062787643079349085
1.27580e-05;0.006242266694363478
1.27583e-05;0.006205586550427679
1.27585e-05;0.006168985150323845
1.27588e-05;0.006132724642249893
1.27590e-05;0.006097066135529435
1.27593e-05;0.006062252845606077
1.27595e-05;0.006028429917371095
1.27598e-05;0.005995666754052521
1.27600e-05;0.005964124506168291
1.27603e-05;0.005934063509500901
1.27605e-05;0.005905755824884201
1.27608e-05;0.005879476116049599
1.27610e-05;0.005855497661760209
1.27613e-05;0.0058341048380539905
1.27615e-05;0.005815621179066234
1.27618e-05;0.005800339895204934
1.27620e-05;0.00578840469123877
1.27623e-05;0.005779856571559631
1.27625e-05;0.005774726269812579
1.27628e-05;0.0057730444623212565
1.27630e-05;0.005774988107019022
1.27633e-05;0.0057837439362042505
1.27635e-05;0.005792499765389537
1.27638e-05;0.00580162115116046
1.27640e-05;0.005819286012094359
1.27643e-05;0.005837224667879572
1.27645e-05;0.0058615622222300675
1.27648e-05;0.005886153614090255
1.27650e-05;0.005916677478642634
1.27653e-05;0.005947436799697382
1.27655e-05;0.005983699008293008
1.27658e-05;0.006020172779992187
1.27660e-05;0.006061591023191774
1.27662e-05;0.006103186350775015
1.27665e-05;0.00614892034278537
1.27668e-05;0.006194795774928664
1.27670e-05;0.006243976824618315
1.27673e-05;0.006293264654203992
1.27675e-05;0.006345048051997762
1.27678e-05;0.006396900149284662
1.27680e-05;0.006450357832236585
1.27683e-05;0.00650383946590911
1.27685e-05;0.006557880855285035
1.27688e-05;0.006611900768306748
1.27690e-05;0.006665418754395739
1.27693e-05;0.006718870429376169
1.27695e-05;0.006770772337967208
1.27698e-05;0.0068225956113857865
1.27700e-05;0.0068724706902619824
1.27703e-05;0.006919765578907072
1.27705e-05;0.006966870266160766
1.27708e-05;0.007009529729521672
1.27710e-05;0.007051902838313304
1.27713e-05;0.0070875835135715435
1.27715e-05;0.007123264188829782
1.27718e-05;0.007158638501225378
1.27720e-05;0.007186852763402925
1.27723e-05;0.007215067025580472
1.27725e-05;0.0072429817180980245
1.27728e-05;0.00726389512530456
1.27730e-05;0.007284808532511095
1.27733e-05;0.007301995075412919
1.27735e-05;0.007316020048328569
1.27738e-05;0.007329825349098055
1.27740e-05;0.007338496660759597
1.27743e-05;0.007346982156103662
1.27745e-05;0.0073511249117462095
1.27747e-05;0.007355128768497178
1.27750e-05;0.007355794685445121
1.27753e-05;0.007354231198551041
1.27755e-05;0.007350583943577681
1.27758e-05;0.007345112878500498
1.27760e-05;0.007338011278362503
1.27763e-05;0.0073293744388555
1.27765e-05;0.007319282995810529
1.27768e-05;0.007307819275739917
1.27770e-05;0.007295063869169133
1.27773e-05;0.0072811120150583055
1.27775e-05;0.00726613308804733
1.27778e-05;0.007250368016244269
1.27780e-05;0.007234015889745485
1.27783e-05;0.007217215929260035
1.27785e-05;0.007200096287177424
1.27788e-05;0.007182787272229907
1.27790e-05;0.007165417693538694
1.27793e-05;0.007148124988353216
1.27795e-05;0.0071310936830341525
1.27798e-05;0.007114553675583503
1.27800e-05;0.007098708194652157
1.27803e-05;0.007083721446710941
1.27805e-05;0.00706975352370711
1.27808e-05;0.007056962418566696
1.27810e-05;0.0070455369458023295
1.27813e-05;0.007036189959612845
1.27815e-05;0.0070269631346419345
1.27818e-05;0.007020544614678157
1.27820e-05;0.007014126094714336
1.27823e-05;0.007007824054672362
1.27825e-05;0.007004244283526196
1.27828e-05;0.007000796781115932
1.27830e-05;0.00700044055023114
1.27832e-05;0.007000084319346352
1.27835e-05;0.006999866602026935
1.27838e-05;0.007002886105034281
1.27840e-05;0.007005905608041627
1.27843e-05;0.007009047377230436
1.27845e-05;0.007015046646815251
1.27848e-05;0.007021045916400065
1.27850e-05;0.007027164866341973
1.27853e-05;0.007036080883010054
1.27855e-05;0.007044996899678135
1.27858e-05;0.007054002846985422
1.27860e-05;0.007065110576112432
1.27863e-05;0.007076218305239442
1.27865e-05;0.007087401233449778
1.27868e-05;0.007100341650183202
1.27870e-05;0.007113282066916626
1.27873e-05;0.0071262786202402045
1.27875e-05;0.007140587149835739
1.27878e-05;0.007154895679431273
1.27880e-05;0.007169230716910594
1.27883e-05;0.0071841852739320524
1.27885e-05;0.007199139830953512
1.27888e-05;0.007214102018067346
1.27890e-05;0.00722924252916287
1.27893e-05;0.007244383040258394
1.27895e-05;0.00725950322779364
1.27898e-05;0.007274148430499898
1.27900e-05;0.007288793633206155
1.27903e-05;0.0073033802806846985
1.27905e-05;0.007316598425570894
1.27908e-05;0.00732981657045709
1.27910e-05;0.007343034715343195
1.27913e-05;0.007356150421548025
1.27915e-05;0.0073668720186912205
1.27917e-05;0.007377593615834343
1.27920e-05;0.007388315212977537
1.27923e-05;0.007399036810120732
1.27925e-05;0.007409758407263927
1.27928e-05;0.0074204800044070495
1.27930e-05;0.007431201601550244
1.27933e-05;0.007441923198693439
1.27935e-05;0.007452644795836561
1.27938e-05;0.007463366392979756
1.27940e-05;0.007474000689891337
1.27943e-05;0.007482594680612765
1.27945e-05;0.007491188671334251
1.27948e-05;0.007499782662055737
1.27950e-05;0.0075083766527771646
1.27953e-05;0.007516970643498651
1.27955e-05;0.007525564634220136
1.27958e-05;0.007534158624941564
1.27960e-05;0.00754275261566305
1.27963e-05;0.007551346606384535
1.27965e-05;0.007559940597105963
1.27968e-05;0.00756849273846676
1.27970e-05;0.007576066812437079
1.27973e-05;0.007583640886407345
1.27975e-05;0.007591214960377663
1.27978e-05;0.007598789034347981
1.27980e-05;0.007606363108318247
1.27983e-05;0.007613937182288565
1.27985e-05;0.007621511256258883
1.27988e-05;0.007628816495886134
1.27990e-05;0.007635893678218809
1.27993e-05;0.007642970860551484
1.27995e-05;0.007650048042884111
1.27998e-05;0.007657125225216785
1.28000e-05;0.00766420240754946
1.28002e-05;0.007671279589882086
1.28005e-05;0.007678348591838507
1.28008e-05;0.007685224173524119
1.28010e-05;0.007692042846240429
1.28013e-05;0.007698730395520729
1.28015e-05;0.007704848257274964
1.28018e-05;0.0077096916590487724
1.28020e-05;0.007712884107787339
1.28023e-05;0.007713831728507013
1.28025e-05;0.007714636320022746
1.28028e-05;0.007712098155566072
1.28030e-05;0.007709559991109381
1.28033e-05;0.0077068714380398706
1.28035e-05;0.007700668131201042
1.28038e-05;0.007694309388296731
1.28040e-05;0.007684317926885612
1.28043e-05;0.007674186716318759
1.28045e-05;0.007660789408252272
1.28048e-05;0.007647302000767657
1.28050e-05;0.007631655768336044
1.28053e-05;0.007614714584261389
1.28055e-05;0.007596452289569669
1.28058e-05;0.007576737826607894
1.28060e-05;0.0075555829931110196
1.28063e-05;0.007533145653179739
1.28065e-05;0.007509605513856966
1.28068e-05;0.007485141465505005
1.28070e-05;0.007459933554169974
1.28073e-05;0.007434143440157482
1.28075e-05;0.007407844511214398
1.28078e-05;0.007381044161189836
1.28080e-05;0.007353839439292073
1.28083e-05;0.00732641945423316
1.28085e-05;0.007298985409903546
1.28087e-05;0.007271739422409185
1.28090e-05;0.00724488367226816
1.28093e-05;0.007218609135172817
1.28095e-05;0.007193051736156574
1.28098e-05;0.007168305056788129
1.28100e-05;0.0071445191956151415
1.28103e-05;0.007121902608946426
1.28105e-05;0.0071006709170652145
1.28108e-05;0.007081040186808539
1.28110e-05;0.007063227937151649
1.28113e-05;0.007047495044978367
1.28115e-05;0.007034328174985768
1.28118e-05;0.007024332980943618
1.28120e-05;0.0070178052848261525
1.28123e-05;0.007014829905215777
1.28125e-05;0.0070168217713722355
1.28128e-05;0.007019166465613955
1.28130e-05;0.007029757155491672
1.28133e-05;0.007040347845369389
1.28135e-05;0.00705139300342442
1.28138e-05;0.007073059602241133
1.28140e-05;0.007094726201057846
1.28143e-05;0.0071168239064665125
1.28145e-05;0.007148997065688321
1.28148e-05;0.007181170224910129
1.28150e-05;0.0072137190037743675
1.28153e-05;0.007255046443022929
1.28155e-05;0.007296373882271491
1.28158e-05;0.007337987803467232
1.28160e-05;0.007386297135227042
1.28163e-05;0.007434792856515479
1.28165e-05;0.007487644714132618
1.28168e-05;0.007540639626429828
1.28170e-05;0.007596977890105399
1.28172e-05;0.007653422255374859
1.28175e-05;0.00771234633617885
1.28178e-05;0.007771340817005187
1.28180e-05;0.007831980626822263
1.28183e-05;0.007892639964070827
1.28185e-05;0.00795375567972353
1.28188e-05;0.00801483790067162
1.28190e-05;0.008075137312087264
1.28193e-05;0.008135354276469439
1.28195e-05;0.00819364435943076
1.28198e-05;0.008251803788204531
1.28200e-05;0.008306909679283242
1.28203e-05;0.008361827193697553
1.28205e-05;0.008412342130144353
1.28208e-05;0.008462609859239474
1.28210e-05;0.00850710006995143
1.28213e-05;0.008551223743251159
1.28215e-05;0.00858678101826826
1.28218e-05;0.008622338293285363
1.28220e-05;0.008657351405140932
1.28223e-05;0.008679646801915977
1.28225e-05;0.008701942198691021
1.28228e-05;0.008724237595465915
1.28230e-05;0.008745880504695634
1.28233e-05;0.00875227403417038
1.28235e-05;0.008758667563645081
1.28238e-05;0.008765061093119827
1.28240e-05;0.00877098604065772
1.28243e-05;0.008765959692722538
1.28245e-05;0.00876071388091003
1.28248e-05;0.008750197784349807
1.28250e-05;0.00873624547111327
1.28253e-05;0.008718958503423512
1.28255e-05;0.00869848581212957
1.28257e-05;0.008675040273776772
1.28260e-05;0.008648846580573093
1.28263e-05;0.008620113119490487
1.28265e-05;0.008589043033492684
1.28268e-05;0.008555842030226449
1.28270e-05;0.008520713329083348
1.28273e-05;0.008483865761422318
1.28275e-05;0.008445536709706014
1.28278e-05;0.008406004983311089
1.28280e-05;0.00836555689459265
1.28283e-05;0.008324466214173761
1.28285e-05;0.008283005857782378
1.28288e-05;0.00824144955782741
1.28290e-05;0.008200069413357533
1.28293e-05;0.008159141669066559
1.28295e-05;0.008118957303770805
1.28298e-05;0.008079838555081346
1.28300e-05;0.008042107507751866
1.28303e-05;0.008006082444818234
1.28305e-05;0.007972076481736498
1.28308e-05;0.007940407084861696
1.28310e-05;0.007911384914095824
1.28313e-05;0.007885194901590493
1.28315e-05;0.007861311376037787
1.28318e-05;0.007838613167269078
1.28320e-05;0.00781655478262299
1.28323e-05;0.007795254047010089
1.28325e-05;0.00777495564011441
1.28328e-05;0.007756458409629454
1.28330e-05;0.007738053303912143
1.28333e-05;0.00772185261914457
1.28335e-05;0.00770687500951727
1.28338e-05;0.007692443626492231
1.28340e-05;0.0076783587695350335
1.28342e-05;0.00766431116182292
1.28345e-05;0.007651134111545329
1.28348e-05;0.007638018538285306
1.28350e-05;0.007626339753199628
1.28353e-05;0.007614713617662399
1.28355e-05;0.007604317962253897
1.28358e-05;0.007593940035027563
1.28360e-05;0.007583976435683536
1.28363e-05;0.007574012836339441
1.28365e-05;0.007564107110736781
1.28368e-05;0.007555553960626893
1.28370e-05;0.007547000810516946
1.28373e-05;0.007538447660406999
1.28375e-05;0.007529951735990193
1.28378e-05;0.007522793241435733
1.28380e-05;0.007515634746881273
1.28383e-05;0.007508476252326862
1.28385e-05;0.007501407138627451
1.28388e-05;0.007496426957682731
1.28390e-05;0.007491446776738045
1.28393e-05;0.007486466595793325
1.28395e-05;0.007481486414848605
1.28398e-05;0.007476506233903919
1.28400e-05;0.007471526052959199
1.28403e-05;0.007466689772864116
1.28405e-05;0.007465216620120206
1.28408e-05;0.007463743467376286
1.28410e-05;0.007462270314632366
1.28413e-05;0.007460797161888456
1.28415e-05;0.007459324009144536
1.28418e-05;0.007457850856400616
1.28420e-05;0.007456572529559095
1.28423e-05;0.007459847506766281
1.28425e-05;0.007463122483973466
1.28427e-05;0.00746639746118063
1.28430e-05;0.007469672438387816
1.28433e-05;0.007472947415595002
1.28435e-05;0.007476222392802187
1.28438e-05;0.00747949737000935
1.28440e-05;0.007482772347216536
1.28443e-05;0.007486047324423721
1.28445e-05;0.007489322301630885
1.28448e-05;0.007492597278838071
1.28450e-05;0.007495872256045256
1.28453e-05;0.007501434968833204
1.28455e-05;0.007508938411299467
1.28458e-05;0.00751644185376573
1.28460e-05;0.007523945296231942
1.28463e-05;0.0075314487386982055
1.28465e-05;0.007538952181164469
1.28468e-05;0.007546455623630681
1.28470e-05;0.007553959066096944
1.28473e-05;0.007561462508563207
1.28475e-05;0.007568965951029419
1.28478e-05;0.007576469393495682
1.28480e-05;0.007583972835961945
1.28483e-05;0.007591525554133833
1.28485e-05;0.007600229901876762
1.28488e-05;0.00760893424961969
1.28490e-05;0.007617638597362559
1.28493e-05;0.007626342945105487
1.28495e-05;0.0076349926503563054
1.28498e-05;0.007643596001339972
1.28500e-05;0.007652199352323698
1.28503e-05;0.007660802703307424
1.28505e-05;0.007669390232570565
1.28508e-05;0.0076776079901383285
1.28510e-05;0.007685824381550149
1.28512e-05;0.007694008844335814
1.28515e-05;0.007702272639701546
1.28518e-05;0.007712390528152168
1.28520e-05;0.0077226472358797585
1.28523e-05;0.007736148308803009
1.28525e-05;0.007749649381726352
1.28528e-05;0.007763292643141058
1.28530e-05;0.007780259012144001
1.28533e-05;0.007797225381147059
1.28535e-05;0.00781445499528563
1.28538e-05;0.007837836949175146
1.28540e-05;0.007861218903064819
1.28543e-05;0.007884600856954492
1.28545e-05;0.007907982810844007
1.28548e-05;0.00793136476473368
1.28550e-05;0.007958687391015134
1.28553e-05;0.007989352964763602
1.28555e-05;0.008020018538512277
1.28558e-05;0.008050684112260953
1.28560e-05;0.00808134968600942
1.28563e-05;0.008112199226160717
1.28565e-05;0.00814734827144928
1.28568e-05;0.008182497316737605
1.28570e-05;0.008217713007507564
1.28573e-05;0.008254486279366256
1.28575e-05;0.008291259551224698
1.28578e-05;0.008328070616879887
1.28580e-05;0.008365764966764874
1.28583e-05;0.008403459316649606
1.28585e-05;0.008441129502452373
1.28588e-05;0.008478234946029346
1.28590e-05;0.008515340389606066
1.28593e-05;0.008552363023115312
1.28595e-05;0.008587450290673091
1.28597e-05;0.008622537558230635
1.28600e-05;0.008657488745192603
1.28603e-05;0.008689259573062177
1.28605e-05;0.00872103040093175
1.28608e-05;0.008752599407125581
1.28610e-05;0.008779451610037754
1.28613e-05;0.008806303812949926
1.28615e-05;0.008832991414770602
1.28618e-05;0.008855832100913046
1.28620e-05;0.008878672787055491
1.28623e-05;0.008901513473197781
1.28625e-05;0.008924181450479664
1.28628e-05;0.008942813024246134
1.28630e-05;0.008961444598012477
1.28633e-05;0.008980076171778947
1.28635e-05;0.008998492686912293
1.28638e-05;0.009011883035929452
1.28640e-05;0.009025273384946702
1.28643e-05;0.009038663733963951
1.28645e-05;0.009052054082981108
1.28648e-05;0.009065444431998358
1.28650e-05;0.009078834781015607
1.28653e-05;0.009092225130032766
1.28655e-05;0.009105615479050016
1.28658e-05;0.009118801968303824
1.28660e-05;0.0091272240218263
1.28663e-05;0.009135646075348834
1.28665e-05;0.009144068128871368
1.28668e-05;0.009152490182393844
1.28670e-05;0.009160912235916379
1.28673e-05;0.009169334289438912
1.28675e-05;0.009177756342961389
1.28678e-05;0.009186178396483922
1.28680e-05;0.009194513168111084
1.28682e-05;0.009200808062058556
1.28685e-05;0.009207102956006071
1.28688e-05;0.009213397849953585
1.28690e-05;0.0092196927439011
1.28693e-05;0.009225987637848572
1.28695e-05;0.009231943286204808
1.28698e-05;0.00923761114606254
1.28700e-05;0.009243279005920233
1.28703e-05;0.009248946865777966
1.28705e-05;0.009254614725635699
1.28708e-05;0.00926028442672072
1.28710e-05;0.009265997159393411
1.28713e-05;0.009271756952794368
1.28715e-05;0.009278616609217652
1.28718e-05;0.009285630389685252
1.28720e-05;0.009296246225272435
1.28723e-05;0.009306862060859547
1.28725e-05;0.009317678619464888
1.28728e-05;0.009333186304485454
1.28730e-05;0.009348693989505915
1.28733e-05;0.00936420167452648
1.28735e-05;0.009379978176999601
1.28738e-05;0.00940203725067115
1.28740e-05;0.00942409632434285
1.28743e-05;0.009446155398014548
1.28745e-05;0.009468515087655569
1.28748e-05;0.009497900516192592
1.28750e-05;0.009527285944729614
1.28753e-05;0.009556671373266436
1.28755e-05;0.009586056801803458
1.28758e-05;0.009615442230340481
1.28760e-05;0.009648382637522327
1.28763e-05;0.009684338800820327
1.28765e-05;0.009720294964118326
1.28767e-05;0.009756251127416083
1.28770e-05;0.009792207290714084
1.28773e-05;0.00982827646715564
1.28775e-05;0.009866986889969532
1.28778e-05;0.009905697312783162
1.28780e-05;0.009944432358248996
1.28783e-05;0.0099837428632418
1.28785e-05;0.010023053368234336
1.28788e-05;0.010062317009938737
1.28790e-05;0.010100485403014203
1.28793e-05;0.01013865379608941
1.28795e-05;0.010176719112858898
1.28798e-05;0.01021237541850977
1.28800e-05;0.010248031724160398
1.28803e-05;0.010283517938620772
1.28805e-05;0.010315028927492028
1.28808e-05;0.010346539916363072
1.28810e-05;0.010377805430260054
1.28813e-05;0.010403333913352839
1.28815e-05;0.01042886239644545
1.28818e-05;0.010453982074962452
1.28820e-05;0.010469547523149105
1.28823e-05;0.010485112971335652
1.28825e-05;0.010500678419522305
1.28828e-05;0.010516243867708958
1.28830e-05;0.010531809315895506
1.28833e-05;0.010540091473641601
1.28835e-05;0.010542195077340595
1.28838e-05;0.010544298681039574
1.28840e-05;0.010546402284738568
1.28843e-05;0.01054850588843756
1.28845e-05;0.010550212546685983
1.28848e-05;0.010542642135917775
1.28850e-05;0.010535071725149567
1.28853e-05;0.010527257788328966
1.28855e-05;0.01051375236923361
1.28858e-05;0.010500246950138252
1.28860e-05;0.010486571968481587
1.28863e-05;0.010468934115902351
1.28865e-05;0.010451186225672421
1.28868e-05;0.01043086662973946
1.28870e-05;0.010410459217685443
1.28873e-05;0.010387999442476016
1.28875e-05;0.01036547753105551
1.28878e-05;0.01034150342533992
1.28880e-05;0.010317495977776592
1.28883e-05;0.010292709293114488
1.28885e-05;0.010267918194718003
1.28888e-05;0.010243023942298531
1.28890e-05;0.010218154280685836
1.28893e-05;0.010193859334343294
1.28895e-05;0.010169620237983642
1.28898e-05;0.010146686419583736
1.28900e-05;0.010123841640157984
1.28903e-05;0.010103077803356932
1.28905e-05;0.010082506852487749
1.28908e-05;0.010066443866382177
1.28910e-05;0.010050380880276497
1.28913e-05;0.010034317894170816
1.28915e-05;0.010018458962082947
1.28918e-05;0.01000736900569507
1.28920e-05;0.009996279049307192
1.28923e-05;0.009985189092919391
1.28925e-05;0.009974302558278669
1.28928e-05;0.00996817022245326
1.28930e-05;0.009962037886627896
1.28933e-05;0.009955905550802488
1.28935e-05;0.009949773214977082
1.28938e-05;0.009943640879151715
1.28940e-05;0.009939979273639063
1.28943e-05;0.009938413635725443
1.28945e-05;0.009936847997811823
1.28948e-05;0.009935282359898216
1.28950e-05;0.009933716721984596
1.28953e-05;0.009932347056663989
1.28955e-05;0.009935557494910046
1.28958e-05;0.009938767933156125
1.28960e-05;0.009941978371402203
1.28963e-05;0.00994518880964826
1.28965e-05;0.009948399247894339
1.28968e-05;0.009951609686140417
1.28970e-05;0.009954820124386475
1.28973e-05;0.009958030562632553
1.28975e-05;0.009961241000878631
1.28978e-05;0.009964451439124689
1.28980e-05;0.009967780865817701
1.28983e-05;0.009973891188564067
1.28985e-05;0.009980001511310394
1.28988e-05;0.009986111834056762
1.28990e-05;0.009992222156803128
1.28993e-05;0.009998332479549454
1.28995e-05;0.010004442802295822
1.28998e-05;0.010010553125042189
1.29000e-05;0.010016663447788515
1.29003e-05;0.010022773770534883
1.29005e-05;0.010028884093281249
1.29008e-05;0.010035003348875075
1.29010e-05;0.010041331375328729
1.29013e-05;0.010047659401782384
