Time(s);Current(A)
1.37500e-05;-0.004759073291217815
1.37503e-05;-0.004818712394928466
1.37505e-05;-0.0048789963557578555
1.37508e-05;-0.004951017548317961
1.37510e-05;-0.0050230387408785535
1.37513e-05;-0.005095608313802055
1.37515e-05;-0.005178159117000907
1.37518e-05;-0.005261065848250637
1.37520e-05;-0.005350450929333219
1.37523e-05;-0.005440079447594949
1.37525e-05;-0.005534138836679527
1.37528e-05;-0.005628364652108601
1.37530e-05;-0.0057256196417766695
1.37533e-05;-0.005822982029487875
1.37535e-05;-0.00592233904548387
1.37538e-05;-0.006022429421931088
1.37540e-05;-0.006122644049615532
1.37543e-05;-0.006222373377911436
1.37545e-05;-0.006321008510985233
1.37548e-05;-0.006417960425580269
1.37550e-05;-0.006512793635641678
1.37553e-05;-0.006605225213588109
1.37555e-05;-0.006694838281699996
1.37558e-05;-0.0067809028272743915
1.37560e-05;-0.006860909024368767
1.37563e-05;-0.006940203381531308
1.37565e-05;-0.007006541333300739
1.37568e-05;-0.007072879285069721
1.37570e-05;-0.007138100382886958
1.37573e-05;-0.007182993297480178
1.37575e-05;-0.007227886212073397
1.37578e-05;-0.007272779126666313
1.37580e-05;-0.007317672041259533
1.37583e-05;-0.0073611476266640784
1.37585e-05;-0.007378825991775334
1.37588e-05;-0.0073965043568867085
1.37590e-05;-0.007414182721998084
1.37593e-05;-0.0074318610871093385
1.37595e-05;-0.0074480897124985426
1.37598e-05;-0.007437931204055606
1.37600e-05;-0.0074277726956127384
1.37603e-05;-0.007417614187169802
1.37605e-05;-0.007407455678726865
1.37608e-05;-0.007397297170283998
1.37610e-05;-0.007387138661841061
1.37613e-05;-0.007363623664933722
1.37615e-05;-0.00732927211833002
1.37618e-05;-0.007294920571726084
1.37620e-05;-0.007260569025122148
1.37623e-05;-0.007226217478518445
1.37625e-05;-0.00719186593191451
1.37628e-05;-0.0071569216137078616
1.37630e-05;-0.0071111880873591035
1.37633e-05;-0.007065454561010036
1.37635e-05;-0.007019563625855828
1.37638e-05;-0.006970807647311605
1.37640e-05;-0.006922051668767052
1.37643e-05;-0.006873268431466805
1.37645e-05;-0.006823989049635652
1.37648e-05;-0.0067747096678041656
1.37650e-05;-0.0067255290908782
1.37653e-05;-0.006678146890741741
1.37655e-05;-0.00663094002939821
1.37658e-05;-0.006586924560368664
1.37660e-05;-0.006543152722530955
1.37663e-05;-0.006503815286793969
1.37665e-05;-0.006464789301741643
1.37668e-05;-0.006431432121086641
1.37670e-05;-0.006398542235696038
1.37673e-05;-0.00637415772716574
1.37675e-05;-0.006349773218635441
1.37678e-05;-0.006325986260508862
1.37680e-05;-0.006313075490877368
1.37683e-05;-0.006300164721245873
1.37685e-05;-0.006288232266465293
1.37688e-05;-0.006294106404504197
1.37690e-05;-0.006299980542543101
1.37693e-05;-0.006305854680581965
1.37695e-05;-0.00631172881862087
1.37698e-05;-0.006317602956659774
1.37700e-05;-0.006323477094698639
1.37703e-05;-0.006341987416411532
1.37705e-05;-0.0063707498813246
1.37708e-05;-0.006399512346237473
1.37710e-05;-0.006428274811150541
1.37713e-05;-0.00645703727606361
1.37715e-05;-0.006485799740976483
1.37718e-05;-0.006515224752344655
1.37720e-05;-0.006556708964226611
1.37723e-05;-0.0065981931761082855
1.37725e-05;-0.00663994951476725
1.37728e-05;-0.006686658911954085
1.37730e-05;-0.006733368309140605
1.37733e-05;-0.006780230402245517
1.37735e-05;-0.0068298717581176715
1.37738e-05;-0.00687951311398949
1.37740e-05;-0.0069291695705009015
1.37743e-05;-0.006979100878134619
1.37745e-05;-0.007029032185768337
1.37748e-05;-0.007078872242857865
1.37750e-05;-0.007127051422287873
1.37753e-05;-0.007175080969580506
1.37755e-05;-0.007220387018867518
1.37758e-05;-0.007265472948852615
1.37760e-05;-0.007306552423465685
1.37763e-05;-0.007347340503435663
1.37765e-05;-0.007382824824851087
1.37768e-05;-0.00741780757546191
1.37770e-05;-0.007443661090133061
1.37773e-05;-0.007469514604804386
1.37775e-05;-0.007494642617831857
1.37778e-05;-0.00750656556465246
1.37780e-05;-0.007518488511473144
1.37783e-05;-0.007529280066341234
1.37785e-05;-0.007519478827566036
1.37788e-05;-0.0075096775887907715
1.37790e-05;-0.007499876350015507
1.37793e-05;-0.007490075111240309
1.37795e-05;-0.007480273872465045
1.37798e-05;-0.00746902901500287
1.37800e-05;-0.007431508434388433
1.37803e-05;-0.007393987853773741
1.37805e-05;-0.00735646727315905
1.37808e-05;-0.0073189466925446135
1.37810e-05;-0.007281426111929922
1.37813e-05;-0.0072428254178207654
1.37815e-05;-0.00718456526418076
1.37818e-05;-0.00712630511054036
1.37820e-05;-0.007068044956899959
1.37823e-05;-0.007009784803259954
1.37825e-05;-0.006951524649619554
1.37828e-05;-0.006887265552824614
1.37830e-05;-0.0068181393200434206
1.37833e-05;-0.006749013087262695
1.37835e-05;-0.0066798868544815015
1.37838e-05;-0.006610760621700309
1.37840e-05;-0.00654153840013505
1.37843e-05;-0.00647056905881227
1.37845e-05;-0.006399680899593111
1.37848e-05;-0.0063302703594300645
1.37850e-05;-0.00626102046161287
1.37853e-05;-0.00619469446181648
1.37855e-05;-0.006128543291530577
1.37858e-05;-0.006065808514042745
1.37860e-05;-0.0060073377545019485
1.37863e-05;-0.005949258645561076
1.37865e-05;-0.005898308082979656
1.37868e-05;-0.005847811036732269
1.37870e-05;-0.005805568573054433
1.37873e-05;-0.00576377290802763
1.37875e-05;-0.0057301095550762226
1.37878e-05;-0.005697031380188688
1.37880e-05;-0.0056746042012693725
1.37883e-05;-0.005652177022350057
1.37885e-05;-0.005630490437629084
1.37888e-05;-0.005622283623101535
1.37890e-05;-0.005614076808573986
1.37893e-05;-0.0056068827028954455
1.37895e-05;-0.005618121205233986
1.37898e-05;-0.005629359707572528
1.37900e-05;-0.005640598209910993
1.37903e-05;-0.005651836712249534
1.37905e-05;-0.005663075214588076
1.37908e-05;-0.005675435448672012
1.37910e-05;-0.00570821264819371
1.37913e-05;-0.005740989847715408
1.37915e-05;-0.005773767047237106
1.37918e-05;-0.005806544246758581
1.37920e-05;-0.005839321446280279
1.37923e-05;-0.0058726893370539554
1.37925e-05;-0.005916808570940057
1.37928e-05;-0.0059609278048264585
1.37930e-05;-0.00600527609471525
1.37933e-05;-0.006053793499459944
1.37935e-05;-0.006102310904204967
1.37938e-05;-0.006150909895246224
1.37940e-05;-0.006200993862171625
1.37943e-05;-0.006251071851087352
1.37945e-05;-0.006301041032505771
1.37948e-05;-0.006350938259539645
1.37950e-05;-0.006399525823918622
1.37953e-05;-0.006447964835355079
1.37955e-05;-0.006493699991518343
1.37958e-05;-0.006539213706670085
1.37960e-05;-0.006580696909619251
1.37963e-05;-0.0066218867778010514
1.37965e-05;-0.006657737574649587
1.37968e-05;-0.006693063260511935
1.37970e-05;-0.006718831248726651
1.37973e-05;-0.006744599236941541
1.37975e-05;-0.006769582727548009
1.37978e-05;-0.006780287349220591
1.37980e-05;-0.006790991970893246
1.37983e-05;-0.006800901327263988
1.37985e-05;-0.006796335828782804
1.37988e-05;-0.00679177033030159
1.37990e-05;-0.0067860930367490795
1.37993e-05;-0.006760179638036347
1.37995e-05;-0.006734266239323438
1.37998e-05;-0.00670835284061053
1.38000e-05;-0.006682439441897621
1.38003e-05;-0.0066552940395884505
1.38005e-05;-0.006605724581819057
1.38008e-05;-0.006556155124049662
1.38010e-05;-0.006506585666280604
1.38013e-05;-0.00645701620851121
1.38015e-05;-0.006406644725721323
1.38018e-05;-0.006341675352475729
1.38020e-05;-0.006276705979229694
1.38023e-05;-0.006211325323745387
1.38025e-05;-0.0061384588007283945
1.38028e-05;-0.006065592277710908
1.38030e-05;-0.0059924958660543415
1.38033e-05;-0.0059152151844745595
1.38035e-05;-0.005837852120338499
1.38038e-05;-0.005758966111853296
1.38040e-05;-0.005679653255282544
1.38043e-05;-0.005600372595648204
1.38045e-05;-0.0055215813153287
1.38048e-05;-0.0054437328666870274
1.38050e-05;-0.005367243468551574
1.38053e-05;-0.005292505032927743
1.38055e-05;-0.005219960272522709
1.38058e-05;-0.005150109472437394
1.38060e-05;-0.005083464442930163
1.38063e-05;-0.0050205378528271815
1.38065e-05;-0.004961842608587388
1.38068e-05;-0.004907911906404031
1.38070e-05;-0.004859426872681589
1.38073e-05;-0.004817116913614992
1.38075e-05;-0.00478138451204326
1.38078e-05;-0.004752326486930903
1.38080e-05;-0.004729979722525506
1.38083e-05;-0.004714560632662641
1.38085e-05;-0.004708810181425697
1.38088e-05;-0.0047037869981521145
1.38090e-05;-0.004712001030429607
1.38093e-05;-0.004721128566498138
1.38095e-05;-0.0047468830505355795
1.38098e-05;-0.004772637534573196
1.38100e-05;-0.004799391134457216
1.38103e-05;-0.004844329932208974
1.38105e-05;-0.0048892687299610365
1.38108e-05;-0.00493495786295377
1.38110e-05;-0.004994304065714303
1.38113e-05;-0.005054190750908976
1.38115e-05;-0.0051239149139494945
1.38118e-05;-0.00519409241143562
1.38120e-05;-0.005272521180919782
1.38123e-05;-0.005351231886936492
1.38125e-05;-0.005435231351836594
1.38128e-05;-0.005522227178768631
1.38130e-05;-0.005611814674058578
1.38133e-05;-0.005703601304923546
1.38135e-05;-0.005797114493344244
1.38138e-05;-0.005891805869847758
1.38140e-05;-0.005987113308504976
1.38143e-05;-0.0060824734561658
1.38145e-05;-0.006177324798071776
1.38148e-05;-0.0062711083562717405
1.38150e-05;-0.006363287732585492
1.38153e-05;-0.006453333276272728
1.38155e-05;-0.006540666786561524
1.38158e-05;-0.006624542376695884
1.38160e-05;-0.006702514332457198
1.38163e-05;-0.006779801525159418
1.38165e-05;-0.006844625146422524
1.38168e-05;-0.006909448767685631
1.38170e-05;-0.00697363335220969
1.38173e-05;-0.007026186643331809
1.38175e-05;-0.007078739934453928
1.38178e-05;-0.00713051668909581
1.38180e-05;-0.007168159477576184
1.38183e-05;-0.007205802266056812
1.38185e-05;-0.007243445054537441
1.38188e-05;-0.007281087843017814
1.38190e-05;-0.007318730631498443
1.38193e-05;-0.007346935090855302
1.38195e-05;-0.007367481929496329
1.38198e-05;-0.007388028768137496
1.38200e-05;-0.007408575606778663
1.38203e-05;-0.0074291224454196905
1.38205e-05;-0.00744870114905931
1.38208e-05;-0.007450658546157439
1.38210e-05;-0.007452615943255555
1.38213e-05;-0.0074545733403536835
1.38215e-05;-0.0074565307374518126
1.38218e-05;-0.007458488134549929
1.38220e-05;-0.007460445531648058
1.38223e-05;-0.007462402928746187
1.38225e-05;-0.007464360325844302
1.38228e-05;-0.007466317722942431
1.38230e-05;-0.00746827512004056
1.38233e-05;-0.007470232517138676
1.38235e-05;-0.007466277358835254
1.38238e-05;-0.00745752515370958
1.38240e-05;-0.007448772948583966
1.38243e-05;-0.007440020743458292
1.38245e-05;-0.007431268538332618
1.38248e-05;-0.007422516333207003
1.38250e-05;-0.007413764128081329
1.38253e-05;-0.007405011922955656
1.38255e-05;-0.007396259717830041
1.38258e-05;-0.0073875075127043666
1.38260e-05;-0.007378755307578693
1.38263e-05;-0.007370050947972731
1.38265e-05;-0.007362217438577265
1.38268e-05;-0.0073543839291817445
1.38270e-05;-0.007346327847035649
1.38273e-05;-0.00733422065356573
1.38275e-05;-0.007322113460095729
1.38278e-05;-0.007309491780765114
1.38280e-05;-0.00728750579474925
1.38283e-05;-0.007265519808733236
1.38285e-05;-0.007243533822717222
1.38288e-05;-0.007221547836701358
1.38290e-05;-0.007199561850685345
1.38293e-05;-0.007169561583996028
1.38295e-05;-0.007133059073009731
1.38298e-05;-0.007096556562023186
1.38300e-05;-0.007060054051036641
1.38303e-05;-0.007023551540050343
1.38305e-05;-0.0069863300562389655
1.38308e-05;-0.006936022339064674
1.38310e-05;-0.006885714621890723
1.38313e-05;-0.006835406904716432
1.38315e-05;-0.00678509918754214
1.38318e-05;-0.006734791470368189
1.38320e-05;-0.006683990149030742
1.38323e-05;-0.006624204594845232
1.38325e-05;-0.006564419040660127
1.38328e-05;-0.006504633486474618
1.38330e-05;-0.006444847932289108
1.38333e-05;-0.006385062378104003
1.38335e-05;-0.00632515502044937
1.38338e-05;-0.0062630306824483575
1.38340e-05;-0.006200906344447766
1.38343e-05;-0.006138858107847661
1.38345e-05;-0.00607819501496622
1.38348e-05;-0.006017666409120704
1.38350e-05;-0.005959585640908422
1.38353e-05;-0.00590168266089523
1.38355e-05;-0.005847015655579807
1.38358e-05;-0.005793094318027992
1.38360e-05;-0.005752745096184862
1.38363e-05;-0.005712395874341731
1.38365e-05;-0.005672046652498874
1.38368e-05;-0.005631697430655744
1.38370e-05;-0.005591348208812613
1.38373e-05;-0.0055509989869697565
1.38375e-05;-0.005510649765126626
1.38378e-05;-0.0054703005432834954
1.38380e-05;-0.005441001349774359
1.38383e-05;-0.0054206674005170125
1.38385e-05;-0.005400333451259667
1.38388e-05;-0.005379999502002459
1.38390e-05;-0.005359665552745113
1.38393e-05;-0.005339331603487768
1.38395e-05;-0.005318997654230559
1.38398e-05;-0.005298663704973214
1.38400e-05;-0.005279117987184455
1.38403e-05;-0.005273919099488091
1.38405e-05;-0.005268720211791692
1.38408e-05;-0.0052635213240952924
1.38410e-05;-0.0052583224363989284
1.38413e-05;-0.00525312354870253
1.38415e-05;-0.005247924661006131
1.38418e-05;-0.005242725773309767
1.38420e-05;-0.0052375268856133675
1.38423e-05;-0.005232327997916969
1.38425e-05;-0.005232011777833637
1.38428e-05;-0.005235657023407664
1.38430e-05;-0.005239302268981692
1.38433e-05;-0.00524294751455572
1.38435e-05;-0.005246592760129723
1.38438e-05;-0.005250238005703751
1.38440e-05;-0.005253883251277779
1.38443e-05;-0.005257528496851782
1.38445e-05;-0.005261173742425809
1.38448e-05;-0.005264894899764384
1.38450e-05;-0.005269997749196749
1.38453e-05;-0.005275100598629149
1.38455e-05;-0.0052802034480615495
1.38458e-05;-0.005285306297493915
1.38460e-05;-0.005290409146926316
1.38463e-05;-0.005295511996358716
1.38465e-05;-0.005300532040565722
1.38468e-05;-0.00530404492279413
1.38470e-05;-0.005307557805022538
1.38473e-05;-0.005311070687250923
1.38475e-05;-0.005314583569479332
1.38478e-05;-0.00531809645170774
1.38480e-05;-0.005321609333936125
1.38483e-05;-0.005325108517496654
1.38485e-05;-0.005328358367620775
1.38488e-05;-0.005331608217744874
1.38490e-05;-0.005334858067868995
1.38493e-05;-0.0053381079179931155
1.38495e-05;-0.005341357768117214
1.38498e-05;-0.005344607618241334
1.38500e-05;-0.005347857468365455
1.38503e-05;-0.005351107318489554
1.38505e-05;-0.005354357168613675
1.38508e-05;-0.0053576070187377955
1.38510e-05;-0.005360856868861894
1.38513e-05;-0.005364106718986014
1.38515e-05;-0.005367356569110135
1.38518e-05;-0.005370606419234256
1.38520e-05;-0.005373856269358355
1.38523e-05;-0.005377094108896527
1.38525e-05;-0.0053801133402681086
1.38528e-05;-0.005383132571639669
1.38530e-05;-0.005386151803011251
1.38533e-05;-0.005389171034382832
1.38535e-05;-0.005392190265754394
1.38538e-05;-0.005395209497125976
1.38540e-05;-0.005398228728497557
1.38543e-05;-0.005401247959869118
1.38545e-05;-0.005404267191240699
1.38548e-05;-0.005407286422612281
1.38550e-05;-0.005410305653983843
1.38553e-05;-0.005413324885355424
1.38555e-05;-0.005416344116727006
1.38558e-05;-0.005419363348098566
1.38560e-05;-0.005422382579470148
1.38563e-05;-0.005425344340703349
1.38565e-05;-0.00542726007123932
1.38568e-05;-0.005429175801775304
1.38570e-05;-0.005431275294478254
1.38573e-05;-0.0054367194958085605
1.38575e-05;-0.005442163697138904
1.38578e-05;-0.005448013841686256
1.38580e-05;-0.005461252676750014
1.38583e-05;-0.005474491511813862
1.38585e-05;-0.005487730346877709
1.38588e-05;-0.005500969181941468
1.38590e-05;-0.005514208017005315
1.38593e-05;-0.005533699605467903
1.38595e-05;-0.0055582642543614835
1.38598e-05;-0.00558282890325523
1.38600e-05;-0.005607393552148976
1.38603e-05;-0.005631958201042723
1.38605e-05;-0.0056570675091672
1.38608e-05;-0.005692090318312802
1.38610e-05;-0.005727113127458405
1.38613e-05;-0.005762135936603769
1.38615e-05;-0.005797158745749371
1.38618e-05;-0.005832181554894974
1.38620e-05;-0.005870288692430525
1.38623e-05;-0.005911472625790934
1.38625e-05;-0.005952656559151343
1.38628e-05;-0.005993840492511474
1.38630e-05;-0.006035024425871883
1.38633e-05;-0.006076208359232293
1.38635e-05;-0.0061104460480352835
1.38638e-05;-0.006150147028173315
1.38640e-05;-0.006196241825130135
1.38643e-05;-0.006237850182912534
1.38645e-05;-0.006280081447829127
1.38648e-05;-0.006325359749904387
1.38650e-05;-0.006366947902119522
1.38653e-05;-0.006407218988737826
1.38655e-05;-0.006446953223024808
1.38658e-05;-0.0064848770155648845
1.38660e-05;-0.006521711639646096
1.38663e-05;-0.006558633923116727
1.38665e-05;-0.006594130673904199
1.38668e-05;-0.006624469633514907
1.38670e-05;-0.006649014658073412
1.38673e-05;-0.006668668824026676
1.38675e-05;-0.006684937934272036
1.38678e-05;-0.006692567018362445
1.38680e-05;-0.006700196102452803
1.38683e-05;-0.006704754905929334
1.38685e-05;-0.006701477116127964
1.38688e-05;-0.006693928976589686
1.38690e-05;-0.006675481183811316
1.38693e-05;-0.0066570333910328195
1.38695e-05;-0.006632805883589036
1.38698e-05;-0.006593826215419087
1.38700e-05;-0.0065548465472488725
1.38703e-05;-0.006515866879078659
1.38705e-05;-0.0064768872109087095
1.38708e-05;-0.006431575188923533
1.38710e-05;-0.006370100448418315
1.38713e-05;-0.0063086257079135125
1.38715e-05;-0.006247150967408294
1.38718e-05;-0.0061856762269030755
1.38720e-05;-0.006120603638532072
1.38723e-05;-0.006046347892674118
1.38725e-05;-0.005972092146816164
1.38728e-05;-0.005896140115378815
1.38730e-05;-0.005815858479632455
1.38733e-05;-0.005734782215920766
1.38735e-05;-0.00565167774145131
1.38738e-05;-0.005568296615328241
1.38740e-05;-0.005484300072469194
1.38743e-05;-0.005400753704683443
1.38745e-05;-0.005317932150872184
1.38748e-05;-0.005235832953015735
1.38750e-05;-0.005154985686179625
1.38753e-05;-0.005076015752673486
1.38755e-05;-0.004999380281899362
1.38758e-05;-0.004925611659511892
1.38760e-05;-0.004855947005929518
1.38763e-05;-0.004790783762367535
1.38765e-05;-0.004728212497702488
1.38768e-05;-0.004672257007605084
1.38770e-05;-0.004618815283270019
1.38773e-05;-0.0045717897020691005
1.38775e-05;-0.0045247641208685015
1.38778e-05;-0.004480390183387864
1.38780e-05;-0.004442784309147465
1.38783e-05;-0.004405178434907322
1.38785e-05;-0.004371969120251725
1.38788e-05;-0.004349981597227803
1.38790e-05;-0.004327994074204031
1.38793e-05;-0.004306006551180109
1.38795e-05;-0.0042840190281561875
1.38798e-05;-0.0042620315051324145
1.38800e-05;-0.004240043982108492
1.38803e-05;-0.0042308774330684015
1.38805e-05;-0.004225295515397377
1.38808e-05;-0.0042197135977263146
1.38810e-05;-0.004214131680055251
1.38813e-05;-0.004208549762384227
1.38815e-05;-0.004202967844713164
1.38818e-05;-0.004200648642023059
1.38820e-05;-0.004206657202659238
1.38823e-05;-0.004212665763295458
1.38825e-05;-0.004218674323931678
1.38828e-05;-0.004224682884567857
1.38830e-05;-0.004230691445204076
1.38833e-05;-0.004236700005840296
1.38835e-05;-0.0042443334958354164
1.38838e-05;-0.00425611446031215
1.38840e-05;-0.004267895424788882
1.38843e-05;-0.004279676389265535
1.38845e-05;-0.004291457353742268
1.38848e-05;-0.0043032383182190015
1.38850e-05;-0.004315019282695655
1.38853e-05;-0.004326783499699208
1.38855e-05;-0.004338504970402889
1.38858e-05;-0.00435022644110657
1.38860e-05;-0.0043605483032577615
1.38863e-05;-0.004367297800417433
1.38865e-05;-0.004374047297577104
1.38868e-05;-0.004380796794736731
1.38870e-05;-0.004387546291896402
1.38873e-05;-0.004394295789056073
1.38875e-05;-0.0044010452862157
1.38878e-05;-0.004407794783375371
1.38880e-05;-0.0044145442805350425
1.38883e-05;-0.004421293777694669
1.38885e-05;-0.00442804327485434
1.38888e-05;-0.004434792772014012
1.38890e-05;-0.004435967864501491
1.38893e-05;-0.004435584402554464
1.38895e-05;-0.004435200940607438
1.38898e-05;-0.004434817478660413
1.38900e-05;-0.004434434016713386
1.38903e-05;-0.00443405055476636
1.38905e-05;-0.004433667092819335
1.38908e-05;-0.004433283630872308
1.38910e-05;-0.004432900168925281
1.38913e-05;-0.004432516706978257
1.38915e-05;-0.00443213324503123
1.38918e-05;-0.004430538947143077
1.38920e-05;-0.004425854108032001
1.38923e-05;-0.004421169268920893
1.38925e-05;-0.004416484429809785
1.38928e-05;-0.004411799590698709
1.38930e-05;-0.0044071147515876005
1.38933e-05;-0.004402429912476492
1.38935e-05;-0.004397745073365416
1.38938e-05;-0.0043930602342543085
1.38940e-05;-0.0043883753951432
1.38943e-05;-0.004383690556032092
1.38945e-05;-0.004379005716921016
1.38948e-05;-0.004374320877809907
1.38950e-05;-0.004369857660504768
1.38953e-05;-0.004365960111350127
1.38955e-05;-0.004362062562195461
1.38958e-05;-0.004358165013040794
1.38960e-05;-0.004354267463886154
1.38963e-05;-0.004350369914731487
1.38965e-05;-0.00434647236557682
