Time(s);Current(A)
8.25000e-06;-0.0006512308700755988
8.25025e-06;-0.0006546757595503092
8.25050e-06;-0.0006557838878949456
8.25075e-06;-0.0006542038882425736
8.25100e-06;-0.0006501070002368262
8.25125e-06;-0.0006435171122383026
8.25150e-06;-0.0006345930338091545
8.25175e-06;-0.0006232204761966593
8.25200e-06;-0.0006095554128900626
8.25225e-06;-0.0005936707121705029
8.25250e-06;-0.0005741067040979227
8.25275e-06;-0.00055153619700558
8.25300e-06;-0.000526149856826288
8.25325e-06;-0.0004981471631291119
8.25350e-06;-0.00046772757662258586
8.25375e-06;-0.0004350657471854279
8.25400e-06;-0.00040021416834073526
8.25425e-06;-0.00036308551155492334
8.25450e-06;-0.0003236578732926289
8.25475e-06;-0.0002821002344887979
8.25500e-06;-0.00023867004276908056
8.25525e-06;-0.0001936301939908884
8.25550e-06;-0.00014724360464352665
8.25575e-06;-9.975763496388728e-05
8.25600e-06;-5.134308502624982e-05
8.25625e-06;-2.0831846764903987e-06
8.25650e-06;4.798422703782728e-05
8.25675e-06;9.843715049788327e-05
8.25700e-06;0.00014880107480653738
8.25725e-06;0.0001990816623602049
8.25750e-06;0.0002493622499135317
8.25775e-06;0.000298681321254681
8.25800e-06;0.0003471001270727544
8.25825e-06;0.00039421885611323315
8.25850e-06;0.0004401203261159514
8.25875e-06;0.000484144301577654
8.25900e-06;0.0005264103830139048
8.25925e-06;0.0005661240858428934
8.25950e-06;0.000603448002173827
8.25975e-06;0.0006376656977205768
8.26000e-06;0.0006689750455531522
8.26025e-06;0.0006972593832478155
8.26050e-06;0.0007227114105778181
8.26075e-06;0.0007451414489324101
8.26100e-06;0.0007647420056301065
8.26125e-06;0.0007811131051776003
8.26150e-06;0.0007944604710710239
8.26175e-06;0.00080444445665022
8.26200e-06;0.0008112793166099781
8.26225e-06;0.0008150147195820927
8.26250e-06;0.0008158481077672241
8.26275e-06;0.0008137969623456327
8.26300e-06;0.0008090450344277935
8.26325e-06;0.0008014915571668797
8.26350e-06;0.0007913149953940908
8.26375e-06;0.0007784660427237214
8.26400e-06;0.0007631149363110126
8.26425e-06;0.0007454697306053824
8.26450e-06;0.0007256765647577233
8.26475e-06;0.0007039368084336042
8.26500e-06;0.0006803744637111544
8.26525e-06;0.0006547673081716014
8.26550e-06;0.000627245600743603
8.26575e-06;0.0005997238933156046
8.26600e-06;0.0005704524769923439
8.26625e-06;0.0005395428120634308
8.26650e-06;0.0005086331471345177
8.26675e-06;0.0004769394959598521
8.26700e-06;0.00044451180018045616
8.26725e-06;0.0004120841044010602
8.26750e-06;0.0003796664746706626
8.26775e-06;0.00034785071603044996
8.26800e-06;0.00031603495739023727
8.26825e-06;0.00028421919875024017
8.26850e-06;0.00025330535689985266
8.26875e-06;0.00022385823198084348
8.26900e-06;0.0001957282630708452
8.26925e-06;0.0001691328703349018
8.26950e-06;0.00014428947393863592
8.26975e-06;0.00012143315507095442
8.27000e-06;0.00010087622469538715
8.27025e-06;8.299021487800549e-05
8.27050e-06;6.803800264163474e-05
8.27075e-06;5.61036940396658e-05
8.27100e-06;4.719665485039753e-05
8.27125e-06;4.132195417847568e-05
8.27150e-06;3.848464693552693e-05
8.27175e-06;3.870085823272919e-05
8.27200e-06;4.203507357787355e-05
8.27225e-06;4.858886064242586e-05
8.27250e-06;5.83957185963187e-05
8.27275e-06;7.137715274469147e-05
8.27300e-06;8.740785441574257e-05
8.27325e-06;0.00010635983599670562
8.27350e-06;0.0001281051058778181
8.27375e-06;0.0001525226095766246
8.27400e-06;0.00017952158794863697
8.27425e-06;0.00020903451412742694
8.27450e-06;0.00024095121859159585
8.27475e-06;0.0002750913914554658
8.27500e-06;0.0003112454056231447
8.27525e-06;0.0003495865126009511
8.27550e-06;0.0003891098927109914
8.27575e-06;0.0004302267981474189
8.27600e-06;0.0004728357178558093
8.27625e-06;0.0005154446375644884
8.27650e-06;0.0005591465165910387
8.27675e-06;0.0006038717310323529
8.27700e-06;0.0006485969454739703
8.27725e-06;0.0006933221599155876
8.27750e-06;0.0007380136936218667
8.27775e-06;0.0007806913824481561
8.27800e-06;0.0008233690712744456
8.27825e-06;0.0008660467601004458
8.27850e-06;0.0009087244489267352
8.27875e-06;0.0009484812967570416
8.27900e-06;0.0009855033675607808
8.27925e-06;0.0010225254383647707
8.27950e-06;0.0010564127652065677
8.27975e-06;0.0010873650381430598
8.28000e-06;0.0011152190715760435
8.28025e-06;0.0011401722301483596
8.28050e-06;0.0011618369512685664
8.28075e-06;0.0011804227156058974
8.28100e-06;0.00119560319415481
8.28125e-06;0.001207595311079104
8.28150e-06;0.0012160649932654746
8.28175e-06;0.001221236627522332
8.28200e-06;0.0012228432902785455
8.28225e-06;0.001221112078027663
8.28250e-06;0.0012159606996367674
8.28275e-06;0.001207607027180743
8.28300e-06;0.0011960239576980726
8.28325e-06;0.0011814172108531253
8.28350e-06;0.0011630576293215164
8.28375e-06;0.0011411842768933873
8.28400e-06;0.00111931092446511
8.28425e-06;0.0010934984774343959
8.28450e-06;0.0010639978647559686
8.28475e-06;0.0010344972520773413
8.28500e-06;0.001001900915025249
8.28525e-06;0.0009664060580234397
8.28550e-06;0.00093091120102139
8.28575e-06;0.0008928622577627887
8.28600e-06;0.0008524219291368935
8.28625e-06;0.0008119816005107245
8.28650e-06;0.0007715412718845554
8.28675e-06;0.0007310719801629029
8.28700e-06;0.0006888709215342444
8.28725e-06;0.000646669862905586
8.28750e-06;0.0006044688042772136
8.28775e-06;0.000562267745648555
8.28800e-06;0.0005209272573319166
8.28825e-06;0.0004803925191137796
8.28850e-06;0.0004411719413988445
8.28875e-06;0.0004031818092849258
8.28900e-06;0.0003665391305825285
8.28925e-06;0.0003322491600634049
8.28950e-06;0.0003002164606323788
8.28975e-06;0.0002706407023321353
8.29000e-06;0.0002433072179899497
8.29025e-06;0.00021747451352629207
8.29050e-06;0.00019250112373054177
8.29075e-06;0.00016828740970665246
8.29100e-06;0.00014499984543929164
8.29125e-06;0.00012282201037581828
8.29150e-06;0.00010193744686565896
8.29175e-06;8.247936525630907e-05
8.29200e-06;6.432145385113572e-05
8.29225e-06;4.7007422080483004e-05
8.29250e-06;3.014367143316054e-05
8.29275e-06;1.3676025675667805e-05
8.29300e-06;-2.282998898803177e-06
8.29325e-06;-1.7610182228083205e-05
8.29350e-06;-3.218234062946376e-05
8.29375e-06;-4.590782090547799e-05
8.29400e-06;-5.88575440798846e-05
8.29425e-06;-7.130910871114473e-05
8.29450e-06;-8.350081706210589e-05
8.29475e-06;-9.545835019362797e-05
8.29500e-06;-0.00010698944560159298
8.29525e-06;-0.00011824295824060341
8.29550e-06;-0.00012896403236073355
8.29575e-06;-0.00013918658546163614
8.29600e-06;-0.00014896181114528996
8.29625e-06;-0.0001583182051479697
8.29650e-06;-0.00016746513189868162
8.29675e-06;-0.00017641593492005568
8.29700e-06;-0.00018497067884670827
8.29725e-06;-0.00019315459351028884
8.29750e-06;-0.00020133850817381392
8.29775e-06;-0.0002089136135444046
8.29800e-06;-0.0002159186921072504
8.29825e-06;-0.0002229237706700487
8.29850e-06;-0.00022951580424185997
8.29875e-06;-0.0002357211046931163
8.29900e-06;-0.00024192640514437264
8.29925e-06;-0.000247691577863684
8.29950e-06;-0.00025304465995150627
8.29975e-06;-0.00025786497284592763
8.30000e-06;-0.00026218645511126646
8.30025e-06;-0.0002655605625088836
8.30050e-06;-0.00026804764489248744
8.30075e-06;-0.0002694523244908406
8.30100e-06;-0.00026984355273175655
8.30125e-06;-0.0002691952230784768
8.30150e-06;-0.00026757355764543315
8.30175e-06;-0.00026495206786299825
8.30200e-06;-0.00026139444473178555
8.30225e-06;-0.0002572945467915484
8.30250e-06;-0.0002524722426301758
8.30275e-06;-0.0002451839746802161
8.30300e-06;-0.00023747325727973477
8.30325e-06;-0.0002274652652963628
8.30350e-06;-0.00021633994875606066
8.30375e-06;-0.00020535783051367406
8.30400e-06;-0.00019355772842961696
8.30425e-06;-0.00018063296170030692
8.30450e-06;-0.00016716106511584556
8.30475e-06;-0.000152398621864849
8.30500e-06;-0.00013910244632698107
8.30525e-06;-0.00012259349225471257
8.30550e-06;-0.00010490752537508087
8.30575e-06;-8.840378991734158e-05
8.30600e-06;-7.068916754810161e-05
8.30625e-06;-5.274029919116161e-05
8.30650e-06;-3.486140761539394e-05
8.30675e-06;-1.6764109673157577e-05
8.30700e-06;1.5250104592375433e-06
8.30725e-06;2.000053010151465e-05
8.30750e-06;3.835141620422926e-05
8.30775e-06;5.6332761958588484e-05
8.30800e-06;7.413386192780009e-05
8.30825e-06;9.145745287177705e-05
8.30850e-06;0.00010806190286643329
8.30875e-06;0.00012407679567153263
8.30900e-06;0.00013943440166503914
8.30925e-06;0.00015408026382398717
8.30950e-06;0.0001676179380183514
8.30975e-06;0.00018016374076525082
8.31000e-06;0.00019263076230220097
8.31025e-06;0.00020541580210129372
8.31050e-06;0.00021958819440315286
8.31075e-06;0.0002354803367858011
8.31100e-06;0.0002529418497015265
8.31125e-06;0.0002718206207059994
8.31150e-06;0.00029184466081644056
8.31175e-06;0.00031313611776421824
8.31200e-06;0.00033555567147995396
8.31225e-06;0.0003590673348137656
8.31250e-06;0.0003851954119087938
8.31275e-06;0.00041392515882127627
8.31300e-06;0.0004445160058392438
8.31325e-06;0.0004763745723159762
8.31350e-06;0.0005102231129405798
8.31375e-06;0.0005451066479385622
8.31400e-06;0.0005816148421094545
8.31425e-06;0.0006193812365314519
8.31450e-06;0.0006591226625390047
8.31475e-06;0.0007001979894314176
8.31500e-06;0.0007433671772789424
8.31525e-06;0.0007865363651261747
8.31550e-06;0.0008307427126053135
8.31575e-06;0.0008765771181223498
8.31600e-06;0.000922411523639386
8.31625e-06;0.0009682459291561117
8.31650e-06;0.001014080334673148
8.31675e-06;0.0010599147401901842
8.31700e-06;0.0011051646515311006
8.31725e-06;0.0011503416914754134
8.31750e-06;0.0011955187314197262
8.31775e-06;0.0012406957713637329
8.31800e-06;0.0012858728113080457
8.31825e-06;0.001329220042440848
8.31850e-06;0.001369694972287397
8.31875e-06;0.0014101699021342202
8.31900e-06;0.0014483358343019201
8.31925e-06;0.0014828772692205268
8.31950e-06;0.0015174187041393675
8.31975e-06;0.001548793684093793
8.32000e-06;0.0015751981924831467
8.32025e-06;0.0016016027008726793
8.32050e-06;0.0016247147677857282
8.32075e-06;0.0016426585986358303
8.32100e-06;0.001660602429486054
8.32125e-06;0.0016750386315414212
8.32150e-06;0.0016839688120736176
8.32175e-06;0.0016928989926058746
8.32200e-06;0.0016983012789831648
8.32225e-06;0.0016981657327434514
8.32250e-06;0.0016980301865037368
8.32275e-06;0.001694687050544888
8.32300e-06;0.0016863088726636849
8.32325e-06;0.0016779306947824252
8.32350e-06;0.0016665597218780113
8.32375e-06;0.0016504908762012412
8.32400e-06;0.001634422030524362
8.32425e-06;0.0016146727824160056
8.32450e-06;0.0015891463052487662
8.32475e-06;0.0015636198280816996
8.32500e-06;0.00153809335091446
8.32525e-06;0.0015125668737472203
8.32550e-06;0.001487040396580154
8.32575e-06;0.0014615139194129143
8.32600e-06;0.0014295620352497052
8.32625e-06;0.001396809068025256
8.32650e-06;0.0013640561008005847
8.32675e-06;0.0013313031335759132
8.32700e-06;0.001298550166351464
8.32725e-06;0.0012657971991267927
8.32750e-06;0.0012335053286668903
8.32775e-06;0.001201937254498037
8.32800e-06;0.0011703691803289697
8.32825e-06;0.0011388011061599025
8.32850e-06;0.0011072330319910491
8.32875e-06;0.001075664957821982
8.32900e-06;0.0010440968836529147
8.32925e-06;0.0010197488726640931
8.32950e-06;0.0009963010179331476
8.32975e-06;0.0009728531632022023
8.33000e-06;0.0009494053084714159
8.33025e-06;0.0009259574537404705
8.33050e-06;0.000902509599009525
8.33075e-06;0.0008802415258648212
8.33100e-06;0.0008598253883685456
8.33125e-06;0.0008394092508722701
8.33150e-06;0.0008189931133761329
8.33175e-06;0.0007985769758798573
8.33200e-06;0.0007781608383835817
8.33225e-06;0.0007577447008874445
8.33250e-06;0.0007372600496905311
8.33275e-06;0.0007166678506507526
8.33300e-06;0.000696075651610974
8.33325e-06;0.000675483452571335
8.33350e-06;0.0006548912535315564
8.33375e-06;0.0006342990544917779
8.33400e-06;0.0006137068554521389
8.33425e-06;0.0005926649817921833
8.33450e-06;0.0005709172414961572
8.33475e-06;0.0005491695012002785
8.33500e-06;0.0005274217609042524
8.33525e-06;0.0005056740206082263
8.33550e-06;0.00048392628031234764
8.33575e-06;0.0004622382997997659
8.33600e-06;0.0004406441258651448
8.33625e-06;0.00041904995193067
8.33650e-06;0.0003974557779960489
8.33675e-06;0.0003758616040614278
8.33700e-06;0.000354267430126953
8.33725e-06;0.0003331774872694847
8.33750e-06;0.0003128790498212662
8.33775e-06;0.0002925806123731853
8.33800e-06;0.0002728597206990013
8.33825e-06;0.00025404541853300876
8.33850e-06;0.00023572100445446654
8.33875e-06;0.00021816558119892239
8.33900e-06;0.00020109155745727392
8.33925e-06;0.0001851614316906337
8.33950e-06;0.00017027929297213376
8.33975e-06;0.00015660995388128623
8.34000e-06;0.00014447225940440367
8.34025e-06;0.00013435349374384055
8.34050e-06;0.0001266346341222888
8.34075e-06;0.00012141353583127091
8.34100e-06;0.00011865761769081558
8.34125e-06;0.00011833078769120947
8.34150e-06;0.00012039682364517751
8.34175e-06;0.00012484159496705546
8.34200e-06;0.00013174743066657506
8.34225e-06;0.00014130216054898974
8.34250e-06;0.0001536270176105699
8.34275e-06;0.00016866587359551876
8.34300e-06;0.0001862808902393
8.34325e-06;0.00020633204414032604
8.34350e-06;0.00022867922458593993
8.34375e-06;0.00025319617542468733
8.34400e-06;0.0002798170812478734
8.34425e-06;0.00030854220275835603
8.34450e-06;0.00033967760650966176
8.34475e-06;0.0003725736369708545
8.34500e-06;0.0004067002670776835
8.34525e-06;0.000442758603341206
8.34550e-06;0.0004799092191067715
8.34575e-06;0.0005187744160910328
8.34600e-06;0.0005576396130752941
8.34625e-06;0.0005973943692652207
8.34650e-06;0.0006385454910413578
8.34675e-06;0.0006796966128174949
8.34700e-06;0.0007208477345933531
8.34725e-06;0.0007619988563694902
8.34750e-06;0.000802035667256365
8.34775e-06;0.0008419335522226933
8.34800e-06;0.0008818314371892918
8.34825e-06;0.0009217293221558904
8.34850e-06;0.0009599039996610597
8.34875e-06;0.0009953737109535947
8.34900e-06;0.0010308434222461298
8.34925e-06;0.0010638756199537356
8.34950e-06;0.001093081585452819
8.34975e-06;0.0011222875509519022
8.35000e-06;0.0011485476322646367
8.35025e-06;0.0011701834780338334
8.35050e-06;0.0011888873852651932
8.35075e-06;0.0012029889478210726
8.35100e-06;0.0012141173464791481
8.35125e-06;0.0012205786878788695
8.35150e-06;0.0012240531839976258
8.35175e-06;0.0012228391468139578
8.35200e-06;0.0012185060260793807
8.35225e-06;0.0012092767939878926
8.35250e-06;0.0011968954527550276
8.35275e-06;0.0011795661589861159
8.35300e-06;0.001159317362241209
8.35325e-06;0.0011344857412650484
8.35350e-06;0.0011069846196740535
8.35375e-06;0.0010752931094437507
8.35400e-06;0.0010411076008456073
8.35425e-06;0.001003007194318088
8.35450e-06;0.0009626505940605557
8.35475e-06;0.0009187523843642176
8.35500e-06;0.0008730020913957617
8.35525e-06;0.0008243445323045365
8.35550e-06;0.0007739682796526951
8.35575e-06;0.0007208941463807228
8.35600e-06;0.0006678200131087504
8.35625e-06;0.0006133298623402903
8.35650e-06;0.0005566169499058888
8.35675e-06;0.0004999040374714871
8.35700e-06;0.0004431911250374698
8.35725e-06;0.00038647821260306823
8.35750e-06;0.0003297653001686666
8.35775e-06;0.00027360591841501934
8.35800e-06;0.00021831542901567933
8.35825e-06;0.00016378521623178937
8.35850e-06;0.00011113069330990026
8.35875e-06;6.0375070175119016e-05
8.35900e-06;1.1892906808108242e-05
8.35925e-06;-3.394089257283677e-05
8.35950e-06;-7.675146134721077e-05
8.35975e-06;-0.00011617692054887279
8.36000e-06;-0.00015193059089167388
8.36025e-06;-0.00018386996587712505
8.36050e-06;-0.00021194651553808327
8.36075e-06;-0.0002361022234762664
8.36100e-06;-0.00025625657031375895
8.36125e-06;-0.0002723281453947976
8.36150e-06;-0.00028423561240222423
8.36175e-06;-0.00029190576927098835
8.36200e-06;-0.0002953125131635806
8.36225e-06;-0.00029452004374488385
8.36250e-06;-0.0002896514972416307
8.36275e-06;-0.00028082400431994744
8.36300e-06;-0.0002681406084687514
8.36325e-06;-0.0002517037956008175
8.36350e-06;-0.0002316160807325441
8.36375e-06;-0.0002079850875375946
8.36400e-06;-0.0001809479440516603
8.36425e-06;-0.0001506983351712525
8.36450e-06;-0.0001174668310722272
8.36475e-06;-8.148024598495904e-05
8.36500e-06;-4.295653855781606e-05
8.36525e-06;-2.1133292427239944e-06
8.36550e-06;4.0831769788280905e-05
8.36575e-06;8.565795941232158e-05
8.36600e-06;0.00013212596873066396
8.36625e-06;0.00018013367020108058
8.36650e-06;0.00022913650986088692
8.36675e-06;0.0002786266459219518
8.36700e-06;0.0003288817045653298
8.36725e-06;0.00037913676320904834
8.36750e-06;0.000429068014016575
8.36775e-06;0.0004784909747449819
8.36800e-06;0.0005279139354730539
8.36825e-06;0.0005762552175064098
8.36850e-06;0.0006228985586993855
8.36875e-06;0.0006680653298166984
8.36900e-06;0.0007109142882177078
8.36925e-06;0.000751765945884464
8.36950e-06;0.000789482385576512
8.36975e-06;0.0008246721410803757
8.37000e-06;0.0008558956908207647
8.37025e-06;0.0008841599052807155
8.37050e-06;0.0009077787696419123
8.37075e-06;0.000928291427715347
8.37100e-06;0.0009439281882238826
8.37125e-06;0.0009563862356442226
8.37150e-06;0.0009638545695777503
8.37175e-06;0.0009680665304523118
8.37200e-06;0.0009671668728452302
8.37225e-06;0.0009629937970784403
8.37250e-06;0.000953682346665975
8.37275e-06;0.0009412594235392007
8.37300e-06;0.0009239523359929276
8.37325e-06;0.0009037423488721933
8.37350e-06;0.0008789756003339525
8.37375e-06;0.0008515112295970806
8.37400e-06;0.0008198123269940566
8.37425e-06;0.0007856590431413995
8.37450e-06;0.0007476530494398819
8.37475e-06;0.0007075480506825134
8.37500e-06;0.0006641481858747885
8.37525e-06;0.0006190337877947793
8.37550e-06;0.0005712280396136857
8.37575e-06;0.000522090151687363
8.37600e-06;0.00047086116731187864
8.37625e-06;0.00041857314987528974
8.37650e-06;0.000364622739073738
8.37675e-06;0.0003106723282718207
8.37700e-06;0.00025641820510910766
8.37725e-06;0.0002016873362887566
8.37750e-06;0.0001469564674680347
8.37775e-06;9.259930088078807e-05
8.37800e-06;3.922065884023975e-05
8.37825e-06;-1.3021970457856188e-05
8.37850e-06;-6.378908675204539e-05
8.37875e-06;-0.00011272453278217221
8.37900e-06;-0.00015946660687380003
8.37925e-06;-0.00020365353547523288
8.37950e-06;-0.0002449235842797594
8.37975e-06;-0.00028296219791016145
8.38000e-06;-0.0003176841256916109
8.38025e-06;-0.0003493338634546067
8.38050e-06;-0.00037818221525840124
8.38075e-06;-0.0004042408786733367
8.38100e-06;-0.0004273794781113338
8.38125e-06;-0.00044746346169138656
8.38150e-06;-0.00046435826950006105
8.38175e-06;-0.00047795895002757636
8.38200e-06;-0.0004883042045825335
8.38225e-06;-0.0004956392232360179
8.38250e-06;-0.0005002257209318343
8.38275e-06;-0.0005021631166747747
8.38300e-06;-0.0005014616894906375
8.38325e-06;-0.0004981292133958863
8.38350e-06;-0.0004921735027015106
8.38375e-06;-0.00048316333717945536
8.38400e-06;-0.0004718693774920297
8.38425e-06;-0.0004589565409582703
8.38450e-06;-0.0004435025088491513
8.38475e-06;-0.00042667502103019116
8.38500e-06;-0.00040769158195362793
8.38525e-06;-0.0003874859695146496
8.38550e-06;-0.00036536187788571066
8.38575e-06;-0.0003422086529075664
8.38600e-06;-0.0003174399689646002
8.38625e-06;-0.0002920017353438374
8.38650e-06;-0.0002655124911521095
8.38675e-06;-0.00023858045488295746
8.38700e-06;-0.00021095335569398145
8.38725e-06;-0.00018332625650519267
8.38750e-06;-0.00015569915731621667
8.38775e-06;-0.0001280720581272407
8.38800e-06;-0.0001005836516952925
8.38825e-06;-7.356575206858871e-05
8.38850e-06;-4.72844938001742e-05
8.38875e-06;-2.1949810639947824e-05
8.38900e-06;2.250270978203581e-06
8.38925e-06;2.5128389491144687e-05
8.38950e-06;4.649719727855249e-05
8.38975e-06;6.625112163813695e-05
8.39000e-06;8.466300622040826e-05
8.39025e-06;0.00010249208613249494
8.39050e-06;0.0001204046103822006
8.39075e-06;0.0001384773140355875
8.39100e-06;0.00015655217033040493
8.39125e-06;0.00017462702662534484
8.39150e-06;0.00019239368333770173
8.39175e-06;0.000209676550676093
8.39200e-06;0.00022695941801460136
8.39225e-06;0.00024464130703208403
8.39250e-06;0.0002623729437945829
8.39275e-06;0.0002806432300389175
8.39300e-06;0.0002997590492113432
8.39325e-06;0.0003188748683837689
8.39350e-06;0.00033799068755606507
8.39375e-06;0.0003571065067284908
8.39400e-06;0.0003762223259009165
8.39425e-06;0.0003965096788354054
8.39450e-06;0.00041694309191187386
8.39475e-06;0.0004373765049883424
