Time(s);Current(A)
2.50000e-06;0.005323472464252395
2.50025e-06;0.005336868201871962
2.50050e-06;0.005345261707112849
2.50075e-06;0.00535365521235375
2.50100e-06;0.005362048717594651
2.50125e-06;0.005370442222835538
2.50150e-06;0.00537883572807644
2.50175e-06;0.005387229233317341
2.50200e-06;0.0053956227385582416
2.50225e-06;0.005404016243799129
2.50250e-06;0.0054124097490400305
2.50275e-06;0.0054208032542809315
2.50300e-06;0.0054291967595218186
2.50325e-06;0.0054375902647627195
2.50350e-06;0.005445983770003621
2.50375e-06;0.0054543772752445084
2.50400e-06;0.005462770780485409
2.50425e-06;0.00547116428572631
2.50450e-06;0.005479557790967212
2.50475e-06;0.005487951296208099
2.50500e-06;0.005496344801449
2.50525e-06;0.005504738306689901
2.50550e-06;0.005513131811930788
2.50575e-06;0.00552152531717169
2.50600e-06;0.005529918822412591
2.50625e-06;0.005538312327653493
2.50650e-06;0.00554670583289438
2.50675e-06;0.005555099338135281
2.50700e-06;0.005563492843376182
2.50725e-06;0.005571886348617069
2.50750e-06;0.005579826057188424
2.50775e-06;0.005580594540378637
2.50800e-06;0.005581363023568849
2.50825e-06;0.005582131506759062
2.50850e-06;0.005582899989949276
2.50875e-06;0.0055836684731394885
2.50900e-06;0.005584436956329701
2.50925e-06;0.005585205439519914
2.50950e-06;0.005585973922710127
2.50975e-06;0.00558674240590034
2.51000e-06;0.0055875108890905524
2.51025e-06;0.005588279372280766
2.51050e-06;0.005589047855470979
2.51075e-06;0.005589816338661191
2.51100e-06;0.005590584821851405
2.51125e-06;0.005591353305041618
2.51150e-06;0.00559212178823183
2.51175e-06;0.005592890271422043
2.51200e-06;0.005593658754612256
2.51225e-06;0.005594427237802469
2.51250e-06;0.005595195720992681
2.51275e-06;0.005595964204182895
2.51300e-06;0.005596732687373108
2.51325e-06;0.00559750117056332
2.51350e-06;0.005598269653753533
2.51375e-06;0.005599038136943747
2.51400e-06;0.005599806620133959
2.51425e-06;0.005600575103324172
2.51450e-06;0.005601343586514386
2.51475e-06;0.005602112069704598
2.51500e-06;0.005602423966199664
2.51525e-06;0.005602376408009931
2.51550e-06;0.005602328849820196
2.51575e-06;0.005602281291630462
2.51600e-06;0.005602233733440728
2.51625e-06;0.005602186175250994
2.51650e-06;0.005602138617061259
2.51675e-06;0.005602091058871526
2.51700e-06;0.005602043500681791
2.51725e-06;0.005601995942492057
2.51750e-06;0.005601948384302323
2.51775e-06;0.005601900826112589
2.51800e-06;0.005601853267922854
2.51825e-06;0.005601805709733121
2.51850e-06;0.005601758151543386
2.51875e-06;0.005601710593353652
2.51900e-06;0.0056016630351639176
2.51925e-06;0.005601615476974184
2.51950e-06;0.00560156791878445
2.51975e-06;0.005601520360594715
2.52000e-06;0.005601472802404982
2.52025e-06;0.005601425244215247
2.52050e-06;0.005601377686025513
2.52075e-06;0.005604250509756145
2.52100e-06;0.00560942244770513
2.52125e-06;0.005614594385654114
2.52150e-06;0.005619766323603098
2.52175e-06;0.005624938261552075
2.52200e-06;0.005630110199501059
2.52225e-06;0.005635282137450043
2.52250e-06;0.005640454075399019
2.52275e-06;0.005645626013348003
2.52300e-06;0.005650797951296987
2.52325e-06;0.005655969889245972
2.52350e-06;0.005661141827194948
2.52375e-06;0.005666313765143932
2.52400e-06;0.005671485703092917
2.52425e-06;0.005676657641041892
2.52450e-06;0.005681829578990876
2.52475e-06;0.005687001516939861
2.52500e-06;0.005692173454888837
2.52525e-06;0.005697345392837821
2.52550e-06;0.005702517330786806
2.52575e-06;0.00570768926873579
2.52600e-06;0.005712861206684765
2.52625e-06;0.00571803314463375
2.52650e-06;0.005721966899164981
2.52675e-06;0.0057249258753355745
2.52700e-06;0.005727884851506172
2.52725e-06;0.005730843827676769
2.52750e-06;0.005733802803847367
2.52775e-06;0.005736761780017959
2.52800e-06;0.0057397207561885565
2.52825e-06;0.005742679732359154
2.52850e-06;0.00574435447780453
2.52875e-06;0.005725734874272322
2.52900e-06;0.005707115270740115
2.52925e-06;0.005688495667207938
2.52950e-06;0.00566987606367573
2.52975e-06;0.005651256460143523
2.53000e-06;0.005632636856611316
2.53025e-06;0.005614017253079139
2.53050e-06;0.005595397649546931
2.53075e-06;0.0055589772591582935
2.53100e-06;0.0055085429338540826
2.53125e-06;0.005458108608549786
2.53150e-06;0.00540767428324549
2.53175e-06;0.005357239957941193
2.53200e-06;0.005306805632636982
2.53225e-06;0.005256371307332686
2.53250e-06;0.00520593698202839
2.53275e-06;0.0051555026567241796
2.53300e-06;0.005093643299942612
2.53325e-06;0.0050227894167490135
2.53350e-06;0.004951935533555534
2.53375e-06;0.004881081650361935
2.53400e-06;0.004810227767168337
2.53425e-06;0.004739373883974738
2.53450e-06;0.004668520000781259
2.53475e-06;0.00459766611758766
2.53500e-06;0.004526812234394061
2.53525e-06;0.004457035984662964
2.53550e-06;0.004388108117945776
2.53575e-06;0.004319180251228589
2.53600e-06;0.004250252384511401
2.53625e-06;0.004181324517794331
2.53650e-06;0.0041123966510771435
2.53675e-06;0.004043468784359956
2.53700e-06;0.00397583370681946
2.53725e-06;0.003928628225141218
2.53750e-06;0.003881422743462976
2.53775e-06;0.003834217261784814
2.53800e-06;0.0037870117801065716
2.53825e-06;0.0037398062984283294
2.53850e-06;0.0036926008167500876
2.53875e-06;0.003645395335071925
2.53900e-06;0.003613620915067416
2.53925e-06;0.0035939948284896364
2.53950e-06;0.00357436874191189
2.53975e-06;0.0035547426553341104
2.54000e-06;0.0035351165687563307
2.54025e-06;0.0035154904821785506
2.54050e-06;0.0034958643956008043
2.54075e-06;0.0034762383090230246
2.54100e-06;0.003456612222445245
2.54125e-06;0.003436986135867498
2.54150e-06;0.0034304435827743154
2.54175e-06;0.0034342012365322465
2.54200e-06;0.003437958890290171
2.54225e-06;0.003441716544048102
2.54250e-06;0.0034454741978060333
2.54275e-06;0.0034492318515639644
2.54300e-06;0.003452989505321889
2.54325e-06;0.00345674715907982
2.54350e-06;0.003460504812837751
2.54375e-06;0.003464262466595676
2.54400e-06;0.003474075352876171
2.54425e-06;0.0034886553112620624
2.54450e-06;0.0035032352696479294
2.54475e-06;0.0035178152280338207
2.54500e-06;0.003532395186419712
2.54525e-06;0.0035469751448056032
2.54550e-06;0.0035615551031914702
2.54575e-06;0.0035761350615773615
2.54600e-06;0.003590715019963253
2.54625e-06;0.003604437411994018
2.54650e-06;0.0036174846721228077
2.54675e-06;0.0036305319322515973
2.54700e-06;0.0036435791923803864
2.54725e-06;0.003656626452509154
2.54750e-06;0.0036696737126379435
2.54775e-06;0.003682720972766733
2.54800e-06;0.0036957682328955
2.54825e-06;0.0037088154930242897
2.54850e-06;0.003724098227124446
2.54875e-06;0.0037411408714463357
2.54900e-06;0.003758183515768254
2.54925e-06;0.0037752261600901725
2.54950e-06;0.0037922688044120913
2.54975e-06;0.0038093114487339806
2.55000e-06;0.003826354093055899
2.55025e-06;0.003843396737377818
2.55050e-06;0.0038604393816997072
2.55075e-06;0.0038774820260216256
2.55100e-06;0.003900758799666632
2.55125e-06;0.003928943484591413
2.55150e-06;0.003957128169516147
2.55175e-06;0.003985312854440928
2.55200e-06;0.00401349753936571
2.55225e-06;0.0040416822242904426
2.55250e-06;0.004069866909215224
2.55275e-06;0.0040980515941400055
2.55300e-06;0.004126236279064739
2.55325e-06;0.004154420963989521
2.55350e-06;0.004185393431457585
2.55375e-06;0.004218925521143759
2.55400e-06;0.004252744882880606
2.55425e-06;0.004286564244617508
2.55450e-06;0.004320383606354412
2.55475e-06;0.004354202968091257
2.55500e-06;0.00438802232982816
2.55525e-06;0.004421841691565063
2.55550e-06;0.004455661053301966
2.55575e-06;0.004489480415038811
2.55600e-06;0.0045227926121922035
2.55625e-06;0.004548090225320437
2.55650e-06;0.004573387838448627
2.55675e-06;0.004598685451576861
2.55700e-06;0.004623983064705094
2.55725e-06;0.004649280677833284
2.55750e-06;0.0046745782909615174
2.55775e-06;0.00469987590408975
2.55800e-06;0.004725173517217984
2.55825e-06;0.004750471130346174
2.55850e-06;0.004760096599890058
2.55875e-06;0.004757383940676203
2.55900e-06;0.004754671281462354
2.55925e-06;0.004751958622248499
2.55950e-06;0.004749245963034644
2.55975e-06;0.0047465333038207895
2.56000e-06;0.00474382064460694
2.56025e-06;0.004741107985393085
2.56050e-06;0.004738395326179231
2.56075e-06;0.004735682666965381
2.56100e-06;0.004732970007751526
2.56125e-06;0.004728431536935952
2.56150e-06;0.0046950402617763065
2.56175e-06;0.0046616489866166035
2.56200e-06;0.0046282577114569005
2.56225e-06;0.0045948664362971976
2.56250e-06;0.004561475161137551
2.56275e-06;0.004528083885977848
2.56300e-06;0.004494692610818145
2.56325e-06;0.004461301335658498
2.56350e-06;0.004427910060498795
2.56375e-06;0.004394518785339092
2.56400e-06;0.004361127510179389
2.56425e-06;0.0043215260151471604
2.56450e-06;0.004277035431906169
2.56475e-06;0.0042325448486651785
2.56500e-06;0.0041880542654242625
2.56525e-06;0.004143563682183272
2.56550e-06;0.004099073098942281
2.56575e-06;0.0040545825157013654
2.56600e-06;0.00401050944272526
2.56625e-06;0.003973034170953912
2.56650e-06;0.003935558899182565
2.56675e-06;0.003898083627411281
2.56700e-06;0.003860608355639934
2.56725e-06;0.003823133083868587
2.56750e-06;0.003785657812097303
2.56775e-06;0.0037481825403259555
2.56800e-06;0.0037268273998325926
2.56825e-06;0.0037181630730902977
2.56850e-06;0.0037094987463480176
2.56875e-06;0.003700834419605723
2.56900e-06;0.003692170092863428
2.56925e-06;0.0036835057661211484
2.56950e-06;0.0036748414393788535
2.56975e-06;0.003666177112636559
2.57000e-06;0.003657512785894279
2.57025e-06;0.003671992575044511
2.57050e-06;0.003704692914583707
2.57075e-06;0.0037373932541229023
2.57100e-06;0.003770093593662043
2.57125e-06;0.0038027939332012386
2.57150e-06;0.0038354942727404345
2.57175e-06;0.003868194612279575
2.57200e-06;0.0039008949518187707
2.57225e-06;0.003933595291357967
2.57250e-06;0.003982674653244751
2.57275e-06;0.004044648644738023
2.57300e-06;0.0041066226362314
2.57325e-06;0.004168596627724777
2.57350e-06;0.004230570619218049
2.57375e-06;0.004292544610711426
2.57400e-06;0.004354518602204803
2.57425e-06;0.00441700586865586
2.57450e-06;0.004487604279719221
2.57475e-06;0.004558202690782582
2.57500e-06;0.004628801101845943
2.57525e-06;0.004699399512909185
2.57550e-06;0.004769997923972546
2.57575e-06;0.004840596335035907
2.57600e-06;0.004911194746099148
2.57625e-06;0.004972838452869942
2.57650e-06;0.005027432435142974
2.57675e-06;0.005082026417416005
2.57700e-06;0.005136620399688944
2.57725e-06;0.0051912143819619755
2.57750e-06;0.005245808364235007
2.57775e-06;0.005300402346507946
2.57800e-06;0.005354996328780977
2.57825e-06;0.005409590311054009
2.57850e-06;0.005462983108523529
2.57875e-06;0.005497393909112284
2.57900e-06;0.00553180470970104
2.57925e-06;0.005566215510289795
2.57950e-06;0.005600626310878491
2.57975e-06;0.005635037111467247
2.58000e-06;0.005669447912056002
2.58025e-06;0.005703858712644699
2.58050e-06;0.005738269513233455
2.58075e-06;0.00577268031382221
2.58100e-06;0.0058021266588096105
2.58125e-06;0.005827664662088669
2.58150e-06;0.0058532026653677705
2.58175e-06;0.005878740668646872
2.58200e-06;0.0059042786719259305
2.58225e-06;0.005929816675205032
2.58250e-06;0.005955354678484134
2.58275e-06;0.005980892681763192
2.58300e-06;0.006006430685042293
2.58325e-06;0.006031968688321395
2.58350e-06;0.006057506691600496
2.58375e-06;0.006083044694879555
2.58400e-06;0.006108582698158656
2.58425e-06;0.006133656778562363
2.58450e-06;0.006151399611891906
2.58475e-06;0.006169142445221479
2.58500e-06;0.006186885278551052
2.58525e-06;0.006204628111880625
2.58550e-06;0.006222370945210167
2.58575e-06;0.00624011377853974
2.58600e-06;0.006257856611869313
2.58625e-06;0.006275599445198855
2.58650e-06;0.006293342278528428
2.58675e-06;0.006311085111858
2.58700e-06;0.006328827945187543
2.58725e-06;0.006346570778517116
2.58750e-06;0.006364313611846689
2.58775e-06;0.006370627272241995
2.58800e-06;0.006367943145798276
2.58825e-06;0.0063652590193545525
2.58850e-06;0.006362574892910829
2.58875e-06;0.00635989076646711
2.58900e-06;0.0063572066400233865
2.58925e-06;0.006354522513579664
2.58950e-06;0.00635183838713594
2.58975e-06;0.006346908875931872
2.59000e-06;0.006306496159802605
2.59025e-06;0.006266083443673338
2.59050e-06;0.0062256707275441395
2.59075e-06;0.006185258011414872
2.59100e-06;0.006144845295285605
2.59125e-06;0.006104432579156407
2.59150e-06;0.0060640198630271406
2.59175e-06;0.0060236071468978735
2.59200e-06;0.005965264021108233
2.59225e-06;0.005892804912912157
2.59250e-06;0.005820345804715958
2.59275e-06;0.005747886696519759
2.59300e-06;0.0056754275883236826
2.59325e-06;0.005602968480127484
2.59350e-06;0.005530509371931285
2.59375e-06;0.005458050263735086
2.59400e-06;0.005378518556295053
2.59425e-06;0.005293418839624242
2.59450e-06;0.005208319122953431
2.59475e-06;0.0051232194062827635
2.59500e-06;0.005038119689611952
2.59525e-06;0.004953019972941141
2.59550e-06;0.004867920256270474
2.59575e-06;0.004782820539599663
2.59600e-06;0.004703894099175684
2.59625e-06;0.004629827662541061
2.59650e-06;0.004555761225906563
2.59675e-06;0.004481694789271939
2.59700e-06;0.004407628352637315
2.59725e-06;0.0043335619160028175
2.59750e-06;0.004260929274349804
2.59775e-06;0.004210954504995944
2.59800e-06;0.004160979735642084
2.59825e-06;0.004111004966288309
2.59850e-06;0.004061030196934448
2.59875e-06;0.0040110554275805885
2.59900e-06;0.003961080658226813
2.59925e-06;0.003926022459117891
2.59950e-06;0.003902707552390185
2.59975e-06;0.003879392645662519
2.60000e-06;0.003856077738934813
2.60025e-06;0.0038327628322071075
2.60050e-06;0.0038094479254794015
2.60075e-06;0.0037861330187517355
2.60100e-06;0.00376281811202403
2.60125e-06;0.003739503205296324
2.60150e-06;0.003716188298568658
2.60175e-06;0.0036942051622029077
2.60200e-06;0.003693267630811128
2.60225e-06;0.003692330099419348
2.60250e-06;0.0036913925680275694
2.60275e-06;0.0036904550366357895
2.60300e-06;0.0036895175052440096
2.60325e-06;0.003688579973852231
2.60350e-06;0.003687642442460451
2.60375e-06;0.0036867049110686713
2.60400e-06;0.003685767379676893
2.60425e-06;0.003684829848285113
2.60450e-06;0.0036887866616983206
2.60475e-06;0.0036965966210503374
2.60500e-06;0.003704406580402341
2.60525e-06;0.0037122165397543583
2.60550e-06;0.003720026499106375
2.60575e-06;0.003727836458458379
2.60600e-06;0.0037356464178103957
2.60625e-06;0.003743456377162413
2.60650e-06;0.0037512663365144297
2.60675e-06;0.0037590762958664334
2.60700e-06;0.0037668862552184506
2.60725e-06;0.0037746962145704674
2.60750e-06;0.003782427119690887
2.60775e-06;0.0037889087522811806
2.60800e-06;0.0037953903848714737
2.60825e-06;0.0038018720174617564
2.60850e-06;0.00380835365005205
2.60875e-06;0.0038148352826423435
2.60900e-06;0.0038213169152326366
2.60925e-06;0.0038277985478229193
2.60950e-06;0.003834280180413213
2.60975e-06;0.003840761813003506
2.61000e-06;0.0038472434455937886
2.61025e-06;0.003853725078184082
2.61050e-06;0.0038602067107743753
2.61075e-06;0.0038675739818964526
2.61100e-06;0.003875638485160535
2.61125e-06;0.003883702988424631
2.61150e-06;0.003891767491688727
2.61175e-06;0.0038998319949528097
2.61200e-06;0.003907896498216905
2.61225e-06;0.003915961001481002
2.61250e-06;0.003924025504745084
2.61275e-06;0.00393209000800918
2.61300e-06;0.003940154511273276
2.61325e-06;0.003948219014537372
2.61350e-06;0.003956283517801454
2.61375e-06;0.003964348021065551
2.61400e-06;0.003972412524329646
2.61425e-06;0.003980477027593729
2.61450e-06;0.003988541530857825
2.61475e-06;0.003996606034121921
2.61500e-06;0.004004670537386017
2.61525e-06;0.0040119579679403035
2.61550e-06;0.004018633636415005
2.61575e-06;0.004025309304889705
2.61600e-06;0.004031984973364395
2.61625e-06;0.004038660641839095
2.61650e-06;0.004045336310313796
2.61675e-06;0.0040520119787884855
2.61700e-06;0.004058687647263186
2.61725e-06;0.004065363315737887
2.61750e-06;0.004072038984212587
2.61775e-06;0.004078714652687277
2.61800e-06;0.004085390321161978
2.61825e-06;0.004092065989636679
2.61850e-06;0.004098741658111368
2.61875e-06;0.004105417326586069
2.61900e-06;0.004112092995060769
2.61925e-06;0.004118768663535458
2.61950e-06;0.00412544433201016
2.61975e-06;0.004133734946759741
2.62000e-06;0.00414329695204864
2.62025e-06;0.004152858957337522
2.62050e-06;0.004162420962626421
2.62075e-06;0.00417198296791532
2.62100e-06;0.004181544973204203
2.62125e-06;0.004191106978493102
2.62150e-06;0.004200668983782001
2.62175e-06;0.0042102309890708995
2.62200e-06;0.004219792994359782
2.62225e-06;0.004229354999648681
2.62250e-06;0.00423891700493758
2.62275e-06;0.004248479010226463
2.62300e-06;0.004258041015515362
2.62325e-06;0.004267603020804261
2.62350e-06;0.004277165026093144
2.62375e-06;0.004287562351977038
2.62400e-06;0.004298617296456876
2.62425e-06;0.004309672240936714
2.62450e-06;0.004320727185416534
2.62475e-06;0.004331782129896372
2.62500e-06;0.00434283707437621
2.62525e-06;0.0043538920188560285
2.62550e-06;0.0043649469633358666
2.62575e-06;0.004376001907815705
2.62600e-06;0.004387056852295543
2.62625e-06;0.004398111796775362
2.62650e-06;0.0044091667412552
2.62675e-06;0.004420221685735038
2.62700e-06;0.004431276630214857
2.62725e-06;0.004442331574694695
2.62750e-06;0.004453386519174533
2.62775e-06;0.004457666158117966
2.62800e-06;0.004456611836734357
2.62825e-06;0.00445555751535075
2.62850e-06;0.004454503193967141
2.62875e-06;0.004453448872583535
2.62900e-06;0.004452394551199927
2.62925e-06;0.004451340229816319
2.62950e-06;0.004450285908432713
2.62975e-06;0.004449231587049105
2.63000e-06;0.004448177265665497
2.63025e-06;0.004447122944281889
2.63050e-06;0.0044460686228982825
2.63075e-06;0.004445014301514675
2.63100e-06;0.004443959980131067
2.63125e-06;0.004441952735207584
2.63150e-06;0.004424886698631754
2.63175e-06;0.004407820662055924
2.63200e-06;0.004390754625480123
2.63225e-06;0.004373688588904293
2.63250e-06;0.004356622552328463
2.63275e-06;0.004339556515752633
2.63300e-06;0.004322490479176831
2.63325e-06;0.004305424442601001
2.63350e-06;0.004288358406025171
2.63375e-06;0.00427129236944937
2.63400e-06;0.00425422633287354
2.63425e-06;0.00423716029629771
2.63450e-06;0.00422009425972188
2.63475e-06;0.004203028223146079
2.63500e-06;0.004184884687203951
2.63525e-06;0.004165892873816387
2.63550e-06;0.004146901060428855
2.63575e-06;0.004127909247041291
2.63600e-06;0.004108917433653728
2.63625e-06;0.0040899256202661955
2.63650e-06;0.004070933806878631
2.63675e-06;0.004051941993491067
2.63700e-06;0.004032950180103504
2.63725e-06;0.004013958366715972
2.63750e-06;0.003994966553328407
2.63775e-06;0.003976801335263934
2.63800e-06;0.003971698578385338
2.63825e-06;0.003966595821506733
2.63850e-06;0.0039614930646281275
2.63875e-06;0.003956390307749523
2.63900e-06;0.003951287550870926
2.63925e-06;0.003946184793992321
2.63950e-06;0.003941082037113715
2.63975e-06;0.003935979280235119
2.64000e-06;0.003930876523356513
2.64025e-06;0.0039257737664779085
2.64050e-06;0.003920671009599312
2.64075e-06;0.003925071467580508
2.64100e-06;0.003936953473186764
2.64125e-06;0.003948835478793021
2.64150e-06;0.0039607174843992584
2.64175e-06;0.003972599490005516
2.64200e-06;0.003984481495611773
2.64225e-06;0.00399636350121801
2.64250e-06;0.004008245506824267
2.64275e-06;0.004020127512430524
2.64300e-06;0.0040320095180367815
2.64325e-06;0.00404923168549865
2.64350e-06;0.004070977781900196
2.64375e-06;0.004092723878301742
2.64400e-06;0.00411446997470325
2.64425e-06;0.0041362160711047955
2.64450e-06;0.0041579621675063416
2.64475e-06;0.00417970826390785
2.64500e-06;0.0042014543603093955
2.64525e-06;0.004223200456710941
2.64550e-06;0.004244946553112487
2.64575e-06;0.004264601200088159
2.64600e-06;0.004282350135835713
2.64625e-06;0.004300099071583267
2.64650e-06;0.0043178480073307905
2.64675e-06;0.004335596943078344
2.64700e-06;0.004353345878825897
2.64725e-06;0.004371094814573451
2.64750e-06;0.0043888437503209745
2.64775e-06;0.004406592686068528
2.64800e-06;0.004424341621816082
2.64825e-06;0.004441860279686372
2.64850e-06;0.004440767432249889
2.64875e-06;0.004439674584813405
2.64900e-06;0.004438581737376924
2.64925e-06;0.004437488889940441
2.64950e-06;0.004436396042503957
2.64975e-06;0.004435303195067474
2.65000e-06;0.004434210347630992
2.65025e-06;0.0044331175001945085
2.65050e-06;0.004432024652758025
