Time(s);Current(A)
2.00000e-06;0.005720623097546579
2.00025e-06;0.005729791827184172
2.00050e-06;0.005738960556821783
2.00075e-06;0.005746319493905857
2.00100e-06;0.005750588459279287
2.00125e-06;0.005754857424652725
2.00150e-06;0.005759126390026163
2.00175e-06;0.005763395355399593
2.00200e-06;0.005767664320773031
2.00225e-06;0.005771933286146468
2.00250e-06;0.005776202251519906
2.00275e-06;0.005780471216893336
2.00300e-06;0.005784740182266774
2.00325e-06;0.005789009147640211
2.00350e-06;0.005793278113013642
2.00375e-06;0.005797547078387079
2.00400e-06;0.0058018160437605165
2.00425e-06;0.005806085009133955
2.00450e-06;0.005804751100761402
2.00475e-06;0.005793851056568529
2.00500e-06;0.005782951012375657
2.00525e-06;0.005772050968182802
2.00550e-06;0.005761150923989929
2.00575e-06;0.0057502508797970565
2.00600e-06;0.005739350835604202
2.00625e-06;0.005728450791411328
2.00650e-06;0.005717550747218456
2.00675e-06;0.005706650703025583
2.00700e-06;0.005695750658832728
2.00725e-06;0.0056848506146398555
2.00750e-06;0.005673950570446983
2.00775e-06;0.005663050526254128
2.00800e-06;0.005652150482061255
2.00825e-06;0.005638723826172671
2.00850e-06;0.005620983328540984
2.00875e-06;0.005603242830909326
2.00900e-06;0.005585502333277638
2.00925e-06;0.005567761835645951
2.00950e-06;0.005550021338014293
2.00975e-06;0.005532280840382606
2.01000e-06;0.005514540342750919
2.01025e-06;0.005496799845119261
2.01050e-06;0.005479059347487574
2.01075e-06;0.005461318849855886
2.01100e-06;0.0054493509022099955
2.01125e-06;0.005438250379745783
2.01150e-06;0.005427149857281552
2.01175e-06;0.0054160493348173215
2.01200e-06;0.00540494881235311
2.01225e-06;0.005393848289888879
2.01250e-06;0.005382747767424648
2.01275e-06;0.005371647244960436
2.01300e-06;0.005360546722496205
2.01325e-06;0.005349446200031974
2.01350e-06;0.00534681098568802
2.01375e-06;0.005358629119913908
2.01400e-06;0.005370447254139816
2.01425e-06;0.005382265388365725
2.01450e-06;0.005394083522591613
2.01475e-06;0.005405901656817522
2.01500e-06;0.00541771979104343
2.01525e-06;0.005429537925269338
2.01550e-06;0.005441356059495226
2.01575e-06;0.0054531741937211345
2.01600e-06;0.005464992327947043
2.01625e-06;0.005476810462172931
2.01650e-06;0.005496329583698001
2.01675e-06;0.0055289970811813974
2.01700e-06;0.005561664578664739
2.01725e-06;0.005594332076148137
2.01750e-06;0.0056269995736315335
2.01775e-06;0.005659667071114931
2.01800e-06;0.005692334568598273
2.01825e-06;0.00572500206608167
2.01850e-06;0.005757669563565067
2.01875e-06;0.005790337061048409
2.01900e-06;0.005823004558531806
2.01925e-06;0.005855672056015203
2.01950e-06;0.005888400545266902
2.01975e-06;0.005921233169568879
2.02000e-06;0.0059540657938709106
2.02025e-06;0.0059868984181729425
2.02050e-06;0.006019731042474919
2.02075e-06;0.006052563666776951
2.02100e-06;0.006085396291078983
2.02125e-06;0.006118228915380959
2.02150e-06;0.00615106153968299
2.02175e-06;0.006183894163985022
2.02200e-06;0.006216726788287054
2.02225e-06;0.006229717211794299
2.02250e-06;0.006239726002457612
2.02275e-06;0.006249734793120925
2.02300e-06;0.006259743583784221
2.02325e-06;0.006269752374447534
2.02350e-06;0.006279761165110847
2.02375e-06;0.00628976995577416
2.02400e-06;0.006299778746437456
2.02425e-06;0.006309787537100768
2.02450e-06;0.006319796327764081
2.02475e-06;0.006318467967634893
2.02500e-06;0.006297782982811823
2.02525e-06;0.006277097997988754
2.02550e-06;0.006256413013165719
2.02575e-06;0.00623572802834265
2.02600e-06;0.006215043043519579
2.02625e-06;0.00619435805869651
2.02650e-06;0.006173673073873475
2.02675e-06;0.006152988089050406
2.02700e-06;0.006132303104227336
2.02725e-06;0.006111618119404302
2.02750e-06;0.006074960711388211
2.02775e-06;0.006035903171346149
2.02800e-06;0.005996845631304085
2.02825e-06;0.0059577880912620885
2.02850e-06;0.005918730551220026
2.02875e-06;0.005879673011177963
2.02900e-06;0.005840615471135967
2.02925e-06;0.005801557931093903
2.02950e-06;0.0057625003910518405
2.02975e-06;0.005723442851009844
2.03000e-06;0.005685779291991371
2.03025e-06;0.005650495763723034
2.03050e-06;0.005615212235454696
2.03075e-06;0.005579928707186419
2.03100e-06;0.005544645178918082
2.03125e-06;0.005509361650649745
2.03150e-06;0.005474078122381467
2.03175e-06;0.00543879459411313
2.03200e-06;0.005403511065844793
2.03225e-06;0.005368227537576455
2.03250e-06;0.005339817295700557
2.03275e-06;0.005323142244398839
2.03300e-06;0.005306467193097121
2.03325e-06;0.005289792141795432
2.03350e-06;0.005273117090493714
2.03375e-06;0.005256442039191997
2.03400e-06;0.005239766987890307
2.03425e-06;0.00522309193658859
2.03450e-06;0.005206416885286872
2.03475e-06;0.005189741833985154
2.03500e-06;0.005179696547232029
2.03525e-06;0.005180970671019909
2.03550e-06;0.00518224479480779
2.03575e-06;0.005183518918595667
2.03600e-06;0.005184793042383548
2.03625e-06;0.005186067166171428
2.03650e-06;0.005187341289959309
2.03675e-06;0.005188615413747187
2.03700e-06;0.005189889537535067
2.03725e-06;0.005191163661322948
2.03750e-06;0.005192437785110826
2.03775e-06;0.0051937119088987065
2.03800e-06;0.0051949860326865865
2.03825e-06;0.005204141589899999
2.03850e-06;0.005214481468399509
2.03875e-06;0.005224821346899019
2.03900e-06;0.005235161225398529
2.03925e-06;0.005245501103898022
2.03950e-06;0.005255840982397532
2.03975e-06;0.005266180860897042
2.04000e-06;0.005276520739396534
2.04025e-06;0.005286860617896044
2.04050e-06;0.005297200496395554
2.04075e-06;0.005307540374895064
2.04100e-06;0.005317880253394557
2.04125e-06;0.00532798746657282
2.04150e-06;0.005334759351256728
2.04175e-06;0.005336514861048355
2.04200e-06;0.005338270370839985
2.04225e-06;0.0053400258806316145
2.04250e-06;0.005341781390423242
2.04275e-06;0.005343536900214872
2.04300e-06;0.005345292410006502
2.04325e-06;0.0053470479197981315
2.04350e-06;0.005348803429589758
2.04375e-06;0.005350558939381388
2.04400e-06;0.005352314449173018
2.04425e-06;0.005354069958964645
2.04450e-06;0.005355825468756275
2.04475e-06;0.005357580978547905
2.04500e-06;0.005352896042633077
2.04525e-06;0.0053372149320445325
2.04550e-06;0.005321533821455961
2.04575e-06;0.005305852710867389
2.04600e-06;0.005290171600278845
2.04625e-06;0.005274490489690273
2.04650e-06;0.005258809379101702
2.04675e-06;0.005243128268513157
2.04700e-06;0.005227447157924585
2.04725e-06;0.005211766047336014
2.04750e-06;0.005196084936747443
2.04775e-06;0.005180403826158898
2.04800e-06;0.005164722715570327
2.04825e-06;0.005149041604981755
2.04850e-06;0.005131348798255846
2.04875e-06;0.005110221297236119
2.04900e-06;0.005089093796216393
2.04925e-06;0.005067966295196667
2.04950e-06;0.0050468387941769765
2.04975e-06;0.00502571129315725
2.05000e-06;0.005004583792137523
2.05025e-06;0.004983456291117833
2.05050e-06;0.004962328790098106
2.05075e-06;0.004941201289078379
2.05100e-06;0.004920073788058689
2.05125e-06;0.004898946287038962
2.05150e-06;0.004877818786019237
2.05175e-06;0.00485669128499951
2.05200e-06;0.004844567475956984
2.05225e-06;0.004833796626901271
2.05250e-06;0.004823025777845558
2.05275e-06;0.004812254928789862
2.05300e-06;0.004801484079734149
2.05325e-06;0.004790713230678436
2.05350e-06;0.004779942381622722
2.05375e-06;0.004769171532567027
2.05400e-06;0.004758400683511314
2.05425e-06;0.0047476298344556
2.05450e-06;0.004736858985399905
2.05475e-06;0.004726088136344192
2.05500e-06;0.004715317287288479
2.05525e-06;0.004708350547806126
2.05550e-06;0.004707878801877998
2.05575e-06;0.004707407055949868
2.05600e-06;0.00470693531002174
2.05625e-06;0.004706463564093612
2.05650e-06;0.004705991818165484
2.05675e-06;0.0047055200722373545
2.05700e-06;0.004705048326309227
2.05725e-06;0.0047045765803810985
2.05750e-06;0.004704104834452969
2.05775e-06;0.004703633088524841
2.05800e-06;0.004703161342596713
2.05825e-06;0.004702689596668585
2.05850e-06;0.004702217850740455
2.05875e-06;0.004701746104812328
2.05900e-06;0.004702476258939425
2.05925e-06;0.004705258491998833
2.05950e-06;0.004708040725058235
2.05975e-06;0.004710822958117642
2.06000e-06;0.004713605191177048
2.06025e-06;0.004716387424236456
2.06050e-06;0.004719169657295858
2.06075e-06;0.004721951890355265
2.06100e-06;0.004724734123414671
2.06125e-06;0.0047275163564740735
2.06150e-06;0.00473029858953348
2.06175e-06;0.004733080822592888
2.06200e-06;0.004735863055652294
2.06225e-06;0.004738645288711697
2.06250e-06;0.004741427521771103
2.06275e-06;0.004747986524344204
2.06300e-06;0.004760993841082549
2.06325e-06;0.004774001157820916
2.06350e-06;0.004787008474559283
2.06375e-06;0.0048000157912976285
2.06400e-06;0.0048130231080359956
2.06425e-06;0.004826030424774363
2.06450e-06;0.00483903774151273
2.06475e-06;0.004852045058251074
2.06500e-06;0.004865052374989441
2.06525e-06;0.004878059691727808
2.06550e-06;0.004891067008466154
2.06575e-06;0.004904074325204521
2.06600e-06;0.004923074903830544
2.06625e-06;0.0049523081523050495
2.06650e-06;0.004981541400779507
2.06675e-06;0.0050107746492540125
2.06700e-06;0.005040007897728519
2.06725e-06;0.0050692411462029754
2.06750e-06;0.005098474394677482
2.06775e-06;0.005127707643151988
2.06800e-06;0.005156940891626445
2.06825e-06;0.005186174140100951
2.06850e-06;0.005215407388575457
2.06875e-06;0.005244640637049963
2.06900e-06;0.00527387388552442
2.06925e-06;0.005302886618096953
2.06950e-06;0.0053315228501154294
2.06975e-06;0.005360159082133858
2.07000e-06;0.0053887953141523335
2.07025e-06;0.00541743154617081
2.07050e-06;0.005446067778189287
2.07075e-06;0.005474704010207715
2.07100e-06;0.005503340242226192
2.07125e-06;0.005531976474244669
2.07150e-06;0.005560612706263096
2.07175e-06;0.005589248938281573
2.07200e-06;0.00561788517030005
2.07225e-06;0.005646521402318478
2.07250e-06;0.00565638297089662
2.07275e-06;0.005663423322525879
2.07300e-06;0.005670463674155138
2.07325e-06;0.005677504025784384
2.07350e-06;0.005684544377413643
2.07375e-06;0.005691584729042901
2.07400e-06;0.005698625080672148
2.07425e-06;0.005705665432301407
2.07450e-06;0.005712705783930665
2.07475e-06;0.005719746135559924
2.07500e-06;0.00572678648718917
2.07525e-06;0.00573382683881843
2.07550e-06;0.005732615124207171
2.07575e-06;0.005717314142182838
2.07600e-06;0.005702013160158478
2.07625e-06;0.005686712178134119
2.07650e-06;0.005671411196109784
2.07675e-06;0.0056561102140854245
2.07700e-06;0.005640809232061065
2.07725e-06;0.005625508250036705
2.07750e-06;0.005610207268012371
2.07775e-06;0.005594906285988011
2.07800e-06;0.005579605303963652
2.07825e-06;0.005564304321939317
2.07850e-06;0.005541908733118049
2.07875e-06;0.0055184470572797635
2.07900e-06;0.005494985381441477
2.07925e-06;0.005471523705603232
2.07950e-06;0.005448062029764946
2.07975e-06;0.0054246003539266605
2.08000e-06;0.005401138678088415
2.08025e-06;0.005377677002250129
2.08050e-06;0.005354215326411844
2.08075e-06;0.005330753650573597
2.08100e-06;0.005307291974735312
2.08125e-06;0.00528806080996785
2.08150e-06;0.005276052660629043
2.08175e-06;0.005264044511290255
2.08200e-06;0.005252036361951447
2.08225e-06;0.005240028212612639
2.08250e-06;0.005228020063273851
2.08275e-06;0.0052160119139350435
2.08300e-06;0.005204003764596236
2.08325e-06;0.005191995615257428
2.08350e-06;0.005179987465918641
2.08375e-06;0.005167979316579833
2.08400e-06;0.005155971167241025
2.08425e-06;0.0051661299986817686
2.08450e-06;0.00517961980125222
2.08475e-06;0.005193109603822672
2.08500e-06;0.005206599406393101
2.08525e-06;0.005220089208963552
2.08550e-06;0.005233579011534004
2.08575e-06;0.005247068814104455
2.08600e-06;0.005260558616674884
2.08625e-06;0.005274048419245336
2.08650e-06;0.005287538221815788
2.08675e-06;0.005301028024386216
2.08700e-06;0.0053211429147998
2.08725e-06;0.005352569230926981
2.08750e-06;0.0053839955470541085
2.08775e-06;0.00541542186318129
2.08800e-06;0.005446848179308471
2.08825e-06;0.005478274495435652
2.08850e-06;0.00550970081156278
2.08875e-06;0.005541127127689961
2.08900e-06;0.005572553443817142
2.08925e-06;0.00560397975994427
2.08950e-06;0.0056353422131628205
2.08975e-06;0.005666595629254025
2.09000e-06;0.005697849045345228
2.09025e-06;0.0057291024614363785
2.09050e-06;0.005760355877527583
2.09075e-06;0.005791609293618786
2.09100e-06;0.005822862709709937
2.09125e-06;0.005854116125801141
2.09150e-06;0.005885369541892344
2.09175e-06;0.005916622957983495
2.09200e-06;0.005939398717082248
2.09225e-06;0.005947700043604371
2.09250e-06;0.005956001370126494
2.09275e-06;0.005964302696648604
2.09300e-06;0.005972604023170727
2.09325e-06;0.00598090534969285
2.09350e-06;0.005989206676214959
2.09375e-06;0.005997508002737083
2.09400e-06;0.006005809329259206
2.09425e-06;0.00601411065578133
2.09450e-06;0.006022411982303438
2.09475e-06;0.006030713308825562
2.09500e-06;0.006039014635347686
2.09525e-06;0.006047315961869795
2.09550e-06;0.006030795136678276
2.09575e-06;0.0060105443551355464
2.09600e-06;0.005990293573592852
2.09625e-06;0.0059700427920501235
2.09650e-06;0.005949792010507394
2.09675e-06;0.005929541228964666
2.09700e-06;0.005909290447421971
2.09725e-06;0.005889039665879242
2.09750e-06;0.0058687888843365135
2.09775e-06;0.005848538102793819
2.09800e-06;0.00582828732125109
2.09825e-06;0.005808036539708361
2.09850e-06;0.005787785758165632
2.09875e-06;0.005764374541581381
2.09900e-06;0.005735567317118518
2.09925e-06;0.005706760092655654
2.09950e-06;0.005677952868192839
2.09975e-06;0.005649145643729975
2.10000e-06;0.005620338419267111
2.10025e-06;0.005591531194804296
2.10050e-06;0.0055627239703414325
2.10075e-06;0.005533916745878569
2.10100e-06;0.005505109521415705
2.10125e-06;0.005476302296952891
2.10150e-06;0.005447495072490027
2.10175e-06;0.005430714923901599
2.10200e-06;0.00541574205086953
2.10225e-06;0.0054007691778374355
2.10250e-06;0.0053857963048053415
2.10275e-06;0.005370823431773248
2.10300e-06;0.005355850558741179
2.10325e-06;0.005340877685709085
2.10350e-06;0.00532590481267699
2.10375e-06;0.005310931939644921
2.10400e-06;0.0052959590666128275
2.10425e-06;0.005280986193580734
2.10450e-06;0.0052731963496007745
2.10475e-06;0.005277670539163415
2.10500e-06;0.005282144728726057
2.10525e-06;0.0052866189182886976
2.10550e-06;0.0052910931078513305
2.10575e-06;0.005295567297413972
2.10600e-06;0.005300041486976613
2.10625e-06;0.005304515676539247
2.10650e-06;0.005308989866101887
2.10675e-06;0.005313464055664528
2.10700e-06;0.00531793824522717
2.10725e-06;0.005327897666502029
2.10750e-06;0.005342455418893511
2.10775e-06;0.005357013171284994
2.10800e-06;0.005371570923676451
2.10825e-06;0.005386128676067934
2.10850e-06;0.005400686428459416
2.10875e-06;0.005415244180850875
2.10900e-06;0.005429801933242356
2.10925e-06;0.005444359685633839
2.10950e-06;0.0054589174380253215
2.10975e-06;0.00547347519041678
2.11000e-06;0.005487680421101929
2.11025e-06;0.005501747600597109
2.11050e-06;0.005515814780092263
2.11075e-06;0.005529881959587443
2.11100e-06;0.0055439491390826216
2.11125e-06;0.0055580163185778
2.11150e-06;0.0055720834980729555
2.11175e-06;0.005586150677568134
2.11200e-06;0.005600217857063313
2.11225e-06;0.005614285036558468
2.11250e-06;0.005628352216053647
2.11275e-06;0.0056424193955488255
2.11300e-06;0.005651853758974054
2.11325e-06;0.005646204886575464
2.11350e-06;0.005640556014176875
2.11375e-06;0.005634907141778284
2.11400e-06;0.005629258269379704
2.11425e-06;0.0056236093969811145
2.11450e-06;0.005617960524582525
2.11475e-06;0.005612311652183944
2.11500e-06;0.0056066627797853544
2.11525e-06;0.005601013907386765
2.11550e-06;0.005595365034988174
2.11575e-06;0.005589716162589594
2.11600e-06;0.005584067290191005
2.11625e-06;0.005563864105930217
2.11650e-06;0.005538844657147545
2.11675e-06;0.005513825208364831
2.11700e-06;0.005488805759582116
2.11725e-06;0.005463786310799444
2.11750e-06;0.00543876686201673
2.11775e-06;0.005413747413234015
2.11800e-06;0.0053887279644513
2.11825e-06;0.0053637085156686285
2.11850e-06;0.005338689066885914
2.11875e-06;0.005312548596247868
2.11900e-06;0.005283069354096224
2.11925e-06;0.00525359011194453
2.11950e-06;0.005224110869792836
2.11975e-06;0.005194631627641142
2.12000e-06;0.005165152385489497
2.12025e-06;0.005135673143337804
2.12050e-06;0.0051061939011861094
2.12075e-06;0.005076714659034465
2.12100e-06;0.005047235416882771
2.12125e-06;0.005017756174731077
2.12150e-06;0.004997180588582045
2.12175e-06;0.004979551370693417
2.12200e-06;0.004961922152804791
2.12225e-06;0.004944292934916164
2.12250e-06;0.004926663717027567
2.12275e-06;0.00490903449913894
2.12300e-06;0.0048914052812503135
2.12325e-06;0.004873776063361716
2.12350e-06;0.0048561468454730895
2.12375e-06;0.004838517627584462
2.12400e-06;0.004820888409695835
2.12425e-06;0.004803259191807238
2.12450e-06;0.004785629973918612
2.12475e-06;0.004768000756029985
2.12500e-06;0.004750371538141388
2.12525e-06;0.004732742320252761
2.12550e-06;0.004715113102364134
2.12575e-06;0.004699131372582051
2.12600e-06;0.0046880564038353206
2.12625e-06;0.0046769814350885895
2.12650e-06;0.004665906466341858
2.12675e-06;0.004654831497595146
2.12700e-06;0.004643756528848416
2.12725e-06;0.004632681560101685
2.12750e-06;0.004621606591354973
2.12775e-06;0.004610531622608242
2.12800e-06;0.004599456653861512
2.12825e-06;0.004588381685114781
2.12850e-06;0.004577306716368069
2.12875e-06;0.004566231747621338
2.12900e-06;0.004555156778874607
2.12925e-06;0.004544081810127895
2.12950e-06;0.004533006841381164
2.12975e-06;0.004521931872634433
2.13000e-06;0.004510856903887721
2.13025e-06;0.004504704491449808
2.13050e-06;0.004500181034989715
2.13075e-06;0.004495657578529622
2.13100e-06;0.0044911341220695376
2.13125e-06;0.0044866106656094445
2.13150e-06;0.0044820872091493515
2.13175e-06;0.004477563752689267
2.13200e-06;0.004473040296229174
2.13225e-06;0.004468516839769081
2.13250e-06;0.004463993383308989
2.13275e-06;0.004459469926848904
2.13300e-06;0.004454946470388811
2.13325e-06;0.004450423013928719
2.13350e-06;0.0044458995574686334
2.13375e-06;0.00444137610100854
2.13400e-06;0.004436852644548448
2.13425e-06;0.004432329188088363
2.13450e-06;0.00442780573162827
2.13475e-06;0.004423282275168178
2.13500e-06;0.004418758818708085
2.13525e-06;0.004416779189961311
2.13550e-06;0.004422375916185502
2.13575e-06;0.004427972642409692
2.13600e-06;0.0044335693686338735
2.13625e-06;0.004439166094858065
2.13650e-06;0.004444762821082256
2.13675e-06;0.004450359547306447
2.13700e-06;0.004455956273530628
2.13725e-06;0.0044615529997548194
2.13750e-06;0.0044671497259790105
2.13775e-06;0.004472746452203192
2.13800e-06;0.004478343178427383
2.13825e-06;0.004483939904651574
2.13850e-06;0.004489536630875756
2.13875e-06;0.004495133357099946
2.13900e-06;0.004500730083324137
2.13925e-06;0.004506326809548328
2.13950e-06;0.00451192353577251
2.13975e-06;0.004517520261996701
2.14000e-06;0.004523116988220892
2.14025e-06;0.004528713714445074
2.14050e-06;0.0045348612296350725
2.14075e-06;0.004541191010079575
2.14100e-06;0.004547520790524078
2.14125e-06;0.00455385057096857
2.14150e-06;0.004560180351413074
2.14175e-06;0.004566510131857576
2.14200e-06;0.0045728399123020685
2.14225e-06;0.004579169692746571
2.14250e-06;0.004585499473191074
2.14275e-06;0.004591829253635566
2.14300e-06;0.004603437640468303
2.14325e-06;0.004616792806188289
2.14350e-06;0.004630147971908275
2.14375e-06;0.004643503137628238
2.14400e-06;0.004656858303348224
2.14425e-06;0.00467021346906821
2.14450e-06;0.004683568634788173
2.14475e-06;0.004696923800508159
2.14500e-06;0.004710278966228145
2.14525e-06;0.004723634131948131
2.14550e-06;0.0047477945181967325
2.14575e-06;0.0047755305321212655
2.14600e-06;0.004803266546045799
2.14625e-06;0.004831002559970286
2.14650e-06;0.00485873857389482
2.14675e-06;0.004886474587819353
2.14700e-06;0.00491421060174384
2.14725e-06;0.004941946615668374
2.14750e-06;0.004969682629592908
2.14775e-06;0.004997418643517442
2.14800e-06;0.005025154657441928
2.14825e-06;0.005057058475167713
2.14850e-06;0.005090341488679501
2.14875e-06;0.005123624502191232
2.14900e-06;0.00515690751570302
2.14925e-06;0.005190190529214808
2.14950e-06;0.005223473542726596
2.14975e-06;0.005256756556238327
2.15000e-06;0.005290039569750115
2.15025e-06;0.0053233225832619024
2.15050e-06;0.0053566055967736335
2.15075e-06;0.005389888610285422
