Time(s);Current(A)
1.10000e-05;0.00211985180185311
1.10003e-05;0.002149654240655925
1.10005e-05;0.002179456679458942
1.10008e-05;0.002209259118261959
1.10010e-05;0.0022390615570647746
1.10013e-05;0.002264443471311457
1.10015e-05;0.0022877340153612713
1.10018e-05;0.002311024559410928
1.10020e-05;0.002334315103460742
1.10023e-05;0.0023576056475105565
1.10025e-05;0.002380896191560213
1.10028e-05;0.0024041867356100273
1.10030e-05;0.0024274772796598417
1.10033e-05;0.002437593533698271
1.10035e-05;0.0024414769714396463
1.10038e-05;0.0024453604091810217
1.10040e-05;0.002449243846922371
1.10043e-05;0.0024531272846637464
1.10045e-05;0.0024570107224051218
1.10047e-05;0.002460894160146471
1.10050e-05;0.0024647775978878465
1.10053e-05;0.002468661035629222
1.10055e-05;0.002472544473370571
1.10058e-05;0.0024723130269821716
1.10060e-05;0.0024531875196359253
1.10062e-05;0.002434062012289809
1.10065e-05;0.002414936504943563
1.10068e-05;0.0023958109975973168
1.10070e-05;0.0023766854902510706
1.10073e-05;0.0023575599829049544
1.10075e-05;0.002338434475558708
1.10078e-05;0.002319308968212462
1.10080e-05;0.002300183460866346
1.10083e-05;0.0022810579535200996
1.10085e-05;0.002254119365904499
1.10088e-05;0.002223484374612264
1.10090e-05;0.0021928493833198214
1.10093e-05;0.002162214392027379
1.10095e-05;0.002131579400735144
1.10098e-05;0.002100944409442701
1.10100e-05;0.0020703094181502586
1.10103e-05;0.0020396879405086927
1.10105e-05;0.0020090728562362826
1.10108e-05;0.0019784577719638725
1.10110e-05;0.0019478426876916699
1.10113e-05;0.0019172276034192595
1.10115e-05;0.0018866125191468494
1.10118e-05;0.0018559974348746468
1.10120e-05;0.0018290666436798606
1.10123e-05;0.0018038789082340631
1.10125e-05;0.0017786911727884363
1.10128e-05;0.0017583078957777974
1.10130e-05;0.0017401976298224685
1.10132e-05;0.0017220873638672622
1.10135e-05;0.0017109744425200116
1.10138e-05;0.0017031719966128396
1.10140e-05;0.0017012631224548318
1.10143e-05;0.0017021425237959155
1.10145e-05;0.001708715676618823
1.10147e-05;0.0017179825690668592
1.10150e-05;0.00173336537628259
1.10153e-05;0.0017516416504869063
1.10155e-05;0.001776605956850771
1.10158e-05;0.0018047344015333872
1.10160e-05;0.0018403553225552986
1.10163e-05;0.0018795209680826416
1.10165e-05;0.0019186866136097192
1.10168e-05;0.0019657037692027766
1.10170e-05;0.002016435509784269
1.10173e-05;0.002067167250365418
1.10175e-05;0.0021250727374296
1.10178e-05;0.002186372156460147
1.10180e-05;0.002247671575490279
1.10183e-05;0.002315751686068505
1.10185e-05;0.0023870397725424468
1.10188e-05;0.0024583278590159055
1.10190e-05;0.0025296159454898473
1.10193e-05;0.002600904031963789
1.10195e-05;0.0026721921184372477
1.10198e-05;0.002745578719439802
1.10200e-05;0.002819958137174643
1.10203e-05;0.0028943375549089806
1.10205e-05;0.002968716972643822
1.10208e-05;0.0030430963903786638
1.10210e-05;0.003117475808113001
1.10213e-05;0.003178810543640227
1.10215e-05;0.003233973780906507
1.10217e-05;0.0032891370181724125
1.10220e-05;0.0033443002554386925
1.10223e-05;0.0033994634927049724
1.10225e-05;0.0034546267299708786
1.10228e-05;0.0035097899672371586
1.10230e-05;0.003564953204503438
1.10232e-05;0.0036201164417693442
1.10235e-05;0.003675279679035624
1.10238e-05;0.0037045146619991776
1.10240e-05;0.0037214828703643317
1.10243e-05;0.0037384510787293705
1.10245e-05;0.0037554192870945242
1.10248e-05;0.003772387495459678
1.10250e-05;0.003789355703824717
1.10253e-05;0.003806323912189871
1.10255e-05;0.0038232921205550246
1.10258e-05;0.0038402603289200633
1.10260e-05;0.0038572285372852175
1.10263e-05;0.003853664714730389
1.10265e-05;0.0038403870953107396
1.10268e-05;0.0038271094758909998
1.10270e-05;0.0038138318564712604
1.10273e-05;0.003800554237051611
1.10275e-05;0.003787276617631871
1.10278e-05;0.0037739989982121316
1.10280e-05;0.003760721378792482
1.10283e-05;0.0037446475536292425
1.10285e-05;0.003715734562124761
1.10288e-05;0.0036868215706204748
1.10290e-05;0.003657908579115993
1.10293e-05;0.003628995587611511
1.10295e-05;0.0036000825961072253
1.10298e-05;0.003571169604602743
1.10300e-05;0.0035422566130982615
1.10302e-05;0.0035133436215939754
1.10305e-05;0.0034848443142218933
1.10308e-05;0.003456540722687398
1.10310e-05;0.0034282371311530942
1.10313e-05;0.003399933539618599
1.10315e-05;0.0033716299480841035
1.10317e-05;0.0033433263565498
1.10320e-05;0.0033150227650153045
1.10323e-05;0.003286719173480809
1.10325e-05;0.003258415581946314
1.10328e-05;0.00323011199041201
1.10330e-05;0.003209063000718426
1.10333e-05;0.003191446196029257
1.10335e-05;0.0031738293913402076
1.10338e-05;0.0031562125866510388
1.10340e-05;0.0031385957819618695
1.10343e-05;0.0031209789772728203
1.10345e-05;0.003103362172583651
1.10348e-05;0.0030857453678944822
1.10350e-05;0.0030681285632054326
1.10353e-05;0.003050511758516264
1.10355e-05;0.0030370934679151466
1.10358e-05;0.0030256615133544824
1.10360e-05;0.003014229558793741
1.10363e-05;0.0030027976042329998
1.10365e-05;0.002991365649672336
1.10368e-05;0.0029799336951115947
1.10370e-05;0.0029685017405508534
1.10373e-05;0.0029570697859901897
1.10375e-05;0.0029456378314294484
1.10378e-05;0.002934205876868707
1.10380e-05;0.0029227739223080433
1.10383e-05;0.002911341967747302
1.10385e-05;0.0028999100131865607
1.10387e-05;0.002888478058625897
1.10390e-05;0.0028770461040651557
1.10393e-05;0.0028663811089724733
1.10395e-05;0.0028592377146119024
1.10398e-05;0.0028520943202512833
1.10400e-05;0.002844950925890664
1.10402e-05;0.0028378075315300933
1.10405e-05;0.002830664137169474
1.10408e-05;0.0028235207428088547
1.10410e-05;0.0028163773484482357
1.10413e-05;0.0028092339540876647
1.10415e-05;0.0028020905597270457
1.10418e-05;0.002794947165366426
1.10420e-05;0.0027878037710058557
1.10423e-05;0.002780660376645236
1.10425e-05;0.002773516982284617
1.10428e-05;0.002766373587924046
1.10430e-05;0.002759230193563427
1.10433e-05;0.002746096547452292
1.10435e-05;0.0027301288860927422
1.10438e-05;0.0027141612247330842
1.10440e-05;0.0026981935633734267
1.10443e-05;0.0026822259020138767
1.10445e-05;0.002666258240654219
1.10448e-05;0.002650290579294561
1.10450e-05;0.0026343229179350116
1.10453e-05;0.0026183552565753536
1.10455e-05;0.0026023875952156956
1.10458e-05;0.002586419933856146
1.10460e-05;0.0025704522724964885
1.10463e-05;0.002541862426766961
1.10465e-05;0.0025073009684130005
1.10468e-05;0.0024727395100588054
1.10470e-05;0.0024381780517046103
1.10472e-05;0.0024036165933506498
1.10475e-05;0.0023690551349964547
1.10478e-05;0.0023344936766422596
1.10480e-05;0.002299932218288299
1.10483e-05;0.002265370759934104
1.10485e-05;0.002230809301579909
1.10487e-05;0.0021962478432259484
1.10490e-05;0.0021616863848717533
1.10493e-05;0.002122836075964357
1.10495e-05;0.0020819566924244327
1.10498e-05;0.0020410773088847855
1.10500e-05;0.002000197925344861
1.10503e-05;0.001959318541804937
1.10505e-05;0.0019184391582652898
1.10508e-05;0.0018784671861921448
1.10510e-05;0.0018426617196789237
1.10513e-05;0.0018068562531659454
1.10515e-05;0.0017710507866527242
1.10518e-05;0.001735245320139503
1.10520e-05;0.0016994398536265246
1.10523e-05;0.0016636343871133036
1.10525e-05;0.0016351587628148766
1.10528e-05;0.001610150920085557
1.10530e-05;0.001585143077356068
1.10533e-05;0.001560135234626579
1.10535e-05;0.0015351273918972595
1.10538e-05;0.0015101195491677706
1.10540e-05;0.0014851117064382815
1.10543e-05;0.0014609707170112807
1.10545e-05;0.0014408100047095496
1.10548e-05;0.0014206492924078184
1.10550e-05;0.001400488580106224
1.10553e-05;0.001380327867804493
1.10555e-05;0.0013601671555027617
1.10557e-05;0.0013400064432011673
1.10560e-05;0.001319845730899436
1.10563e-05;0.0013010582612657474
1.10565e-05;0.001282920478961746
1.10568e-05;0.0012647826966576217
1.10570e-05;0.0012466449143534973
1.10572e-05;0.0012285071320494957
1.10575e-05;0.0012103693497453713
1.10578e-05;0.001192231567441247
1.10580e-05;0.0011740937851371226
1.10583e-05;0.001155956002833121
1.10585e-05;0.0011378182205289966
1.10588e-05;0.0011196804382248723
1.10590e-05;0.001103314258882754
1.10593e-05;0.0010877862329305014
1.10595e-05;0.001072258206978249
1.10598e-05;0.0010567301810261017
1.10600e-05;0.0010412021550738491
1.10603e-05;0.0010256741291215967
1.10605e-05;0.0010101461031694495
1.10608e-05;0.0009946180772171971
1.10610e-05;0.0009790900512649445
1.10613e-05;0.0009635620253127973
1.10615e-05;0.0009480339993605448
1.10618e-05;0.0009347281307748567
1.10620e-05;0.0009224735749100593
1.10623e-05;0.0009102190190451787
1.10625e-05;0.0008993486311186957
1.10628e-05;0.0008891330993169254
1.10630e-05;0.0008820500475438219
1.10633e-05;0.000876448986268574
1.10635e-05;0.0008766257614094535
1.10638e-05;0.0008795360571436453
1.10640e-05;0.000888118450904598
1.10642e-05;0.0008993843399475482
1.10645e-05;0.0009158935847175777
1.10648e-05;0.000934883484844631
1.10650e-05;0.0009580279632507355
1.10653e-05;0.0009865262430205426
1.10655e-05;0.0010218102815784816
1.10657e-05;0.0010595463081484269
1.10660e-05;0.0011034640001105374
1.10663e-05;0.0011503062659846848
1.10665e-05;0.0012024328039169248
1.10668e-05;0.0012570593549076428
1.10670e-05;0.0013167205705555264
1.10673e-05;0.001378763708869565
1.10675e-05;0.0014469033344279671
1.10678e-05;0.0015179272357315765
1.10680e-05;0.0015889511370351856
1.10683e-05;0.0016664114059907107
1.10685e-05;0.0017469167496527776
1.10688e-05;0.0018274220933148446
1.10690e-05;0.001907927436976366
1.10693e-05;0.001988432780638433
1.10695e-05;0.0020695403615529854
1.10698e-05;0.0021534131983129163
1.10700e-05;0.0022372860350734153
1.10703e-05;0.0023211588718339148
1.10705e-05;0.0024050317085938457
1.10708e-05;0.0024889045453543447
1.10710e-05;0.0025647244355976977
1.10713e-05;0.0026367344403468744
1.10715e-05;0.0027087444450965394
1.10718e-05;0.0027807544498462044
1.10720e-05;0.002852764454595381
1.10723e-05;0.002924774459345046
1.10725e-05;0.00299311429380496
1.10727e-05;0.0030446020325010396
1.10730e-05;0.003096089771197468
1.10733e-05;0.0031475775098938966
1.10735e-05;0.003199065248589976
1.10738e-05;0.0032505529872864044
1.10740e-05;0.003302040725982833
1.10742e-05;0.0033444651799508394
1.10745e-05;0.0033826017528383397
1.10748e-05;0.0034207383257258395
1.10750e-05;0.0034588748986130813
1.10753e-05;0.0034970114715005816
1.10755e-05;0.0035351480443880814
1.10758e-05;0.0035732846172755817
1.10760e-05;0.0036114211901628235
1.10763e-05;0.0036495577630503238
1.10765e-05;0.0036876943359378236
1.10768e-05;0.0037258309088250654
1.10770e-05;0.0037639674817125657
1.10773e-05;0.0038021040546000655
1.10775e-05;0.0038402406274873073
1.10778e-05;0.0038783772003748076
1.10780e-05;0.003910809758785966
1.10783e-05;0.003940543722096483
1.10785e-05;0.003970277685407202
1.10788e-05;0.00400001164871792
1.10790e-05;0.004029745612028437
1.10793e-05;0.004059479575339156
1.10795e-05;0.004089213538649874
1.10798e-05;0.004118947501960391
1.10800e-05;0.00414868146527111
1.10803e-05;0.0041784154285818284
1.10805e-05;0.004208149391892345
1.10808e-05;0.004237883355203064
1.10810e-05;0.004267617318513783
1.10812e-05;0.0042973512818243
1.10815e-05;0.004327085245135018
1.10818e-05;0.004345614432175408
1.10820e-05;0.004358842588779206
1.10823e-05;0.004372070745383093
1.10825e-05;0.004385298901986982
1.10827e-05;0.004398527058590779
1.10830e-05;0.0044117552151946675
1.10833e-05;0.004424983371798555
1.10835e-05;0.004438211528402353
1.10838e-05;0.004451439685006241
1.10840e-05;0.004464667841610128
1.10843e-05;0.004477895998214016
1.10845e-05;0.004491124154817814
1.10848e-05;0.004484924844885406
1.10850e-05;0.004469534312483687
1.10853e-05;0.004454143780082073
1.10855e-05;0.0044387532476803555
1.10858e-05;0.004423362715278637
1.10860e-05;0.004407972182877023
1.10863e-05;0.004392581650475305
1.10865e-05;0.004377191118073586
1.10868e-05;0.004361800585671973
1.10870e-05;0.004346410053270255
1.10873e-05;0.004331019520868537
1.10875e-05;0.004315628988466922
1.10878e-05;0.00428734909391986
1.10880e-05;0.004252971183723079
1.10883e-05;0.004218593273526531
1.10885e-05;0.00418421536332975
1.10888e-05;0.004149837453132969
1.10890e-05;0.00411545954293642
1.10893e-05;0.004081081632739639
1.10895e-05;0.004046703722542858
1.10897e-05;0.00401232581234631
1.10900e-05;0.003977125808563331
1.10903e-05;0.0039415368685786914
1.10905e-05;0.003905947928594293
1.10908e-05;0.0038703589886096533
1.10910e-05;0.003834770048625014
1.10912e-05;0.0037991811086406156
1.10915e-05;0.003763592168655976
1.10918e-05;0.0037280032286713368
1.10920e-05;0.0036924142886869383
1.10923e-05;0.0036705255493567654
1.10925e-05;0.0036551184370511684
1.10928e-05;0.0036397113247455715
1.10930e-05;0.0036243042124400786
1.10933e-05;0.0036088971001344812
1.10935e-05;0.0035934899878288843
1.10938e-05;0.0035780828755233914
1.10940e-05;0.0035626757632177945
1.10943e-05;0.003547268650912197
1.10945e-05;0.0035318615386067047
1.10948e-05;0.0035164544263011073
1.10950e-05;0.003507093502746645
1.10953e-05;0.0035254944931912228
1.10955e-05;0.003543895483635925
1.10958e-05;0.003562296474080628
1.10960e-05;0.0035806974645252055
1.10963e-05;0.0035990984549699083
1.10965e-05;0.0036174994454146107
1.10968e-05;0.0036359004358591887
1.10970e-05;0.0036543014263038915
1.10973e-05;0.003672702416748594
1.10975e-05;0.003691103407193172
1.10978e-05;0.0037095043976378746
1.10980e-05;0.0037416199901463437
1.10983e-05;0.003780224023051745
1.10985e-05;0.003818828055957408
1.10988e-05;0.0038574320888630706
1.10990e-05;0.0038960361217684715
1.10993e-05;0.003934640154674134
1.10995e-05;0.003973244187579797
1.10997e-05;0.004011848220485198
1.11000e-05;0.004050573790493415
1.11003e-05;0.004089857414960142
1.11005e-05;0.004129141039426604
1.11008e-05;0.004168424663893331
1.11010e-05;0.004207708288360059
1.11013e-05;0.0042469919128267876
1.11015e-05;0.004286275537293249
1.11018e-05;0.004325559161759977
1.11020e-05;0.004364842786226704
1.11023e-05;0.004388632962954838
1.11025e-05;0.004405093119333503
1.11028e-05;0.004421553275712168
1.11030e-05;0.004438013432090722
1.11033e-05;0.004454473588469387
1.11035e-05;0.004470933744848053
1.11038e-05;0.0044873939012266065
1.11040e-05;0.004503854057605272
1.11043e-05;0.0045203142139839374
1.11045e-05;0.004536774370362491
1.11048e-05;0.004553234526741156
1.11050e-05;0.004569694683119821
1.11053e-05;0.004561680142986679
1.11055e-05;0.004542086513000609
1.11058e-05;0.0045224928830145394
1.11060e-05;0.004502899253028602
1.11063e-05;0.004483305623042532
1.11065e-05;0.004463711993056462
1.11068e-05;0.004444118363070525
1.11070e-05;0.004424524733084455
1.11073e-05;0.004404931103098386
1.11075e-05;0.004385337473112448
1.11078e-05;0.004365743843126379
1.11080e-05;0.004346150213140308
1.11082e-05;0.004315125225381653
1.11085e-05;0.004278692010446789
1.11088e-05;0.004242258795511925
1.11090e-05;0.004205825580577307
1.11093e-05;0.00417023579297074
1.11095e-05;0.004134766800531443
1.11098e-05;0.004099297808092145
1.11100e-05;0.004063543894524849
1.11103e-05;0.004024039591999499
1.11105e-05;0.003984535289474148
1.11108e-05;0.0039450309869490646
1.11110e-05;0.0039055266844237133
1.11113e-05;0.003866022381898362
1.11115e-05;0.003826518079373279
1.11118e-05;0.0037870137768479277
1.11120e-05;0.0037475094743225764
1.11123e-05;0.0037080051717974932
1.11125e-05;0.0036733594340567534
1.11128e-05;0.0036523343055268366
1.11130e-05;0.003631309176997063
1.11133e-05;0.0036102840484671466
1.11135e-05;0.0035892589199372302
1.11138e-05;0.003568233791407456
1.11140e-05;0.00354720866287754
1.11143e-05;0.0035261835343476234
1.11145e-05;0.0035051584058178498
1.11148e-05;0.0034841332772879334
1.11150e-05;0.0034724293943258827
1.11153e-05;0.003471879935173285
1.11155e-05;0.0034713304760206833
1.11158e-05;0.0034707810168680816
1.11160e-05;0.0034702315577154834
1.11163e-05;0.003469682098562882
1.11165e-05;0.00346913263941028
1.11167e-05;0.0034685831802576824
1.11170e-05;0.0034680337211050807
1.11173e-05;0.003467484261952479
1.11175e-05;0.003466934802799881
1.11178e-05;0.0034722319687620212
1.11180e-05;0.0034845255960783378
1.11183e-05;0.0034968192233946543
1.11185e-05;0.0035091128507108876
1.11188e-05;0.0035214064780272046
1.11190e-05;0.003533700105343521
1.11193e-05;0.0035459937326597544
1.11195e-05;0.003558287359976071
1.11198e-05;0.003570580987292388
1.11200e-05;0.003582874614608621
1.11203e-05;0.0035951682419249377
1.11205e-05;0.0036076390321492235
1.11208e-05;0.0036203218273189617
1.11210e-05;0.003633004622488786
1.11213e-05;0.0036456874176586094
1.11215e-05;0.0036583702128283476
1.11218e-05;0.0036710530079981716
1.11220e-05;0.0036837358031679957
1.11223e-05;0.0036964185983377335
1.11225e-05;0.0037091013935075575
1.11228e-05;0.0037217841886773816
1.11230e-05;0.0037344669838471197
1.11233e-05;0.0037342342271135683
1.11235e-05;0.0037333962141911895
1.11238e-05;0.0037325582012688163
1.11240e-05;0.0037317201883464374
1.11243e-05;0.0037308821754240586
1.11245e-05;0.0037300441625016854
1.11248e-05;0.003729206149579306
1.11250e-05;0.0037283681366569272
1.11252e-05;0.003727530123734554
1.11255e-05;0.003726692110812175
1.11258e-05;0.0037177777651071584
1.11260e-05;0.003699198741217087
1.11263e-05;0.0036806197173268897
1.11265e-05;0.0036620406934366923
1.11268e-05;0.0036434616695464953
1.11270e-05;0.0036248826456564236
1.11273e-05;0.0036063036217662266
1.11275e-05;0.003587724597876029
1.11278e-05;0.003569145573985958
1.11280e-05;0.0035505665500957604
1.11283e-05;0.003527691323852338
1.11285e-05;0.0034996749754831087
1.11288e-05;0.003471658627113689
1.11290e-05;0.003443642278744269
1.11293e-05;0.00341562593037504
1.11295e-05;0.00338760958200562
1.11298e-05;0.0033595932336362004
1.11300e-05;0.003331576885266971
1.11303e-05;0.0033035605368975512
1.11305e-05;0.0032755441885281315
1.11308e-05;0.0032485107877450394
1.11310e-05;0.0032226536475679518
1.11313e-05;0.003196796507390864
1.11315e-05;0.0031709393672139517
1.11318e-05;0.003145082227036864
1.11320e-05;0.0031192250868597765
1.11323e-05;0.003093367946682864
1.11325e-05;0.0030736260253956863
1.11328e-05;0.0030612019826811807
1.11330e-05;0.0030487779399667593
1.11333e-05;0.0030363538972522537
1.11335e-05;0.003023929854537748
1.11337e-05;0.0030115058118233267
1.11340e-05;0.002999081769108821
1.11343e-05;0.002999277598908473
1.11345e-05;0.003014575209417149
1.11348e-05;0.003029872819925928
1.11350e-05;0.003045170430434707
1.11353e-05;0.003060468040943486
1.11355e-05;0.003075765651452161
1.11358e-05;0.0030910632619609406
1.11360e-05;0.0031063608724697196
1.11363e-05;0.003121658482978395
1.11365e-05;0.003136956093487174
1.11368e-05;0.003179296015164239
1.11370e-05;0.0032229032095327514
1.11373e-05;0.003266510403901559
1.11375e-05;0.003310117598270367
1.11378e-05;0.0033537247926388788
1.11380e-05;0.0033973319870076865
1.11383e-05;0.003440939181376494
1.11385e-05;0.003484546375745006
1.11388e-05;0.003528153570113814
1.11390e-05;0.003576876197848474
1.11393e-05;0.003631720294151088
1.11395e-05;0.0036865643904540747
1.11398e-05;0.0037414084867570608
1.11400e-05;0.003796252583059675
1.11403e-05;0.003851096679362661
1.11405e-05;0.0039059407756656473
1.11408e-05;0.003960784871968262
1.11410e-05;0.00400840497760093
1.11413e-05;0.004055686548333524
1.11415e-05;0.004102968119065797
1.11418e-05;0.00415024968979839
1.11420e-05;0.004197531260530984
1.11422e-05;0.004244812831263258
1.11425e-05;0.0042920944019958504
1.11428e-05;0.004328875283824526
1.11430e-05;0.004353090341316631
1.11433e-05;0.004377305398808901
1.11435e-05;0.0044015204563011695
1.11438e-05;0.0044257355137934384
1.11440e-05;0.004449950571285544
1.11443e-05;0.004474165628777813
1.11445e-05;0.004498380686270082
1.11448e-05;0.004522595743762188
1.11450e-05;0.004546810801254457
1.11453e-05;0.004571025858746726
1.11455e-05;0.004595240916238832
1.11458e-05;0.004619455973731101
1.11460e-05;0.004625427630199502
1.11463e-05;0.00463054435367731
1.11465e-05;0.004635661077155153
1.11468e-05;0.004640777800632996
1.11470e-05;0.004645894524110805
1.11473e-05;0.004651011247588648
1.11475e-05;0.0046561279710664915
1.11478e-05;0.0046612446945443
1.11480e-05;0.004666361418022143
1.11483e-05;0.004671478141499986
1.11485e-05;0.004676594864977795
1.11488e-05;0.004681711588455638
