Time(s);Current(A)
3.75000e-06;0.0038467420272610777
3.75025e-06;0.0038285597304125265
3.75050e-06;0.00377581051784736
3.75075e-06;0.0037230613052822827
3.75100e-06;0.0036703120927171163
3.75125e-06;0.0036175628801519495
3.75150e-06;0.0035648136675867827
3.75175e-06;0.0035120644550217057
3.75200e-06;0.003458652353702497
3.75225e-06;0.003390190764719472
3.75250e-06;0.003321729175736563
3.75275e-06;0.0032532675867535383
3.75300e-06;0.0031848059977705135
3.75325e-06;0.0031163444087874887
3.75350e-06;0.0030478828198045797
3.75375e-06;0.0029795407752922186
3.75400e-06;0.0029139127352424614
3.75425e-06;0.002848284695192815
3.75450e-06;0.002782656655143058
3.75475e-06;0.0027170286150933008
3.75500e-06;0.0026514005750436546
3.75525e-06;0.0025857725349938973
3.75550e-06;0.002520942337463626
3.75575e-06;0.002474225467521847
3.75600e-06;0.002427508597580146
3.75625e-06;0.002380791727638367
3.75650e-06;0.002334074857696587
3.75675e-06;0.002287357987754887
3.75700e-06;0.002240641117813107
3.75725e-06;0.002194558770371497
3.75750e-06;0.002162881914775881
3.75775e-06;0.0021312050591802117
3.75800e-06;0.002099528203584542
3.75825e-06;0.002067851347988872
3.75850e-06;0.0020361744923932563
3.75875e-06;0.0020044976367975865
3.75900e-06;0.0019728207812019167
3.75925e-06;0.0019411439256063008
3.75950e-06;0.0019146800543490918
3.75975e-06;0.0018926178990953427
3.76000e-06;0.0018705557438415937
3.76025e-06;0.0018484935885878819
3.76050e-06;0.0018264314333341328
3.76075e-06;0.0018043692780803835
3.76100e-06;0.001782307122826672
3.76125e-06;0.0017602449675729226
3.76150e-06;0.0017384246482003987
3.76175e-06;0.0017220947012179146
3.76200e-06;0.001705764754235403
3.76225e-06;0.0016894348072528916
3.76250e-06;0.00167310486027038
3.76275e-06;0.001656774913287896
3.76300e-06;0.0016404449663053845
3.76325e-06;0.001624115019322873
3.76350e-06;0.001607785072340389
3.76375e-06;0.001593956216052888
3.76400e-06;0.0015822392193498114
3.76425e-06;0.0015705222226467348
3.76450e-06;0.001558805225943678
3.76475e-06;0.0015470882292406014
3.76500e-06;0.0015353712325375248
3.76525e-06;0.001523654235834468
3.76550e-06;0.0015119372391313914
3.76575e-06;0.0015003813977815324
3.76600e-06;0.0014924842480100893
3.76625e-06;0.0014845870982386328
3.76650e-06;0.0014770292160676444
3.76675e-06;0.0014771736874820318
3.76700e-06;0.0014777285859078253
3.76725e-06;0.0014876013618983495
3.76750e-06;0.0014978516631579566
3.76775e-06;0.0015166728774836666
3.76800e-06;0.0015358541470833413
3.76825e-06;0.001563209710444539
3.76850e-06;0.00159101890921815
3.76875e-06;0.0016291269409491843
3.76900e-06;0.0016677048379490087
3.76925e-06;0.0017169500324809859
3.76950e-06;0.0017665997553837935
3.76975e-06;0.0018254334396903852
3.77000e-06;0.0018847062780259708
3.77025e-06;0.0019539491801259397
3.77050e-06;0.002023192082226026
3.77075e-06;0.0020929569002264845
3.77100e-06;0.002174570715305617
3.77125e-06;0.0022561845303846117
3.77150e-06;0.002338274409789355
3.77175e-06;0.002431172323208065
3.77200e-06;0.002524070236626618
3.77225e-06;0.002616968150045328
3.77250e-06;0.0027098660634640383
3.77275e-06;0.0028027639768827485
3.77300e-06;0.002895784938266355
3.77325e-06;0.0029915994435479026
3.77350e-06;0.0030874139488294506
3.77375e-06;0.003183228454110836
3.77400e-06;0.0032790429593923835
3.77425e-06;0.003374857464673931
3.77450e-06;0.003469744944769922
3.77475e-06;0.0035435862779522437
3.77500e-06;0.003617427611134565
3.77525e-06;0.003691268944316887
3.77550e-06;0.0037651102774990835
3.77575e-06;0.003838951610681405
3.77600e-06;0.003912792943863727
3.77625e-06;0.003986634277045924
3.77650e-06;0.004060475610228245
3.77675e-06;0.004132530297654301
3.77700e-06;0.0041640229705149235
3.77725e-06;0.004195515643375492
3.77750e-06;0.0042270083162361145
3.77775e-06;0.004258500989096737
3.77800e-06;0.0042899936619573064
3.77825e-06;0.004321486334817929
3.77850e-06;0.004352979007678551
3.77875e-06;0.00438447168053912
3.77900e-06;0.00441441970524919
3.77925e-06;0.00440929975939524
3.77950e-06;0.004404179813541289
3.77975e-06;0.004399059867687347
3.78000e-06;0.004393939921833396
3.78025e-06;0.004388819975979446
3.78050e-06;0.0043837000301255044
3.78075e-06;0.004378580084271553
3.78100e-06;0.004373460138417603
3.78125e-06;0.0043673761771344626
3.78150e-06;0.004339406283652503
3.78175e-06;0.004311436390170496
3.78200e-06;0.0042834664966884895
3.78225e-06;0.00425549660320653
3.78250e-06;0.004227526709724523
3.78275e-06;0.004199556816242516
3.78300e-06;0.004171586922760557
3.78325e-06;0.00414361702927855
3.78350e-06;0.0041154679851247294
3.78375e-06;0.004083251703727461
3.78400e-06;0.004051035422330248
3.78425e-06;0.0040188191409329796
3.78450e-06;0.003986602859535711
3.78475e-06;0.003954386578138498
3.78500e-06;0.00392217029674123
3.78525e-06;0.003889954015343961
3.78550e-06;0.0038580907830500087
3.78575e-06;0.0038342427842316664
3.78600e-06;0.003810394785413284
3.78625e-06;0.003786546786594901
3.78650e-06;0.003762698787776559
3.78675e-06;0.0037388507889581763
3.78700e-06;0.0037150027901397937
3.78725e-06;0.003691154791321452
3.78750e-06;0.0036674250002496967
3.78775e-06;0.003646378866151041
3.78800e-06;0.003625332732052385
3.78825e-06;0.0036042865979537654
3.78850e-06;0.00358324046385511
3.78875e-06;0.003562194329756454
3.78900e-06;0.0035416854086238445
3.78925e-06;0.003523044627019973
3.78950e-06;0.003504403845416102
3.78975e-06;0.00348576306381223
3.79000e-06;0.0034671222822083903
3.79025e-06;0.003448481500604519
3.79050e-06;0.0034281543253014005
3.79075e-06;0.0034053443825128515
3.79100e-06;0.003382534439724264
3.79125e-06;0.0033597244969356763
3.79150e-06;0.003336914554147127
3.79175e-06;0.0033141046113585393
3.79200e-06;0.0032912946685699517
3.79225e-06;0.0032684847257813637
3.79250e-06;0.0032456747829928147
3.79275e-06;0.003222864840204227
3.79300e-06;0.0032000548974156395
3.79325e-06;0.00317724495462709
3.79350e-06;0.003157900730430629
3.79375e-06;0.0031390000840081787
3.79400e-06;0.003120099437585728
3.79425e-06;0.0031011987911633092
3.79450e-06;0.003082298144740859
3.79475e-06;0.003063397498318408
3.79500e-06;0.0030444968518959898
3.79525e-06;0.003025596205473539
3.79550e-06;0.0030066955590510886
3.79575e-06;0.00298779491262867
3.79600e-06;0.002968894266206219
3.79625e-06;0.0029506817903829944
3.79650e-06;0.002933648266370003
3.79675e-06;0.0029166147423570405
3.79700e-06;0.002899581218344049
3.79725e-06;0.002882547694331058
3.79750e-06;0.002865514170318095
3.79775e-06;0.002848480646305104
3.79800e-06;0.0028314471222921126
3.79825e-06;0.002814413598279121
3.79850e-06;0.0027973800742661587
3.79875e-06;0.002780346550253167
3.79900e-06;0.002763313026240176
3.79925e-06;0.0027462795022272133
3.79950e-06;0.0027292459782142222
3.79975e-06;0.0027089775884525584
3.80000e-06;0.0026831673303887153
3.80025e-06;0.0026573570723248284
3.80050e-06;0.002631546814260942
3.80075e-06;0.002605736556197055
3.80100e-06;0.002579926298133212
3.80125e-06;0.002554116040069325
3.80150e-06;0.002528305782005438
3.80175e-06;0.002502495523941595
3.80200e-06;0.002476685265877708
3.80225e-06;0.002450875007813821
3.80250e-06;0.0024250647497499342
3.80275e-06;0.002399254491686091
3.80300e-06;0.0023734442336222046
3.80325e-06;0.0023475126110825265
3.80350e-06;0.002321373070813479
3.80375e-06;0.0022952335305443873
3.80400e-06;0.0022690939902752956
3.80425e-06;0.002242954450006248
3.80450e-06;0.0022168149097371564
3.80475e-06;0.0021906753694680647
3.80500e-06;0.002164535829198973
3.80525e-06;0.0021383962889299254
3.80550e-06;0.0021207518042166036
3.80575e-06;0.0021043927397077153
3.80600e-06;0.0020880336751988543
3.80625e-06;0.002071674610689966
3.80650e-06;0.002055315546181077
3.80675e-06;0.002038956481672189
3.80700e-06;0.002022597417163328
3.80725e-06;0.0020062383526544395
3.80750e-06;0.00199616604270101
3.80775e-06;0.00199686399912149
3.80800e-06;0.0019975619555419716
3.80825e-06;0.001998259911962453
3.80850e-06;0.0019989578683829333
3.80875e-06;0.0019996558248034147
3.80900e-06;0.002000353781223896
3.80925e-06;0.0020010517376443777
3.80950e-06;0.0020017496940648583
3.80975e-06;0.0020024476504853393
3.81000e-06;0.0020089059507411265
3.81025e-06;0.002025232687399916
3.81050e-06;0.002041559424058733
3.81075e-06;0.0020578861607175505
3.81100e-06;0.0020742128973763674
3.81125e-06;0.0020905396340351566
3.81150e-06;0.002106866370693974
3.81175e-06;0.002123193107352791
3.81200e-06;0.0021395198440115806
3.81225e-06;0.0021558465806703975
3.81250e-06;0.0021744574736870088
3.81275e-06;0.0021969815101540602
3.81300e-06;0.00221950554662115
3.81325e-06;0.0022420295830882396
3.81350e-06;0.0022645536195553292
3.81375e-06;0.0022870776560223807
3.81400e-06;0.0023096016924894704
3.81425e-06;0.00233212572895656
3.81450e-06;0.0023532198828742777
3.81475e-06;0.0023718644078453166
3.81500e-06;0.002390508932816324
3.81525e-06;0.0024091534577873946
3.81550e-06;0.0024277979827584018
3.81575e-06;0.0024464425077294094
3.81600e-06;0.00246508703270048
3.81625e-06;0.0024837315576714874
3.81650e-06;0.0024958295030713187
3.81675e-06;0.0024967120582093
3.81700e-06;0.002497594613347281
3.81725e-06;0.002498477168485265
3.81750e-06;0.002499359723623246
3.81775e-06;0.0025002422787612274
3.81800e-06;0.0025011248338992114
3.81825e-06;0.0025020073890371923
3.81850e-06;0.0025028899441751733
3.81875e-06;0.0025037724993131577
3.81900e-06;0.0025046550544511386
3.81925e-06;0.0024969493563716935
3.81950e-06;0.0024745305381890514
3.81975e-06;0.0024521117200064857
3.82000e-06;0.0024296929018239196
3.82025e-06;0.002407274083641278
3.82050e-06;0.002384855265458712
3.82075e-06;0.00236243644727607
3.82100e-06;0.002340017629093504
3.82125e-06;0.002317598810910938
3.82150e-06;0.0022951799927282963
3.82175e-06;0.00227276117454573
3.82200e-06;0.0022462573593602557
3.82225e-06;0.0022127552582602255
3.82250e-06;0.0021792531571603086
3.82275e-06;0.002145751056060392
3.82300e-06;0.0021122489549603614
3.82325e-06;0.0020787468538604444
3.82350e-06;0.002045244752760528
3.82375e-06;0.0020121467363436313
3.82400e-06;0.0019797409848524
3.82425e-06;0.0019473352333611682
3.82450e-06;0.001914929481869827
3.82475e-06;0.0018825237303785952
3.82500e-06;0.0018501179788872539
3.82525e-06;0.0018177122273960223
3.82550e-06;0.0017876752266962846
3.82575e-06;0.0017616962939181562
3.82600e-06;0.0017357173611401155
3.82625e-06;0.0017128463920404963
3.82650e-06;0.0016952998866836084
3.82675e-06;0.0016777533813267802
3.82700e-06;0.0016642409914280271
3.82725e-06;0.0016576397188114694
3.82750e-06;0.001654284400474373
3.82775e-06;0.0016564899469540453
3.82800e-06;0.0016618716800772598
3.82825e-06;0.001672694754339849
3.82850e-06;0.0016870502335199736
3.82875e-06;0.0017074573155673562
3.82900e-06;0.0017315082333751175
3.82925e-06;0.0017618016537980423
3.82950e-06;0.0017961162173039768
3.82975e-06;0.001837319674234793
3.83000e-06;0.0018785231311657488
3.83025e-06;0.001924022546727212
3.83050e-06;0.00197688166089977
3.83075e-06;0.002029740775072507
3.83100e-06;0.0020864148402160165
3.83125e-06;0.002149624557067529
3.83150e-06;0.0022128342739192557
3.83175e-06;0.0022795142655920105
3.83200e-06;0.0023521394208422418
3.83225e-06;0.0024247645760927194
3.83250e-06;0.0024973897313429506
3.83275e-06;0.0025700148865931824
3.83300e-06;0.0026426400418436595
3.83325e-06;0.002716016722397375
3.83350e-06;0.0027906808920096582
3.83375e-06;0.0028653450616216883
3.83400e-06;0.0029400092312337183
3.83425e-06;0.0030146734008460016
3.83450e-06;0.0030893375704580317
3.83475e-06;0.0031584344866349636
3.83500e-06;0.003217993762696564
3.83525e-06;0.003277553038757963
3.83550e-06;0.0033371123148193613
3.83575e-06;0.0033966715908809618
3.83600e-06;0.0034562308669423606
3.83625e-06;0.003515790143003759
3.83650e-06;0.003562257891798558
3.83675e-06;0.00358629765575582
3.83700e-06;0.003610337419713082
3.83725e-06;0.0036343771836704255
3.83750e-06;0.0036584169476276875
3.83775e-06;0.003682456711585031
3.83800e-06;0.003706496475542293
3.83825e-06;0.003719147666956177
3.83850e-06;0.0037122883209736814
3.83875e-06;0.0037054289749912095
3.83900e-06;0.003691871278042752
3.83925e-06;0.003666838180949363
3.83950e-06;0.003641805083856059
3.83975e-06;0.003610704519441953
3.84000e-06;0.0035692093645196053
3.84025e-06;0.003527714209597398
3.84050e-06;0.0034808583028990885
3.84075e-06;0.0034248185281084923
3.84100e-06;0.003368778753318086
3.84125e-06;0.003306885576849899
3.84150e-06;0.0032349645402709403
3.84175e-06;0.0031630435036922254
3.84200e-06;0.003091122467113267
3.84225e-06;0.003019201430534552
3.84250e-06;0.002947280393955837
3.84275e-06;0.002871925525346515
3.84300e-06;0.0027906879257824195
3.84325e-06;0.0027094503262183245
3.84350e-06;0.0026282127266539536
3.84375e-06;0.0025469751270898585
3.84400e-06;0.002465737527525763
3.84425e-06;0.002387583730303113
3.84450e-06;0.0023147130043940276
3.84475e-06;0.0022418422784849417
3.84500e-06;0.0021689715525756094
3.84525e-06;0.0020961008266665235
3.84550e-06;0.002023230100757438
3.84575e-06;0.0019503593748481053
3.84600e-06;0.0018986789229164132
3.84625e-06;0.0018502048545210158
3.84650e-06;0.001801730786125783
3.84675e-06;0.00175325671773055
3.84700e-06;0.0017047826493351529
3.84725e-06;0.0016563085809399199
3.84750e-06;0.0016138100967015012
3.84775e-06;0.0015815487916784072
3.84800e-06;0.0015523925969843045
3.84825e-06;0.0015285559777636305
3.84850e-06;0.0015079566455031225
3.84875e-06;0.001492903329483647
3.84900e-06;0.0014778500134641716
3.84925e-06;0.001466174449339874
3.84950e-06;0.0014602855414801513
3.84975e-06;0.0014543966336204284
3.85000e-06;0.0014519326044211093
3.85025e-06;0.0014553359675496124
3.85050e-06;0.0014587393306781272
3.85075e-06;0.001464716315772385
3.85100e-06;0.0014751023475142822
3.85125e-06;0.0014854883792562146
3.85150e-06;0.0014989540051020638
3.85175e-06;0.0015176954928423929
3.85200e-06;0.0015364369805827853
3.85225e-06;0.0015551784683231142
3.85250e-06;0.0015739199560634433
3.85275e-06;0.0015926614438038357
3.85300e-06;0.0016114029315441646
3.85325e-06;0.0016345131086781212
3.85350e-06;0.001658284329353077
3.85375e-06;0.0016820555500279524
3.85400e-06;0.0017058267707028279
3.85425e-06;0.0017295979913777837
3.85450e-06;0.0017533692120526591
3.85475e-06;0.001775824109068687
3.85500e-06;0.0017960239225905074
3.85525e-06;0.0018162237361123274
3.85550e-06;0.001836423549634216
3.85575e-06;0.001856623363156036
3.85600e-06;0.001876823176677856
3.85625e-06;0.0018970229901997446
3.85650e-06;0.0019058565545449217
3.85675e-06;0.0019129702471105297
3.85700e-06;0.001920083939676162
3.85725e-06;0.0019271976322417699
3.85750e-06;0.001934311324807378
3.85775e-06;0.00194142501737301
3.85800e-06;0.0019437549147488643
3.85825e-06;0.0019378893675637216
3.85850e-06;0.0019320238203785589
3.85875e-06;0.0019229071557071325
3.85900e-06;0.0019082207807820059
3.85925e-06;0.001893534405856929
3.85950e-06;0.001875881490455121
3.85975e-06;0.0018531463930094964
3.86000e-06;0.0018304112955639489
3.86025e-06;0.0018050662906885346
3.86050e-06;0.0017752500760723335
3.86075e-06;0.0017454338614562336
3.86100e-06;0.0017125369866488433
3.86125e-06;0.001674362423561191
3.86150e-06;0.0016361878604736681
3.86175e-06;0.0015980132973861451
3.86200e-06;0.0015598387342984927
3.86225e-06;0.0015216641712109697
3.86250e-06;0.001481530850993339
3.86275e-06;0.0014380418508540545
3.86300e-06;0.0013945528507149174
3.86325e-06;0.001351063850575633
3.86350e-06;0.0013075748504364957
3.86375e-06;0.0012640858502973586
3.86400e-06;0.0012213738396478144
3.86425e-06;0.0011799929424834697
3.86450e-06;0.0011386120453191248
3.86475e-06;0.0010972311481546398
3.86500e-06;0.001055850250990295
3.86525e-06;0.0010176363668421165
3.86550e-06;0.0009848481078647711
3.86575e-06;0.0009520598488875368
3.86600e-06;0.0009192715899103024
3.86625e-06;0.000886483330932957
3.86650e-06;0.000856530765934641
3.86675e-06;0.0008314362209539659
3.86700e-06;0.0008074978514202677
3.86725e-06;0.0007855402045977109
3.86750e-06;0.0007649192130000112
3.86775e-06;0.000746588136283007
3.86800e-06;0.0007297683591453668
3.86825e-06;0.0007155376919975331
3.86850e-06;0.0007025538317169285
3.86875e-06;0.0006917059609907901
3.86900e-06;0.0006820948210146401
3.86925e-06;0.0006746024085120732
3.86950e-06;0.0006671099960095061
3.86975e-06;0.0006612242629392075
3.87000e-06;0.0006580910415650037
3.87025e-06;0.0006549578201908
3.87050e-06;0.0006531483388764816
3.87075e-06;0.0006536066465959605
3.87100e-06;0.0006540649543154396
3.87125e-06;0.0006555052150516031
3.87150e-06;0.0006586277262161987
3.87175e-06;0.0006617502373807944
3.87200e-06;0.0006660869682474436
3.87225e-06;0.0006725038613817687
3.87250e-06;0.0006789207545161156
3.87275e-06;0.0006853376476504407
3.87300e-06;0.0006917545407847659
3.87325e-06;0.0006981714339191127
3.87350e-06;0.0007045883270534379
3.87375e-06;0.0007122882474500821
3.87400e-06;0.0007201823077380179
3.87425e-06;0.000728076368025927
3.87450e-06;0.0007359704283138361
3.87475e-06;0.0007438644886017719
3.87500e-06;0.000751758548889681
3.87525e-06;0.0007592614014668623
3.87550e-06;0.0007660940495355519
3.87575e-06;0.0007729266976042184
3.87600e-06;0.0007796344061107532
3.87625e-06;0.0007861280721648353
3.87650e-06;0.0007926217382188954
3.87675e-06;0.0008011444832616423
3.87700e-06;0.0008131433813785141
3.87725e-06;0.0008272211705451831
3.87750e-06;0.0008448604492122904
3.87775e-06;0.0008642612855996392
3.87800e-06;0.0008866799662004611
3.87825e-06;0.0009109553197781695
3.87850e-06;0.0009384114659774257
3.87875e-06;0.0009685091710582636
3.87900e-06;0.0010031323101305904
3.87925e-06;0.001040232135918813
3.87950e-06;0.001081574941989856
3.87975e-06;0.0011249299179092213
3.88000e-06;0.0011717320787049993
3.88025e-06;0.0012208558584207276
3.88050e-06;0.0012739569612424363
3.88075e-06;0.0013270580640639652
3.88100e-06;0.0013829461107652534
3.88125e-06;0.0014436086603751928
3.88150e-06;0.0015042712099851319
3.88175e-06;0.0015671229658925092
3.88200e-06;0.0016337251998450413
3.88225e-06;0.0017003274337975736
3.88250e-06;0.0017669296677503316
3.88275e-06;0.0018335319017028636
3.88300e-06;0.001900134135655396
3.88325e-06;0.001966722238729853
3.88350e-06;0.0020332861332363968
3.88375e-06;0.0020998500277429407
3.88400e-06;0.00216641392224971
3.88425e-06;0.002232977816756254
3.88450e-06;0.002299541711262798
3.88475e-06;0.0023596247411260926
3.88500e-06;0.0024086049614505563
3.88525e-06;0.002457585181775185
3.88550e-06;0.002506565402099649
3.88575e-06;0.002555545622424112
3.88600e-06;0.0026045258427487413
3.88625e-06;0.0026535060630732046
3.88650e-06;0.002702486283397668
3.88675e-06;0.002751466503722297
3.88700e-06;0.0027870780836279007
3.88725e-06;0.002799786937351175
3.88750e-06;0.0028124957910744923
3.88775e-06;0.002825204644797767
3.88800e-06;0.002837913498521041
3.88825e-06;0.0028506223522443584
3.88850e-06;0.002863331205967633
3.88875e-06;0.002876040059690907
3.88900e-06;0.0028887489134142245
3.88925e-06;0.0028923513218973586
3.88950e-06;0.002880352860337903
3.88975e-06;0.002868354398778488
3.89000e-06;0.0028501603357647446
3.89025e-06;0.002821352166963833
3.89050e-06;0.002792543998163019
3.89075e-06;0.0027637358293622055
3.89100e-06;0.002734927660561294
3.89125e-06;0.0027061194917604803
3.89150e-06;0.0026773113229596663
3.89175e-06;0.002643030017354452
3.89200e-06;0.002599372309239641
3.89225e-06;0.0025557146011248293
3.89250e-06;0.00251205689300987
3.89275e-06;0.002468399184895059
3.89300e-06;0.0024247414767802474
3.89325e-06;0.002381083768665288
3.89350e-06;0.0023364991231536966
3.89375e-06;0.002290326478210541
3.89400e-06;0.0022441538332675422
3.89425e-06;0.0021979811883245434
3.89450e-06;0.002151808543381388
3.89475e-06;0.002105635898438389
3.89500e-06;0.0020628741514558324
3.89525e-06;0.0020259558455085727
3.89550e-06;0.0019890375395614376
3.89575e-06;0.0019521192336143028
3.89600e-06;0.0019152009276670427
3.89625e-06;0.001878282621719908
3.89650e-06;0.0018462410492146076
3.89675e-06;0.0018225541400977228
3.89700e-06;0.0018022859738673143
3.89725e-06;0.0017878746883477144
3.89750e-06;0.0017768887749271386
3.89775e-06;0.0017717710991719657
3.89800e-06;0.0017700842018640566
3.89825e-06;0.0017742748042038608
3.89850e-06;0.0017821128250857508
