Time(s);Current(A)
9.50000e-06;0.014628556196921006
9.50025e-06;0.014613698009611665
9.50050e-06;0.014598839822302425
9.50075e-06;0.014583981634993085
9.50100e-06;0.014569123447683744
9.50125e-06;0.014554265260374505
9.50150e-06;0.014539407073065164
9.50175e-06;0.014524548885755825
9.50200e-06;0.014509690698446584
9.50225e-06;0.014494832511137245
9.50250e-06;0.01448350993665262
9.50275e-06;0.014473110788784514
9.50300e-06;0.014462711640916339
9.50325e-06;0.014452312493048165
9.50350e-06;0.01444191334517999
9.50375e-06;0.014431514197311885
9.50400e-06;0.01442111504944371
9.50425e-06;0.014414204921883264
9.50450e-06;0.014415717389744433
9.50475e-06;0.014417229857605612
9.50500e-06;0.014418742325466789
9.50525e-06;0.014420254793327958
9.50550e-06;0.014421767261189135
9.50575e-06;0.014423279729050314
9.50600e-06;0.014424792196911482
9.50625e-06;0.014438717164223772
9.50650e-06;0.014455884011498188
9.50675e-06;0.014473050858772488
9.50700e-06;0.014490217706046906
9.50725e-06;0.014507384553321323
9.50750e-06;0.014524551400595625
9.50775e-06;0.01454171824787004
9.50800e-06;0.014558885095144457
9.50825e-06;0.014576051942418759
9.50850e-06;0.014593218789693175
9.50875e-06;0.014613176515470009
9.50900e-06;0.014639871502261665
9.50925e-06;0.014666566489053503
9.50950e-06;0.014693261475845341
9.50975e-06;0.014719956462636997
9.51000e-06;0.014746651449428836
9.51025e-06;0.014773346436220674
9.51050e-06;0.01480004142301233
9.51075e-06;0.014826736409804168
9.51100e-06;0.014853431396596006
9.51125e-06;0.014880126383387662
9.51150e-06;0.014902325422389439
9.51175e-06;0.014923350215775897
9.51200e-06;0.014944375009162358
9.51225e-06;0.014965399802548674
9.51250e-06;0.014986424595935133
9.51275e-06;0.015007449389321593
9.51300e-06;0.01502847418270791
9.51325e-06;0.01504949897609437
9.51350e-06;0.015070523769480829
9.51375e-06;0.015091548562867145
9.51400e-06;0.015107556352680454
9.51425e-06;0.015122253808227527
9.51450e-06;0.0151369512637745
9.51475e-06;0.015151648719321573
9.51500e-06;0.015166346174868645
9.51525e-06;0.015181043630415619
9.51550e-06;0.01519574108596269
9.51575e-06;0.015210438541509764
9.51600e-06;0.015225135997056737
9.51625e-06;0.01523983345260381
9.51650e-06;0.015254530908150881
9.51675e-06;0.015269297107063037
9.51700e-06;0.015284081260275237
9.51725e-06;0.015298865413487437
9.51750e-06;0.015313649566699537
9.51775e-06;0.015328433719911739
9.51800e-06;0.015343217873123939
9.51825e-06;0.015358002026336038
9.51850e-06;0.015372786179548239
9.51875e-06;0.01538757033276044
9.51900e-06;0.01540235448597254
9.51925e-06;0.01541713863918474
9.51950e-06;0.015431022952487898
9.51975e-06;0.015444672246809992
9.52000e-06;0.01545832154113218
9.52025e-06;0.015471970835454367
9.52050e-06;0.015485620129776554
9.52075e-06;0.01549926942409865
9.52100e-06;0.015512918718420837
9.52125e-06;0.015526568012743025
9.52150e-06;0.015540217307065118
9.52175e-06;0.015553866601387306
9.52200e-06;0.015567515895709493
9.52225e-06;0.015576124099428221
9.52250e-06;0.01558341567786195
9.52275e-06;0.015590707256295681
9.52300e-06;0.015597998834729362
9.52325e-06;0.015605290413163093
9.52350e-06;0.015612581991596822
9.52375e-06;0.015619873570030503
9.52400e-06;0.015627165148464232
9.52425e-06;0.015634456726897963
9.52450e-06;0.015641748305331646
9.52475e-06;0.015649039883765377
9.52500e-06;0.01564987809487807
9.52525e-06;0.015649030824165817
9.52550e-06;0.01564818355345356
9.52575e-06;0.015647336282741304
9.52600e-06;0.01564648901202905
9.52625e-06;0.015645641741316794
9.52650e-06;0.015644794470604538
9.52675e-06;0.01564394719989229
9.52700e-06;0.015643099929180032
9.52725e-06;0.015642252658467776
9.52750e-06;0.015641405387755523
9.52775e-06;0.015640558117043266
9.52800e-06;0.01563971084633101
9.52825e-06;0.01563886357561876
9.52850e-06;0.0156380163049065
9.52875e-06;0.015637169034194244
9.52900e-06;0.015632937243645367
9.52925e-06;0.015627821488743036
9.52950e-06;0.015622705733840671
9.52975e-06;0.015617589978938307
9.53000e-06;0.015612474224035975
9.53025e-06;0.01560735846913361
9.53050e-06;0.015602242714231246
9.53075e-06;0.015597126959328914
9.53100e-06;0.01559201120442655
9.53125e-06;0.015586895449524185
9.53150e-06;0.015581779694621855
9.53175e-06;0.015576663939719489
9.53200e-06;0.015571548184817124
9.53225e-06;0.015566432429914795
9.53250e-06;0.01556131667501243
9.53275e-06;0.015556200920110064
9.53300e-06;0.01554905336144869
9.53325e-06;0.015541375139005314
9.53350e-06;0.015533696916561937
9.53375e-06;0.015526018694118612
9.53400e-06;0.015518340471675237
9.53425e-06;0.01551066224923186
9.53450e-06;0.015502984026788536
9.53475e-06;0.015486644897968678
9.53500e-06;0.015468043725231964
9.53525e-06;0.015449442552495377
9.53550e-06;0.015430841379758664
9.53575e-06;0.015412240207021952
9.53600e-06;0.015393639034285365
9.53625e-06;0.015375037861548651
9.53650e-06;0.015345112467150852
9.53675e-06;0.015312229427720507
9.53700e-06;0.01527934638828994
9.53725e-06;0.01524646334885937
9.53750e-06;0.015213580309428803
9.53775e-06;0.015180697269998458
9.53800e-06;0.01514781423056789
9.53825e-06;0.015114931191137321
9.53850e-06;0.015082048151706976
9.53875e-06;0.01504663959624996
9.53900e-06;0.0150051343724236
9.53925e-06;0.014963629148597524
9.53950e-06;0.014922123924771167
9.53975e-06;0.014880618700944807
9.54000e-06;0.014839113477118731
9.54025e-06;0.014797608253292373
9.54050e-06;0.014756103029466014
9.54075e-06;0.014714597805639938
9.54100e-06;0.014673092581813579
9.54125e-06;0.014633456225577334
9.54150e-06;0.014594307977673351
9.54175e-06;0.014555159729769104
9.54200e-06;0.014516011481864856
9.54225e-06;0.014478895601169843
9.54250e-06;0.014446685913407054
9.54275e-06;0.014414476225644263
9.54300e-06;0.014382266537881692
9.54325e-06;0.0143500568501189
9.54350e-06;0.01432209924680764
9.54375e-06;0.014295252197213898
9.54400e-06;0.014268405147619971
9.54425e-06;0.014241558098026045
9.54450e-06;0.014214711048432303
9.54475e-06;0.014187863998838377
9.54500e-06;0.014161016949244452
9.54525e-06;0.01413400513278101
9.54550e-06;0.014106595564352018
9.54575e-06;0.014079185995923024
9.54600e-06;0.014051776427494032
9.54625e-06;0.014024366859065223
9.54650e-06;0.01399695729063623
9.54675e-06;0.013969547722207237
9.54700e-06;0.013942138153778429
9.54725e-06;0.013912728636775094
9.54750e-06;0.013882796775883837
9.54775e-06;0.013852864914992786
9.54800e-06;0.01382293305410153
9.54825e-06;0.013793001193210275
9.54850e-06;0.013763069332319222
9.54875e-06;0.013733137471427967
9.54900e-06;0.013703205610536711
9.54925e-06;0.013673273749645658
9.54950e-06;0.013643341888754403
9.54975e-06;0.013613410027863147
9.55000e-06;0.013585192723169461
9.55025e-06;0.013557423223965085
9.55050e-06;0.013529653724760709
9.55075e-06;0.013501884225556522
9.55100e-06;0.013474114726352147
9.55125e-06;0.013446345227147771
9.55150e-06;0.013418575727943584
9.55175e-06;0.013390806228739208
9.55200e-06;0.013363036729534834
9.55225e-06;0.013335267230330645
9.55250e-06;0.01330749773112627
9.55275e-06;0.013288435862302652
9.55300e-06;0.013271648240710962
9.55325e-06;0.013254860619119157
9.55350e-06;0.013238072997527352
9.55375e-06;0.01322128537593566
9.55400e-06;0.013204497754343856
9.55425e-06;0.01318771013275205
9.55450e-06;0.013184867689709126
9.55475e-06;0.013185667429708553
9.55500e-06;0.013186467169707986
9.55525e-06;0.013187266909707417
9.55550e-06;0.013188066649706844
9.55575e-06;0.013188866389706276
9.55600e-06;0.013189666129705707
9.55625e-06;0.013207680036942851
9.55650e-06;0.013230189917306791
9.55675e-06;0.013252699797670733
9.55700e-06;0.013275209678034522
9.55725e-06;0.013297719558398462
9.55750e-06;0.013320229438762404
9.55775e-06;0.013342739319126192
9.55800e-06;0.013365249199490134
9.55825e-06;0.013387759079854076
9.55850e-06;0.013410268960217863
9.55875e-06;0.013444133458788695
9.55900e-06;0.013480963541324439
9.55925e-06;0.013517793623859933
9.55950e-06;0.013554623706395676
9.55975e-06;0.01359145378893142
9.56000e-06;0.013628283871466914
9.56025e-06;0.013665113954002658
9.56050e-06;0.013701944036538401
9.56075e-06;0.013738774119073895
9.56100e-06;0.013775604201609639
9.56125e-06;0.01380975310493436
9.56150e-06;0.013843201741465964
9.56175e-06;0.013876650377997794
9.56200e-06;0.013910099014529624
9.56225e-06;0.013943547651061226
9.56250e-06;0.013976996287593057
9.56275e-06;0.014010444924124886
9.56300e-06;0.014039322316637156
9.56325e-06;0.014057164594521639
9.56350e-06;0.014075006872406122
9.56375e-06;0.014092849150290606
9.56400e-06;0.01411069142817497
9.56425e-06;0.014128533706059453
9.56450e-06;0.014146375983943936
9.56475e-06;0.014164218261828298
9.56500e-06;0.014163899536197148
9.56525e-06;0.014158837544007041
9.56550e-06;0.014153775551816968
9.56575e-06;0.01414871355962686
9.56600e-06;0.014143651567436754
9.56625e-06;0.01413858957524668
9.56650e-06;0.014133527583056573
9.56675e-06;0.014128465590866467
9.56700e-06;0.014123403598676393
9.56725e-06;0.014118341606486286
9.56750e-06;0.01411327961429618
9.56775e-06;0.014092933702965861
9.56800e-06;0.014068595958117536
9.56825e-06;0.014044258213269212
9.56850e-06;0.014019920468421052
9.56875e-06;0.013995582723572727
9.56900e-06;0.013971244978724403
9.56925e-06;0.013946907233876243
9.56950e-06;0.013922569489027918
9.56975e-06;0.013898231744179593
9.57000e-06;0.013873893999331434
9.57025e-06;0.013849556254483109
9.57050e-06;0.01382243470917082
9.57075e-06;0.013794586094584286
9.57100e-06;0.013766737479997562
9.57125e-06;0.013738888865410838
9.57150e-06;0.013711040250824301
9.57175e-06;0.013683191636237577
9.57200e-06;0.013655343021650853
9.57225e-06;0.01362749440706413
9.57250e-06;0.013599645792477594
9.57275e-06;0.013580702360197877
9.57300e-06;0.013564084771499013
9.57325e-06;0.013547467182800262
9.57350e-06;0.013530849594101398
9.57375e-06;0.013514232005402534
9.57400e-06;0.013497614416703782
9.57425e-06;0.013480996828004918
9.57450e-06;0.013464379239306054
9.57475e-06;0.013447761650607303
9.57500e-06;0.01344693731299242
9.57525e-06;0.013450237835531172
9.57550e-06;0.013453538358069903
9.57575e-06;0.013456838880608654
9.57600e-06;0.013460139403147407
9.57625e-06;0.013463439925686138
9.57650e-06;0.01346674044822489
9.57675e-06;0.013470040970763644
9.57700e-06;0.013473341493302374
9.57725e-06;0.013476642015841126
9.57750e-06;0.013479942538379879
9.57775e-06;0.013496037047037075
9.57800e-06;0.013515473071843814
9.57825e-06;0.013534909096650555
9.57850e-06;0.013554345121457163
9.57875e-06;0.013573781146263904
9.57900e-06;0.013593217171070643
9.57925e-06;0.013612653195877253
9.57950e-06;0.013632089220683992
9.57975e-06;0.013651525245490733
9.58000e-06;0.01367096127029734
9.58025e-06;0.013690397295104082
9.58050e-06;0.01371249524560862
9.58075e-06;0.01373528843429976
9.58100e-06;0.013758081622990744
9.58125e-06;0.013780874811681883
9.58150e-06;0.013803668000373023
9.58175e-06;0.013826461189064007
9.58200e-06;0.013845521246038743
9.58225e-06;0.013863606288674342
9.58250e-06;0.01388169133130982
9.58275e-06;0.013899776373945419
9.58300e-06;0.01391786141658102
9.58325e-06;0.013935946459216496
9.58350e-06;0.013951008555711616
9.58375e-06;0.013965281123184575
9.58400e-06;0.013979553690657438
9.58425e-06;0.013993826258130398
9.58450e-06;0.014008098825603358
9.58475e-06;0.014022371393076221
9.58500e-06;0.014036643960549182
9.58525e-06;0.014050916528022142
9.58550e-06;0.014065189095495005
9.58575e-06;0.014080180601293651
9.58600e-06;0.014096907644903522
9.58625e-06;0.014113634688513278
9.58650e-06;0.014130361732123148
9.58675e-06;0.014147088775733018
9.58700e-06;0.014163815819342776
9.58725e-06;0.014180542862952644
9.58750e-06;0.014197269906562515
9.58775e-06;0.014213996950172272
9.58800e-06;0.014230723993782142
9.58825e-06;0.014249519206406342
9.58850e-06;0.014268854580642318
9.58875e-06;0.014288189954878424
9.58900e-06;0.014307525329114532
9.58925e-06;0.014326860703350638
9.58950e-06;0.014346196077586615
9.58975e-06;0.01436553145182272
9.59000e-06;0.014384866826058829
9.59025e-06;0.014404202200294805
9.59050e-06;0.01442353757453091
9.59075e-06;0.014440268568784918
9.59100e-06;0.014456319354564762
9.59125e-06;0.014472370140344715
9.59150e-06;0.014488420926124668
9.59175e-06;0.014504471711904512
9.59200e-06;0.014520522497684466
9.59225e-06;0.01453657328346442
9.59250e-06;0.014552624069244263
9.59275e-06;0.014568674855024215
9.59300e-06;0.014584725640804168
9.59325e-06;0.014590689415997355
9.59350e-06;0.014594018679281017
9.59375e-06;0.014597347942564681
9.59400e-06;0.014600677205848322
9.59425e-06;0.014604006469131984
9.59450e-06;0.014607335732415648
9.59475e-06;0.014604783120628413
9.59500e-06;0.014588031493118984
9.59525e-06;0.014571279865609556
9.59550e-06;0.014554528238100242
9.59575e-06;0.014537776610590815
9.59600e-06;0.014521024983081386
9.59625e-06;0.014504273355572072
9.59650e-06;0.014469416731026172
9.59675e-06;0.014429831467612632
9.59700e-06;0.014390246204199358
9.59725e-06;0.014350660940785817
9.59750e-06;0.014311075677372276
9.59775e-06;0.014271490413958733
9.59800e-06;0.014231905150545461
9.59825e-06;0.014192319887131918
9.59850e-06;0.014148132287738641
9.59875e-06;0.014092834516818096
9.59900e-06;0.014037536745897174
9.59925e-06;0.013982238974976252
9.59950e-06;0.013926941204055705
9.59975e-06;0.013871643433134783
9.60000e-06;0.01381634566221386
9.60025e-06;0.013761047891293314
9.60050e-06;0.013705750120372392
9.60075e-06;0.013649065185110837
9.60100e-06;0.013592017952125727
9.60125e-06;0.01353497071914023
9.60150e-06;0.013480545736726234
9.60175e-06;0.013426805630203561
9.60200e-06;0.013373065523680524
9.60225e-06;0.013333215341479769
9.60250e-06;0.01329699291110411
9.60275e-06;0.013260770480728202
9.60300e-06;0.013224548050352296
9.60325e-06;0.013188325619976635
9.60350e-06;0.01315210318960073
9.60375e-06;0.013115880759224824
9.60400e-06;0.013079658328849162
9.60425e-06;0.013043435898473257
9.60450e-06;0.013007213468097351
9.60475e-06;0.01297099103772169
9.60500e-06;0.012934768607345784
9.60525e-06;0.012898546176969878
9.60550e-06;0.01287788780320452
9.60575e-06;0.012861294428892596
9.60600e-06;0.012844701054580672
9.60625e-06;0.012828107680268748
9.60650e-06;0.012811514305956936
9.60675e-06;0.012794920931645012
9.60700e-06;0.012778327557333088
9.60725e-06;0.012761734183021277
9.60750e-06;0.012745140808709353
9.60775e-06;0.01272854743439743
9.60800e-06;0.012711954060085618
9.60825e-06;0.012695360685773694
9.60850e-06;0.01267876731146177
9.60875e-06;0.012668922824793902
9.60900e-06;0.0126608410035593
9.60925e-06;0.012652759182324697
9.60950e-06;0.012644677361090149
9.60975e-06;0.012636595539855546
9.61000e-06;0.012628513718620943
9.61025e-06;0.012620431897386396
9.61050e-06;0.012612350076151793
9.61075e-06;0.01260426825491719
9.61100e-06;0.012597097992460974
9.61125e-06;0.012592128259134916
9.61150e-06;0.012587158525808858
9.61175e-06;0.012582188792482832
9.61200e-06;0.012577219059156774
9.61225e-06;0.012572249325830715
9.61250e-06;0.01256727959250469
9.61275e-06;0.012562309859178632
9.61300e-06;0.012557340125852573
9.61325e-06;0.012552370392526548
9.61350e-06;0.012552252528545266
9.61375e-06;0.012553401869299732
9.61400e-06;0.01255455121005419
9.61425e-06;0.012555700550808655
9.61450e-06;0.01255684989156312
9.61475e-06;0.012557999232317584
9.61500e-06;0.012559148573072042
9.61525e-06;0.012560297913826507
9.61550e-06;0.012561447254580973
9.61575e-06;0.012562596595335429
9.61600e-06;0.012566928778911099
9.61625e-06;0.01257894443667664
9.61650e-06;0.012590960094442098
9.61675e-06;0.012602975752207639
9.61700e-06;0.01261499140997318
9.61725e-06;0.012627007067738637
9.61750e-06;0.012639022725504177
9.61775e-06;0.012651038383269718
9.61800e-06;0.012663054041035177
9.61825e-06;0.012675069698800718
9.61850e-06;0.012687085356566256
9.61875e-06;0.012704018389890135
9.61900e-06;0.012722235736775122
9.61925e-06;0.012740453083660109
9.61950e-06;0.012758670430544974
9.61975e-06;0.012776887777429961
9.62000e-06;0.012795105124314948
9.62025e-06;0.012813322471199814
9.62050e-06;0.0128315398180848
9.62075e-06;0.012849757164969788
9.62100e-06;0.012867974511854653
9.62125e-06;0.01288619185873964
9.62150e-06;0.012900682294826132
9.62175e-06;0.012914199341342632
9.62200e-06;0.012927716387859224
9.62225e-06;0.012941233434375816
9.62250e-06;0.012954750480892317
9.62275e-06;0.012968267527408909
9.62300e-06;0.012981784573925499
9.62325e-06;0.01299530162044209
9.62350e-06;0.013008818666958591
9.62375e-06;0.013022335713475183
9.62400e-06;0.013035852759991775
9.62425e-06;0.013040284821816642
9.62450e-06;0.013042344079509405
9.62475e-06;0.013044403337202167
9.62500e-06;0.013046462594894916
9.62525e-06;0.013048521852587678
9.62550e-06;0.01305058111028044
9.62575e-06;0.01305264036797319
9.62600e-06;0.01305469962566595
9.62625e-06;0.013056758883358714
9.62650e-06;0.013058818141051462
9.62675e-06;0.013060877398744225
9.62700e-06;0.013062936656436987
9.62725e-06;0.013064995914129735
9.62750e-06;0.013067055171822498
9.62775e-06;0.01306911442951526
9.62800e-06;0.01307117368720801
9.62825e-06;0.013073232944900771
9.62850e-06;0.013075292202593534
9.62875e-06;0.01307216062014382
9.62900e-06;0.013067673301018748
9.62925e-06;0.013063185981893677
9.62950e-06;0.013058698662768637
9.62975e-06;0.013054211343643566
9.63000e-06;0.013049724024518495
9.63025e-06;0.013045236705393454
9.63050e-06;0.013040749386268383
9.63075e-06;0.013036262067143312
9.63100e-06;0.01303177474801827
9.63125e-06;0.013027287428893199
9.63150e-06;0.013022800109768128
9.63175e-06;0.013018312790643057
9.63200e-06;0.013013825471518015
9.63225e-06;0.013009338152392944
9.63250e-06;0.013004850833267873
9.63275e-06;0.013000363514142833
9.63300e-06;0.012995876195017762
9.63325e-06;0.012988039873651094
9.63350e-06;0.012979328864364809
9.63375e-06;0.012970617855078465
9.63400e-06;0.01296190684579212
9.63425e-06;0.012953195836505836
9.63450e-06;0.012944484827219492
9.63475e-06;0.012935773817933148
9.63500e-06;0.012927062808646863
9.63525e-06;0.01290862451249987
9.63550e-06;0.012887645656599403
9.63575e-06;0.012866666800699079
9.63600e-06;0.012845687944798612
9.63625e-06;0.012824709088898146
9.63650e-06;0.012803730232997822
9.63675e-06;0.012782751377097355
9.63700e-06;0.012761772521196889
9.63725e-06;0.012729893497915408
9.63750e-06;0.012695167583516579
9.63775e-06;0.01266044166911775
9.63800e-06;0.012625715754719156
9.63825e-06;0.012590989840320328
9.63850e-06;0.012556263925921497
9.63875e-06;0.012521538011522905
9.63900e-06;0.012486812097124074
9.63925e-06;0.012452086182725246
9.63950e-06;0.012417360268326651
9.63975e-06;0.012382634353927823
9.64000e-06;0.012347908439528994
9.64025e-06;0.012313182525130164
9.64050e-06;0.012279315605042886
9.64075e-06;0.012247522321951235
9.64100e-06;0.012215729038859584
9.64125e-06;0.012183935755768148
9.64150e-06;0.012152142472676498
9.64175e-06;0.012120349189584847
9.64200e-06;0.01208855590649341
9.64225e-06;0.01205676262340176
9.64250e-06;0.012024969340310108
9.64275e-06;0.011993176057218672
9.64300e-06;0.011961382774127022
9.64325e-06;0.011929589491035371
9.64350e-06;0.011897796207943935
9.64375e-06;0.011866002924852284
9.64400e-06;0.011851908218475204
9.64425e-06;0.01184243600266101
9.64450e-06;0.011832963786846751
9.64475e-06;0.01182349157103249
9.64500e-06;0.011814019355218296
9.64525e-06;0.011804547139404037
9.64550e-06;0.011795074923589778
9.64575e-06;0.011785602707775584
9.64600e-06;0.011776130491961325
9.64625e-06;0.011766658276147066
9.64650e-06;0.01175718606033287
9.64675e-06;0.011747713844518611
9.64700e-06;0.011738241628704352
9.64725e-06;0.011728769412890158
9.64750e-06;0.011732513837879575
9.64775e-06;0.011739710167413635
9.64800e-06;0.011746906496947648
9.64825e-06;0.011754102826481708
9.64850e-06;0.011761299156015769
9.64875e-06;0.01176849548554983
9.64900e-06;0.011775691815083842
9.64925e-06;0.011782888144617903
9.64950e-06;0.011790084474151964
9.64975e-06;0.011797280803685976
9.65000e-06;0.011804477133220036
9.65025e-06;0.011811673462754097
9.65050e-06;0.01181886979228811
9.65075e-06;0.01182606612182217
9.65100e-06;0.011834526214879595
9.65125e-06;0.011843316376001516
9.65150e-06;0.011852106537123496
9.65175e-06;0.011860896698245476
