Time(s);Current(A)
1.50000e-06;-0.010064862375187476
1.50025e-06;-0.010064830710219939
1.50050e-06;-0.010077652947845296
1.50075e-06;-0.010099134135859446
1.50100e-06;-0.010120615323873613
1.50125e-06;-0.010142096511887763
1.50150e-06;-0.010163577699901932
1.50175e-06;-0.010185058887916081
1.50200e-06;-0.010206540075930248
1.50225e-06;-0.010228021263944398
1.50250e-06;-0.010258709085021455
1.50275e-06;-0.010295598896378346
1.50300e-06;-0.010332488707735206
1.50325e-06;-0.010369378519092098
1.50350e-06;-0.010406268330448958
1.50375e-06;-0.010443158141805818
1.50400e-06;-0.01048004795316271
1.50425e-06;-0.01051742432213273
1.50450e-06;-0.01055930453237345
1.50475e-06;-0.010601184742614133
1.50500e-06;-0.010643064952854818
1.50525e-06;-0.010684945163095538
1.50550e-06;-0.010726825373336222
1.50575e-06;-0.010768705583576942
1.50600e-06;-0.010810585793817627
1.50625e-06;-0.010850575955306944
1.50650e-06;-0.010889292897378859
1.50675e-06;-0.010928009839450773
1.50700e-06;-0.010959042766680428
1.50725e-06;-0.010984899405788777
1.50750e-06;-0.011010756044897149
1.50775e-06;-0.011036612684005498
1.50800e-06;-0.011062469323113847
1.50825e-06;-0.011088325962222218
1.50850e-06;-0.011114182601330569
1.50875e-06;-0.011140039240438939
1.50900e-06;-0.01116589587954729
1.50925e-06;-0.011191752518655639
1.50950e-06;-0.01121760915776401
1.50975e-06;-0.011243465796872359
1.51000e-06;-0.01126932243598073
1.51025e-06;-0.01129517907508908
1.51050e-06;-0.011321035714197451
1.51075e-06;-0.011345941402159108
1.51100e-06;-0.011362044570327485
1.51125e-06;-0.011378147738495874
1.51150e-06;-0.01139425090666425
1.51175e-06;-0.01141035407483264
1.51200e-06;-0.011426457243001016
1.51225e-06;-0.011442560411169391
1.51250e-06;-0.011458663579337782
1.51275e-06;-0.011474766747506157
1.51300e-06;-0.011490869915674547
1.51325e-06;-0.011506973083842922
1.51350e-06;-0.0115230762520113
1.51375e-06;-0.011539179420179688
1.51400e-06;-0.011555282588348065
1.51425e-06;-0.011571385756516454
1.51450e-06;-0.01158748892468483
1.51475e-06;-0.011601072161326366
1.51500e-06;-0.011612957861992753
1.51525e-06;-0.011624843562659139
1.51550e-06;-0.011636729263325537
1.51575e-06;-0.011648614963991923
1.51600e-06;-0.011660500664658319
1.51625e-06;-0.011672386365324706
1.51650e-06;-0.011684272065991092
1.51675e-06;-0.01169615776665749
1.51700e-06;-0.011708043467323875
1.51725e-06;-0.011719929167990273
1.51750e-06;-0.011731516451244008
1.51775e-06;-0.011740341421007348
1.51800e-06;-0.011749166390770697
1.51825e-06;-0.011757991360534037
1.51850e-06;-0.011766816330297386
1.51875e-06;-0.011775641300060728
1.51900e-06;-0.011784466269824075
1.51925e-06;-0.011793291239587417
1.51950e-06;-0.011802116209350757
1.51975e-06;-0.011810941179114106
1.52000e-06;-0.011819766148877446
1.52025e-06;-0.011828591118640795
1.52050e-06;-0.011837314544912924
1.52075e-06;-0.011845969567052826
1.52100e-06;-0.011854624589192736
1.52125e-06;-0.011863279611332638
1.52150e-06;-0.011871934633472548
1.52175e-06;-0.01188058965561245
1.52200e-06;-0.011889244677752353
1.52225e-06;-0.011897899699892262
1.52250e-06;-0.011906554722032163
1.52275e-06;-0.011915209744172072
1.52300e-06;-0.011923864766311975
1.52325e-06;-0.011932519788451884
1.52350e-06;-0.011941174810591787
1.52375e-06;-0.011949786906558481
1.52400e-06;-0.011958001654574599
1.52425e-06;-0.011966216402590709
1.52450e-06;-0.011974431150606826
1.52475e-06;-0.011982645898622937
1.52500e-06;-0.011990860646639047
1.52525e-06;-0.011999075394655164
1.52550e-06;-0.012007290142671274
1.52575e-06;-0.012015504890687392
1.52600e-06;-0.012023719638703502
1.52625e-06;-0.012031934386719612
1.52650e-06;-0.01204014913473573
1.52675e-06;-0.01204836388275184
1.52700e-06;-0.012056578630767959
1.52725e-06;-0.012063966370131988
1.52750e-06;-0.012070797000335082
1.52775e-06;-0.01207762763053817
1.52800e-06;-0.01208209409223903
1.52825e-06;-0.012084967946743724
1.52850e-06;-0.012087841801248415
1.52875e-06;-0.01209071565575311
1.52900e-06;-0.012092917045051685
1.52925e-06;-0.012088893731529346
1.52950e-06;-0.012084870418007003
1.52975e-06;-0.012080847104484666
1.53000e-06;-0.012076823790962324
1.53025e-06;-0.01207008381986613
1.53050e-06;-0.012056943897944374
1.53075e-06;-0.01204072549738404
1.53100e-06;-0.012024507096823721
1.53125e-06;-0.012008288696263388
1.53150e-06;-0.011992070295703068
1.53175e-06;-0.011975851895142735
1.53200e-06;-0.011959633494582416
1.53225e-06;-0.011943415094022096
1.53250e-06;-0.011921379278991949
1.53275e-06;-0.011895424599405955
1.53300e-06;-0.01186946991981994
1.53325e-06;-0.011843515240233946
1.53350e-06;-0.011817560560647953
1.53375e-06;-0.011791605881061939
1.53400e-06;-0.011765651201475946
1.53425e-06;-0.01173969652188993
1.53450e-06;-0.01171220472268247
1.53475e-06;-0.01168367745253962
1.53500e-06;-0.011655150182396745
1.53525e-06;-0.011626622912253895
1.53550e-06;-0.01159809564211102
1.53575e-06;-0.011569568371968169
1.53600e-06;-0.01154153314113263
1.53625e-06;-0.01151805249310103
1.53650e-06;-0.01149457184506943
1.53675e-06;-0.011471091197037809
1.53700e-06;-0.011447610549006209
1.53725e-06;-0.01142412990097459
1.53750e-06;-0.01140064925294299
1.53775e-06;-0.011381910371421713
1.53800e-06;-0.011366365750994482
1.53825e-06;-0.011350821130567262
1.53850e-06;-0.011335276510140031
1.53875e-06;-0.011319731889712813
1.53900e-06;-0.011304187269285594
1.53925e-06;-0.011288642648858363
1.53950e-06;-0.011273098028431145
1.53975e-06;-0.011257553408003914
1.54000e-06;-0.011242008787576694
1.54025e-06;-0.011226464167149477
1.54050e-06;-0.011211364717975653
1.54075e-06;-0.011196565155608126
1.54100e-06;-0.011181765593240588
1.54125e-06;-0.011166966030873061
1.54150e-06;-0.011152166468505524
1.54175e-06;-0.011137366906137997
1.54200e-06;-0.011122567343770472
1.54225e-06;-0.011107767781402933
1.54250e-06;-0.011092968219035408
1.54275e-06;-0.011078168656667869
1.54300e-06;-0.011063369094300342
1.54325e-06;-0.011048494853330888
1.54350e-06;-0.011033570305592376
1.54375e-06;-0.011018645757853876
1.54400e-06;-0.011003721210115365
1.54425e-06;-0.010988796662376865
1.54450e-06;-0.010973872114638366
1.54475e-06;-0.010958947566899855
1.54500e-06;-0.010944023019161355
1.54525e-06;-0.010929098471422843
1.54550e-06;-0.010916248545383929
1.54575e-06;-0.010904796175164159
1.54600e-06;-0.010893343804944399
1.54625e-06;-0.010881891434724638
1.54650e-06;-0.010870439064504868
1.54675e-06;-0.010858986694285108
1.54700e-06;-0.010847534324065338
1.54725e-06;-0.010836081953845576
1.54750e-06;-0.010824629583625817
1.54775e-06;-0.010814742651935747
1.54800e-06;-0.010805910268034867
1.54825e-06;-0.010797077884133978
1.54850e-06;-0.010788245500233096
1.54875e-06;-0.010779413116332216
1.54900e-06;-0.010770580732431327
1.54925e-06;-0.010761748348530447
1.54950e-06;-0.010752915964629559
1.54975e-06;-0.010744083580728678
1.55000e-06;-0.01073525119682779
1.55025e-06;-0.010723256260696222
1.55050e-06;-0.010709130891207029
1.55075e-06;-0.010695005521717824
1.55100e-06;-0.010680880152228631
1.55125e-06;-0.010666754782739426
1.55150e-06;-0.010652629413250233
1.55175e-06;-0.01063850404376104
1.55200e-06;-0.010624378674271837
1.55225e-06;-0.010610253304782644
1.55250e-06;-0.010596127935293439
1.55275e-06;-0.010579361558055746
1.55300e-06;-0.01056081608261045
1.55325e-06;-0.010542270607165137
1.55350e-06;-0.010523725131719841
1.55375e-06;-0.01050517965627453
1.55400e-06;-0.010486634180829232
1.55425e-06;-0.01046808870538392
1.55450e-06;-0.010449543229938624
1.55475e-06;-0.010430997754493326
1.55500e-06;-0.010412666544933006
1.55525e-06;-0.010396318696661936
1.55550e-06;-0.010379970848390855
1.55575e-06;-0.010363623000119787
1.55600e-06;-0.010347275151848719
1.55625e-06;-0.010330927303577637
1.55650e-06;-0.01031457945530657
1.55675e-06;-0.010298231607035488
1.55700e-06;-0.01028188375876442
1.55725e-06;-0.010265535910493352
1.55750e-06;-0.010252894688896157
1.55775e-06;-0.010242750412972587
1.55800e-06;-0.010232606137049008
1.55825e-06;-0.010230226151252676
1.55850e-06;-0.01023307653051533
1.55875e-06;-0.010235926909777981
1.55900e-06;-0.010238777289040634
1.55925e-06;-0.010241627668303287
1.55950e-06;-0.01024447804756594
1.55975e-06;-0.010247328426828593
1.56000e-06;-0.010262343905539829
1.56025e-06;-0.010285554326744396
1.56050e-06;-0.010308764747948982
1.56075e-06;-0.010331975169153549
1.56100e-06;-0.010355185590358137
1.56125e-06;-0.010378396011562704
1.56150e-06;-0.01040160643276727
1.56175e-06;-0.010435117346287512
1.56200e-06;-0.010475567121469792
1.56225e-06;-0.010516016896652108
1.56250e-06;-0.01055646667183439
1.56275e-06;-0.010596916447016705
1.56300e-06;-0.010637366222198987
1.56325e-06;-0.01067878008541516
1.56350e-06;-0.010729118070573173
1.56375e-06;-0.010779456055731143
1.56400e-06;-0.010829794040889155
1.56425e-06;-0.010880132026047125
1.56450e-06;-0.010930470011205095
1.56475e-06;-0.010980807996363107
1.56500e-06;-0.011032211795697003
1.56525e-06;-0.01108433357402626
1.56550e-06;-0.011136455352355475
1.56575e-06;-0.01118726981110377
1.56600e-06;-0.011237203602264398
1.56625e-06;-0.011287137393424981
1.56650e-06;-0.01133440275389731
1.56675e-06;-0.011379870542871753
1.56700e-06;-0.011425338331846235
1.56725e-06;-0.01146253584274938
1.56750e-06;-0.011494162133007618
1.56775e-06;-0.011525788423265883
1.56800e-06;-0.01155741471352412
1.56825e-06;-0.011589041003782385
1.56850e-06;-0.011620667294040623
1.56875e-06;-0.01165229358429886
1.56900e-06;-0.011683919874557124
1.56925e-06;-0.011713705015610414
1.56950e-06;-0.011726447480643675
1.56975e-06;-0.011739189945676926
1.57000e-06;-0.011751932410710177
1.57025e-06;-0.01176467487574344
1.57050e-06;-0.011777417340776692
1.57075e-06;-0.011790159805809953
1.57100e-06;-0.011802902270843204
1.57125e-06;-0.011815644735876468
1.57150e-06;-0.011819340451792028
1.57175e-06;-0.01181694188224125
1.57200e-06;-0.01181454331269047
1.57225e-06;-0.01181214474313969
1.57250e-06;-0.011809746173588908
1.57275e-06;-0.01180734760403813
1.57300e-06;-0.01180494903448735
1.57325e-06;-0.011802550464936569
1.57350e-06;-0.01180015189538579
1.57375e-06;-0.011793048793126234
1.57400e-06;-0.011782776512088798
1.57425e-06;-0.011772504231051362
1.57450e-06;-0.011762231950013916
1.57475e-06;-0.01175195966897648
1.57500e-06;-0.011741687387939034
1.57525e-06;-0.011731415106901597
1.57550e-06;-0.01172114282586416
1.57575e-06;-0.011710870544826715
1.57600e-06;-0.01170119397403013
1.57625e-06;-0.011691918699678882
1.57650e-06;-0.011682643425327642
1.57675e-06;-0.011673368150976396
1.57700e-06;-0.011664092876625157
1.57725e-06;-0.011654817602273918
1.57750e-06;-0.01164554232792267
1.57775e-06;-0.01163626705357143
1.57800e-06;-0.011630300305887402
1.57825e-06;-0.01162656232631886
1.57850e-06;-0.01162282434675032
1.57875e-06;-0.011619086367181775
1.57900e-06;-0.011615348387613234
1.57925e-06;-0.011611610408044691
1.57950e-06;-0.01160787242847615
1.57975e-06;-0.01160413444890761
1.58000e-06;-0.011604087883031695
1.58025e-06;-0.01160652801470023
1.58050e-06;-0.011608968146368765
1.58075e-06;-0.011611408278037298
1.58100e-06;-0.011613848409705835
1.58125e-06;-0.011616288541374368
1.58150e-06;-0.011618728673042903
1.58175e-06;-0.011621168804711438
1.58200e-06;-0.01162360893637997
1.58225e-06;-0.011626049068048507
1.58250e-06;-0.01162848919971704
1.58275e-06;-0.011630929331385573
1.58300e-06;-0.01163336946305411
1.58325e-06;-0.011635809594722643
1.58350e-06;-0.011640506506161583
1.58375e-06;-0.01164672368305451
1.58400e-06;-0.011652940859947438
1.58425e-06;-0.011659158036840372
1.58450e-06;-0.011665375213733299
1.58475e-06;-0.011671592390626232
1.58500e-06;-0.01167780956751916
1.58525e-06;-0.011684026744412093
1.58550e-06;-0.01169024392130502
1.58575e-06;-0.011696461098197948
1.58600e-06;-0.011702678275090882
1.58625e-06;-0.011708895451983808
1.58650e-06;-0.011715112628876742
1.58675e-06;-0.011721329805769669
1.58700e-06;-0.011726459392348672
1.58725e-06;-0.011730856330574479
1.58750e-06;-0.011735253268800282
1.58775e-06;-0.011739650207026088
1.58800e-06;-0.011744047145251891
1.58825e-06;-0.011748444083477694
1.58850e-06;-0.011752841021703498
1.58875e-06;-0.011757237959929301
1.58900e-06;-0.011760833312582906
1.58925e-06;-0.011757008754254726
1.58950e-06;-0.011753184195926544
1.58975e-06;-0.011749359637598364
1.59000e-06;-0.011745535079270184
1.59025e-06;-0.011741710520942002
1.59050e-06;-0.011737885962613822
1.59075e-06;-0.01173406140428564
1.59100e-06;-0.01173023684595746
1.59125e-06;-0.011720865471996269
1.59150e-06;-0.011707757520679688
1.59175e-06;-0.01169464956936312
1.59200e-06;-0.01168154161804654
1.59225e-06;-0.011668433666729972
1.59250e-06;-0.011655325715413403
1.59275e-06;-0.011642217764096824
1.59300e-06;-0.011629109812780255
1.59325e-06;-0.011616001861463675
1.59350e-06;-0.01160001260103841
1.59375e-06;-0.011582082364910753
1.59400e-06;-0.011564152128783112
1.59425e-06;-0.011546221892655471
1.59450e-06;-0.011528291656527814
1.59475e-06;-0.011510361420400173
1.59500e-06;-0.011492431184272517
1.59525e-06;-0.011474500948144875
1.59550e-06;-0.011456570712017233
1.59575e-06;-0.011440604052093403
1.59600e-06;-0.01142596014289072
1.59625e-06;-0.011411316233688027
1.59650e-06;-0.011396672324485345
1.59675e-06;-0.011382028415282663
1.59700e-06;-0.011367384506079969
1.59725e-06;-0.011352740596877287
1.59750e-06;-0.011338096687674593
1.59775e-06;-0.011323452778471911
1.59800e-06;-0.01131763074143811
1.59825e-06;-0.01131775150293195
1.59850e-06;-0.011317872264425792
1.59875e-06;-0.011317993025919635
1.59900e-06;-0.011318113787413476
1.59925e-06;-0.011318234548907319
1.59950e-06;-0.01131835531040116
1.59975e-06;-0.011318476071895001
1.60000e-06;-0.011318596833388844
1.60025e-06;-0.011329504707891555
1.60050e-06;-0.011347679253014597
1.60075e-06;-0.011365853798137622
1.60100e-06;-0.011384028343260648
1.60125e-06;-0.01140220288838369
1.60150e-06;-0.011420377433506716
1.60175e-06;-0.011439784856861255
1.60200e-06;-0.011470604470061225
1.60225e-06;-0.01150142408326122
1.60250e-06;-0.01153224369646119
1.60275e-06;-0.01156306330966116
1.60300e-06;-0.011593882922861155
1.60325e-06;-0.011624702536061125
1.60350e-06;-0.011659822703326004
1.60375e-06;-0.011697839911703523
1.60400e-06;-0.011735857120081045
1.60425e-06;-0.011773874328458597
1.60450e-06;-0.011811891536836117
1.60475e-06;-0.01184990874521367
1.60500e-06;-0.011888255936782827
1.60525e-06;-0.011926825419447095
1.60550e-06;-0.011965394902111395
1.60575e-06;-0.012003964384775662
1.60600e-06;-0.012042533867439961
1.60625e-06;-0.01208110335010423
1.60650e-06;-0.012117692840874682
1.60675e-06;-0.012152948522598038
1.60700e-06;-0.012182136308680164
1.60725e-06;-0.012207236495147357
1.60750e-06;-0.012232336681614529
1.60775e-06;-0.012257436868081721
1.60800e-06;-0.012282537054548893
1.60825e-06;-0.012307637241016064
1.60850e-06;-0.012332737427483257
1.60875e-06;-0.012357837613950429
1.60900e-06;-0.012382937800417621
1.60925e-06;-0.012408037986884793
1.60950e-06;-0.012433138173351965
1.60975e-06;-0.012458238359819159
1.61000e-06;-0.012482467464325847
1.61025e-06;-0.012498633361576037
1.61050e-06;-0.01251479925882621
1.61075e-06;-0.0125309651560764
1.61100e-06;-0.012547131053326575
1.61125e-06;-0.012563296950576749
1.61150e-06;-0.012579462847826938
1.61175e-06;-0.012595628745077114
1.61200e-06;-0.012611794642327302
1.61225e-06;-0.012627960539577477
1.61250e-06;-0.012644126436827652
1.61275e-06;-0.01266029233407784
1.61300e-06;-0.012676458231328016
1.61325e-06;-0.012690613763020676
1.61350e-06;-0.01270341502463941
1.61375e-06;-0.012716216286258143
1.61400e-06;-0.012729017547876888
1.61425e-06;-0.012741818809495622
1.61450e-06;-0.012754620071114366
1.61475e-06;-0.012767421332733099
1.61500e-06;-0.012780222594351832
1.61525e-06;-0.012791659266962628
1.61550e-06;-0.01280217669279776
1.61575e-06;-0.012812694118632902
1.61600e-06;-0.012823211544468034
1.61625e-06;-0.012833728970303175
1.61650e-06;-0.012844246396138308
1.61675e-06;-0.01285476382197344
1.61700e-06;-0.012865281247808582
1.61725e-06;-0.012874956743510557
1.61750e-06;-0.012883630479854087
1.61775e-06;-0.012892011451703052
1.61800e-06;-0.012898783964166757
1.61825e-06;-0.012904472948113801
1.61850e-06;-0.012907292803332106
1.61875e-06;-0.01290817988808443
1.61900e-06;-0.01290629160830328
1.61925e-06;-0.012902533721714706
1.61950e-06;-0.012895522189727187
1.61975e-06;-0.012886318860044836
1.62000e-06;-0.012877115530362478
1.62025e-06;-0.012861257295141586
1.62050e-06;-0.012840916024792324
1.62075e-06;-0.01282057475444308
1.62100e-06;-0.012800233484093836
1.62125e-06;-0.012779892213744575
1.62150e-06;-0.01275834415794542
1.62175e-06;-0.012725625441248136
1.62200e-06;-0.012692906724550878
1.62225e-06;-0.012660188007853622
1.62250e-06;-0.012627469291156337
1.62275e-06;-0.012594750574459081
1.62300e-06;-0.012556582743703033
1.62325e-06;-0.012514744151641402
1.62350e-06;-0.012472905559579769
1.62375e-06;-0.012431066967518101
1.62400e-06;-0.012389228375456468
1.62425e-06;-0.0123473897833948
1.62450e-06;-0.012305365338997896
1.62475e-06;-0.012261620544546587
1.62500e-06;-0.012217875750095317
1.62525e-06;-0.012174130955644047
1.62550e-06;-0.01213038616119274
1.62575e-06;-0.01208664136674147
1.62600e-06;-0.01204289657229016
1.62625e-06;-0.012001857834059463
1.62650e-06;-0.011962642013528412
1.62675e-06;-0.011923426192997329
1.62700e-06;-0.011887888043484233
1.62725e-06;-0.011854827333848787
1.62750e-06;-0.011821766624213371
1.62775e-06;-0.011793719655820475
1.62800e-06;-0.011769050162582322
1.62825e-06;-0.011744380669344192
1.62850e-06;-0.01172795971431086
1.62875e-06;-0.011717095334996583
1.62900e-06;-0.011706230955682297
1.62925e-06;-0.01169536657636802
1.62950e-06;-0.011684502197053744
1.62975e-06;-0.011673637817739458
1.63000e-06;-0.011664616231942714
1.63025e-06;-0.01167265254279888
1.63050e-06;-0.011680688853655037
1.63075e-06;-0.011688725164511195
1.63100e-06;-0.011696761475367362
1.63125e-06;-0.01170479778622352
1.63150e-06;-0.011712834097079685
1.63175e-06;-0.01172991150792336
1.63200e-06;-0.011753079398730352
1.63225e-06;-0.011776247289537365
1.63250e-06;-0.011799415180344358
1.63275e-06;-0.01182258307115137
1.63300e-06;-0.011845750961958362
1.63325e-06;-0.01187446902536844
1.63350e-06;-0.011906925927534647
1.63375e-06;-0.011939382829700855
1.63400e-06;-0.01197183973186709
1.63425e-06;-0.012004296634033297
1.63450e-06;-0.012036753536199533
1.63475e-06;-0.012071019132071129
1.63500e-06;-0.012106503143045694
1.63525e-06;-0.012141987154020291
1.63550e-06;-0.012177435180318533
1.63575e-06;-0.012212858965766637
1.63600e-06;-0.012247677874774009
1.63625e-06;-0.012282089312583476
1.63650e-06;-0.012315326332979814
1.63675e-06;-0.012347772214495555
1.63700e-06;-0.012378523384695625
1.63725e-06;-0.012408132923310375
1.63750e-06;-0.012435530795491312
1.63775e-06;-0.012461438792533253
1.63800e-06;-0.012484602865261379
1.63825e-06;-0.01250591851068791
1.63850e-06;-0.012524173047282478
1.63875e-06;-0.012540365487226044
1.63900e-06;-0.012552614915535642
1.63925e-06;-0.0125622081589359
1.63950e-06;-0.012571801402336163
1.63975e-06;-0.0125765202059985
1.64000e-06;-0.012577955374085984
1.64025e-06;-0.012579390542173467
1.64050e-06;-0.012573804153920932
1.64075e-06;-0.01256348773854148
1.64100e-06;-0.012553171323162034
1.64125e-06;-0.01254285490778258
1.64150e-06;-0.012532538492403137
1.64175e-06;-0.012522222077023682
1.64200e-06;-0.012504254280724481
1.64225e-06;-0.012481132179944074
1.64250e-06;-0.012458010079163648
1.64275e-06;-0.01243488797838324
1.64300e-06;-0.012411765877602813
1.64325e-06;-0.012388643776822405
1.64350e-06;-0.01236082619657478
1.64375e-06;-0.012329845536209574
1.64400e-06;-0.012298864875844393
1.64425e-06;-0.012267884215479188
1.64450e-06;-0.012236903555114007
1.64475e-06;-0.012205922894748828
1.64500e-06;-0.012174898425534885
1.64525e-06;-0.012143468437847556
1.64550e-06;-0.012112038450160201
1.64575e-06;-0.012080608462472872
1.64600e-06;-0.012049178474785515
1.64625e-06;-0.012017748487098186
1.64650e-06;-0.011986318499410857
1.64675e-06;-0.011957412461511236
1.64700e-06;-0.011930206666461569
1.64725e-06;-0.011905164681936012
1.64750e-06;-0.011881580334717737
