Time(s);Current(A)
3.00000e-06;-0.00472868081556296
3.00025e-06;-0.004738478625993323
3.00050e-06;-0.004747494582268733
3.00075e-06;-0.0047553832960710845
3.00100e-06;-0.004761191770088963
3.00125e-06;-0.004762391286461004
3.00150e-06;-0.004762439249573596
3.00175e-06;-0.004755628310088336
3.00200e-06;-0.004746890796913712
3.00225e-06;-0.004738153283739089
3.00250e-06;-0.0047216882352135985
3.00275e-06;-0.004703052625715971
3.00300e-06;-0.004684417016218345
3.00325e-06;-0.004653596093645781
3.00350e-06;-0.004619352480164259
3.00375e-06;-0.004585108866682738
3.00400e-06;-0.004550865253201216
3.00425e-06;-0.004516621639719752
3.00450e-06;-0.004469326285923112
3.00475e-06;-0.004418364873433698
3.00500e-06;-0.00436740346094437
3.00525e-06;-0.0043164420484549555
3.00550e-06;-0.004265480635965542
3.00575e-06;-0.00420595436880755
3.00600e-06;-0.004144022348918195
3.00625e-06;-0.004082090329028841
3.00650e-06;-0.0040163243522421494
3.00675e-06;-0.003949481468416961
3.00700e-06;-0.003882638584591659
3.00725e-06;-0.0038136994941031675
3.00750e-06;-0.003744171607295367
3.00775e-06;-0.0036741004008797257
3.00800e-06;-0.0036038765832779257
3.00825e-06;-0.0035340550294071025
3.00850e-06;-0.0034650466557585163
3.00875e-06;-0.0033972199840982134
3.00900e-06;-0.0033308566079939513
3.00925e-06;-0.003266218008544318
3.00950e-06;-0.0032036621985019743
3.00975e-06;-0.003144820464635994
3.01000e-06;-0.003086888475204711
3.01025e-06;-0.0030344436684425235
3.01050e-06;-0.0029835401376511216
3.01075e-06;-0.0029371740254103677
3.01100e-06;-0.002893950312874572
3.01125e-06;-0.002852027620945451
3.01150e-06;-0.0028103229960541698
3.01175e-06;-0.002770304073717469
3.01200e-06;-0.0027307586426052193
3.01225e-06;-0.00269121321149297
3.01250e-06;-0.0026547287171424733
3.01275e-06;-0.002619103998848986
3.01300e-06;-0.0025847218810366506
3.01325e-06;-0.002550688793023121
3.01350e-06;-0.0025166557050096488
3.01375e-06;-0.0024827406482881707
3.01400e-06;-0.002448858744972587
3.01425e-06;-0.0024149768416570606
3.01450e-06;-0.0023825611196582434
3.01475e-06;-0.0023505572283143714
3.01500e-06;-0.0023185533369705
3.01525e-06;-0.00228669565173947
3.01550e-06;-0.0022548790338433045
3.01575e-06;-0.002223062415947139
3.01600e-06;-0.0021912457980510273
3.01625e-06;-0.002159844811651808
3.01650e-06;-0.0021295088414288637
3.01675e-06;-0.0020991728712059193
3.01700e-06;-0.0020688369009830266
3.01725e-06;-0.0020385009307600822
3.01750e-06;-0.0020089246809454385
3.01775e-06;-0.0019795618263976893
3.01800e-06;-0.0019510112246658982
3.01825e-06;-0.0019226887738492669
3.01850e-06;-0.0018953408991707642
3.01875e-06;-0.0018690413956474218
3.01900e-06;-0.001843653483570084
3.01925e-06;-0.0018190534530816232
3.01950e-06;-0.001795261358667172
3.01975e-06;-0.0017724231379497757
3.02000e-06;-0.0017507080189785
3.02025e-06;-0.0017302856076485864
3.02050e-06;-0.0017113251830665952
3.02075e-06;-0.0016940515192445105
3.02100e-06;-0.0016788060796304979
3.02125e-06;-0.0016659150901731335
3.02150e-06;-0.0016555233831843752
3.02175e-06;-0.0016476484835100261
3.02200e-06;-0.001642285229047043
3.02225e-06;-0.001639428744651986
3.02250e-06;-0.0016400651475648306
3.02275e-06;-0.0016415283135372111
3.02300e-06;-0.001647131405871386
3.02325e-06;-0.0016538973479606513
3.02350e-06;-0.001665824220412998
3.02375e-06;-0.0016792007289419628
3.02400e-06;-0.0016925772374709505
3.02425e-06;-0.0017114694367402975
3.02450e-06;-0.0017319109195151762
3.02475e-06;-0.0017523524022900895
3.02500e-06;-0.0017769498074540412
3.02525e-06;-0.0018027145554424739
3.02550e-06;-0.0018314528376572278
3.02575e-06;-0.0018610263457298722
3.02600e-06;-0.0018924847038668095
3.02625e-06;-0.0019255386808398442
3.02650e-06;-0.0019598156341192113
3.02675e-06;-0.001995146061081292
3.02700e-06;-0.0020313895436464098
3.02725e-06;-0.00206840142545638
3.02750e-06;-0.002105993141892126
3.02775e-06;-0.0021439441510775646
3.02800e-06;-0.0021820288687191473
3.02825e-06;-0.0022200215512078727
3.02850e-06;-0.0022576967163654062
3.02875e-06;-0.002294836982142258
3.02900e-06;-0.002331243209051077
3.02925e-06;-0.0023667138432982983
3.02950e-06;-0.002401019397357072
3.02975e-06;-0.0024339110854423025
3.03000e-06;-0.0024651365701939894
3.03025e-06;-0.002494443463194354
3.03050e-06;-0.0025206239769429775
3.03075e-06;-0.002546047919076762
3.03100e-06;-0.002566479646521435
3.03125e-06;-0.0025855091278578772
3.03150e-06;-0.0026045386091943516
3.03175e-06;-0.002617277410447185
3.03200e-06;-0.002628249244088521
3.03225e-06;-0.0026392210777298392
3.03250e-06;-0.0026435617097981495
3.03275e-06;-0.002646039726338559
3.03300e-06;-0.002648517742878964
3.03325e-06;-0.0026425064496253814
3.03350e-06;-0.002634110623181349
3.03375e-06;-0.0026257147967373162
3.03400e-06;-0.002617318970293298
3.03425e-06;-0.0026089231438492654
3.03450e-06;-0.0025912688168277277
3.03475e-06;-0.0025710139012476018
3.03500e-06;-0.0025507589856674415
3.03525e-06;-0.0025305040700872813
3.03550e-06;-0.002510249154507155
3.03575e-06;-0.00248421904293999
3.03600e-06;-0.002456566756326009
3.03625e-06;-0.0024289144697120283
3.03650e-06;-0.002398622414463286
3.03675e-06;-0.002367588883631949
3.03700e-06;-0.0023350482725505704
3.03725e-06;-0.002302084342852755
3.03750e-06;-0.0022682306341386084
3.03775e-06;-0.0022341269984400515
3.03800e-06;-0.0021997390697115755
3.03825e-06;-0.002165284738091143
3.03850e-06;-0.002131000688835463
3.03875e-06;-0.0020970858737151443
3.03900e-06;-0.0020637529673081267
3.03925e-06;-0.002031228448572325
3.03950e-06;-0.001999741292145721
3.03975e-06;-0.0019695180075015957
3.04000e-06;-0.0019407842585911527
3.04025e-06;-0.0019137654765351085
3.04050e-06;-0.0018886874958291124
3.04075e-06;-0.001865707113972278
3.04100e-06;-0.0018447915614816202
3.04125e-06;-0.0018265271587840843
3.04150e-06;-0.0018088813317552138
3.04175e-06;-0.0017942711144447274
3.04200e-06;-0.0017805135591648466
3.04225e-06;-0.0017700273277891497
3.04250e-06;-0.001760459967395463
3.04275e-06;-0.0017550267923649651
3.04300e-06;-0.0017507548545203087
3.04325e-06;-0.0017464829166756596
3.04350e-06;-0.0017483355266210946
3.04375e-06;-0.0017519084398464977
3.04400e-06;-0.001755481353071895
3.04425e-06;-0.0017590542662972981
3.04450e-06;-0.0017626271795227013
3.04475e-06;-0.0017686108180150028
3.04500e-06;-0.0017807717106979844
3.04525e-06;-0.0017929326033809868
3.04550e-06;-0.0018050934960639892
3.04575e-06;-0.0018172543887469707
3.04600e-06;-0.0018294152814299731
3.04625e-06;-0.0018452957709824914
3.04650e-06;-0.001862221045376944
3.04675e-06;-0.001879146319771368
3.04700e-06;-0.0018975544077153928
3.04725e-06;-0.0019163789980854518
3.04750e-06;-0.0019358533361763413
3.04775e-06;-0.001955510179682141
3.04800e-06;-0.001975451316217855
3.04825e-06;-0.0019954723068502955
3.04850e-06;-0.0020154156803959583
3.04875e-06;-0.0020353372523435925
3.04900e-06;-0.0020547303191860646
3.04925e-06;-0.0020739749360372426
3.04950e-06;-0.002091846560548762
3.04975e-06;-0.0021093325299382406
3.05000e-06;-0.0021268184993276894
3.05025e-06;-0.0021418343549169886
3.05050e-06;-0.0021561563886898544
3.05075e-06;-0.00217047842246272
3.05100e-06;-0.0021829547328175796
3.05125e-06;-0.002194912604234784
3.05150e-06;-0.0022068704756519884
3.05175e-06;-0.002216910134078803
3.05200e-06;-0.0022264109922199124
3.05225e-06;-0.0022359118503610218
3.05250e-06;-0.0022454127085021146
3.05275e-06;-0.002254913566643224
3.05300e-06;-0.0022644144247843333
3.05325e-06;-0.0022739152829254427
3.05350e-06;-0.002283416141066536
3.05375e-06;-0.002290930651623905
3.05400e-06;-0.0022978872238026563
3.05425e-06;-0.002304843795981396
3.05450e-06;-0.002311800368160147
3.05475e-06;-0.0023187569403388983
3.05500e-06;-0.0023257135125176495
3.05525e-06;-0.002332670084696389
3.05550e-06;-0.0023396266568751403
3.05575e-06;-0.0023453633229364537
3.05600e-06;-0.0023507573337410385
3.05625e-06;-0.002356151344545632
3.05650e-06;-0.0023615453553502254
3.05675e-06;-0.00236693936615481
3.05700e-06;-0.0023723333769594033
3.05725e-06;-0.002377727387763997
3.05750e-06;-0.0023831213985685907
3.05775e-06;-0.002388515409373175
3.05800e-06;-0.0023939094201777685
3.05825e-06;-0.0023979477676722306
3.05850e-06;-0.0024016053275364474
3.05875e-06;-0.0024052628874006703
3.05900e-06;-0.0024089204472648932
3.05925e-06;-0.0024125780071291166
3.05950e-06;-0.0024162355669933334
3.05975e-06;-0.0024198931268575564
3.06000e-06;-0.0024235506867217793
3.06025e-06;-0.002427208246585996
3.06050e-06;-0.002430865806450219
3.06075e-06;-0.0024322788373975996
3.06100e-06;-0.0024330614102947494
3.06125e-06;-0.002433843983191901
3.06150e-06;-0.002434626556089052
3.06175e-06;-0.0024354091289862036
3.06200e-06;-0.0024361917018833534
3.06225e-06;-0.0024369742747805045
3.06250e-06;-0.002437756847677656
3.06275e-06;-0.0024354144694088255
3.06300e-06;-0.0024321943342956
3.06325e-06;-0.002428974199182374
3.06350e-06;-0.0024257540640691484
3.06375e-06;-0.002422533928955928
3.06400e-06;-0.0024193137938427023
3.06425e-06;-0.0024160936587294766
3.06450e-06;-0.002412873523616256
3.06475e-06;-0.002407511397756383
3.06500e-06;-0.002401547615442172
3.06525e-06;-0.0023955838331279713
3.06550e-06;-0.00238962005081376
3.06575e-06;-0.0023821639391315495
3.06600e-06;-0.0023742886521575367
3.06625e-06;-0.0023664133651835374
3.06650e-06;-0.0023585380782095247
3.06675e-06;-0.0023506627912355115
3.06700e-06;-0.002342787504261512
3.06725e-06;-0.0023349122172874994
3.06750e-06;-0.002327036930313486
3.06775e-06;-0.0023191616433394734
3.06800e-06;-0.002311286356365474
3.06825e-06;-0.002303720610696205
3.06850e-06;-0.00229624181102527
3.06875e-06;-0.002288763011354348
3.06900e-06;-0.0022812842116834136
3.06925e-06;-0.0022738054120124787
3.06950e-06;-0.0022663266123415567
3.06975e-06;-0.0022588478126706222
3.07000e-06;-0.0022513690129996873
3.07025e-06;-0.002243890213328753
3.07050e-06;-0.002236411413657831
3.07075e-06;-0.0022313015367569538
3.07100e-06;-0.0022268570584703163
3.07125e-06;-0.0022224125801836862
3.07150e-06;-0.002217968101897049
3.07175e-06;-0.0022135236236104114
3.07200e-06;-0.002209079145323774
3.07225e-06;-0.002204634667037144
3.07250e-06;-0.0022001901887505064
3.07275e-06;-0.002195745710463869
3.07300e-06;-0.002191301232177239
3.07325e-06;-0.0021868567538906015
3.07350e-06;-0.002182412275603964
3.07375e-06;-0.002177967797317334
3.07400e-06;-0.002173948066718448
3.07425e-06;-0.0021710167116681315
3.07450e-06;-0.002168085356617815
3.07475e-06;-0.002165154001567504
3.07500e-06;-0.002162222646517187
3.07525e-06;-0.002159291291466871
3.07550e-06;-0.0021563599364165594
3.07575e-06;-0.002153428581366243
3.07600e-06;-0.002150497226315927
3.07625e-06;-0.0021475658712656154
3.07650e-06;-0.002144634516215299
3.07675e-06;-0.0021417031611649824
3.07700e-06;-0.002138771806114666
3.07725e-06;-0.0021358404510643547
3.07750e-06;-0.0021333586837737157
3.07775e-06;-0.002131003199651136
3.07800e-06;-0.002128647715528561
3.07825e-06;-0.0021262922314059813
3.07850e-06;-0.002123936747283402
3.07875e-06;-0.002121688473580175
3.07900e-06;-0.0021197149163788794
3.07925e-06;-0.0021177413591775803
3.07950e-06;-0.002115767801976281
3.07975e-06;-0.0021137942447749854
3.08000e-06;-0.0021118206875736863
3.08025e-06;-0.0021100739583353495
3.08050e-06;-0.002108390942027699
3.08075e-06;-0.0021073982997146324
3.08100e-06;-0.002106599574191577
3.08125e-06;-0.0021082648730717966
3.08150e-06;-0.0021106222833387903
3.08175e-06;-0.002115772454546507
3.08200e-06;-0.002121707074822605
3.08225e-06;-0.002130732927366187
3.08250e-06;-0.0021406270655682583
3.08275e-06;-0.0021505212037703295
3.08300e-06;-0.002165621776185137
3.08325e-06;-0.0021821847660980363
3.08350e-06;-0.0021987477560109635
3.08375e-06;-0.0022153107459238906
3.08400e-06;-0.0022377380521137213
3.08425e-06;-0.0022618125660445487
3.08450e-06;-0.002285887079975376
3.08475e-06;-0.0023099615939061627
3.08500e-06;-0.002337747958696096
3.08525e-06;-0.002366576932577996
3.08550e-06;-0.0023978500267156
3.08575e-06;-0.0024298096414320162
3.08600e-06;-0.0024632351648054907
3.08625e-06;-0.0024978366160953174
3.08650e-06;-0.002533257654230579
3.08675e-06;-0.0025693352185008843
3.08700e-06;-0.002606006804945291
3.08725e-06;-0.002643234927830172
3.08750e-06;-0.0026808837622088097
3.08775e-06;-0.00271873732856179
3.08800e-06;-0.0027565652552672625
3.08825e-06;-0.0027941367274994786
3.08850e-06;-0.0028312213225791735
3.08875e-06;-0.0028676147645440016
3.08900e-06;-0.0029031749741265504
3.08925e-06;-0.0029377763820950154
3.08950e-06;-0.00297123101386528
3.08975e-06;-0.0030033014696975208
3.09000e-06;-0.0030337406876785526
3.09025e-06;-0.003062301946984032
3.09050e-06;-0.0030887384981892374
3.09075e-06;-0.003112710836562981
3.09100e-06;-0.0031336809153826852
3.09125e-06;-0.003151125491273822
3.09150e-06;-0.0031633390233186715
3.09175e-06;-0.0031743072092799084
3.09200e-06;-0.003177941095561763
3.09225e-06;-0.003179514875492435
3.09250e-06;-0.003181088655423104
3.09275e-06;-0.0031736255282276906
3.09300e-06;-0.0031636240550988832
3.09325e-06;-0.0031536225819700932
3.09350e-06;-0.0031321492105053825
3.09375e-06;-0.0031074535367548715
3.09400e-06;-0.0030827578630043605
3.09425e-06;-0.003058062189253891
3.09450e-06;-0.003029133528673805
3.09475e-06;-0.0029893582419761333
3.09500e-06;-0.002949582955278529
3.09525e-06;-0.0029098076685808577
3.09550e-06;-0.002870032381883186
3.09575e-06;-0.002822343161685107
3.09600e-06;-0.0027724310237744678
3.09625e-06;-0.002722518885863744
3.09650e-06;-0.0026689565635967935
3.09675e-06;-0.002614368953530949
3.09700e-06;-0.0025581546565568
3.09725e-06;-0.002500619296042854
3.09750e-06;-0.0024422133635971905
3.09775e-06;-0.002383271894656951
3.09800e-06;-0.0023280439543705354
3.09825e-06;-0.0023110275967046737
3.09850e-06;-0.002246580880806428
3.09875e-06;-0.0021886238243121955
3.09900e-06;-0.0021193706337879394
3.09925e-06;-0.002068051301732892
3.09950e-06;-0.0020115375145786786
3.09975e-06;-0.0019605032995853346
3.10000e-06;-0.001911868945758962
3.10025e-06;-0.0018659793466747501
3.10050e-06;-0.0018232484802737441
3.10075e-06;-0.0017839236652122433
3.10100e-06;-0.0017453275107854479
3.10125e-06;-0.0017072731174054947
3.10150e-06;-0.0016741394397618184
3.10175e-06;-0.0016456044214062224
3.10200e-06;-0.0016195569113237659
3.10225e-06;-0.0015961522569431438
3.10250e-06;-0.0015755891088870104
3.10275e-06;-0.0015579620279960926
3.10300e-06;-0.0015420339816768617
3.10325e-06;-0.0015261340934370608
3.10350e-06;-0.0015144212128431255
3.10375e-06;-0.0015061579041466024
3.10400e-06;-0.0015020344145345022
3.10425e-06;-0.00149798060019784
3.10450e-06;-0.001493926785861185
3.10475e-06;-0.0014940969502876397
3.10500e-06;-0.001495721907465797
3.10525e-06;-0.0014973704648381869
3.10550e-06;-0.0015018722080932538
3.10575e-06;-0.0015086129885829576
3.10600e-06;-0.0015172821754214302
3.10625e-06;-0.0015259836386513845
3.10650e-06;-0.0015365343445146434
3.10675e-06;-0.0015482820623404032
3.10700e-06;-0.0015605518156337913
3.10725e-06;-0.001572830139626878
3.10750e-06;-0.0015868984723424757
3.10775e-06;-0.0016009973573459292
3.10800e-06;-0.001616045988001164
3.10825e-06;-0.0016311108291375003
3.10850e-06;-0.0016464951327762839
3.10875e-06;-0.0016617484507730842
3.10900e-06;-0.0016769994400090218
3.10925e-06;-0.0016913746830585679
3.10950e-06;-0.001705734978667183
3.10975e-06;-0.001719428821240892
3.11000e-06;-0.0017331112886381944
3.11025e-06;-0.0017455999781174317
3.11050e-06;-0.001757133025664403
3.11075e-06;-0.0017679397607852341
3.11100e-06;-0.0017791457467197624
3.11125e-06;-0.0017926316193521824
3.11150e-06;-0.0018095232900702217
3.11175e-06;-0.0018295667862129924
3.11200e-06;-0.0018522810647230788
3.11225e-06;-0.0018784573375001162
3.11250e-06;-0.0019046919377274424
3.11275e-06;-0.0019340408681223634
3.11300e-06;-0.0019660163962109396
3.11325e-06;-0.00200360921571526
3.11350e-06;-0.0020412971627575462
3.11375e-06;-0.0020846941141832737
3.11400e-06;-0.0021313867960299827
3.11425e-06;-0.002180983017802599
3.11450e-06;-0.0022331281667087983
3.11475e-06;-0.0022875967544347415
3.11500e-06;-0.0023445171226229283
3.11525e-06;-0.0024043143471796846
3.11550e-06;-0.0024671162875124584
3.11575e-06;-0.0025325106515561107
3.11600e-06;-0.002599994976987867
3.11625e-06;-0.0026691530959288773
3.11650e-06;-0.0027395701080797003
3.11675e-06;-0.0028109123770142168
3.11700e-06;-0.00288306787764424
3.11725e-06;-0.002956110108841765
3.11750e-06;-0.003029926810144254
3.11775e-06;-0.00310406735380201
3.11800e-06;-0.0031780243418514883
3.11825e-06;-0.00325134490444291
3.11850e-06;-0.0033235766594501646
3.11875e-06;-0.003394318037911045
3.11900e-06;-0.0034633068369007316
3.11925e-06;-0.003530396763390839
3.11950e-06;-0.00359532488009906
3.11975e-06;-0.003657616989832187
3.12000e-06;-0.0037167628169972643
3.12025e-06;-0.0037722865564309934
3.12050e-06;-0.003823712542942937
3.12075e-06;-0.0038708915481921956
3.12100e-06;-0.003914806218439006
3.12125e-06;-0.003957056600595735
3.12150e-06;-0.003998257134922584
3.12175e-06;-0.004038137645443042
3.12200e-06;-0.0040763595793907505
3.12225e-06;-0.004112605446326567
3.12250e-06;-0.00414655813091396
3.12275e-06;-0.004178105633116952
3.12300e-06;-0.004207843622008538
3.12325e-06;-0.004236755219824579
3.12350e-06;-0.004265205911811913
3.12375e-06;-0.004292572113573067
3.12400e-06;-0.004319919935315318
3.12425e-06;-0.004344421934875392
3.12450e-06;-0.0043688753612762124
3.12475e-06;-0.004393328787676991
3.12500e-06;-0.004415178516467487
3.12525e-06;-0.004436983804737603
3.12550e-06;-0.004457896978803496
3.12575e-06;-0.004478794926055257
3.12600e-06;-0.004499692873307054
3.12625e-06;-0.004518331020290811
3.12650e-06;-0.004536930596474503
3.12675e-06;-0.004555530172658227
3.12700e-06;-0.004573144693041418
3.12725e-06;-0.00458970573715537
3.12750e-06;-0.004606266781269351
3.12775e-06;-0.0046228278253833315
3.12800e-06;-0.004637315783454994
3.12825e-06;-0.004651768357608708
3.12850e-06;-0.004666220931762446
3.12875e-06;-0.004680673505916185
3.12900e-06;-0.004693806036149419
3.12925e-06;-0.004705526834231244
3.12950e-06;-0.004717247632313067
3.12975e-06;-0.004728968430394892
3.13000e-06;-0.004740689228476696
3.13025e-06;-0.004750779532881943
3.13050e-06;-0.00476005313785551
3.13075e-06;-0.004767658391486066
3.13100e-06;-0.004775235399122494
3.13125e-06;-0.00477918992403697
3.13150e-06;-0.0047830826195682154
3.13175e-06;-0.004781910844342524
3.13200e-06;-0.004780652627544217
3.13225e-06;-0.0047793944107459106
3.13250e-06;-0.004771148996169564
3.13275e-06;-0.004762784322465651
3.13300e-06;-0.004754419648761739
3.13325e-06;-0.0047460549750578404
3.13350e-06;-0.0047290125048080915
3.13375e-06;-0.004711821919895195
3.13400e-06;-0.004694631334982299
3.13425e-06;-0.004677440750069432
3.13450e-06;-0.004653615280378324
3.13475e-06;-0.004629676564920407
3.13500e-06;-0.004605737849462532
3.13525e-06;-0.004576684071192481
3.13550e-06;-0.0045475429878327625
3.13575e-06;-0.004518401904473094
3.13600e-06;-0.004485294190323604
3.13625e-06;-0.004452118772791081
3.13650e-06;-0.004418943355258558
3.13675e-06;-0.004383254970060965
3.13700e-06;-0.004347523692942838
3.13725e-06;-0.004311792415824712
3.13750e-06;-0.004274734146489458
3.13775e-06;-0.004237653227740284
3.13800e-06;-0.004200572308991111
3.13825e-06;-0.004163961598755009
3.13850e-06;-0.004127358914147962
3.13875e-06;-0.004090756229540854
3.13900e-06;-0.004055824303679881
3.13925e-06;-0.004020920894720432
3.13950e-06;-0.0039889152735382415
3.13975e-06;-0.0039569591124763185
3.14000e-06;-0.00392500295141445
3.14025e-06;-0.0038962784246479635
3.14050e-06;-0.0038696116774343758
3.14075e-06;-0.003844851017471919
3.14100e-06;-0.0038206144927925598
3.14125e-06;-0.003794952622049379
3.14150e-06;-0.0037662198826099646
3.14175e-06;-0.0037374351465504075
3.14200e-06;-0.0037050075154389374
3.14225e-06;-0.00367251770654176
3.14250e-06;-0.0036400278976445825
3.14275e-06;-0.003604803294378782
3.14300e-06;-0.003569532013002301
3.14325e-06;-0.0035280128035776416
3.14350e-06;-0.0034863869530542004
3.14375e-06;-0.003444761102530689
3.14400e-06;-0.0033956449189110577
3.14425e-06;-0.003346400888532382
3.14450e-06;-0.003297156858153623
