Time(s);Current(A)
6.00000e-06;-0.0011253327978494351
6.00025e-06;-0.0010989291985198733
6.00050e-06;-0.001071677594041067
6.00075e-06;-0.0010439088655469786
6.00100e-06;-0.0010156589414757496
6.00125e-06;-0.0009872103809978354
6.00150e-06;-0.0009585769848566044
6.00175e-06;-0.0009301324711940693
6.00200e-06;-0.0009018637169446307
6.00225e-06;-0.0008743360803149113
6.00250e-06;-0.0008474980703706347
6.00275e-06;-0.0008222284528505336
6.00300e-06;-0.0007984182599079143
6.00325e-06;-0.0007746080669652143
6.00350e-06;-0.00075325278844889
6.00375e-06;-0.0007341818632577806
6.00400e-06;-0.0007151109380667358
6.00425e-06;-0.0006976488632463411
6.00450e-06;-0.0006816838600364776
6.00475e-06;-0.000665718856826668
6.00500e-06;-0.0006513512264133161
6.00525e-06;-0.000638469987468444
6.00550e-06;-0.0006255887485236155
6.00575e-06;-0.0006143979190691249
6.00600e-06;-0.00060478005382827
6.00625e-06;-0.0005951621885874478
6.00650e-06;-0.0005866214263478247
6.00675e-06;-0.0005790829327803424
6.00700e-06;-0.0005715444392128856
6.00725e-06;-0.0005652246690477734
6.00750e-06;-0.000560038948536975
6.00775e-06;-0.0005548532280261942
6.00800e-06;-0.0005512442329900979
6.00825e-06;-0.0005491024166231684
6.00850e-06;-0.0005469606002562388
6.00875e-06;-0.000544818783889302
6.00900e-06;-0.0005426769675223724
6.00925e-06;-0.0005405351511554428
6.00950e-06;-0.000538393334788506
6.00975e-06;-0.0005362515184215765
6.01000e-06;-0.0005355008202296293
6.01025e-06;-0.0005360445889219271
6.01050e-06;-0.0005365883576142231
6.01075e-06;-0.0005371321263065191
6.01100e-06;-0.000537675894998817
6.01125e-06;-0.000538219663691113
6.01150e-06;-0.000538763432383409
6.01175e-06;-0.0005393072010757068
6.01200e-06;-0.0005402149258738512
6.01225e-06;-0.0005414613200494782
6.01250e-06;-0.0005427077142251008
6.01275e-06;-0.0005439541084007235
6.01300e-06;-0.000545190010734037
6.01325e-06;-0.0005458533452378067
6.01350e-06;-0.0005465166797415763
6.01375e-06;-0.0005471800142453481
6.01400e-06;-0.0005478433487491178
6.01425e-06;-0.0005469455723544803
6.01450e-06;-0.0005445951470067866
6.01475e-06;-0.0005422447216591007
6.01500e-06;-0.0005382356260322616
6.01525e-06;-0.0005326831002449389
6.01550e-06;-0.0005271305744576351
6.01575e-06;-0.0005202392931586775
6.01600e-06;-0.0005121022696165735
6.01625e-06;-0.000502565157903831
6.01650e-06;-0.0004917252325233706
6.01675e-06;-0.0004795609061368426
6.01700e-06;-0.00046616419469887966
6.01725e-06;-0.0004516521434547774
6.01750e-06;-0.0004361022433281339
6.01775e-06;-0.0004195475303243988
6.01800e-06;-0.00040205781624200903
6.01825e-06;-0.00038349785354155363
6.01850e-06;-0.0003639420003274387
6.01875e-06;-0.0003433297429421194
6.01900e-06;-0.00032173447761385613
6.01925e-06;-0.0003001392122855929
6.01950e-06;-0.00027776406488583315
6.01975e-06;-0.0002546632196029358
6.02000e-06;-0.00023156237432003844
6.02025e-06;-0.0002079994335577322
6.02050e-06;-0.00018400650251431343
6.02075e-06;-0.0001600135714708134
6.02100e-06;-0.0001360421677886893
6.02125e-06;-0.00011209079580250318
6.02150e-06;-8.837663308859779e-05
6.02175e-06;-6.51273015616271e-05
6.02200e-06;-4.2388037232753394e-05
6.02225e-06;-2.0240001028832092e-05
6.02250e-06;1.204829922714555e-06
6.02275e-06;2.180105195296297e-05
6.02300e-06;4.139384210621224e-05
6.02325e-06;5.982840126981602e-05
6.02350e-06;7.69503024055802e-05
6.02375e-06;9.266083194580493e-05
6.02400e-06;0.00010701587909228518
6.02425e-06;0.00012017222841104285
6.02450e-06;0.00013221199898368248
6.02475e-06;0.00014310721994359373
6.02500e-06;0.00015279616259015913
6.02525e-06;0.00016121711978864058
6.02550e-06;0.00016830863262847054
6.02575e-06;0.0001740441330451557
6.02600e-06;0.00017849390988147393
6.02625e-06;0.00018179143827687228
6.02650e-06;0.00018402340356123595
6.02675e-06;0.00018520754758562802
6.02700e-06;0.00018534045064997926
6.02725e-06;0.00018441872320545185
6.02750e-06;0.0001824391168268056
6.02775e-06;0.00017942025749976257
6.02800e-06;0.00017544143814887949
6.02825e-06;0.0001706214990645623
6.02850e-06;0.0001648714598711549
6.02875e-06;0.00015860711502383825
6.02900e-06;0.00015166299149715974
6.02925e-06;0.00014408631855475644
6.02950e-06;0.00013590544103039978
6.02975e-06;0.00012716233749501956
6.03000e-06;0.00011798289832265187
6.03025e-06;0.0001083974389843836
6.03050e-06;9.852370547019433e-05
6.03075e-06;8.838172632387685e-05
6.03100e-06;7.823974717759373e-05
6.03125e-06;6.79918963290043e-05
6.03150e-06;5.7645529470005696e-05
6.03175e-06;4.7299162611042154e-05
6.03200e-06;3.7054329443906916e-05
6.03225e-06;2.7041880872737963e-05
6.03250e-06;1.733761498366966e-05
6.03275e-06;8.016932456107512e-06
6.03300e-06;-8.499703663767693e-07
6.03325e-06;-9.19290172032706e-06
6.03350e-06;-1.6943198961336857e-05
6.03375e-06;-2.426921346242682e-05
6.03400e-06;-3.1950482953695086e-05
6.03425e-06;-4.1042151643980946e-05
6.03450e-06;-5.20970348804085e-05
6.03475e-06;-6.51053240972549e-05
6.03500e-06;-7.989682386296779e-05
6.03525e-06;-9.630134979070465e-05
6.03550e-06;-0.00011414968557883197
6.03575e-06;-0.00013342108449617725
6.03600e-06;-0.00015447762468492543
6.03625e-06;-0.00017785397872726173
6.03650e-06;-0.00020377011778587088
6.03675e-06;-0.0002320935799000093
6.03700e-06;-0.00026259143203899226
6.03725e-06;-0.00029503077990863697
6.03750e-06;-0.0003291793587246341
6.03775e-06;-0.0003653609578782002
6.03800e-06;-0.0004027178051932956
6.03825e-06;-0.00044202702104732014
6.03850e-06;-0.0004831529599258541
6.03875e-06;-0.0005261688115502709
6.03900e-06;-0.000570943269673021
6.03925e-06;-0.0006157177277959228
6.03950e-06;-0.0006617428997931008
6.03975e-06;-0.0007089318893007562
6.04000e-06;-0.0007561208788085714
6.04025e-06;-0.0008040604936290271
6.04050e-06;-0.0008526985822576768
6.04075e-06;-0.0009013366708864913
6.04100e-06;-0.0009496281809959168
6.04125e-06;-0.00099759719196492
6.04150e-06;-0.0010455662029340855
6.04175e-06;-0.0010920039929392146
6.04200e-06;-0.0011370169472514333
6.04225e-06;-0.0011820299015634994
6.04250e-06;-0.0012245797403095495
6.04275e-06;-0.0012648375943864092
6.04300e-06;-0.0013050954484631326
6.04325e-06;-0.0013415654216398462
6.04350e-06;-0.0013745106860812294
6.04375e-06;-0.001407455950522501
6.04400e-06;-0.001437450091435194
6.04425e-06;-0.001464698145246777
6.04450e-06;-0.0014919461990582676
6.04475e-06;-0.0015161889795311833
6.04500e-06;-0.0015376352852817083
6.04525e-06;-0.0015590815910321609
6.04550e-06;-0.0015805278967826134
6.04575e-06;-0.0016019742025331384
6.04600e-06;-0.0016233045217059858
6.04625e-06;-0.0016383051439175641
6.04650e-06;-0.0016533057661290917
6.04675e-06;-0.0016683063883406193
6.04700e-06;-0.0016833070105521976
6.04725e-06;-0.0016983076327637251
6.04750e-06;-0.0017099451411702366
6.04775e-06;-0.0017184531962178208
6.04800e-06;-0.0017269612512653763
6.04825e-06;-0.0017354693063129317
6.04850e-06;-0.0017439773613605158
6.04875e-06;-0.0017524854164080712
6.04900e-06;-0.0017609934714556267
6.04925e-06;-0.001769501526503211
6.04950e-06;-0.0017780095815507664
6.04975e-06;-0.0017865176365983216
6.05000e-06;-0.001795025691645906
6.05025e-06;-0.0018010394437750937
6.05050e-06;-0.0018047321906995118
6.05075e-06;-0.0018084249376239176
6.05100e-06;-0.0018121176845483234
6.05125e-06;-0.0018158104314727416
6.05150e-06;-0.0018195031783971474
6.05175e-06;-0.001823195925321553
6.05200e-06;-0.0018268886722459714
6.05225e-06;-0.0018305814191703772
6.05250e-06;-0.0018342741660947828
6.05275e-06;-0.0018379669130192012
6.05300e-06;-0.0018409340729561123
6.05325e-06;-0.001843226057812241
6.05350e-06;-0.001845367105532247
6.05375e-06;-0.0018469653043123144
6.05400e-06;-0.001847024922577677
6.05425e-06;-0.0018432468155990568
6.05450e-06;-0.0018369056148114828
6.05475e-06;-0.0018269358322050716
6.05500e-06;-0.0018135895722572054
6.05525e-06;-0.0017962165229881465
6.05550e-06;-0.0017750964553022324
6.05575e-06;-0.00175397638761639
6.05600e-06;-0.0017281690072690817
6.05625e-06;-0.0016979999766175292
6.05650e-06;-0.0016624481646705285
6.05675e-06;-0.0016218875531468406
6.05700e-06;-0.0015813269416230153
6.05725e-06;-0.001536285674076049
6.05750e-06;-0.0014870750548946544
6.05775e-06;-0.0014355610011441212
6.05800e-06;-0.0013802574723900671
6.05825e-06;-0.0013216978216596905
6.05850e-06;-0.0012599352508957894
6.05875e-06;-0.0011952957989500303
6.05900e-06;-0.0011281827410657699
6.05925e-06;-0.0010589992670467978
6.05950e-06;-0.000988147932696446
6.05975e-06;-0.0009159611486278477
6.06000e-06;-0.0008425922004654602
6.06025e-06;-0.0007681194731049604
6.06050e-06;-0.0006927785606825035
6.06075e-06;-0.0006169760667884532
6.06100e-06;-0.000541166737726027
6.06125e-06;-0.00046569685278674626
6.06150e-06;-0.00041051198226976337
6.06175e-06;-0.00033694264765098825
6.06200e-06;-0.0002676884956936251
6.06225e-06;-0.0001946889588830605
6.06250e-06;-0.00012328485461433048
6.06275e-06;-5.7616756838988194e-05
6.06300e-06;4.541664627738451e-06
6.06325e-06;6.162287207977505e-05
6.06350e-06;0.00011752561450764863
6.06375e-06;0.00015874249680249494
6.06400e-06;0.0002074466710357233
6.06425e-06;0.000247564594044537
6.06450e-06;0.00029264063465940136
6.06475e-06;0.00033587179992004303
6.06500e-06;0.0003757012911421885
6.06525e-06;0.00041297452243902735
6.06550e-06;0.0004478843917154362
6.06575e-06;0.0004802285636438674
6.06600e-06;0.0005104586613988938
6.06625e-06;0.0005397994572714592
6.06650e-06;0.0005691092778418701
6.06675e-06;0.0005973299354024077
6.06700e-06;0.0006233116753962899
6.06725e-06;0.0006475552825820709
6.06750e-06;0.0006710657633846468
6.06775e-06;0.0006922822520607925
6.06800e-06;0.000713139694820273
6.06825e-06;0.0007329070031023992
6.06850e-06;0.0007526707901135653
6.06875e-06;0.0007715218664986406
6.06900e-06;0.0007885729082458314
6.06925e-06;0.0008056239499929643
6.06950e-06;0.0008220220472737122
6.06975e-06;0.0008363770459852575
6.07000e-06;0.0008507320446967541
6.07025e-06;0.0008647641092098142
6.07050e-06;0.000877785695140523
6.07075e-06;0.0008908072810711878
6.07100e-06;0.0009038288670018524
6.07125e-06;0.0009150725621180893
6.07150e-06;0.0009256986699715327
6.07175e-06;0.000936324777825012
6.07200e-06;0.0009466084699684152
6.07225e-06;0.0009558207248254388
6.07250e-06;0.0009650329796824937
6.07275e-06;0.0009740214666792232
6.07300e-06;0.000982175229273972
6.07325e-06;0.0009897829593938424
6.07350e-06;0.000996841513139909
6.07375e-06;0.0010030427991847897
6.07400e-06;0.0010073754530121495
6.07425e-06;0.0010084937671251347
6.07450e-06;0.0010057656910017997
6.07475e-06;0.000999072010646743
6.07500e-06;0.000988465889246336
6.07525e-06;0.0009742321496968356
6.07550e-06;0.000956582538876832
6.07575e-06;0.0009350074882439384
6.07600e-06;0.000909018844487714
6.07625e-06;0.0008813726151665179
6.07650e-06;0.0008474412795038208
6.07675e-06;0.0008090223489360622
6.07700e-06;0.0007663629088111292
6.07725e-06;0.000719855086909767
6.07750e-06;0.0006698450833871252
6.07775e-06;0.0006165596042535318
6.07800e-06;0.0005599492379112828
6.07825e-06;0.000499833600494387
6.07850e-06;0.00043631221427704284
6.07875e-06;0.00036968595550587155
6.07900e-06;0.0003003232271241237
6.07925e-06;0.00022868333035402566
6.07950e-06;0.0001551968428367512
6.07975e-06;8.02192572281439e-05
6.08000e-06;3.9332719007620216e-06
6.08025e-06;-7.363717137741569e-05
6.08050e-06;-0.00015222601920504767
6.08075e-06;-0.00023090586916978083
6.08100e-06;-0.0003098704547248344
6.08125e-06;-0.000388457241704552
6.08150e-06;-0.0004658618764987723
6.08175e-06;-0.0005425029351883227
6.08200e-06;-0.0006167547229253346
6.08225e-06;-0.0006899223314139665
6.08250e-06;-0.0007596974843656819
6.08275e-06;-0.0008279389370074562
6.08300e-06;-0.000891381358386024
6.08325e-06;-0.0009527896114987244
6.08350e-06;-0.0010078328420304616
6.08375e-06;-0.0010604116539612864
6.08400e-06;-0.0011052791667314355
6.08425e-06;-0.0011474858249544571
6.08450e-06;-0.0011813665253118302
6.08475e-06;-0.0012125003788531895
6.08500e-06;-0.001235039200066137
6.08525e-06;-0.0012547325793929615
6.08550e-06;-0.0012655224170811691
6.08575e-06;-0.001273412172549701
6.08600e-06;-0.0012722274138194643
6.08625e-06;-0.0012682345000146662
6.08650e-06;-0.0012554547170228099
6.08675e-06;-0.0012400278100526217
6.08700e-06;-0.0012163179089097562
6.08725e-06;-0.0011901140487068785
6.08750e-06;-0.0011561064556487135
6.08775e-06;-0.0011203340474853448
6.08800e-06;-0.0010779425425309157
6.08825e-06;-0.0010310972625412122
6.08850e-06;-0.0009801138685474609
6.08875e-06;-0.0009253220769349118
6.08900e-06;-0.0008670487601152811
6.08925e-06;-0.0008056121370941025
6.08950e-06;-0.0007413330034731195
6.08975e-06;-0.0006745398750802962
6.09000e-06;-0.0006055867217405663
6.09025e-06;-0.0005348677256951886
6.09050e-06;-0.00046280237453578645
6.09075e-06;-0.00038981872558119105
6.09100e-06;-0.000316343151776183
6.09125e-06;-0.00024279653122877997
6.09150e-06;-0.00016960133326281631
6.09175e-06;-9.718480158166118e-05
6.09200e-06;-2.5990162534563862e-05
6.09225e-06;4.351424693873125e-05
6.09250e-06;0.00011084427053065858
6.09275e-06;0.00017551038988437845
6.09300e-06;0.0002370241898545906
6.09325e-06;0.000294900760267784
6.09350e-06;0.00034866792107633384
6.09375e-06;0.0003980654765422322
6.09400e-06;0.00044356355502328423
6.09425e-06;0.00048615221843135374
6.09450e-06;0.0005263231419421809
6.09475e-06;0.00056394978845924
6.09500e-06;0.0005987765745063304
6.09525e-06;0.0006305500516501287
6.09550e-06;0.0006586320667825095
6.09575e-06;0.0006828592594079129
6.09600e-06;0.0007058389509107147
6.09625e-06;0.0007249151438950722
6.09650e-06;0.0007429903022868125
6.09675e-06;0.0007579331692697552
6.09700e-06;0.0007717820665726775
6.09725e-06;0.0007822078735495677
6.09750e-06;0.0007914783602965543
6.09775e-06;0.0007971337875270763
6.09800e-06;0.0008017523946937082
6.09825e-06;0.0008031267357755361
6.09850e-06;0.000804501076857364
6.09875e-06;0.0008048682981012644
6.09900e-06;0.000802084186874666
6.09925e-06;0.0007993000756480676
6.09950e-06;0.0007955581750118759
6.09975e-06;0.000788819299484941
6.10000e-06;0.0007820804239580062
6.10025e-06;0.000774823865574133
6.10050e-06;0.0007659474495180264
6.10075e-06;0.00075707103346192
6.10100e-06;0.0007478645104718387
6.10125e-06;0.0007376250650226752
6.10150e-06;0.0007273856195734769
6.10175e-06;0.0007170097260090885
6.10200e-06;0.0007062068789086667
6.10225e-06;0.0006955285020931911
6.10250e-06;0.0006852395995348048
6.10275e-06;0.000675244922108982
6.10300e-06;0.0006661708910440436
6.10325e-06;0.0006570968599791359
6.10350e-06;0.0006488538882748438
6.10375e-06;0.0006432113462801723
6.10400e-06;0.0006375688042855198
6.10425e-06;0.0006319262622908674
6.10450e-06;0.0006262837202961959
6.10475e-06;0.0006206411783015435
6.10500e-06;0.000614998636306891
6.10525e-06;0.0006093560943122194
6.10550e-06;0.0006074307556388445
6.10575e-06;0.0006067966646639156
6.10600e-06;0.0006061625736889888
6.10625e-06;0.000605528482714062
6.10650e-06;0.000604894391739133
6.10675e-06;0.0006042603007642062
6.10700e-06;0.0006036262097892794
6.10725e-06;0.0006040052027969675
6.10750e-06;0.0006075541904059027
6.10775e-06;0.0006111031780148378
6.10800e-06;0.000614652165623785
6.10825e-06;0.0006182011532327202
6.10850e-06;0.0006217501408416553
6.10875e-06;0.0006252991284506025
6.10900e-06;0.000629462342524132
6.10925e-06;0.000635547504442108
6.10950e-06;0.0006416326663601046
6.10975e-06;0.0006477178282780806
6.11000e-06;0.0006538029901960771
6.11025e-06;0.0006598881521140531
6.11050e-06;0.000665973314032029
6.11075e-06;0.000672230672615576
6.11100e-06;0.0006790268438834033
6.11125e-06;0.0006858230151512306
6.11150e-06;0.0006925902215914474
6.11175e-06;0.0006992667955186512
6.11200e-06;0.0007059433694458551
6.11225e-06;0.000712480631198379
6.11250e-06;0.0007185819776178823
6.11275e-06;0.0007246833240373856
6.11300e-06;0.0007305400764906493
6.11325e-06;0.0007356314811881968
6.11350e-06;0.0007407228858857441
6.11375e-06;0.0007454821489688192
6.11400e-06;0.0007492021229675843
6.11425e-06;0.0007529220969663621
6.11450e-06;0.0007560153934106574
6.11475e-06;0.0007571477818768283
6.11500e-06;0.0007582801703430029
6.11525e-06;0.0007594125588091738
6.11550e-06;0.0007605449472753447
6.11575e-06;0.0007616773357415193
6.11600e-06;0.0007628097242076902
6.11625e-06;0.0007630759993466559
6.11650e-06;0.0007606321590185758
6.11675e-06;0.000758188318690504
6.11700e-06;0.0007557444783624322
6.11725e-06;0.0007533006380343522
6.11750e-06;0.0007508567977062803
6.11775e-06;0.0007484129573782086
6.11800e-06;0.000745260198647796
6.11825e-06;0.00073988919587637
6.11850e-06;0.0007345181931049258
6.11875e-06;0.0007291471903334998
6.11900e-06;0.0007237761875620738
6.11925e-06;0.0007184051847906296
6.11950e-06;0.0007130341820192036
6.11975e-06;0.0007076631792477776
6.12000e-06;0.0007019836369202092
6.12025e-06;0.0006953386576262853
6.12050e-06;0.0006886936783323615
6.12075e-06;0.0006820486990384151
6.12100e-06;0.0006754037197444913
6.12125e-06;0.0006687587404505675
6.12150e-06;0.0006621137611566212
6.12175e-06;0.0006554687818626974
6.12200e-06;0.000648955189240189
6.12225e-06;0.0006428527126219157
6.12250e-06;0.000636750236003663
6.12275e-06;0.0006306477593853896
6.12300e-06;0.0006248358027138052
6.12325e-06;0.0006199328986754877
6.12350e-06;0.0006150299946371536
6.12375e-06;0.0006101270905988361
6.12400e-06;0.0006051592112954966
6.12425e-06;0.0005999880208720537
6.12450e-06;0.0005948168304486284
6.12475e-06;0.0005896456400252032
6.12500e-06;0.0005844744496017604
6.12525e-06;0.0005793032591783351
6.12550e-06;0.0005741320687549098
6.12575e-06;0.000568960878331467
6.12600e-06;0.0005633520824144362
6.12625e-06;0.0005563739952290198
6.12650e-06;0.0005493959080435798
6.12675e-06;0.0005424178208581635
6.12700e-06;0.0005354397336727235
6.12725e-06;0.0005284616464873071
6.12750e-06;0.0005214835593018907
6.12775e-06;0.0005145054721164507
6.12800e-06;0.0005070963318838385
6.12825e-06;0.0004983384033422855
6.12850e-06;0.0004895804748007029
6.12875e-06;0.00048082254625914984
6.12900e-06;0.0004720646177175968
6.12925e-06;0.00046330668917601413
6.12950e-06;0.0004545487606344611
6.12975e-06;0.0004457908320929081
6.13000e-06;0.00043670508342182296
6.13025e-06;0.0004275054596272197
6.13050e-06;0.00041830583583261644
6.13075e-06;0.000409106212037982
6.13100e-06;0.00039990658824337876
6.13125e-06;0.00039070696444874433
6.13150e-06;0.0003815073406541411
6.13175e-06;0.0003725327005943859
6.13200e-06;0.00036426204681473944
6.13225e-06;0.000355991393035121
6.13250e-06;0.00034772073925550255
6.13275e-06;0.00033963719267060083
6.13300e-06;0.00033235906921920123
6.13325e-06;0.000325769195602928
6.13350e-06;0.0003191793219866325
6.13375e-06;0.0003127126005771976
6.13400e-06;0.00030663122908666443
6.13425e-06;0.00030054985759611066
6.13450e-06;0.0002941239257349515
6.13475e-06;0.00028661984583013315
6.13500e-06;0.00027911576592528937
6.13525e-06;0.000271611686020471
6.13550e-06;0.0002641076061156272
6.13575e-06;0.0002552987959127985
6.13600e-06;0.0002460367605706547
6.13625e-06;0.0002367747252284795
6.13650e-06;0.00022751268988633567
6.13675e-06;0.00021778852441564303
6.13700e-06;0.0002066183287671585
6.13725e-06;0.0001952486645352862
6.13750e-06;0.0001832548523127868
6.13775e-06;0.00017107506066294567
6.13800e-06;0.00015831332932193012
6.13825e-06;0.00014530385566370328
6.13850e-06;0.00013151918288974775
6.13875e-06;0.00011754783288241812
6.13900e-06;0.00010299235971077792
6.13925e-06;8.833738484941047e-05
6.13950e-06;7.337106381714899e-05
6.13975e-06;5.835035663951452e-05
6.14000e-06;4.315947227043829e-05
6.14025e-06;2.7919009305380842e-05
6.14050e-06;1.2509747301538734e-05
6.14075e-06;-2.9330192867367336e-06
6.14100e-06;-1.8314668236526207e-05
6.14125e-06;-3.354059201893761e-05
6.14150e-06;-4.8516982177158995e-05
6.14175e-06;-6.316193785328735e-05
6.14200e-06;-7.74333120569678e-05
6.14225e-06;-9.131344661771931e-05
6.14250e-06;-0.00010475052782409438
6.14275e-06;-0.00011765508914997519
6.14300e-06;-0.00012993004175159705
6.14325e-06;-0.00014147833140297757
6.14350e-06;-0.00015220219288455774
6.14375e-06;-0.0001619943671367649
6.14400e-06;-0.0001707221299080661
6.14425e-06;-0.00017825903895669445
6.14450e-06;-0.00018454162523148543
