Time(s);Current(A)
5.50000e-07;-0.0014232515544324834
5.50250e-07;-0.0014260364708650578
5.50500e-07;-0.0014288213872976322
5.50750e-07;-0.0014316063037302065
5.51000e-07;-0.0014343912201627796
5.51250e-07;-0.001437176136595354
5.51500e-07;-0.0014399610530279284
5.51750e-07;-0.0014353961383846904
5.52000e-07;-0.0014295973456853385
5.52250e-07;-0.0014237985529859892
5.52500e-07;-0.0014179997602866373
5.52750e-07;-0.0014122009675872854
5.53000e-07;-0.0014064021748879335
5.53250e-07;-0.0014006033821885816
5.53500e-07;-0.0013948045894892297
5.53750e-07;-0.0013879202389740965
5.54000e-07;-0.0013808536467239153
5.54250e-07;-0.0013737870544737341
5.54500e-07;-0.001366720462223553
5.54750e-07;-0.001359653869973372
5.55000e-07;-0.0013525872777231907
5.55250e-07;-0.0013455206854730126
5.55500e-07;-0.0013384540932228314
5.55750e-07;-0.0013313875009726501
5.56000e-07;-0.0013243209087224692
5.56250e-07;-0.001317254316472288
5.56500e-07;-0.0013115241403638478
5.56750e-07;-0.001308208854705789
5.57000e-07;-0.0013048935690477298
5.57250e-07;-0.001301578283389671
5.57500e-07;-0.0012982629977316119
5.57750e-07;-0.001294947712073553
5.58000e-07;-0.0012916324264154954
5.58250e-07;-0.0012883171407574365
5.58500e-07;-0.0012850018550993774
5.58750e-07;-0.0012816865694413185
5.59000e-07;-0.0012783712837832594
5.59250e-07;-0.0012750559981252005
5.59500e-07;-0.0012716098120346467
5.59750e-07;-0.0012681416505858105
5.60000e-07;-0.0012646734891369742
5.60250e-07;-0.001261205327688138
5.60500e-07;-0.0012577371662393017
5.60750e-07;-0.0012542690047904668
5.61000e-07;-0.0012508008433416305
5.61250e-07;-0.0012473326818927943
5.61500e-07;-0.001243864520443958
5.61750e-07;-0.0012403963589951218
5.62000e-07;-0.0012369281975462855
5.62250e-07;-0.0012334600360974508
5.62500e-07;-0.0012301832526714267
5.62750e-07;-0.0012272522873968542
5.63000e-07;-0.0012243213221222818
5.63250e-07;-0.0012213903568477093
5.63500e-07;-0.0012184593915731381
5.63750e-07;-0.001215528426298566
5.64000e-07;-0.0012125974610239934
5.64250e-07;-0.001209666495749421
5.64500e-07;-0.0012067355304748485
5.64750e-07;-0.001203804565200276
5.65000e-07;-0.001200873599925705
5.65250e-07;-0.0011979426346511324
5.65500e-07;-0.00119501166937656
5.65750e-07;-0.001196063703310693
5.66000e-07;-0.0011977843968739542
5.66250e-07;-0.0011995050904372155
5.66500e-07;-0.001201225784000476
5.66750e-07;-0.0012029464775637373
5.67000e-07;-0.0012046671711269988
5.67250e-07;-0.00120638786469026
5.67500e-07;-0.0012081085582535214
5.67750e-07;-0.001209829251816782
5.68000e-07;-0.0012115499453800433
5.68250e-07;-0.0012132706389433045
5.68500e-07;-0.001214991332506566
5.68750e-07;-0.0012167120260698273
5.69000e-07;-0.0012184327196330886
5.69250e-07;-0.0012201534131963492
5.69500e-07;-0.0012236530519875914
5.69750e-07;-0.0012303672268119679
5.70000e-07;-0.001237081401636344
5.70250e-07;-0.0012437955764607205
5.70500e-07;-0.0012505097512850968
5.70750e-07;-0.0012572239261094704
5.71000e-07;-0.0012639381009338466
5.71250e-07;-0.001270652275758223
5.71500e-07;-0.0012773664505825995
5.71750e-07;-0.0012840806254069757
5.72000e-07;-0.0012907948002313493
5.72250e-07;-0.0012975089750557256
5.72500e-07;-0.001304223149880102
5.72750e-07;-0.0013109373247044782
5.73000e-07;-0.0013176514995288547
5.73250e-07;-0.0013243656743532311
5.73500e-07;-0.0013314971495886115
5.73750e-07;-0.0013386986805592445
5.74000e-07;-0.0013459002115298775
5.74250e-07;-0.0013531017425005105
5.74500e-07;-0.0013603032734711437
5.74750e-07;-0.0013675048044417767
5.75000e-07;-0.0013747063354124067
5.75250e-07;-0.0013819078663830397
5.75500e-07;-0.0013891093973536727
5.75750e-07;-0.0013963109283243057
5.76000e-07;-0.0014035124592949387
5.76250e-07;-0.0014107139902655688
5.76500e-07;-0.0014179155212362018
5.76750e-07;-0.0014251170522068348
5.77000e-07;-0.0014323185831774678
5.77250e-07;-0.0014395201141481008
5.77500e-07;-0.0014467216451187338
5.77750e-07;-0.0014539231760893638
5.78000e-07;-0.001461124707059997
5.78250e-07;-0.00146832623803063
5.78500e-07;-0.001475527769001263
5.78750e-07;-0.001482729299971896
5.79000e-07;-0.001489930830942526
5.79250e-07;-0.001497132361913159
5.79500e-07;-0.0015043338928837921
5.79750e-07;-0.0015095942793754123
5.80000e-07;-0.0015145287895915293
5.80250e-07;-0.0015194632998076461
5.80500e-07;-0.001524397810023761
5.80750e-07;-0.001529332320239878
5.81000e-07;-0.0015342668304559948
5.81250e-07;-0.0015392013406721116
5.81500e-07;-0.0015441358508882287
5.81750e-07;-0.0015490703611043455
5.82000e-07;-0.0015540048713204603
5.82250e-07;-0.0015589393815365774
5.82500e-07;-0.0015638738917526942
5.82750e-07;-0.001568808401968811
5.83000e-07;-0.001573742912184928
5.83250e-07;-0.0015786774224010429
5.83500e-07;-0.0015836119326171597
5.83750e-07;-0.0015885464428332767
5.84000e-07;-0.0015934809530493935
5.84250e-07;-0.0015984154632655103
5.84500e-07;-0.0016033499734816273
5.84750e-07;-0.0016082844836977422
5.85000e-07;-0.001613218993913859
5.85250e-07;-0.0016181535041299758
5.85500e-07;-0.0016230880143460929
5.85750e-07;-0.0016280225245622097
5.86000e-07;-0.0016322072383513674
5.86250e-07;-0.0016362660774981933
5.86500e-07;-0.0016403249166450208
5.86750e-07;-0.0016443837557918485
5.87000e-07;-0.001648442594938676
5.87250e-07;-0.0016525014340855037
5.87500e-07;-0.0016565602732323294
5.87750e-07;-0.001660619112379157
5.88000e-07;-0.0016646779515259846
5.88250e-07;-0.0016687367906728123
5.88500e-07;-0.0016727956298196397
5.88750e-07;-0.0016768544689664674
5.89000e-07;-0.0016809133081132932
5.89250e-07;-0.0016849721472601208
5.89500e-07;-0.0016890309864069483
5.89750e-07;-0.001693089825553776
5.90000e-07;-0.0016971486647006035
5.90250e-07;-0.0017012075038474312
5.90500e-07;-0.001705266342994257
5.90750e-07;-0.0017093251821410846
5.91000e-07;-0.001713384021287912
5.91250e-07;-0.0017170718879179112
5.91500e-07;-0.0017200894109623281
5.91750e-07;-0.001723106934006744
5.92000e-07;-0.001726124457051161
5.92250e-07;-0.001729141980095578
5.92500e-07;-0.001732159503139995
5.92750e-07;-0.0017351770261844121
5.93000e-07;-0.0017381945492288293
5.93250e-07;-0.001741212072273245
5.93500e-07;-0.001744229595317662
5.93750e-07;-0.001747247118362079
5.94000e-07;-0.0017502646414064961
5.94250e-07;-0.001753282164450913
5.94500e-07;-0.0017562996874953302
5.94750e-07;-0.0017593172105397458
5.95000e-07;-0.001762334733584163
5.95250e-07;-0.00176535225662858
5.95500e-07;-0.001768369779672997
5.95750e-07;-0.001771387302717414
5.96000e-07;-0.0017744048257618298
5.96250e-07;-0.0017774223488062468
5.96500e-07;-0.001780439871850664
5.96750e-07;-0.0017805294057630524
5.97000e-07;-0.0017801273934750339
5.97250e-07;-0.0017797253811870153
5.97500e-07;-0.001779323368898997
5.97750e-07;-0.0017789213566109785
5.98000e-07;-0.00177851934432296
5.98250e-07;-0.0017781173320349415
5.98500e-07;-0.001777715319746923
5.98750e-07;-0.0017773133074589047
5.99000e-07;-0.0017769112951708862
5.99250e-07;-0.0017765092828828676
5.99500e-07;-0.0017761072705948491
5.99750e-07;-0.0017757052583068306
6.00000e-07;-0.0017726455036296972
6.00250e-07;-0.0017647832353380108
6.00500e-07;-0.0017569209670463208
6.00750e-07;-0.001749058698754631
6.01000e-07;-0.001741196430462941
6.01250e-07;-0.0017333341621712513
6.01500e-07;-0.0017254718938795614
6.01750e-07;-0.0017176096255878748
6.02000e-07;-0.001709747357296185
6.02250e-07;-0.0017018850890044952
6.02500e-07;-0.0016940228207128053
6.02750e-07;-0.0016861605524211155
6.03000e-07;-0.001678298284129429
6.03250e-07;-0.001670436015837739
6.03500e-07;-0.0016630731864150682
6.03750e-07;-0.0016557942020025173
6.04000e-07;-0.0016485152175899664
6.04250e-07;-0.0016412362331774154
6.04500e-07;-0.0016339572487648675
6.04750e-07;-0.0016266782643523166
6.05000e-07;-0.0016193992799397657
6.05250e-07;-0.0016121202955272148
6.05500e-07;-0.0016048413111146638
6.05750e-07;-0.001597562326702113
6.06000e-07;-0.0015902833422895652
6.06250e-07;-0.0015830043578770143
6.06500e-07;-0.0015757253734644634
6.06750e-07;-0.0015684463890519125
6.07000e-07;-0.0015611674046393615
6.07250e-07;-0.001559789590245725
6.07500e-07;-0.0015594024549735002
6.07750e-07;-0.0015590153197012754
6.08000e-07;-0.0015586281844290506
6.08250e-07;-0.0015582410491568259
6.08500e-07;-0.0015578539138846011
6.08750e-07;-0.0015574667786123766
6.09000e-07;-0.0015570796433401518
6.09250e-07;-0.001556692508067927
6.09500e-07;-0.0015563053727957023
6.09750e-07;-0.0015559182375234776
6.10000e-07;-0.0015555311022512528
6.10250e-07;-0.0015551439669790282
6.10500e-07;-0.0015547568317068035
6.10750e-07;-0.0015543696964345787
6.11000e-07;-0.0015567484497794083
6.11250e-07;-0.0015595915361457085
6.11500e-07;-0.0015624346225120076
6.11750e-07;-0.001565277708878308
6.12000e-07;-0.0015681207952446081
6.12250e-07;-0.0015709638816109085
6.12500e-07;-0.0015738069679772087
6.12750e-07;-0.001576650054343509
6.13000e-07;-0.001579493140709808
6.13250e-07;-0.0015823362270761083
6.13500e-07;-0.0015851793134424085
6.13750e-07;-0.0015880223998087088
6.14000e-07;-0.001590865486175009
6.14250e-07;-0.0015944166427288738
6.14500e-07;-0.0015992472749496874
6.14750e-07;-0.0016040779071705032
6.15000e-07;-0.0016089085393913188
6.15250e-07;-0.0016137391716121343
6.15500e-07;-0.0016185698038329501
6.15750e-07;-0.0016234004360537637
6.16000e-07;-0.0016282310682745793
6.16250e-07;-0.001633061700495395
6.16500e-07;-0.0016378923327162107
6.16750e-07;-0.0016427229649370262
6.17000e-07;-0.001647553597157842
6.17250e-07;-0.0016523842293786556
6.17500e-07;-0.0016572148615994712
6.17750e-07;-0.001668964905507762
6.18000e-07;-0.0016818765693438732
6.18250e-07;-0.001694788233179984
6.18500e-07;-0.0017076998970160895
6.18750e-07;-0.0017206115608522005
6.19000e-07;-0.0017335232246883114
6.19250e-07;-0.0017464348885244223
6.19500e-07;-0.0017593465523605334
6.19750e-07;-0.0017722582161966442
6.20000e-07;-0.0017851698800327499
6.20250e-07;-0.0017980815438688607
6.20500e-07;-0.001813963934167904
6.20750e-07;-0.0018352143971372646
6.21000e-07;-0.0018564648601066252
6.21250e-07;-0.0018777153230759857
6.21500e-07;-0.0018989657860453372
6.21750e-07;-0.0019202162490146977
6.22000e-07;-0.0019414667119840583
6.22250e-07;-0.0019627171749534186
6.22500e-07;-0.0019839676379227794
6.22750e-07;-0.002005218100892131
6.23000e-07;-0.0020264685638614914
6.23250e-07;-0.0020477190268308517
6.23500e-07;-0.0020690065458611956
6.23750e-07;-0.0020903002858046506
6.24000e-07;-0.002111594025748105
6.24250e-07;-0.002132887765691551
6.24500e-07;-0.0021541815056350055
6.24750e-07;-0.00217547524557846
6.25000e-07;-0.002196768985521915
6.25250e-07;-0.0022180627254653694
6.25500e-07;-0.002239356465408824
6.25750e-07;-0.00226065020535227
6.26000e-07;-0.0022819439452957243
6.26250e-07;-0.0023032376852391793
6.26500e-07;-0.002320785977010785
6.26750e-07;-0.002337705488846807
6.27000e-07;-0.002354625000682822
6.27250e-07;-0.002371544512518844
6.27500e-07;-0.002388464024354866
6.27750e-07;-0.0024053835361908882
6.28000e-07;-0.0024223030480269104
6.28250e-07;-0.0024392225598629325
6.28500e-07;-0.0024561420716989477
6.28750e-07;-0.00247306158353497
6.29000e-07;-0.002489981095370992
6.29250e-07;-0.002506900607207014
6.29500e-07;-0.0025256032852631655
6.29750e-07;-0.0025446053184537605
6.30000e-07;-0.0025636073516443476
6.30250e-07;-0.0025826093848349426
6.30500e-07;-0.0026016114180255376
6.30750e-07;-0.002620613451216133
6.31000e-07;-0.002639615484406728
6.31250e-07;-0.002658617517597315
6.31500e-07;-0.00267761955078791
6.31750e-07;-0.002696621583978505
6.32000e-07;-0.0027156236171691
6.32250e-07;-0.002734625650359695
6.32500e-07;-0.0027536276835502904
6.32750e-07;-0.0027724101106541767
6.33000e-07;-0.002790795711780662
6.33250e-07;-0.0028091813129071472
6.33500e-07;-0.0028275669140336323
6.33750e-07;-0.0028459525151601174
6.34000e-07;-0.0028643381162866024
6.34250e-07;-0.0028827237174130797
6.34500e-07;-0.0029011093185395648
6.34750e-07;-0.00291949491966605
6.35000e-07;-0.0029378805207925353
6.35250e-07;-0.0029562661219190204
6.35500e-07;-0.0029746517230454976
6.35750e-07;-0.0029930373241719827
6.36000e-07;-0.0030114229252984678
6.36250e-07;-0.003025646956425141
6.36500e-07;-0.003039172349739619
6.36750e-07;-0.003052697743054097
6.37000e-07;-0.0030662231363685695
6.37250e-07;-0.003079748529683047
6.37500e-07;-0.0030932739229975253
6.37750e-07;-0.0031067993163120034
6.38000e-07;-0.0031203247096264815
6.38250e-07;-0.0031338501029409536
6.38500e-07;-0.0031473754962554317
6.38750e-07;-0.00316090088956991
6.39000e-07;-0.0031744262828843875
6.39250e-07;-0.0031879516761988656
6.39500e-07;-0.0032014770695133437
6.39750e-07;-0.003215002462827816
6.40000e-07;-0.003228527856142294
6.40250e-07;-0.003242053249456772
6.40500e-07;-0.00325557864277125
6.40750e-07;-0.0032691040360857283
6.41000e-07;-0.003282629429400206
6.41250e-07;-0.003295852742847609
6.41500e-07;-0.0033085302010306765
6.41750e-07;-0.003321207659213744
6.42000e-07;-0.0033338851173968114
6.42250e-07;-0.003346562575579879
6.42500e-07;-0.003359240033762941
6.42750e-07;-0.0033719174919460086
6.43000e-07;-0.003384594950129076
6.43250e-07;-0.0033972724083121434
6.43500e-07;-0.003409949866495211
6.43750e-07;-0.0034226273246782783
6.44000e-07;-0.0034353047828613406
6.44250e-07;-0.003447982241044408
6.44500e-07;-0.0034606596992274754
6.44750e-07;-0.003473337157410543
6.45000e-07;-0.0034860146155936103
6.45250e-07;-0.0034986920737766778
6.45500e-07;-0.00351136953195974
6.45750e-07;-0.0035240469901428075
6.46000e-07;-0.003536724448325875
6.46250e-07;-0.0035494019065089423
6.46500e-07;-0.0035506577094986842
6.46750e-07;-0.0035499960630170813
6.47000e-07;-0.003549334416535478
6.47250e-07;-0.0035486727700538745
6.47500e-07;-0.003548011123572271
6.47750e-07;-0.0035473494770906677
6.48000e-07;-0.0035466878306090644
6.48250e-07;-0.003546026184127461
6.48500e-07;-0.0035453645376458576
6.48750e-07;-0.003544702891164254
6.49000e-07;-0.003544041244682651
6.49250e-07;-0.0035433795982010474
6.49500e-07;-0.0035225562011868827
6.49750e-07;-0.0034983480812717156
6.50000e-07;-0.0034741399613565384
6.50250e-07;-0.003449931841441361
6.50500e-07;-0.0034257237215261833
6.50750e-07;-0.003401515601611006
6.51000e-07;-0.003377307481695839
6.51250e-07;-0.0033530993617806614
6.51500e-07;-0.003328891241865484
6.51750e-07;-0.0033046831219503067
6.52000e-07;-0.003280475002035129
6.52250e-07;-0.0032562668821199516
6.52500e-07;-0.0032231290034494733
6.52750e-07;-0.0031884920109539663
6.53000e-07;-0.0031538550184584593
6.53250e-07;-0.0031192180259629523
6.53500e-07;-0.0030845810334674453
6.53750e-07;-0.0030499440409719383
6.54000e-07;-0.003015307048476446
6.54250e-07;-0.002980670055980939
6.54500e-07;-0.0029505629432000718
6.54750e-07;-0.0029212162994858375
6.55000e-07;-0.0028918696557716033
6.55250e-07;-0.002862523012057381
6.55500e-07;-0.002833176368343147
6.55750e-07;-0.0028038297246289127
6.56000e-07;-0.0027744830809146785
6.56250e-07;-0.0027451364372004443
6.56500e-07;-0.0027304534292524395
6.56750e-07;-0.0027182321293644993
6.57000e-07;-0.0027060108294765543
6.57250e-07;-0.002693789529588609
6.57500e-07;-0.0026815682297006635
6.57750e-07;-0.0026693469298127185
6.58000e-07;-0.0026571256299247783
6.58250e-07;-0.002644904330036833
6.58500e-07;-0.002632683030148888
6.58750e-07;-0.0026204617302609426
6.59000e-07;-0.002608240430372997
6.59250e-07;-0.002596019130485052
6.59500e-07;-0.002596616611431486
6.59750e-07;-0.002599366089099841
6.60000e-07;-0.0026021155667681956
6.60250e-07;-0.002604865044436551
6.60500e-07;-0.0026076145221049056
6.60750e-07;-0.0026103639997732604
6.61000e-07;-0.0026131134774416143
6.61250e-07;-0.002615862955109969
6.61500e-07;-0.0026186124327783242
6.61750e-07;-0.002621361910446679
6.62000e-07;-0.0026241113881150338
6.62250e-07;-0.0026268608657833876
6.62500e-07;-0.0026353982040915208
6.62750e-07;-0.0026449071993212277
6.63000e-07;-0.0026544161945509345
6.63250e-07;-0.0026639251897806414
6.63500e-07;-0.0026734341850103483
6.63750e-07;-0.002682943180240051
6.64000e-07;-0.0026924521754697578
6.64250e-07;-0.0027019611706994647
6.64500e-07;-0.00271163058491293
6.64750e-07;-0.002721589874607464
6.65000e-07;-0.002731549164301998
6.65250e-07;-0.0027415084539965276
6.65500e-07;-0.0027514677436910615
6.65750e-07;-0.0027614270333855954
6.66000e-07;-0.0027713863230801293
6.66250e-07;-0.002781345612774663
6.66500e-07;-0.002791304902469193
6.66750e-07;-0.0028131271468662387
6.67000e-07;-0.0028369409254007704
6.67250e-07;-0.002860754703935302
6.67500e-07;-0.0028845684824698333
6.67750e-07;-0.002908382261004365
6.68000e-07;-0.0029321960395388867
6.68250e-07;-0.002956009818073418
6.68500e-07;-0.0029798235966079496
6.68750e-07;-0.0030036373751424813
6.69000e-07;-0.003027451153677013
6.69250e-07;-0.0030773600497347848
6.69500e-07;-0.0031316497529921437
6.69750e-07;-0.0031859394562495256
6.70000e-07;-0.0032402291595069075
6.70250e-07;-0.0032945188627642895
6.70500e-07;-0.0033488085660216714
6.70750e-07;-0.0034030982692790303
6.71000e-07;-0.003457387972536412
6.71250e-07;-0.003511677675793794
6.71500e-07;-0.003565967379051176
6.71750e-07;-0.003636445899272547
6.72000e-07;-0.0037096421725696166
6.72250e-07;-0.003782838445866655
6.72500e-07;-0.003856034719163724
6.72750e-07;-0.003929230992460794
6.73000e-07;-0.004002427265757863
6.73250e-07;-0.004075623539054932
6.73500e-07;-0.004148603741639414
6.73750e-07;-0.004221193506631812
6.74000e-07;-0.00429378327162421
6.74250e-07;-0.004366373036616608
6.74500e-07;-0.004438962801609006
6.74750e-07;-0.004511552566601404
6.75000e-07;-0.004584142331593771
6.75250e-07;-0.004656732096586169
6.75500e-07;-0.004707953243111187
6.75750e-07;-0.004755587059648293
6.76000e-07;-0.004803220876185398
6.76250e-07;-0.0048508546927225026
6.76500e-07;-0.004898488509259588
6.76750e-07;-0.004946122325796693
6.77000e-07;-0.004993756142333799
6.77250e-07;-0.005041389958870904
6.77500e-07;-0.0050890237754080084
6.77750e-07;-0.005120210669032394
6.78000e-07;-0.005121678139308122
6.78250e-07;-0.00512314560958385
6.78500e-07;-0.005124613079859578
6.78750e-07;-0.005126080550135307
6.79000e-07;-0.005127548020411035
6.79250e-07;-0.005129015490686763
6.79500e-07;-0.005130482960962491
6.79750e-07;-0.005131950431238219
6.80000e-07;-0.005133417901513947
6.80250e-07;-0.0051017465661873295
6.80500e-07;-0.005064511940408237
6.80750e-07;-0.0050272773146291605
6.81000e-07;-0.004990042688850068
6.81250e-07;-0.004952808063070976
6.81500e-07;-0.004915573437291884
6.81750e-07;-0.004878338811512791
6.82000e-07;-0.004841104185733715
6.82250e-07;-0.004787781640127202
6.82500e-07;-0.004731758279897173
6.82750e-07;-0.0046757349196671445
6.83000e-07;-0.004619711559437116
6.83250e-07;-0.004563688199207087
6.83500e-07;-0.004507664838977083
6.83750e-07;-0.004451641478747054
6.84000e-07;-0.004395618118517026
6.84250e-07;-0.004341735209000493
6.84500e-07;-0.0042882116349760545
6.84750e-07;-0.004234688060951616
6.85000e-07;-0.004181164486927199
6.85250e-07;-0.0041276409129027605
6.85500e-07;-0.004074117338878322
6.85750e-07;-0.004020593764853883
6.86000e-07;-0.003981244007077568
6.86250e-07;-0.00394427372723284
6.86500e-07;-0.003907303447388096
6.86750e-07;-0.0038703331675433517
6.87000e-07;-0.003833362887698608
6.87250e-07;-0.003796392607853864
6.87500e-07;-0.0037594223280091204
6.87750e-07;-0.0037319965531961608
6.88000e-07;-0.0037061730948442883
6.88250e-07;-0.0036803496364924155
6.88500e-07;-0.003654526178140543
6.88750e-07;-0.0036287027197886706
6.89000e-07;-0.0036028792614367982
6.89250e-07;-0.0035770558030849367
6.89500e-07;-0.003551232344733064
6.89750e-07;-0.0035254088863811914
6.90000e-07;-0.003499585428029319
6.90250e-07;-0.0034737619696774465
6.90500e-07;-0.003447938511325585
6.90750e-07;-0.0034221150529737125
6.91000e-07;-0.0033962915946218397
6.91250e-07;-0.0033704681362699673
6.91500e-07;-0.003344644677918095
6.91750e-07;-0.0033212686760651137
6.92000e-07;-0.0033023152033505895
6.92250e-07;-0.0032833617306360576
6.92500e-07;-0.003264408257921525
6.92750e-07;-0.003245454785206993
6.93000e-07;-0.0032265013124924604
6.93250e-07;-0.0032075478397779363
6.93500e-07;-0.0031885943670634043
6.93750e-07;-0.003169640894348872
6.94000e-07;-0.0031506874216343395
