Time(s);Current(A)
7.25000e-06;-0.0014443718433748368
7.25025e-06;-0.001466461747602238
7.25050e-06;-0.0014884344120013105
7.25075e-06;-0.0015104070764004576
7.25100e-06;-0.0015323797407995302
7.25125e-06;-0.0015555346947110236
7.25150e-06;-0.0015765218438059873
7.25175e-06;-0.0015890089403373705
7.25200e-06;-0.0016073241393622158
7.25225e-06;-0.0016321664718622665
7.25250e-06;-0.0016506780602623121
7.25275e-06;-0.00167092114091761
7.25300e-06;-0.0016928292631250427
7.25325e-06;-0.0017129183869670167
7.25350e-06;-0.0017317628981743814
7.25375e-06;-0.001750505997819225
7.25400e-06;-0.0017692490974640053
7.25425e-06;-0.0017867457153210018
7.25450e-06;-0.00180412448560169
7.25475e-06;-0.0018209116303910806
7.25500e-06;-0.0018376428404441045
7.25525e-06;-0.001852370979418143
7.25550e-06;-0.0018650555721306395
7.25575e-06;-0.0018775648641222733
7.25600e-06;-0.0018900741561138647
7.25625e-06;-0.0019015377555892485
7.25650e-06;-0.0019129024909417835
7.25675e-06;-0.0019242672262942797
7.25700e-06;-0.0019354026148121473
7.25725e-06;-0.0019456963934696204
7.25750e-06;-0.0019559126528671867
7.25775e-06;-0.0019653729079516227
7.25800e-06;-0.0019747616872416753
7.25825e-06;-0.0019842125805607995
7.25850e-06;-0.001993669346398767
7.25875e-06;-0.0020031261122367664
7.25900e-06;-0.0020125828780747338
7.25925e-06;-0.0020217277974515454
7.25950e-06;-0.0020308432335659162
7.25975e-06;-0.002039958669680287
7.26000e-06;-0.0020490741057946887
7.26025e-06;-0.0020579734481300347
7.26050e-06;-0.002066852360060086
7.26075e-06;-0.002075731271990168
7.26100e-06;-0.0020846101839202195
7.26125e-06;-0.0020934890958502713
7.26150e-06;-0.002102368007780353
7.26175e-06;-0.002111246919710405
7.26200e-06;-0.0021201258316404566
7.26225e-06;-0.0021290047435705384
7.26250e-06;-0.00213788365550059
7.26275e-06;-0.002146762567430642
7.26300e-06;-0.0021540082594223285
7.26325e-06;-0.00216109954000325
7.26350e-06;-0.0021681908205841956
7.26375e-06;-0.0021752821011651173
7.26400e-06;-0.002182373381746039
7.26425e-06;-0.0021894646623269844
7.26450e-06;-0.002196555942907906
7.26475e-06;-0.0022036472234888277
7.26500e-06;-0.002210738504069773
7.26525e-06;-0.002217829784650695
7.26550e-06;-0.0022249210652316165
7.26575e-06;-0.0022282780975676937
7.26600e-06;-0.002231282078532116
7.26625e-06;-0.002234286059496538
7.26650e-06;-0.0022372900404609704
7.26675e-06;-0.0022402940214253926
7.26700e-06;-0.002243298002389815
7.26725e-06;-0.0022463019833542474
7.26750e-06;-0.0022493059643186697
7.26775e-06;-0.002252309945283102
7.26800e-06;-0.00225123817761462
7.26825e-06;-0.002249781071706491
7.26850e-06;-0.0022483239657983575
7.26875e-06;-0.0022468668598902286
7.26900e-06;-0.0022454097539820997
7.26925e-06;-0.0022439526480739656
7.26950e-06;-0.0022424955421658367
7.26975e-06;-0.002241038436257708
7.27000e-06;-0.0022395813303495737
7.27025e-06;-0.0022349101847202444
7.27050e-06;-0.0022299351703983844
7.27075e-06;-0.002224960156076508
7.27100e-06;-0.002219985141754648
7.27125e-06;-0.0022150101274327877
7.27150e-06;-0.0022100351131109108
7.27175e-06;-0.0022050600987890507
7.27200e-06;-0.0022000850844671738
7.27225e-06;-0.0021951100701453137
7.27250e-06;-0.0021901350558234537
7.27275e-06;-0.002184853006146423
7.27300e-06;-0.0021791356833838985
7.27325e-06;-0.0021734183606213742
7.27350e-06;-0.0021677010378588304
7.27375e-06;-0.002161983715096306
7.27400e-06;-0.0021562663923337818
7.27425e-06;-0.0021505490695712384
7.27450e-06;-0.002144831746808714
7.27475e-06;-0.0021391144240461898
7.27500e-06;-0.002133397101283646
7.27525e-06;-0.0021276797785211216
7.27550e-06;-0.002123199357581904
7.27575e-06;-0.0021188358784891715
7.27600e-06;-0.0021144723993964543
7.27625e-06;-0.0021097489992857304
7.27650e-06;-0.002104991570743951
7.27675e-06;-0.0021002341422021713
7.27700e-06;-0.002094238822830546
7.27725e-06;-0.0020881264681076577
7.27750e-06;-0.0020820141133847695
7.27775e-06;-0.002075901758661861
7.27800e-06;-0.002069789403938973
7.27825e-06;-0.0020627675021266845
7.27850e-06;-0.002054456167806564
7.27875e-06;-0.002046144833486471
7.27900e-06;-0.0020378334991663785
7.27925e-06;-0.002029522164846258
7.27950e-06;-0.002021210830526165
7.27975e-06;-0.002010713587750812
7.28000e-06;-0.002000009680092117
7.28025e-06;-0.0019893057724334577
7.28050e-06;-0.0019786018647747626
7.28075e-06;-0.001967897957116104
7.28100e-06;-0.001957194049457445
7.28125e-06;-0.00194649014179875
7.28150e-06;-0.0019351987029656201
7.28175e-06;-0.0019230743421161628
7.28200e-06;-0.0019109499812666646
7.28225e-06;-0.0018988256204172072
7.28250e-06;-0.00188670125956775
7.28275e-06;-0.0018745768987182517
7.28300e-06;-0.0018624525378687945
7.28325e-06;-0.0018503281770193374
7.28350e-06;-0.0018385710547309977
7.28375e-06;-0.0018268486527047419
7.28400e-06;-0.001815126250678486
7.28425e-06;-0.0018041488199255595
7.28450e-06;-0.0017932418218574728
7.28475e-06;-0.0017827856803895436
7.28500e-06;-0.0017729687022627727
7.28525e-06;-0.0017631517241360017
7.28550e-06;-0.0017542692430684342
7.28575e-06;-0.001746064132922488
7.28600e-06;-0.0017380628701256133
7.28625e-06;-0.0017293349263697954
7.28650e-06;-0.0017192998858780923
7.28675e-06;-0.0017073956658672463
7.28700e-06;-0.0016953257835078497
7.28725e-06;-0.0016809483401496884
7.28750e-06;-0.001666352730370529
7.28775e-06;-0.0016517571205913204
7.28800e-06;-0.001634748139699255
7.28825e-06;-0.0016175109886576282
7.28850e-06;-0.0015964420898119595
7.28875e-06;-0.001575010921581088
7.28900e-06;-0.001553579753350144
7.28925e-06;-0.0015289635748261749
7.28950e-06;-0.0015040462721729814
7.28975e-06;-0.0014771994461307062
7.29000e-06;-0.0014501701949165894
7.29025e-06;-0.0014208678786798473
7.29050e-06;-0.0013913506574152062
7.29075e-06;-0.0013601223222801304
7.29100e-06;-0.0013278213473705452
7.29125e-06;-0.00129470537298687
7.29150e-06;-0.0012609737984642516
7.29175e-06;-0.0012268141309693134
7.29200e-06;-0.0011922991593378437
7.29225e-06;-0.0011573810634296303
7.29250e-06;-0.0011220979974164832
7.29275e-06;-0.0010866259210820072
7.29300e-06;-0.0010511769988649055
7.29325e-06;-0.0010159655614281056
7.29350e-06;-0.0009812058230196919
7.29375e-06;-0.000947104755376261
7.29400e-06;-0.0009137974918495562
7.29425e-06;-0.0008813435174937762
7.29450e-06;-0.0008498562135551298
7.29475e-06;-0.0008195353998736662
7.29500e-06;-0.0007913485745326474
7.29525e-06;-0.0007633538328469589
7.29550e-06;-0.0007387323668785311
7.29575e-06;-0.0007144298244360752
7.29600e-06;-0.0006933518935257063
7.29625e-06;-0.000672578830810329
7.29650e-06;-0.0006537454754195083
7.29675e-06;-0.0006350955080321897
7.29700e-06;-0.0006191515780308648
7.29725e-06;-0.0006034634880665744
7.29750e-06;-0.0005877753981022308
7.29775e-06;-0.0005758187233494142
7.29800e-06;-0.000564214832120778
7.29825e-06;-0.0005526109408921027
7.29850e-06;-0.0005434730333445488
7.29875e-06;-0.0005345682701575775
7.29900e-06;-0.000525663506970576
7.29925e-06;-0.0005192584257436208
7.29950e-06;-0.0005130896748527797
7.29975e-06;-0.0005069209239619177
7.30000e-06;-0.0005030927410113081
7.30025e-06;-0.0004994858450951442
7.30050e-06;-0.000495878949178968
7.30075e-06;-0.0004947723708482998
7.30100e-06;-0.0004939021829484038
7.30125e-06;-0.0004930319950485048
7.30150e-06;-0.0004921618071486087
7.30175e-06;-0.0004912916192487096
7.30200e-06;-0.0004904214313488135
7.30225e-06;-0.0004895512434489175
7.30250e-06;-0.000490939549301266
7.30275e-06;-0.0004925413825527039
7.30300e-06;-0.0004941432158041419
7.30325e-06;-0.0004957450490555852
7.30350e-06;-0.0004973468823070232
7.30375e-06;-0.0004989487155584612
7.30400e-06;-0.0005005505488099046
7.30425e-06;-0.0005025980270490626
7.30450e-06;-0.0005046876384201104
7.30475e-06;-0.0005067772497911653
7.30500e-06;-0.0005088668611622131
7.30525e-06;-0.0005105908878644436
7.30550e-06;-0.0005122803506705476
7.30575e-06;-0.0005139698134766457
7.30600e-06;-0.0005156592762827496
7.30625e-06;-0.0005186724921773247
7.30650e-06;-0.0005218108611982582
7.30675e-06;-0.0005249492302192022
7.30700e-06;-0.0005280875992401357
7.30725e-06;-0.0005312259682610692
7.30750e-06;-0.0005343643372820134
7.30775e-06;-0.0005387506796365138
7.30800e-06;-0.0005449062293283621
7.30825e-06;-0.0005510617790202313
7.30850e-06;-0.0005572173287120796
7.30875e-06;-0.000563372878403928
7.30900e-06;-0.0005695284280957972
7.30925e-06;-0.0005756839777876456
7.30950e-06;-0.0005848687144248963
7.30975e-06;-0.0005943398430032262
7.31000e-06;-0.000603810971581524
7.31025e-06;-0.0006132821001598539
7.31050e-06;-0.0006227532287381517
7.31075e-06;-0.0006322243573164495
7.31100e-06;-0.0006416954858947793
7.31125e-06;-0.0006511666144730771
7.31150e-06;-0.0006624490078170783
7.31175e-06;-0.000673902645670382
7.31200e-06;-0.0006853562835236468
7.31225e-06;-0.0006968099213769116
7.31250e-06;-0.0007082635592302152
7.31275e-06;-0.00071971719708348
7.31300e-06;-0.0007311708349367448
7.31325e-06;-0.0007426244727900484
7.31350e-06;-0.0007537446997652491
7.31375e-06;-0.0007648334046884169
7.31400e-06;-0.0007759221096116224
7.31425e-06;-0.0007870108145347902
7.31450e-06;-0.0007968095764623657
7.31475e-06;-0.0008064863818105012
7.31500e-06;-0.0008161631871586367
7.31525e-06;-0.000825839992506805
7.31550e-06;-0.0008339691188643213
7.31575e-06;-0.0008419519212088074
7.31600e-06;-0.0008497156492870784
7.31625e-06;-0.0008574586651724315
7.31650e-06;-0.0008670064445906068
7.31675e-06;-0.0008767248538644132
7.31700e-06;-0.000888550885742809
7.31725e-06;-0.0009005761810339049
7.31750e-06;-0.0009126014763250417
7.31775e-06;-0.0009267729850430856
7.31800e-06;-0.0009411474057107736
7.31825e-06;-0.0009555218263785104
7.31850e-06;-0.0009735348634731248
7.31875e-06;-0.0009918919105082354
7.31900e-06;-0.0010102489575432839
7.31925e-06;-0.0010322706554813218
7.31950e-06;-0.0010546388247675742
7.31975e-06;-0.0010770069940537505
7.32000e-06;-0.001099375163339927
7.32025e-06;-0.0011235106707252844
7.32050e-06;-0.0011501516703736007
7.32075e-06;-0.0011767926700219167
7.32100e-06;-0.0012034336696703232
7.32125e-06;-0.0012300746693186394
7.32150e-06;-0.0012587550677721228
7.32175e-06;-0.0012876282794764152
7.32200e-06;-0.0013165014911806097
7.32225e-06;-0.0013461684294167903
7.32250e-06;-0.0013759104098627728
7.32275e-06;-0.0014056523903086546
7.32300e-06;-0.0014352597194517735
7.32325e-06;-0.0014648543181002224
7.32350e-06;-0.0014944489167486711
7.32375e-06;-0.001522531081331877
7.32400e-06;-0.0015504702541039466
7.32425e-06;-0.0015784094268760165
7.32450e-06;-0.0016039402274378382
7.32475e-06;-0.0016292433304675661
7.32500e-06;-0.001654546433497294
7.32525e-06;-0.0016753154251202117
7.32550e-06;-0.0016956557429804574
7.32575e-06;-0.0017159960608407031
7.32600e-06;-0.0017363363787010176
7.32625e-06;-0.0017523940991104729
7.32650e-06;-0.0017680469249335266
7.32675e-06;-0.0017836997507566332
7.32700e-06;-0.001799352576579687
7.32725e-06;-0.00181122182665115
7.32750e-06;-0.001822733361724466
7.32775e-06;-0.0018342448967977817
7.32800e-06;-0.0018457564318711363
7.32825e-06;-0.00185579287925035
7.32850e-06;-0.0018637381473548269
7.32875e-06;-0.0018716834154593304
7.32900e-06;-0.0018796286835638073
7.32925e-06;-0.001887573951668284
7.32950e-06;-0.0018912939551769836
7.32975e-06;-0.0018946144845860598
7.33000e-06;-0.0018979350139951361
7.33025e-06;-0.0019012555434042239
7.33050e-06;-0.0019045760728133001
7.33075e-06;-0.0019078966022223766
7.33100e-06;-0.0019112171316314642
7.33125e-06;-0.0019145376610405405
7.33150e-06;-0.0019178581904496282
7.33175e-06;-0.0019211787198587045
7.33200e-06;-0.001924499249267781
7.33225e-06;-0.00192642008441886
7.33250e-06;-0.001926356622883857
7.33275e-06;-0.0019262931613488541
7.33300e-06;-0.0019262296998138512
7.33325e-06;-0.0019261662382788482
7.33350e-06;-0.0019261027767438453
7.33375e-06;-0.0019260393152088422
7.33400e-06;-0.0019259758536738394
7.33425e-06;-0.0019259123921388365
7.33450e-06;-0.0019258489306038333
7.33475e-06;-0.0019257854690688306
7.33500e-06;-0.0019257220075338277
7.33525e-06;-0.0019252590198882203
7.33550e-06;-0.0019247582593813818
7.33575e-06;-0.0019240197850815559
7.33600e-06;-0.0019232588363304341
7.33625e-06;-0.0019203405950231035
7.33650e-06;-0.0019172183942993554
7.33675e-06;-0.0019110214959538953
7.33700e-06;-0.0019045339028991239
7.33725e-06;-0.0018946684340718535
7.33750e-06;-0.0018844836068111805
7.33775e-06;-0.0018742987795505074
7.33800e-06;-0.0018596641486230525
7.33825e-06;-0.0018446088147379986
7.33850e-06;-0.0018295534808529447
7.33875e-06;-0.0018092046277387263
7.33900e-06;-0.0017883553032863458
7.33925e-06;-0.0017675059788339656
7.33950e-06;-0.0017430399834930143
7.33975e-06;-0.0017182320530346772
7.34000e-06;-0.0016908155460720526
7.34025e-06;-0.0016631524134305881
7.34050e-06;-0.0016327099438846308
7.34075e-06;-0.0016020047042607417
7.34100e-06;-0.001569556336514656
7.34125e-06;-0.0015360204963137966
7.34150e-06;-0.001501654288266473
7.34175e-06;-0.0014666447554282965
7.34200e-06;-0.001431089767398448
7.34225e-06;-0.0013949956743216526
7.34250e-06;-0.0013584411579667173
7.34275e-06;-0.0013216158636560292
7.34300e-06;-0.001284738142851481
7.34325e-06;-0.001248028243286537
7.34350e-06;-0.0012117063163903298
7.34375e-06;-0.0011759867601158114
7.34400e-06;-0.0011410276969586264
7.34425e-06;-0.0011069303958112172
7.34450e-06;-0.0010738410248713067
7.34475e-06;-0.0010419755504948863
7.34500e-06;-0.0010115676863165421
7.34525e-06;-0.0009828524547598877
7.34550e-06;-0.0009560646856403062
7.34575e-06;-0.0009314429112492023
7.34600e-06;-0.0009092455328208812
7.34625e-06;-0.0008909872289785912
7.34650e-06;-0.0008730813592244993
7.34675e-06;-0.0008603618779534898
7.34700e-06;-0.0008481327394338748
7.34725e-06;-0.00084120384739073
7.34750e-06;-0.0008347760627075471
7.34775e-06;-0.0008337679663753897
7.34800e-06;-0.0008332722699350488
7.34825e-06;-0.0008382935277355535
7.34850e-06;-0.0008438363813498877
7.34875e-06;-0.0008546807045766015
7.34900e-06;-0.00086602625080355
7.34925e-06;-0.0008823155525873329
7.34950e-06;-0.0008990722575957801
7.34975e-06;-0.0009204185405633957
7.35000e-06;-0.0009421987413317316
7.35025e-06;-0.000969141975779064
7.35050e-06;-0.0009965733449173247
7.35075e-06;-0.0010240047140556783
7.35100e-06;-0.0010564330008436293
7.35125e-06;-0.0010893337170217485
7.35150e-06;-0.001122234433199979
7.35175e-06;-0.0011586673175336978
7.35200e-06;-0.0011954341477445822
7.35225e-06;-0.0012322009779555912
7.35250e-06;-0.0012709277326862297
7.35275e-06;-0.001309839786837658
7.35300e-06;-0.0013487518409889547
7.35325e-06;-0.0013879329850267424
7.35350e-06;-0.0014271395699423939
7.35375e-06;-0.0014655856302597467
7.35400e-06;-0.001503959787416542
7.35425e-06;-0.00154073232795064
7.35450e-06;-0.0015773534449837043
7.35475e-06;-0.0016106266087557433
7.35500e-06;-0.0016435832430935584
7.35525e-06;-0.0016765398774312617
7.35550e-06;-0.0017037794330039661
7.35575e-06;-0.0017304784721578113
7.35600e-06;-0.001757177511311566
7.35625e-06;-0.0017798283253415504
7.35650e-06;-0.0018020964033211109
7.35675e-06;-0.0018243644813005961
7.35700e-06;-0.0018431846938001591
7.35725e-06;-0.001861678930748385
7.35750e-06;-0.0018801731676966107
7.35775e-06;-0.0018968572754872418
7.35800e-06;-0.001910975227657365
7.35825e-06;-0.0019250931798274885
7.35850e-06;-0.0019392111319976597
7.35875e-06;-0.0019506837300196024
7.35900e-06;-0.00196190622525138
7.35925e-06;-0.0019731287204831954
7.35950e-06;-0.001984351215714973
7.35975e-06;-0.0019925943115611465
7.36000e-06;-0.002000555722590274
7.36025e-06;-0.0020085171336193743
7.36050e-06;-0.0020164785446484747
7.36075e-06;-0.0020213352752732764
7.36100e-06;-0.00202589847649212
7.36125e-06;-0.002030461677710963
7.36150e-06;-0.0020350248789298224
7.36175e-06;-0.0020395880801486656
7.36200e-06;-0.002044151281367525
7.36225e-06;-0.002048714482586368
7.36250e-06;-0.0020532776838052117
7.36275e-06;-0.0020578408850240705
7.36300e-06;-0.002062404086242914
7.36325e-06;-0.0020643405447309145
7.36350e-06;-0.002066028660029668
7.36375e-06;-0.0020677167753284163
7.36400e-06;-0.002069404890627164
7.36425e-06;-0.0020710930059259177
7.36450e-06;-0.002072781121224666
7.36475e-06;-0.002074469236523414
7.36500e-06;-0.0020761573518221677
7.36525e-06;-0.0020778454671209158
7.36550e-06;-0.002079533582419664
7.36575e-06;-0.002079632663440781
7.36600e-06;-0.0020795815105483706
7.36625e-06;-0.0020795303576559595
7.36650e-06;-0.002079479204763549
7.36675e-06;-0.002079428051871138
7.36700e-06;-0.002079376898978727
7.36725e-06;-0.0020793257460863163
7.36750e-06;-0.0020792745931939058
7.36775e-06;-0.0020792234403014948
7.36800e-06;-0.0020791722874090837
7.36825e-06;-0.0020768206818860945
7.36850e-06;-0.00207425158199788
7.36875e-06;-0.0020716824821096747
7.36900e-06;-0.002069113382221469
7.36925e-06;-0.002066544282333255
7.36950e-06;-0.002063975182445049
7.36975e-06;-0.0020614060825568437
7.37000e-06;-0.0020588369826686297
7.37025e-06;-0.002056267882780424
7.37050e-06;-0.00205369878289221
7.37075e-06;-0.002049544470582686
7.37100e-06;-0.002045240285693886
7.37125e-06;-0.0020409361008050715
7.37150e-06;-0.0020366319159162713
7.37175e-06;-0.0020323277310274716
7.37200e-06;-0.0020280235461386568
7.37225e-06;-0.002023719361249857
7.37250e-06;-0.002019415176361057
7.37275e-06;-0.0020151109914722425
7.37300e-06;-0.0020107136355397306
7.37325e-06;-0.0020063074708290105
7.37350e-06;-0.002001901306118275
7.37375e-06;-0.0019974951414075547
7.37400e-06;-0.001993088976696834
7.37425e-06;-0.001988682811986099
7.37450e-06;-0.001984276647275379
7.37475e-06;-0.0019798704825646435
7.37500e-06;-0.001975464317853923
7.37525e-06;-0.0019717701954727026
7.37550e-06;-0.0019681433925364937
7.37575e-06;-0.0019647373922107407
7.37600e-06;-0.001961352267482657
7.37625e-06;-0.0019563904674668826
7.37650e-06;-0.0019512796020080365
7.37675e-06;-0.001943181803355563
7.37700e-06;-0.0019348016076087156
7.37725e-06;-0.0019264214118618964
7.37750e-06;-0.001915037549004912
7.37775e-06;-0.0019033697069594459
7.37800e-06;-0.0018917018649140195
7.37825e-06;-0.0018753454506747979
7.37850e-06;-0.001858545759308709
7.37875e-06;-0.0018417460679426773
7.37900e-06;-0.0018249463765765887
7.37925e-06;-0.001803170170884196
7.37950e-06;-0.001780923464817543
7.37975e-06;-0.0017586767587508146
7.38000e-06;-0.0017364300526841615
7.38025e-06;-0.0017109220144186528
7.38050e-06;-0.0016851056362349023
7.38075e-06;-0.0016571915268923355
7.38100e-06;-0.00162907908931628
7.38125e-06;-0.0015994880932193355
7.38150e-06;-0.0015697573080469028
7.38175e-06;-0.0015393043941058532
7.38200e-06;-0.0015084142455182718
7.38225e-06;-0.001477100469286532
7.38250e-06;-0.0014454172465832393
7.38275e-06;-0.0014135261190627744
7.38300e-06;-0.0013816163946910162
7.38325e-06;-0.0013498792173705064
7.38350e-06;-0.0013185055283406236
7.38375e-06;-0.001287680930747108
7.38400e-06;-0.0012575357497375057
7.38425e-06;-0.0012281436537177372
7.38450e-06;-0.0011996211996207844
7.38475e-06;-0.0011727326692977866
7.38500e-06;-0.0011459914295898696
7.38525e-06;-0.0011219428436813532
7.38550e-06;-0.0010981488324683872
7.38575e-06;-0.0010774949832357832
7.38600e-06;-0.0010571380179845162
7.38625e-06;-0.0010383450712239067
7.38650e-06;-0.0010196999932801049
7.38675e-06;-0.0010021015650899748
7.38700e-06;-0.0009846020915231053
7.38725e-06;-0.0009671026179562949
7.38750e-06;-0.0009517280149829455
7.38775e-06;-0.0009365543061181475
7.38800e-06;-0.0009213805972533493
7.38825e-06;-0.000907289239527657
7.38850e-06;-0.000893300211782877
7.38875e-06;-0.000879311184038097
7.38900e-06;-0.00086626510185366
7.38925e-06;-0.0008533081696665796
7.38950e-06;-0.0008403512374794992
7.38975e-06;-0.0008273943052923749
7.39000e-06;-0.0008144373731052946
7.39025e-06;-0.0008024978453165155
7.39050e-06;-0.0007906545071733949
7.39075e-06;-0.0007788111690303144
7.39100e-06;-0.0007669678308872339
7.39125e-06;-0.0007551244927441133
7.39150e-06;-0.0007444374930503835
7.39175e-06;-0.0007338598184056614
7.39200e-06;-0.0007232821437609749
7.39225e-06;-0.0007127044691162886
7.39250e-06;-0.0007021267944715664
7.39275e-06;-0.00069154911982688
7.39300e-06;-0.0006809714451821937
7.39325e-06;-0.0006712046851590804
7.39350e-06;-0.0006625875299051913
