Time(s);Current(A)
5.00000e-06;-0.011710083365045794
5.00025e-06;-0.011705297608775703
5.00050e-06;-0.011700511852505596
5.00075e-06;-0.011695726096235506
5.00100e-06;-0.011690940339965414
5.00125e-06;-0.011686154583695306
5.00150e-06;-0.011681368827425216
5.00175e-06;-0.011683410008799675
5.00200e-06;-0.011687632418392423
5.00225e-06;-0.011691854827985158
5.00250e-06;-0.011696077237577892
5.00275e-06;-0.01170029964717064
5.00300e-06;-0.011704522056763375
5.00325e-06;-0.01170874446635611
5.00350e-06;-0.011712966875948859
5.00375e-06;-0.011717189285541593
5.00400e-06;-0.011730084301647915
5.00425e-06;-0.011745750243026567
5.00450e-06;-0.01176141618440522
5.00475e-06;-0.011777082125783926
5.00500e-06;-0.011792748067162578
5.00525e-06;-0.011808414008541232
5.00550e-06;-0.011824079949919937
5.00575e-06;-0.01183974589129859
5.00600e-06;-0.011857138721720025
5.00625e-06;-0.011879501639381763
5.00650e-06;-0.011901864557043425
5.00675e-06;-0.011924227474705089
5.00700e-06;-0.011946590392366827
5.00725e-06;-0.011968953310028488
5.00750e-06;-0.01199131622769015
5.00775e-06;-0.01201367914535189
5.00800e-06;-0.012036042063013551
5.00825e-06;-0.012058521157505544
5.00850e-06;-0.012081037370862994
5.00875e-06;-0.012103553584220442
5.00900e-06;-0.012126069797577967
5.00925e-06;-0.012148586010935415
5.00950e-06;-0.01216809207273964
5.00975e-06;-0.012186636381580932
5.01000e-06;-0.012205180690422162
5.01025e-06;-0.012223724999263389
5.01050e-06;-0.01224226930810468
5.01075e-06;-0.01225563873672688
5.01100e-06;-0.012267354774715543
5.01125e-06;-0.012279070812704245
5.01150e-06;-0.012282828573130797
5.01175e-06;-0.012284043638649812
5.01200e-06;-0.012285258704168831
5.01225e-06;-0.012278305395103791
5.01250e-06;-0.01226874226446675
5.01275e-06;-0.01225917913382974
5.01300e-06;-0.01223713849013795
5.01325e-06;-0.012211111241473532
5.01350e-06;-0.012185083992809206
5.01375e-06;-0.012159056744144877
5.01400e-06;-0.01213302949548046
5.01425e-06;-0.012101945218040519
5.01450e-06;-0.01205630651726267
5.01475e-06;-0.012010667816484667
5.01500e-06;-0.01196502911570682
5.01525e-06;-0.011919390414928972
5.01550e-06;-0.011873751714150968
5.01575e-06;-0.011817372784315038
5.01600e-06;-0.011757562317250657
5.01625e-06;-0.011697751850186075
5.01650e-06;-0.011637941383121695
5.01675e-06;-0.011578130916057111
5.01700e-06;-0.011513224196348771
5.01725e-06;-0.011446689207766637
5.01750e-06;-0.011380154219184277
5.01775e-06;-0.011313619230602142
5.01800e-06;-0.011247084242020007
5.01825e-06;-0.011180146516503592
5.01850e-06;-0.011113080115260382
5.01875e-06;-0.011046992676736306
5.01900e-06;-0.010982194865183812
5.01925e-06;-0.010918887866610983
5.01950e-06;-0.010857395915945148
5.01975e-06;-0.010799157514674725
5.02000e-06;-0.010741811792804064
5.02025e-06;-0.010690675226088955
5.02050e-06;-0.01064152250412745
5.02075e-06;-0.01059236978216611
5.02100e-06;-0.01054865911419564
5.02125e-06;-0.010506687199725443
5.02150e-06;-0.010464715285255248
5.02175e-06;-0.010423817147725603
5.02200e-06;-0.010383262085332256
5.02225e-06;-0.010342707022938909
5.02250e-06;-0.01030477852622596
5.02275e-06;-0.010267689225573614
5.02300e-06;-0.010230599924921268
5.02325e-06;-0.01019373556475332
5.02350e-06;-0.010156943073783304
5.02375e-06;-0.010120150582813289
5.02400e-06;-0.010083358091843147
5.02425e-06;-0.010046565600873131
5.02450e-06;-0.010009804897265506
5.02475e-06;-0.009973135679537993
5.02500e-06;-0.009936466461810602
5.02525e-06;-0.009899797244083089
5.02550e-06;-0.0098631280263557
5.02575e-06;-0.009826458808628308
5.02600e-06;-0.009789444640807169
5.02625e-06;-0.009752320260337847
5.02650e-06;-0.009715195879868525
5.02675e-06;-0.009678927180103157
5.02700e-06;-0.009642931873035127
5.02725e-06;-0.009606936565967098
5.02750e-06;-0.009571198645396132
5.02775e-06;-0.009535542960626978
5.02800e-06;-0.0095005341535306
5.02825e-06;-0.009465732025900963
5.02850e-06;-0.00943182239889035
5.02875e-06;-0.009398984910222332
5.02900e-06;-0.009367183022972651
5.02925e-06;-0.009336309963143937
5.02950e-06;-0.009306347432196728
5.02975e-06;-0.009277439436513997
5.03000e-06;-0.009249781445464922
5.03025e-06;-0.009223573467893447
5.03050e-06;-0.00919901714977942
5.03075e-06;-0.009176390815932309
5.03100e-06;-0.00915639734219586
5.03125e-06;-0.009140097563365505
5.03150e-06;-0.009128156464649756
5.03175e-06;-0.00912067404935096
5.03200e-06;-0.009117571843329926
5.03225e-06;-0.00911876094920754
5.03250e-06;-0.009124149587783428
5.03275e-06;-0.009135385867628014
5.03300e-06;-0.009148167338642037
5.03325e-06;-0.00916830514631157
5.03350e-06;-0.009190793326859523
5.03375e-06;-0.009224558008242015
5.03400e-06;-0.009261925567383585
5.03425e-06;-0.009299293126525153
5.03450e-06;-0.00933666068566685
5.03475e-06;-0.009378528475628159
5.03500e-06;-0.009433348191975768
5.03525e-06;-0.009488167908323563
5.03550e-06;-0.009542987624671172
5.03575e-06;-0.00959780734101878
5.03600e-06;-0.009663222181241342
5.03625e-06;-0.009732022197124334
5.03650e-06;-0.009800822213007324
5.03675e-06;-0.009869622228890549
5.03700e-06;-0.00993842224477354
5.03725e-06;-0.010008761415222929
5.03750e-06;-0.010083530362152617
5.03775e-06;-0.01015829930908205
5.03800e-06;-0.01023306825601174
5.03825e-06;-0.010307837202941173
5.03850e-06;-0.010382606149870608
5.03875e-06;-0.010455636294235604
5.03900e-06;-0.010528110885669606
5.03925e-06;-0.010597761519036006
5.03950e-06;-0.010666509888849204
5.03975e-06;-0.010729740682672694
5.04000e-06;-0.010791208593479032
5.04025e-06;-0.010852676504285577
5.04050e-06;-0.010898358011893703
5.04075e-06;-0.010938995713643497
5.04100e-06;-0.010979633415393427
5.04125e-06;-0.011020271117143219
5.04150e-06;-0.011060908818893012
5.04175e-06;-0.01110154652064294
5.04200e-06;-0.011142184222392734
5.04225e-06;-0.011175744010889166
5.04250e-06;-0.011188933152838186
5.04275e-06;-0.011202122294787207
5.04300e-06;-0.011215311436736273
5.04325e-06;-0.011228500578685293
5.04350e-06;-0.011241689720634314
5.04375e-06;-0.01125487886258338
5.04400e-06;-0.0112680680045324
5.04425e-06;-0.01126444043098268
5.04450e-06;-0.011255439863529402
5.04475e-06;-0.011246439296076154
5.04500e-06;-0.011237438728622906
5.04525e-06;-0.011228438161169627
5.04550e-06;-0.011219437593716379
5.04575e-06;-0.01121043702626313
5.04600e-06;-0.011190733912834172
5.04625e-06;-0.011167611302043783
5.04650e-06;-0.011144488691253316
5.04675e-06;-0.011121366080462927
5.04700e-06;-0.011098243469672538
5.04725e-06;-0.01107512085888207
5.04750e-06;-0.011051998248091683
5.04775e-06;-0.011025190856177028
5.04800e-06;-0.01099720616501403
5.04825e-06;-0.010969221473851124
5.04850e-06;-0.010940766946458834
5.04875e-06;-0.010912162304901997
5.04900e-06;-0.010883557663345257
5.04925e-06;-0.010856076440914873
5.04950e-06;-0.01082895415445597
5.04975e-06;-0.01080183186799716
5.05000e-06;-0.010778788663450188
5.05025e-06;-0.010757048738502698
5.05050e-06;-0.010735308813555283
5.05075e-06;-0.010713568888607793
5.05100e-06;-0.010691828963660378
5.05125e-06;-0.01067008903871296
5.05150e-06;-0.010648349113765472
5.05175e-06;-0.010626662182310042
5.05200e-06;-0.010605127769210748
5.05225e-06;-0.01058359335611138
5.05250e-06;-0.010562058943012088
5.05275e-06;-0.010540524529912793
5.05300e-06;-0.010518990116813426
5.05325e-06;-0.010497455703714133
5.05350e-06;-0.010475921290614839
5.05375e-06;-0.01045107961123758
5.05400e-06;-0.010425181249802283
5.05425e-06;-0.010399282888366987
5.05450e-06;-0.010373384526931602
5.05475e-06;-0.010347486165496305
5.05500e-06;-0.010321587804060922
5.05525e-06;-0.010294829329801846
5.05550e-06;-0.010265595400745451
5.05575e-06;-0.010236361471688956
5.05600e-06;-0.010207127542632562
5.05625e-06;-0.010177893613576166
5.05650e-06;-0.010148659684519671
5.05675e-06;-0.010119425755463277
5.05700e-06;-0.010089758769372315
5.05725e-06;-0.01005995342018615
5.05750e-06;-0.010030148071000087
5.05775e-06;-0.010000342721814024
5.05800e-06;-0.00997053737262786
5.05825e-06;-0.009940732023441798
5.05850e-06;-0.009910926674255735
5.05875e-06;-0.009881121325069572
5.05900e-06;-0.009855437394815852
5.05925e-06;-0.00983107027097353
5.05950e-06;-0.009806703147131291
5.05975e-06;-0.009782336023289052
5.06000e-06;-0.00975796889944673
5.06025e-06;-0.00973360177560449
5.06050e-06;-0.00970923465176225
5.06075e-06;-0.009684867527919928
5.06100e-06;-0.009668409462944647
5.06125e-06;-0.009654478367344519
5.06150e-06;-0.009640547271744343
5.06175e-06;-0.009626616176144215
5.06200e-06;-0.009612685080544086
5.06225e-06;-0.009598753984943911
5.06250e-06;-0.009584822889343784
5.06275e-06;-0.009570891793743656
5.06300e-06;-0.00955696069814348
5.06325e-06;-0.009543029602543352
5.06350e-06;-0.009535724327079081
5.06375e-06;-0.009530536022148156
5.06400e-06;-0.00952534771721723
5.06425e-06;-0.009520159412286287
5.06450e-06;-0.009514971107355361
5.06475e-06;-0.009509782802424437
5.06500e-06;-0.009504594497493494
5.06525e-06;-0.009499406192562568
5.06550e-06;-0.009494217887631643
5.06575e-06;-0.0094890295827007
5.06600e-06;-0.009487683764951715
5.06625e-06;-0.009487565634035671
5.06650e-06;-0.009487447503119627
5.06675e-06;-0.009487329372203585
5.06700e-06;-0.009487211241287541
5.06725e-06;-0.009487093110371497
5.06750e-06;-0.009486974979455455
5.06775e-06;-0.00948685684853941
5.06800e-06;-0.009486738717623367
5.06825e-06;-0.009486952754532861
5.06850e-06;-0.009488122789788448
5.06875e-06;-0.009489292825044031
5.06900e-06;-0.009490462860299614
5.06925e-06;-0.009491632895555201
5.06950e-06;-0.009492802930810784
5.06975e-06;-0.009493972966066367
5.07000e-06;-0.009495143001321954
5.07025e-06;-0.009496313036577537
5.07050e-06;-0.00949748307183312
5.07075e-06;-0.009496691116001441
5.07100e-06;-0.009495272297799158
5.07125e-06;-0.009493853479596874
5.07150e-06;-0.009492434661394586
5.07175e-06;-0.009491015843192301
5.07200e-06;-0.009489597024990012
5.07225e-06;-0.00948817820678773
5.07250e-06;-0.009486759388585446
5.07275e-06;-0.009485340570383157
5.07300e-06;-0.009480389236220299
5.07325e-06;-0.009474309252012352
5.07350e-06;-0.009468229267804383
5.07375e-06;-0.009462149283596434
5.07400e-06;-0.009456069299388487
5.07425e-06;-0.009449989315180518
5.07450e-06;-0.009443909330972569
5.07475e-06;-0.009437829346764622
5.07500e-06;-0.009431749362556653
5.07525e-06;-0.009422871770634843
5.07550e-06;-0.00941310033418198
5.07575e-06;-0.009403328897729083
5.07600e-06;-0.009393557461276219
5.07625e-06;-0.009383786024823322
5.07650e-06;-0.009374014588370458
5.07675e-06;-0.009364243151917594
5.07700e-06;-0.009354471715464698
5.07725e-06;-0.009344437355196297
5.07750e-06;-0.009333646284875267
5.07775e-06;-0.009322855214554202
5.07800e-06;-0.009312064144233172
5.07825e-06;-0.009301273073912143
5.07850e-06;-0.009290482003591078
5.07875e-06;-0.009279690933270048
5.07900e-06;-0.00926889986294902
5.07925e-06;-0.009258108792627954
5.07950e-06;-0.009249129087739165
5.07975e-06;-0.009240728119846685
5.08000e-06;-0.009232327151954177
5.08025e-06;-0.009223926184061697
5.08050e-06;-0.009215525216169187
5.08075e-06;-0.009207124248276707
5.08100e-06;-0.009198723280384227
5.08125e-06;-0.009190322312491719
5.08150e-06;-0.009183202568453536
5.08175e-06;-0.009179770261280312
5.08200e-06;-0.009176337954107078
5.08225e-06;-0.009172905646933854
5.08250e-06;-0.00916947333976063
5.08275e-06;-0.009166041032587396
5.08300e-06;-0.009162608725414172
5.08325e-06;-0.009159176418240949
5.08350e-06;-0.009155744111067714
5.08375e-06;-0.009156215632884764
5.08400e-06;-0.00915793444043636
5.08425e-06;-0.009159653247987962
5.08450e-06;-0.009161372055539558
5.08475e-06;-0.009163090863091155
5.08500e-06;-0.009164809670642756
5.08525e-06;-0.009166528478194352
5.08550e-06;-0.009168247285745954
5.08575e-06;-0.00916996609329755
5.08600e-06;-0.009174188576633944
5.08625e-06;-0.009179210992318288
5.08650e-06;-0.009184233408002618
5.08675e-06;-0.009189255823686947
5.08700e-06;-0.009194278239371294
5.08725e-06;-0.009199300655055623
5.08750e-06;-0.009204323070739952
5.08775e-06;-0.009209345486424297
5.08800e-06;-0.009214367902108627
5.08825e-06;-0.009219807139618997
5.08850e-06;-0.009225379553023796
5.08875e-06;-0.009230951966428575
5.08900e-06;-0.009236524379833357
5.08925e-06;-0.00924186955629048
5.08950e-06;-0.009246560731579105
5.08975e-06;-0.009251251906867748
5.09000e-06;-0.009255943082156375
5.09025e-06;-0.009260634257445
5.09050e-06;-0.009264340509814855
5.09075e-06;-0.009267732076190745
5.09100e-06;-0.009271123642566636
5.09125e-06;-0.009276246662496617
5.09150e-06;-0.009281922887324386
5.09175e-06;-0.009287599112152153
5.09200e-06;-0.009293275336979939
5.09225e-06;-0.009298951561807708
5.09250e-06;-0.009304627786635475
5.09275e-06;-0.009310304011463261
5.09300e-06;-0.0093172704597157
5.09325e-06;-0.009327950246119671
5.09350e-06;-0.009338630032523679
5.09375e-06;-0.00934930981892765
5.09400e-06;-0.009359989605331657
5.09425e-06;-0.00937066939173563
5.09450e-06;-0.009381349178139601
5.09475e-06;-0.009392028964543608
5.09500e-06;-0.009406352363845493
5.09525e-06;-0.009421839909015383
5.09550e-06;-0.009437327454185325
5.09575e-06;-0.009452814999355215
5.09600e-06;-0.009468302544525105
5.09625e-06;-0.009483790089695047
5.09650e-06;-0.009499277634864937
5.09675e-06;-0.009514765180034827
5.09700e-06;-0.009531568978342297
5.09725e-06;-0.009548793323698523
5.09750e-06;-0.009566017669054749
5.09775e-06;-0.009583242014411034
5.09800e-06;-0.00960046635976726
5.09825e-06;-0.009617690705123545
5.09850e-06;-0.00963491505047977
5.09875e-06;-0.009652139395835996
5.09900e-06;-0.009666516885717447
5.09925e-06;-0.009679984796252645
5.09950e-06;-0.009693452706787844
5.09975e-06;-0.009706920617323086
5.10000e-06;-0.009720388527858285
5.10025e-06;-0.009733856438393482
5.10050e-06;-0.009747324348928726
5.10075e-06;-0.009760792259463923
5.10100e-06;-0.009771690093939068
5.10125e-06;-0.009775191099848101
5.10150e-06;-0.009778692105757124
5.10175e-06;-0.009782193111666145
5.10200e-06;-0.009785694117575178
5.10225e-06;-0.009789195123484199
5.10250e-06;-0.009792696129393232
5.10275e-06;-0.009796197135302255
5.10300e-06;-0.009799698141211276
5.10325e-06;-0.009794697410101718
5.10350e-06;-0.00978698034707211
5.10375e-06;-0.009779263284042501
5.10400e-06;-0.009771546221012865
5.10425e-06;-0.009763829157983257
5.10450e-06;-0.009756112094953648
5.10475e-06;-0.009748395031924012
5.10500e-06;-0.009738577889638203
5.10525e-06;-0.009722716596958102
5.10550e-06;-0.009706855304277949
5.10575e-06;-0.009690994011597847
5.10600e-06;-0.009675132718917746
5.10625e-06;-0.009659271426237591
5.10650e-06;-0.00964341013355749
5.10675e-06;-0.009627548840877336
5.10700e-06;-0.009609161678512411
5.10725e-06;-0.009589967492778604
5.10750e-06;-0.009570594153819369
5.10775e-06;-0.009550705201444923
5.10800e-06;-0.009530816249070479
5.10825e-06;-0.009510835964485482
5.10850e-06;-0.009491065299056502
5.10875e-06;-0.009471370931011967
5.10900e-06;-0.009451676562967365
5.10925e-06;-0.009432931278222817
5.10950e-06;-0.009414489228600281
5.10975e-06;-0.009396047178977683
5.11000e-06;-0.009378994522371533
5.11025e-06;-0.009362385781237128
5.11050e-06;-0.009347318888740871
5.11075e-06;-0.009332744621770713
5.11100e-06;-0.009320879500610993
5.11125e-06;-0.009309879960123068
5.11150e-06;-0.009298880419635142
5.11175e-06;-0.009291755087055252
5.11200e-06;-0.009285867576179392
5.11225e-06;-0.00927998006530353
5.11250e-06;-0.009280439315987656
5.11275e-06;-0.009282926377103068
5.11300e-06;-0.009285413438218482
5.11325e-06;-0.009287900499333902
5.11350e-06;-0.009290387560449314
5.11375e-06;-0.009292874621564726
5.11400e-06;-0.009298133255861396
5.11425e-06;-0.009311368639170243
5.11450e-06;-0.009324604022479092
5.11475e-06;-0.009337839405787984
5.11500e-06;-0.00935107478909683
5.11525e-06;-0.009364310172405722
5.11550e-06;-0.00937754555571457
5.11575e-06;-0.009396758198395663
5.11600e-06;-0.009417880594388015
5.11625e-06;-0.009439002990380294
5.11650e-06;-0.009460125386372573
5.11675e-06;-0.009481247782364923
5.11700e-06;-0.009502370178357202
5.11725e-06;-0.009523492574349481
5.11750e-06;-0.009546577332320583
5.11775e-06;-0.009570289071162459
5.11800e-06;-0.009594000810004333
5.11825e-06;-0.009617712548846287
5.11850e-06;-0.00964142428768816
5.11875e-06;-0.009665136026530035
5.11900e-06;-0.00968884776537199
5.11925e-06;-0.009710970517345945
5.11950e-06;-0.009732585582980268
5.11975e-06;-0.009754200648614519
5.12000e-06;-0.009767668437746973
5.12025e-06;-0.009778533146218953
5.12050e-06;-0.009789397854690896
5.12075e-06;-0.00980026256316284
5.12100e-06;-0.00981112727163482
5.12125e-06;-0.009821991980106764
5.12150e-06;-0.009832856688578707
5.12175e-06;-0.009843721397050687
5.12200e-06;-0.00985458610552263
5.12225e-06;-0.009865450813994574
5.12250e-06;-0.009876315522466554
5.12275e-06;-0.009887180230938498
5.12300e-06;-0.009898044939410442
5.12325e-06;-0.009908909647882424
5.12350e-06;-0.009919774356354367
5.12375e-06;-0.009930639064826347
5.12400e-06;-0.00994150377329829
5.12425e-06;-0.009952368481770234
5.12450e-06;-0.009960623116883512
5.12475e-06;-0.009961365808880447
5.12500e-06;-0.009962108500877382
5.12525e-06;-0.00996285119287432
5.12550e-06;-0.009963593884871256
5.12575e-06;-0.009964336576868191
5.12600e-06;-0.009965079268865128
5.12625e-06;-0.009965821960862063
5.12650e-06;-0.009966564652858998
5.12675e-06;-0.009967307344855937
5.12700e-06;-0.009968050036852872
5.12725e-06;-0.009968792728849808
5.12750e-06;-0.009969535420846744
5.12775e-06;-0.00997027811284368
5.12800e-06;-0.009971020804840617
5.12825e-06;-0.009971763496837552
5.12850e-06;-0.009972506188834487
5.12875e-06;-0.009973248880831426
5.12900e-06;-0.009973991572828361
5.12925e-06;-0.009972693114140561
5.12950e-06;-0.009970742501340868
5.12975e-06;-0.00996879188854118
5.13000e-06;-0.009966841275741491
5.13025e-06;-0.009964890662941797
5.13050e-06;-0.00996294005014211
5.13075e-06;-0.009960989437342421
5.13100e-06;-0.009959038824542727
5.13125e-06;-0.009957088211743039
5.13150e-06;-0.00995513759894335
5.13175e-06;-0.009953186986143657
5.13200e-06;-0.009947570444454129
5.13225e-06;-0.009940782626867553
5.13250e-06;-0.009933994809281001
5.13275e-06;-0.00992720699169445
5.13300e-06;-0.009920419174107875
5.13325e-06;-0.009913631356521322
5.13350e-06;-0.00990684353893477
5.13375e-06;-0.009900055721348196
5.13400e-06;-0.009893267903761644
5.13425e-06;-0.009886480086175091
5.13450e-06;-0.009879692268588517
5.13475e-06;-0.009868852556436816
5.13500e-06;-0.009856718251131866
5.13525e-06;-0.009844583945826872
5.13550e-06;-0.009832449640521922
5.13575e-06;-0.00982031533521697
5.13600e-06;-0.009808181029911978
5.13625e-06;-0.009796046724607028
5.13650e-06;-0.009783912419302035
5.13675e-06;-0.009771778113997084
5.13700e-06;-0.009758314213726773
5.13725e-06;-0.00974442550365177
5.13750e-06;-0.009730536793576817
5.13775e-06;-0.009716648083501861
5.13800e-06;-0.00970275937342686
5.13825e-06;-0.009688870663351905
5.13850e-06;-0.009674981953276951
5.13875e-06;-0.009661093243201949
5.13900e-06;-0.009647204533126995
5.13925e-06;-0.009634247518703384
5.13950e-06;-0.009621588183992669
5.13975e-06;-0.009608928849281996
5.14000e-06;-0.009596770951481237
5.14025e-06;-0.009586056218306337
5.14050e-06;-0.009575341485131473
5.14075e-06;-0.009564626751956573
5.14100e-06;-0.009556712584189572
5.14125e-06;-0.009549693205944695
5.14150e-06;-0.009546934468261185
5.14175e-06;-0.009545537018737974
5.14200e-06;-0.009549349998889402
5.14225e-06;-0.00955482772783245
5.14250e-06;-0.00956030545677548
5.14275e-06;-0.009575593399131879
5.14300e-06;-0.00959401573575998
5.14325e-06;-0.00961243807238802
5.14350e-06;-0.00963086040901606
5.14375e-06;-0.009649282745644161
5.14400e-06;-0.009667705082272202
5.14425e-06;-0.00969897898080691
5.14450e-06;-0.009734358994094097
5.14475e-06;-0.009769739007381165
5.14500e-06;-0.009805119020668352
5.14525e-06;-0.00984049903395542
5.14550e-06;-0.009875879047242487
5.14575e-06;-0.009920910076901754
5.14600e-06;-0.00996902463687311
5.14625e-06;-0.010017139196844467
5.14650e-06;-0.010065253756815986
5.14675e-06;-0.010113368316787344
5.14700e-06;-0.0101614828767587
5.14725e-06;-0.010210692528832471
