Time(s);Current(A)
2.55000e-06;0.006301596997398298
2.55025e-06;0.006299492328002038
2.55050e-06;0.00629123126393457
2.55075e-06;0.006282970199867087
2.55100e-06;0.006274709135799604
2.55125e-06;0.006266448071732121
2.55150e-06;0.006258187007664652
2.55175e-06;0.006249602650193393
2.55200e-06;0.006235907587215087
2.55225e-06;0.006213754333548068
2.55250e-06;0.006191601079881011
2.55275e-06;0.006169447826213955
2.55300e-06;0.006147294572546935
2.55325e-06;0.006125141318879879
2.55350e-06;0.006102988065212823
2.55375e-06;0.006080834811545766
2.55400e-06;0.006058681557878747
2.55425e-06;0.006036528304211691
2.55450e-06;0.006014375050544634
2.55475e-06;0.005992221796877615
2.55500e-06;0.005969552198009535
2.55525e-06;0.005939689844120885
2.55550e-06;0.0059098274902322345
2.55575e-06;0.005879965136343634
2.55600e-06;0.005850102782454983
2.55625e-06;0.0058202404285663326
2.55650e-06;0.005790378074677732
2.55675e-06;0.005760515720789082
2.55700e-06;0.005730653366900431
2.55725e-06;0.0057007910130118305
2.55750e-06;0.00567092865912318
2.55775e-06;0.00564106630523453
2.55800e-06;0.005612052582120846
2.55825e-06;0.00559486039478531
2.55850e-06;0.005577668207449745
2.55875e-06;0.00556047602011418
2.55900e-06;0.005543283832778645
2.55925e-06;0.00552609164544308
2.55950e-06;0.005508899458107515
2.55975e-06;0.00549170727077195
2.56000e-06;0.005474515083436415
2.56025e-06;0.00545732289610085
2.56050e-06;0.005440130708765286
2.56075e-06;0.00542293852142975
2.56100e-06;0.005405746334094185
2.56125e-06;0.00538855414675862
2.56150e-06;0.005371361959423085
2.56175e-06;0.00535416977208752
2.56200e-06;0.005336977584751955
2.56225e-06;0.005320858159430242
2.56250e-06;0.005319682446855313
2.56275e-06;0.005318506734280382
2.56300e-06;0.005317331021705451
2.56325e-06;0.005316155309130522
2.56350e-06;0.005314979596555591
2.56375e-06;0.00531380388398066
2.56400e-06;0.005312628171405729
2.56425e-06;0.0053114524588308
2.56450e-06;0.005310276746255869
2.56475e-06;0.005309101033680938
2.56500e-06;0.005307925321106009
2.56525e-06;0.005306749608531078
2.56550e-06;0.005305573895956147
2.56575e-06;0.005304398183381218
2.56600e-06;0.005303222470806287
2.56625e-06;0.005302046758231356
2.56650e-06;0.005301150992462471
2.56675e-06;0.005304154921686745
2.56700e-06;0.005307158850911024
2.56725e-06;0.005310162780135303
2.56750e-06;0.005313166709359577
2.56775e-06;0.005316170638583856
2.56800e-06;0.005319174567808135
2.56825e-06;0.005322178497032414
2.56850e-06;0.005325182426256688
2.56875e-06;0.005328186355480967
2.56900e-06;0.005331190284705246
2.56925e-06;0.0053341942139295195
2.56950e-06;0.005337198143153799
2.56975e-06;0.005340202072378078
2.57000e-06;0.005346770330443323
2.57025e-06;0.005356060790526544
2.57050e-06;0.005365351250609764
2.57075e-06;0.005374641710692984
2.57100e-06;0.0053839321707761885
2.57125e-06;0.005393222630859409
2.57150e-06;0.00540251309094263
2.57175e-06;0.005411803551025834
2.57200e-06;0.005421094011109054
2.57225e-06;0.005430384471192274
2.57250e-06;0.0054396749312754945
2.57275e-06;0.0054489653913587
2.57300e-06;0.00545825585144192
2.57325e-06;0.005468284873563401
2.57350e-06;0.00548860215981634
2.57375e-06;0.0055089194460693144
2.57400e-06;0.005529236732322289
2.57425e-06;0.005549554018575228
2.57450e-06;0.005569871304828202
2.57475e-06;0.0055901885910811765
2.57500e-06;0.005610505877334151
2.57525e-06;0.00563082316358709
2.57550e-06;0.005651140449840064
2.57575e-06;0.0056714577360930385
2.57600e-06;0.005691775022345978
2.57625e-06;0.005712092308598952
2.57650e-06;0.0057320323630579584
2.57675e-06;0.00575168431246363
2.57700e-06;0.005771336261869268
2.57725e-06;0.00579098821127494
2.57750e-06;0.005810640160680611
2.57775e-06;0.005830292110086249
2.57800e-06;0.005849944059491921
2.57825e-06;0.005869596008897592
2.57850e-06;0.00588924795830323
2.57875e-06;0.0059088999077089015
2.57900e-06;0.0059285518571145735
2.57925e-06;0.005948203806520245
2.57950e-06;0.005967316986480623
2.57975e-06;0.005978925038810761
2.58000e-06;0.0059905330911409005
2.58025e-06;0.00600214114347102
2.58050e-06;0.006013749195801159
2.58075e-06;0.006025357248131297
2.58100e-06;0.006036965300461436
2.58125e-06;0.006048573352791555
2.58150e-06;0.006060181405121694
2.58175e-06;0.006071789457451833
2.58200e-06;0.006083397509781952
2.58225e-06;0.006095005562112091
2.58250e-06;0.00610661361444223
2.58275e-06;0.006118221666772349
2.58300e-06;0.006129829719102488
2.58325e-06;0.006141437771432627
2.58350e-06;0.006153045823762766
2.58375e-06;0.006164653876092885
2.58400e-06;0.006176261928423024
2.58425e-06;0.006187869980753162
2.58450e-06;0.006198087162117583
2.58475e-06;0.006207242086906119
2.58500e-06;0.006216397011694656
2.58525e-06;0.006225551936483193
2.58550e-06;0.006234706861271714
2.58575e-06;0.006243861786060251
2.58600e-06;0.006253016710848787
2.58625e-06;0.006262171635637308
2.58650e-06;0.006271326560425844
2.58675e-06;0.006280481485214381
2.58700e-06;0.006289636410002903
2.58725e-06;0.006298791334791439
2.58750e-06;0.006307946259579976
2.58775e-06;0.006317101184368512
2.58800e-06;0.006326256109157033
2.58825e-06;0.0063354110339455694
2.58850e-06;0.006344565958734106
2.58875e-06;0.006353720883522628
2.58900e-06;0.006362875808311164
2.58925e-06;0.006371241203815628
2.58950e-06;0.006368608354897189
2.58975e-06;0.006365975505978756
2.59000e-06;0.006363342657060317
2.59025e-06;0.006360709808141879
2.59050e-06;0.006358076959223444
2.59075e-06;0.0063554441103050065
2.59100e-06;0.006352811261386568
2.59125e-06;0.006350178412468133
2.59150e-06;0.006347545563549695
2.59175e-06;0.006344912714631256
2.59200e-06;0.0063422798657128176
2.59225e-06;0.006339647016794384
2.59250e-06;0.006337014167875945
2.59275e-06;0.006334381318957507
2.59300e-06;0.006331748470039073
2.59325e-06;0.006328177735354855
2.59350e-06;0.006311542131384935
2.59375e-06;0.006294906527415015
2.59400e-06;0.006278270923445123
2.59425e-06;0.006261635319475203
2.59450e-06;0.006244999715505283
2.59475e-06;0.00622836411153539
2.59500e-06;0.00621172850756547
2.59525e-06;0.00619509290359555
2.59550e-06;0.006178457299625658
2.59575e-06;0.0061618216956557375
2.59600e-06;0.006145186091685817
2.59625e-06;0.006128550487715897
2.59650e-06;0.006111914883746005
2.59675e-06;0.0060952792797760846
2.59700e-06;0.006078643675806164
2.59725e-06;0.006062293899599607
2.59750e-06;0.006049925740880733
2.59775e-06;0.0060375575821618585
2.59800e-06;0.006025189423442983
2.59825e-06;0.0060128212647241296
2.59850e-06;0.006000453106005255
2.59875e-06;0.00598808494728638
2.59900e-06;0.005975716788567526
2.59925e-06;0.005963348629848652
2.59950e-06;0.0059509804711297765
2.59975e-06;0.005938612312410923
2.60000e-06;0.005926244153692048
2.60025e-06;0.005913875994973173
2.60050e-06;0.005901507836254299
2.60075e-06;0.005889139677535444
2.60100e-06;0.00587677151881657
2.60125e-06;0.005864403360097695
2.60150e-06;0.005852035201378841
2.60175e-06;0.0058396670426599665
2.60200e-06;0.005827298883941092
2.60225e-06;0.005814930725222217
2.60250e-06;0.005802562566503363
2.60275e-06;0.00579483772160531
2.60300e-06;0.005790659137116985
2.60325e-06;0.005786480552628667
2.60350e-06;0.0057823019681403414
2.60375e-06;0.005778123383652017
2.60400e-06;0.005773944799163698
2.60425e-06;0.005769766214675373
2.60450e-06;0.005765587630187048
2.60475e-06;0.005761409045698723
2.60500e-06;0.005757230461210404
2.60525e-06;0.00575305187672208
2.60550e-06;0.005748873292233754
2.60575e-06;0.005744694707745437
2.60600e-06;0.005740516123257111
2.60625e-06;0.005736337538768786
2.60650e-06;0.00573215895428046
2.60675e-06;0.005727980369792143
2.60700e-06;0.005723801785303817
2.60725e-06;0.005719623200815493
2.60750e-06;0.005715444616327174
2.60775e-06;0.005711266031838849
2.60800e-06;0.005707075540109518
2.60825e-06;0.0057027191789822
2.60850e-06;0.005698362817854874
2.60875e-06;0.005694006456727549
2.60900e-06;0.005689650095600224
2.60925e-06;0.005685293734472905
2.60950e-06;0.00568093737334558
2.60975e-06;0.005676581012218255
2.61000e-06;0.005672224651090936
2.61025e-06;0.005667868289963611
2.61050e-06;0.005663511928836285
2.61075e-06;0.0056591555677089605
2.61100e-06;0.005654799206581642
2.61125e-06;0.005650442845454316
2.61150e-06;0.005645343994666729
2.61175e-06;0.005629902167456823
2.61200e-06;0.0056144603402468905
2.61225e-06;0.005599018513036958
2.61250e-06;0.005583576685827051
2.61275e-06;0.005568134858617119
2.61300e-06;0.005552693031407187
2.61325e-06;0.005537251204197255
2.61350e-06;0.0055218093769873475
2.61375e-06;0.005506367549777415
2.61400e-06;0.005490925722567483
2.61425e-06;0.005475483895357577
2.61450e-06;0.005460042068147644
2.61475e-06;0.005444600240937712
2.61500e-06;0.0054287170759893325
2.61525e-06;0.005406686019605122
2.61550e-06;0.005384654963220875
2.61575e-06;0.005362623906836628
2.61600e-06;0.005340592850452418
2.61625e-06;0.00531856179406817
2.61650e-06;0.0052965307376839224
2.61675e-06;0.005274499681299713
2.61700e-06;0.0052524686249154654
2.61725e-06;0.005230437568531218
2.61750e-06;0.005208406512146971
2.61775e-06;0.005189771381743127
2.61800e-06;0.005173729838231011
2.61825e-06;0.005157688294718895
2.61850e-06;0.0051416467512068065
2.61875e-06;0.0051256052076946905
2.61900e-06;0.0051095636641825745
2.61925e-06;0.005093522120670485
2.61950e-06;0.005077480577158369
2.61975e-06;0.005061439033646253
2.62000e-06;0.005045397490134137
2.62025e-06;0.005031030016317952
2.62050e-06;0.005039982548591982
2.62075e-06;0.005048935080866012
2.62100e-06;0.005057887613140027
2.62125e-06;0.005066840145414057
2.62150e-06;0.005075792677688088
2.62175e-06;0.005084745209962118
2.62200e-06;0.005093697742236133
2.62225e-06;0.005102650274510163
2.62250e-06;0.005111602806784193
2.62275e-06;0.005120555339058208
2.62300e-06;0.005129507871332238
2.62325e-06;0.005140199793123123
2.62350e-06;0.005175121634508538
2.62375e-06;0.005210043475894012
2.62400e-06;0.0052449653172794855
2.62425e-06;0.005279887158664959
2.62450e-06;0.005314809000050374
2.62475e-06;0.005349730841435848
2.62500e-06;0.005384652682821321
2.62525e-06;0.005419574524206736
2.62550e-06;0.00545449636559221
2.62575e-06;0.0054894182069776835
2.62600e-06;0.005524340048363157
2.62625e-06;0.005559621562951414
2.62650e-06;0.005599913371497011
2.62675e-06;0.005640205180042608
2.62700e-06;0.005680496988588137
2.62725e-06;0.005720788797133734
2.62750e-06;0.0057610806056793305
2.62775e-06;0.005801372414224859
2.62800e-06;0.0058416642227704565
2.62825e-06;0.005881956031316054
2.62850e-06;0.0059210547113479825
2.62875e-06;0.005943532957788435
2.62900e-06;0.005966011204228925
2.62925e-06;0.005988489450669415
2.62950e-06;0.006010967697109867
2.62975e-06;0.006033445943550357
2.63000e-06;0.006055924189990847
2.63025e-06;0.006078402436431337
2.63050e-06;0.006100880682871789
2.63075e-06;0.006120784014030646
2.63100e-06;0.006104818444266268
2.63125e-06;0.006088852874501916
2.63150e-06;0.006072887304737538
2.63175e-06;0.006056921734973159
2.63200e-06;0.0060409561652088085
2.63225e-06;0.00602499059544443
2.63250e-06;0.006009025025680051
2.63275e-06;0.005993059455915673
2.63300e-06;0.005977093886151322
2.63325e-06;0.005958745314490374
2.63350e-06;0.005907201220032134
2.63375e-06;0.005855657125573982
2.63400e-06;0.0058041130311157416
2.63425e-06;0.005752568936657502
2.63450e-06;0.0057010248421992624
2.63475e-06;0.00564948074774111
2.63500e-06;0.00559793665328287
2.63525e-06;0.00554639255882463
2.63550e-06;0.005494848464366478
2.63575e-06;0.005442453431396806
2.63600e-06;0.005378204715559002
2.63625e-06;0.005313955999721307
2.63650e-06;0.005249707283883504
2.63675e-06;0.0051854585680456994
2.63700e-06;0.005121209852207896
2.63725e-06;0.005056961136370201
2.63750e-06;0.004992712420532397
2.63775e-06;0.004934401937208419
2.63800e-06;0.00488062668878033
2.63825e-06;0.004826851440352151
2.63850e-06;0.004773076191923971
2.63875e-06;0.004719300943495791
2.63900e-06;0.004665525695067703
2.63925e-06;0.0046117504466395235
2.63950e-06;0.004559972174487283
2.63975e-06;0.004536012038610186
2.64000e-06;0.0045120519027330485
2.64025e-06;0.00448809176685591
2.64050e-06;0.004464131630978813
2.64075e-06;0.0044401714951016755
2.64100e-06;0.004416211359224538
2.64125e-06;0.0043922512233474
2.64150e-06;0.004368291087470303
2.64175e-06;0.004344330951593165
2.64200e-06;0.004320370815716027
2.64225e-06;0.0042964106798389304
2.64250e-06;0.004289527335413716
2.64275e-06;0.0042956861311073645
2.64300e-06;0.0043018449268010135
2.64325e-06;0.004308003722494651
2.64350e-06;0.004314162518188299
2.64375e-06;0.0043203213138819484
2.64400e-06;0.004326480109575586
2.64425e-06;0.004332638905269235
2.64450e-06;0.004338797700962883
2.64475e-06;0.004344956496656522
2.64500e-06;0.00435111529235017
2.64525e-06;0.004358214566073647
2.64550e-06;0.004378414819670973
2.64575e-06;0.004398615073268265
2.64600e-06;0.004418815326865591
2.64625e-06;0.0044390155804629175
2.64650e-06;0.004459215834060209
2.64675e-06;0.004479416087657535
2.64700e-06;0.004499616341254861
2.64725e-06;0.004519816594852187
2.64750e-06;0.004540016848449479
2.64775e-06;0.004560217102046805
2.64800e-06;0.004578087416750763
2.64825e-06;0.004594178276010615
2.64850e-06;0.004610269135270495
2.64875e-06;0.004626359994530374
2.64900e-06;0.004642450853790225
2.64925e-06;0.004658541713050105
2.64950e-06;0.004674632572309984
2.64975e-06;0.004690723431569863
2.65000e-06;0.004706814290829715
2.65025e-06;0.004722905150089594
2.65050e-06;0.00473847476105643
2.65075e-06;0.004746783316282485
2.65100e-06;0.004755091871508553
2.65125e-06;0.004763400426734622
2.65150e-06;0.00477170898196069
2.65175e-06;0.004780017537186745
2.65200e-06;0.004788326092412813
2.65225e-06;0.004796634647638882
2.65250e-06;0.0048049432028649365
2.65275e-06;0.004813251758091005
2.65300e-06;0.004821560313317074
2.65325e-06;0.004829868868543128
2.65350e-06;0.004838177423769197
2.65375e-06;0.004846485978995265
2.65400e-06;0.004854794534221334
2.65425e-06;0.004863103089447388
2.65450e-06;0.004871411644673457
2.65475e-06;0.004879720199899526
2.65500e-06;0.00488802875512558
2.65525e-06;0.004894032715340772
2.65550e-06;0.004898276576117132
2.65575e-06;0.0049025204368934915
2.65600e-06;0.004906764297669845
2.65625e-06;0.004911008158446204
2.65650e-06;0.004915252019222564
2.65675e-06;0.004919495879998916
2.65700e-06;0.004923739740775276
2.65725e-06;0.004927983601551636
2.65750e-06;0.004932227462327988
2.65775e-06;0.004936471323104348
2.65800e-06;0.0049407151838807084
2.65825e-06;0.004944959044657068
2.65850e-06;0.004949202905433421
2.65875e-06;0.00495344676620978
2.65900e-06;0.00495769062698614
2.65925e-06;0.004961934487762493
2.65950e-06;0.004966178348538852
2.65975e-06;0.004971095746044674
2.66000e-06;0.004985395596793608
2.66025e-06;0.004999695447542517
2.66050e-06;0.005013995298291452
2.66075e-06;0.005028295149040385
2.66100e-06;0.005042594999789295
2.66125e-06;0.0050568948505382285
2.66150e-06;0.005071194701287163
2.66175e-06;0.0050854945520360725
2.66200e-06;0.005099794402785006
2.66225e-06;0.005114094253533941
2.66250e-06;0.0051283941042828745
2.66275e-06;0.00515425598829438
2.66300e-06;0.005188948199613949
2.66325e-06;0.005223640410933517
2.66350e-06;0.005258332622253027
2.66375e-06;0.005293024833572595
2.66400e-06;0.005327717044892164
2.66425e-06;0.005362409256211732
2.66450e-06;0.005397101467531242
2.66475e-06;0.0054317936788508105
2.66500e-06;0.0054664858901703785
2.66525e-06;0.005501178101489888
2.66550e-06;0.005536377514040254
2.66575e-06;0.005578642304951674
2.66600e-06;0.005620907095863022
2.66625e-06;0.005663171886774442
2.66650e-06;0.005705436677685862
2.66675e-06;0.005747701468597282
2.66700e-06;0.0057899662595086296
2.66725e-06;0.005832231050420049
2.66750e-06;0.005874495841331469
2.66775e-06;0.005916760632242817
2.66800e-06;0.00595191219597736
2.66825e-06;0.005981631140486142
2.66850e-06;0.006011350084994923
2.66875e-06;0.0060410690295036535
2.66900e-06;0.006070787974012434
2.66925e-06;0.006100506918521216
2.66950e-06;0.0061302258630299465
2.66975e-06;0.006159944807538727
2.67000e-06;0.006189663752047509
2.67025e-06;0.006217107825641519
2.67050e-06;0.00621286265488499
2.67075e-06;0.006208617484128463
2.67100e-06;0.006204372313371934
2.67125e-06;0.006200127142615413
2.67150e-06;0.006195881971858885
2.67175e-06;0.006191636801102357
2.67200e-06;0.006187391630345836
2.67225e-06;0.006183146459589308
2.67250e-06;0.006178901288832779
2.67275e-06;0.006174656118076252
2.67300e-06;0.006170410947319731
2.67325e-06;0.006147212193114429
2.67350e-06;0.006109537927403217
2.67375e-06;0.006071863661692068
2.67400e-06;0.006034189395980856
2.67425e-06;0.005996515130269644
2.67450e-06;0.005958840864558495
2.67475e-06;0.005921166598847283
2.67500e-06;0.005883492333136071
2.67525e-06;0.005845818067424859
2.67550e-06;0.00580814380171371
2.67575e-06;0.005770469536002498
2.67600e-06;0.0057321352900049725
2.67625e-06;0.005684607433756782
2.67650e-06;0.00563707957750851
2.67675e-06;0.005589551721260239
2.67700e-06;0.0055420238650119675
2.67725e-06;0.005494496008763777
2.67750e-06;0.005446968152515505
2.67775e-06;0.005399440296267235
2.67800e-06;0.005351912440019043
2.67825e-06;0.005311299764876956
2.67850e-06;0.005275968454282177
2.67875e-06;0.005240637143687457
2.67900e-06;0.005205305833092678
2.67925e-06;0.005169974522497898
2.67950e-06;0.005134643211903119
2.67975e-06;0.005099311901308399
2.68000e-06;0.0050639805907136196
2.68025e-06;0.005029914275541619
2.68050e-06;0.005013469509268545
2.68075e-06;0.004997024742995444
2.68100e-06;0.004980579976722343
2.68125e-06;0.004964135210449242
2.68150e-06;0.004947690444176168
2.68175e-06;0.004931245677903068
2.68200e-06;0.004914800911629966
2.68225e-06;0.004898356145356893
2.68250e-06;0.004881911379083791
2.68275e-06;0.004865466612810691
2.68300e-06;0.004849021846537617
2.68325e-06;0.004832577080264516
2.68350e-06;0.004816132313991415
2.68375e-06;0.004799687547718314
2.68400e-06;0.004784096871121517
2.68425e-06;0.0047804037735400505
2.68450e-06;0.004776710675958584
2.68475e-06;0.004773017578377125
2.68500e-06;0.004769324480795659
2.68525e-06;0.004765631383214192
2.68550e-06;0.004761938285632726
2.68575e-06;0.004758245188051267
2.68600e-06;0.0047545520904698005
2.68625e-06;0.004750858992888334
2.68650e-06;0.004747165895306875
2.68675e-06;0.004743472797725409
2.68700e-06;0.004739779700143942
2.68725e-06;0.004736086602562483
2.68750e-06;0.004732393504981017
2.68775e-06;0.004728935588409415
2.68800e-06;0.004728753773546792
2.68825e-06;0.00472857195868417
2.68850e-06;0.004728390143821548
2.68875e-06;0.004728208328958926
2.68900e-06;0.004728026514096304
2.68925e-06;0.0047278446992336815
2.68950e-06;0.0047276628843710596
2.68975e-06;0.004727481069508438
2.69000e-06;0.004728128801754197
2.69025e-06;0.004740332231890246
2.69050e-06;0.004752535662026295
2.69075e-06;0.004764739092162324
2.69100e-06;0.004776942522298373
2.69125e-06;0.004789145952434423
2.69150e-06;0.004801349382570452
2.69175e-06;0.004813552812706501
2.69200e-06;0.00482575624284255
2.69225e-06;0.004839404358602188
2.69250e-06;0.004873177130868879
2.69275e-06;0.004906949903135628
2.69300e-06;0.004940722675402376
2.69325e-06;0.004974495447669067
2.69350e-06;0.005008268219935816
2.69375e-06;0.005042040992202564
2.69400e-06;0.005075813764469256
2.69425e-06;0.005109586536736005
2.69450e-06;0.005143359309002753
2.69475e-06;0.005177132081269502
2.69500e-06;0.005217655820110674
2.69525e-06;0.005263335507145194
2.69550e-06;0.005309015194179713
2.69575e-06;0.005354694881214156
2.69600e-06;0.005400374568248676
2.69625e-06;0.005446054255283195
2.69650e-06;0.0054917339423177156
2.69675e-06;0.005537413629352158
2.69700e-06;0.005583093316386678
2.69725e-06;0.0056287730034211975
2.69750e-06;0.005673616656275534
2.69775e-06;0.005706814245494153
2.69800e-06;0.005740011834712772
2.69825e-06;0.005773209423931334
2.69850e-06;0.005806407013149953
2.69875e-06;0.005839604602368572
2.69900e-06;0.0058728021915871904
2.69925e-06;0.005905999780805753
2.69950e-06;0.005939197370024372
2.69975e-06;0.00597239495924299
2.70000e-06;0.006005592548461553
2.70025e-06;0.0060387901376801716
2.70050e-06;0.00607198772689879
2.70075e-06;0.006091558208314814
2.70100e-06;0.006100721193103218
