Time(s);Current(A)
1.37500e-05;-0.005978315500353083
1.37503e-05;-0.005977416732427206
1.37505e-05;-0.005971614508121655
1.37508e-05;-0.005965812283816144
1.37510e-05;-0.005960010059510594
1.37513e-05;-0.0059542078352050444
1.37515e-05;-0.005945267283969931
1.37518e-05;-0.00592190768182199
1.37520e-05;-0.00589854807967405
1.37523e-05;-0.0058751884775262685
1.37525e-05;-0.005851828875378328
1.37528e-05;-0.005828469273230388
1.37530e-05;-0.0057967475183441945
1.37533e-05;-0.005761067929628959
1.37535e-05;-0.005725388340913723
1.37538e-05;-0.0056897087521987294
1.37540e-05;-0.005652811649884399
1.37543e-05;-0.005610320678299284
1.37545e-05;-0.005567829706714458
1.37548e-05;-0.005525338735129342
1.37550e-05;-0.005482847763544228
1.37553e-05;-0.005438972632902476
1.37555e-05;-0.005394311207864654
1.37558e-05;-0.00534962752518354
1.37560e-05;-0.005305171927285083
1.37563e-05;-0.00526120096207413
1.37565e-05;-0.005217988059394053
1.37568e-05;-0.005175823511861987
1.37570e-05;-0.005135000652336569
1.37573e-05;-0.005095810019709574
1.37575e-05;-0.0050585406231693966
1.37578e-05;-0.0050234818048467125
1.37580e-05;-0.004990922257863274
1.37583e-05;-0.004961050033584403
1.37585e-05;-0.00493381169709865
1.37588e-05;-0.004909853707807273
1.37590e-05;-0.004887054931180686
1.37593e-05;-0.004867658922800434
1.37595e-05;-0.004849873455593002
1.37598e-05;-0.004835753407608209
1.37600e-05;-0.0048233682143497695
1.37603e-05;-0.004815568930318378
1.37605e-05;-0.004809940171897818
1.37608e-05;-0.004804311413477297
1.37610e-05;-0.004805482914201994
1.37613e-05;-0.004809872999487361
1.37615e-05;-0.004814263084772696
1.37618e-05;-0.004818653170058061
1.37620e-05;-0.004823043255343427
1.37623e-05;-0.0048293869235278624
1.37625e-05;-0.004844706333223439
1.37628e-05;-0.004860025742919016
1.37630e-05;-0.0048753451526144884
1.37633e-05;-0.004890664562310064
1.37635e-05;-0.004905983972005641
1.37638e-05;-0.004926296221316421
1.37640e-05;-0.004948971597701871
1.37643e-05;-0.004971646974087322
1.37645e-05;-0.004994322350472619
1.37648e-05;-0.005016997726858069
1.37650e-05;-0.005039673103243519
1.37653e-05;-0.005063898099318795
1.37655e-05;-0.0050888565353857
1.37658e-05;-0.005113814971452606
1.37660e-05;-0.005138773407519512
1.37663e-05;-0.005163731843586248
1.37665e-05;-0.005188690279653154
1.37668e-05;-0.0052121860142232655
1.37670e-05;-0.00523498944746257
1.37673e-05;-0.00525779288070203
1.37675e-05;-0.005275421349011359
1.37678e-05;-0.005290600489747483
1.37680e-05;-0.00530577963048371
1.37683e-05;-0.005320958771219938
1.37685e-05;-0.005336137911956063
1.37688e-05;-0.00535131705269229
1.37690e-05;-0.005366496193428518
1.37693e-05;-0.005381675334164642
1.37695e-05;-0.00539685447490087
1.37698e-05;-0.005412033615637097
1.37700e-05;-0.005427212756373222
1.37703e-05;-0.005441280261496689
1.37705e-05;-0.00545024035401792
1.37708e-05;-0.005459200446539092
1.37710e-05;-0.005468160539060324
1.37713e-05;-0.005477120631581556
1.37715e-05;-0.005486080724102727
1.37718e-05;-0.00549504081662396
1.37720e-05;-0.005504000909145192
1.37723e-05;-0.0055129610016663635
1.37725e-05;-0.005521921094187595
1.37728e-05;-0.005530881186708828
1.37730e-05;-0.005539841279229999
1.37733e-05;-0.005547050664817487
1.37735e-05;-0.00555343143517295
1.37738e-05;-0.005559812205528369
1.37740e-05;-0.005566192975883833
1.37743e-05;-0.005572573746239296
1.37745e-05;-0.005578954516594759
1.37748e-05;-0.005585335286950178
1.37750e-05;-0.005591716057305642
1.37753e-05;-0.005598096827661105
1.37755e-05;-0.005604477598016524
1.37758e-05;-0.00560934434826702
1.37760e-05;-0.0056134945079240215
1.37763e-05;-0.005617644667580995
1.37765e-05;-0.005621794827237996
1.37768e-05;-0.005625944986894998
1.37770e-05;-0.005630095146551971
1.37773e-05;-0.005634245306208973
1.37775e-05;-0.005638395465865974
1.37778e-05;-0.005642545625522947
1.37780e-05;-0.005646695785179949
1.37783e-05;-0.005648088738205132
1.37785e-05;-0.00564817669644829
1.37788e-05;-0.005648264654691449
1.37790e-05;-0.005648352612934606
1.37793e-05;-0.005648440571177764
1.37795e-05;-0.005648528529420923
1.37798e-05;-0.0056486164876640805
1.37800e-05;-0.005648704445907238
1.37803e-05;-0.005648792404150396
1.37805e-05;-0.0056450009312650155
1.37808e-05;-0.005639373311127645
1.37810e-05;-0.005633745690990236
1.37813e-05;-0.005628118070852828
1.37815e-05;-0.005622490450715457
1.37818e-05;-0.005616862830578049
1.37820e-05;-0.005611235210440641
1.37823e-05;-0.00560560759030327
1.37825e-05;-0.005599979970165861
1.37828e-05;-0.005591381995404189
1.37830e-05;-0.0055813781422288135
1.37833e-05;-0.005571374289053506
1.37835e-05;-0.005561370435878131
1.37838e-05;-0.005551366582702756
1.37840e-05;-0.005541362729527448
1.37843e-05;-0.0055313588763520735
1.37845e-05;-0.005521355023176698
1.37848e-05;-0.005511351170001391
1.37850e-05;-0.005500726106353839
1.37853e-05;-0.005489807021788332
1.37855e-05;-0.005478887937222899
1.37858e-05;-0.005467968852657392
1.37860e-05;-0.005457049768091885
1.37863e-05;-0.005446130683526452
1.37865e-05;-0.005435211598960945
1.37868e-05;-0.0054242925143954375
1.37870e-05;-0.005413373429830005
1.37873e-05;-0.005405294520496147
1.37875e-05;-0.005398559875250298
1.37878e-05;-0.005391825230004495
1.37880e-05;-0.005385090584758646
1.37883e-05;-0.005378355939512798
1.37885e-05;-0.005371621294266995
1.37888e-05;-0.005364886649021147
1.37890e-05;-0.005358152003775298
1.37893e-05;-0.005351417358529496
1.37895e-05;-0.005344682713283647
1.37898e-05;-0.005337948068037799
1.37900e-05;-0.0053312134227919954
1.37903e-05;-0.005324478777546147
1.37905e-05;-0.0053177441323002984
1.37908e-05;-0.005311009487054496
1.37910e-05;-0.005304274841808647
1.37913e-05;-0.005297540196562799
1.37915e-05;-0.00529080555131695
1.37918e-05;-0.005284571844385055
1.37920e-05;-0.005280639699791507
1.37923e-05;-0.005276707555197959
1.37925e-05;-0.005272775410604438
1.37928e-05;-0.005268843266010889
1.37930e-05;-0.005264911121417341
1.37933e-05;-0.00526097897682382
1.37935e-05;-0.005257046832230271
1.37938e-05;-0.005253114687636723
1.37940e-05;-0.005249182543043202
1.37943e-05;-0.005245250398449654
1.37945e-05;-0.005241318253856105
1.37948e-05;-0.005237386109262584
1.37950e-05;-0.005233453964669036
1.37953e-05;-0.005229521820075488
1.37955e-05;-0.0052255896754819665
1.37958e-05;-0.0052216575308884185
1.37960e-05;-0.0052177253862948705
1.37963e-05;-0.005213793241701349
1.37965e-05;-0.005210443043241214
1.37968e-05;-0.005207368281761121
1.37970e-05;-0.005204293520281049
1.37973e-05;-0.005201398073667281
1.37975e-05;-0.005198587497357521
1.37978e-05;-0.005195776921047779
1.37980e-05;-0.005193303640005072
1.37983e-05;-0.005190990001899076
1.37985e-05;-0.00519061211097077
1.37988e-05;-0.005191150415418899
1.37990e-05;-0.005194856334891088
1.37993e-05;-0.005200061496760597
1.37995e-05;-0.005208852745245875
1.37998e-05;-0.005219341300081218
1.38000e-05;-0.005229829854916562
1.38003e-05;-0.005244778419291266
1.38005e-05;-0.005261837920551785
1.38008e-05;-0.005278897421812304
1.38010e-05;-0.005303674310424676
1.38013e-05;-0.005332103863337388
1.38015e-05;-0.0053605334162501
1.38018e-05;-0.00538896296916262
1.38020e-05;-0.005417392522075332
1.38023e-05;-0.005445822074988044
1.38025e-05;-0.005482366047023074
1.38028e-05;-0.005522750599775052
1.38030e-05;-0.00556313515252703
1.38033e-05;-0.005603519705278735
1.38035e-05;-0.005643904258030713
1.38038e-05;-0.005684288810782691
1.38040e-05;-0.00572851130219926
1.38043e-05;-0.0057745503023528015
1.38045e-05;-0.005820589302506343
1.38048e-05;-0.005867850530488076
1.38050e-05;-0.005915690242839637
1.38053e-05;-0.005963529955191197
1.38055e-05;-0.006011085734778208
1.38058e-05;-0.006058507128073337
1.38060e-05;-0.006105928521368466
1.38063e-05;-0.006151462262219272
1.38065e-05;-0.006196102571086171
1.38068e-05;-0.006240742879953068
1.38070e-05;-0.006282834800074826
1.38073e-05;-0.0063237205595923765
1.38075e-05;-0.0063616122244062635
1.38078e-05;-0.006398086774548901
1.38080e-05;-0.006430639417784782
1.38083e-05;-0.006461335809844108
1.38085e-05;-0.006486486505115573
1.38088e-05;-0.006509012404227798
1.38090e-05;-0.00652341550846502
1.38093e-05;-0.006533974067713889
1.38095e-05;-0.006544532626962686
1.38098e-05;-0.006548997682818843
1.38100e-05;-0.00654689989916697
1.38103e-05;-0.0065381605431242
1.38105e-05;-0.00652942118708137
1.38108e-05;-0.006509473527152995
1.38110e-05;-0.00648432369531406
1.38113e-05;-0.0064561377424230985
1.38115e-05;-0.006425486968066534
1.38118e-05;-0.006385796732318542
1.38120e-05;-0.006339160515133422
1.38123e-05;-0.006292524297948302
1.38125e-05;-0.006245888080763499
1.38128e-05;-0.006195223919971212
1.38130e-05;-0.00613773834835738
1.38133e-05;-0.006080252776743937
1.38135e-05;-0.006022767205130104
1.38138e-05;-0.005962986995201939
1.38140e-05;-0.005902450234904185
1.38143e-05;-0.005833629687591687
1.38145e-05;-0.005758770858683298
1.38148e-05;-0.0056779625931636605
1.38150e-05;-0.005599641174358714
1.38153e-05;-0.005523934279285356
1.38155e-05;-0.005448551909734934
1.38158e-05;-0.0053733352933851295
1.38160e-05;-0.005298625240215219
1.38163e-05;-0.005224330597410284
1.38165e-05;-0.005148857395467474
1.38168e-05;-0.005073732847363574
1.38170e-05;-0.005003148413514254
1.38173e-05;-0.00493740030549771
1.38175e-05;-0.004875269704359415
1.38178e-05;-0.004816873036988805
1.38180e-05;-0.00476262717710104
1.38183e-05;-0.004712398388935352
1.38185e-05;-0.0046644764664251345
1.38188e-05;-0.0046188421173638085
1.38190e-05;-0.0045775557493618535
1.38193e-05;-0.004540634861469209
1.38195e-05;-0.004507239025298603
1.38198e-05;-0.004477363590846772
1.38200e-05;-0.004451993000075194
1.38203e-05;-0.004429362560004122
1.38205e-05;-0.004409081492225381
1.38208e-05;-0.004391147944728585
1.38210e-05;-0.0043774074671777295
1.38213e-05;-0.004367856754175004
1.38215e-05;-0.00435830604117228
1.38218e-05;-0.004353905057202407
1.38220e-05;-0.004354649742733072
1.38223e-05;-0.004355394428263736
1.38225e-05;-0.004356139113794396
1.38228e-05;-0.00435688379932506
1.38230e-05;-0.0043626170315531326
1.38233e-05;-0.004373334878006278
1.38235e-05;-0.004384052724459498
1.38238e-05;-0.0043947705709127165
1.38240e-05;-0.004405488417365862
1.38243e-05;-0.0044188377284908485
1.38245e-05;-0.004434816429903526
1.38248e-05;-0.004450795131316096
1.38250e-05;-0.004468018259738603
1.38253e-05;-0.0044864848341889365
1.38255e-05;-0.004504951408639145
1.38258e-05;-0.004523870240846664
1.38260e-05;-0.004543240974296521
1.38263e-05;-0.004562611707746377
1.38265e-05;-0.004581543770581843
1.38268e-05;-0.0046000375086072695
1.38270e-05;-0.004618030113981416
1.38273e-05;-0.004635521981747082
1.38275e-05;-0.004652322419219905
1.38278e-05;-0.004667854323778202
1.38280e-05;-0.004682200875502927
1.38283e-05;-0.0046958083778618305
1.38285e-05;-0.0047102829211374
1.38288e-05;-0.004727705009821114
1.38290e-05;-0.004749146035708943
1.38293e-05;-0.0047752842905087215
1.38295e-05;-0.004804048886717456
1.38298e-05;-0.004835740619355994
1.38300e-05;-0.004870357180962521
1.38303e-05;-0.004909346434543696
1.38305e-05;-0.004952704933107065
1.38308e-05;-0.004996063431670435
1.38310e-05;-0.005046436545097802
1.38313e-05;-0.005103818743769301
1.38315e-05;-0.005161200942440801
1.38318e-05;-0.005223898586703161
1.38320e-05;-0.005291907486391882
1.38323e-05;-0.0053599163860806025
1.38325e-05;-0.005433075589342974
1.38328e-05;-0.005511381036196214
1.38330e-05;-0.005589686483049454
1.38333e-05;-0.0056718899647440766
1.38335e-05;-0.005757988408460841
1.38338e-05;-0.0058459540749981964
1.38340e-05;-0.0059357854924240545
1.38343e-05;-0.006026779542259784
1.38345e-05;-0.006118935308001848
1.38348e-05;-0.006212097531650437
1.38350e-05;-0.006306265419814319
1.38353e-05;-0.006400486181374993
1.38355e-05;-0.006494759774651732
1.38358e-05;-0.006587908352494278
1.38360e-05;-0.00667993280175332
1.38363e-05;-0.006769897634248139
1.38365e-05;-0.006857804473573567
1.38368e-05;-0.0069430599566511495
1.38370e-05;-0.0070256661735437495
1.38373e-05;-0.007103922819896643
1.38375e-05;-0.007177833324476187
1.38378e-05;-0.007251741352818109
1.38380e-05;-0.007313091854891458
1.38383e-05;-0.007374442356965222
1.38385e-05;-0.0074316238111627325
1.38388e-05;-0.007484639503942788
1.38390e-05;-0.007537655196723204
1.38393e-05;-0.00758728072542698
1.38395e-05;-0.007633518762519011
1.38398e-05;-0.0076797567996113566
1.38400e-05;-0.007725993191534061
1.38403e-05;-0.007763886578357595
1.38405e-05;-0.0078017799651813845
1.38408e-05;-0.007839673352005175
1.38410e-05;-0.007873807846838565
1.38413e-05;-0.007904186412815059
1.38415e-05;-0.007934564978791553
1.38418e-05;-0.00796494354476784
1.38420e-05;-0.007995322110744335
1.38423e-05;-0.008025700676720829
1.38425e-05;-0.008056079242697118
1.38428e-05;-0.008086457808673612
1.38430e-05;-0.008116836374650107
1.38433e-05;-0.008147213274293411
1.38435e-05;-0.008169139842820233
1.38438e-05;-0.008191066411347203
1.38440e-05;-0.008212992979874174
1.38443e-05;-0.008234919548400997
1.38445e-05;-0.008256846116927967
1.38448e-05;-0.008278772685454938
1.38450e-05;-0.008300699253981761
1.38453e-05;-0.008322625822508731
1.38455e-05;-0.008344552391035702
1.38458e-05;-0.008363815596775171
1.38460e-05;-0.00838041753925478
1.38463e-05;-0.008397019481734392
1.38465e-05;-0.00841362142421389
1.38468e-05;-0.0084302233666935
1.38470e-05;-0.008444876027773827
1.38473e-05;-0.008457580944072129
1.38475e-05;-0.008470285860370519
1.38478e-05;-0.008482990776668909
1.38480e-05;-0.008495695692967212
1.38483e-05;-0.008503591397328612
1.38485e-05;-0.008506681680851622
1.38488e-05;-0.008509771964374612
1.38490e-05;-0.008512862247897622
1.38493e-05;-0.008515952531420632
1.38495e-05;-0.008519042814943622
1.38498e-05;-0.008514201856123001
1.38500e-05;-0.008501435907151859
1.38503e-05;-0.008488669958180805
1.38505e-05;-0.008475904009209664
1.38508e-05;-0.008463138060238521
1.38510e-05;-0.008450372111267467
1.38513e-05;-0.008428682188942832
1.38515e-05;-0.008398075328027011
1.38518e-05;-0.008367468467111191
1.38520e-05;-0.008336861606195579
1.38523e-05;-0.008306254745279759
1.38525e-05;-0.00827564788436394
1.38528e-05;-0.008245041023448326
1.38530e-05;-0.00821443148629316
1.38533e-05;-0.008170250164235119
1.38535e-05;-0.008126068842177377
1.38538e-05;-0.008081887520119334
1.38540e-05;-0.008037706198061292
1.38543e-05;-0.00799352487600355
1.38545e-05;-0.007949343553945507
1.38548e-05;-0.007905162231887466
1.38550e-05;-0.007859211913230184
1.38553e-05;-0.007811493992471676
1.38555e-05;-0.007763776071713168
1.38558e-05;-0.007716058150954985
1.38560e-05;-0.007668340230196477
1.38563e-05;-0.007620623346431722
1.38565e-05;-0.007578165281577865
1.38568e-05;-0.00753570721672372
1.38570e-05;-0.007493249151869575
1.38573e-05;-0.0074507910870157176
1.38575e-05;-0.0074083330221615725
1.38578e-05;-0.007369828233588957
1.38580e-05;-0.007335273604933877
1.38583e-05;-0.007302042791022753
1.38585e-05;-0.007270134748293852
1.38588e-05;-0.007235501978745896
1.38590e-05;-0.007198146630278069
1.38593e-05;-0.007160791281810242
1.38595e-05;-0.007120689156531508
1.38598e-05;-0.007077842419722889
1.38600e-05;-0.007034995682914272
1.38603e-05;-0.006989204107571239
1.38605e-05;-0.006940470015107519
1.38608e-05;-0.00689173592264347
1.38610e-05;-0.006837094269842571
1.38613e-05;-0.006776549713629232
1.38615e-05;-0.006716005157415481
1.38618e-05;-0.006655460601201732
1.38620e-05;-0.006594913943502236
1.38623e-05;-0.006523710193461441
1.38625e-05;-0.006452506443420645
1.38628e-05;-0.006381302693380331
1.38630e-05;-0.006310098943339535
1.38633e-05;-0.006234835562038926
1.38635e-05;-0.006155515749682038
1.38638e-05;-0.006076195937324612
1.38640e-05;-0.005995748314464721
1.38643e-05;-0.005914173770154704
1.38645e-05;-0.005832101470568683
1.38648e-05;-0.005749157501710136
1.38650e-05;-0.005665662267556074
1.38653e-05;-0.005582065851864851
1.38655e-05;-0.005498873729688987
1.38658e-05;-0.005416591376631826
1.38660e-05;-0.005335719143450305
1.38663e-05;-0.005256657228839897
1.38665e-05;-0.0051795913842827305
1.38668e-05;-0.005104652253382792
1.38670e-05;-0.005032162356616473
1.38673e-05;-0.004962605529649072
1.38675e-05;-0.004896500519337315
1.38678e-05;-0.004834366305094584
1.38680e-05;-0.0047767169751463156
1.38683e-05;-0.00472395318815594
1.38685e-05;-0.00467618942684419
1.38688e-05;-0.004633346755288235
1.38690e-05;-0.004595417058659515
1.38693e-05;-0.004562510012400905
1.38695e-05;-0.004534765780376546
1.38698e-05;-0.0045123242938952144
1.38700e-05;-0.004496699144229813
1.38703e-05;-0.004485201734215502
1.38705e-05;-0.004478981531687107
1.38708e-05;-0.004478034376628719
1.38710e-05;-0.004483183578492099
1.38713e-05;-0.004494424331526824
1.38715e-05;-0.004505665084561626
1.38718e-05;-0.004525840059535046
1.38720e-05;-0.004554942213610948
1.38723e-05;-0.004584044367687047
1.38725e-05;-0.004613146521763147
1.38728e-05;-0.004642248675839049
1.38730e-05;-0.0046799301090962525
1.38733e-05;-0.004726184058500015
1.38735e-05;-0.004772438007903465
1.38738e-05;-0.004818691957307227
1.38740e-05;-0.00486494590671099
1.38743e-05;-0.004915682697112968
1.38745e-05;-0.004970898794696342
1.38748e-05;-0.005026114892279715
1.38750e-05;-0.00508268982061488
1.38753e-05;-0.0051406225085381925
1.38755e-05;-0.005198837498470754
1.38758e-05;-0.005257334567873887
1.38760e-05;-0.0053154263522146375
1.38763e-05;-0.005373113170978251
1.38765e-05;-0.005429599623896073
1.38768e-05;-0.005484886657215546
1.38770e-05;-0.005537445547520518
1.38773e-05;-0.005587278445402185
1.38775e-05;-0.005637111343283514
1.38778e-05;-0.0056822945655801375
1.38780e-05;-0.005722831777624138
1.38783e-05;-0.005763368989667864
1.38785e-05;-0.005801141024027909
1.38788e-05;-0.005836150060489421
1.38790e-05;-0.0058711590969506965
1.38793e-05;-0.005903940491334774
1.38795e-05;-0.005934495999688268
1.38798e-05;-0.005965051508041554
1.38800e-05;-0.005995607016395047
1.38803e-05;-0.0060261625247485405
1.38805e-05;-0.006056717281809966
1.38808e-05;-0.006083462072185198
1.38810e-05;-0.006110206862560431
1.38813e-05;-0.0061369516529354825
1.38815e-05;-0.006163696443310715
1.38818e-05;-0.006190441233685948
1.38820e-05;-0.006215790725417435
1.38823e-05;-0.006239746018417179
1.38825e-05;-0.006263701311416924
1.38828e-05;-0.006287656604416506
1.38830e-05;-0.006311611897416251
1.38833e-05;-0.006335567190415995
1.38835e-05;-0.006359522483415577
1.38838e-05;-0.006383477776415321
1.38840e-05;-0.006407433069415065
1.38843e-05;-0.0064313883624146475
1.38845e-05;-0.006453420391453838
1.38848e-05;-0.006473530672638153
1.38850e-05;-0.006493640953822333
1.38853e-05;-0.006513751235006649
1.38855e-05;-0.006533861516190964
1.38858e-05;-0.00655397179737528
1.38860e-05;-0.0065740820785594595
1.38863e-05;-0.006594192359743775
1.38865e-05;-0.006614302640928091
1.38868e-05;-0.00663441292211227
1.38870e-05;-0.006650525858089369
1.38873e-05;-0.0066626445999592955
1.38875e-05;-0.00667476334182914
1.38878e-05;-0.006686882083699066
1.38880e-05;-0.006699000825568993
1.38883e-05;-0.006711119567438837
1.38885e-05;-0.006723238309308764
1.38888e-05;-0.00673535705117869
1.38890e-05;-0.006747475793048534
1.38893e-05;-0.006759594534918461
1.38895e-05;-0.006771713276788387
1.38898e-05;-0.006783832018658231
1.38900e-05;-0.00679594983739884
1.38903e-05;-0.006803386261892631
1.38905e-05;-0.00681082268638637
1.38908e-05;-0.006818259110880159
1.38910e-05;-0.006825695535373949
1.38913e-05;-0.006833131959867688
1.38915e-05;-0.0068405683843614775
1.38918e-05;-0.006848004808855268
1.38920e-05;-0.006855441233349007
1.38923e-05;-0.006862877657842797
1.38925e-05;-0.006870314082336586
1.38928e-05;-0.006877750506830325
1.38930e-05;-0.006885186931324115
1.38933e-05;-0.006891543180544972
1.38935e-05;-0.006896820105992852
1.38938e-05;-0.006902097031440769
1.38940e-05;-0.006907373956888685
1.38943e-05;-0.006912650882336602
1.38945e-05;-0.006917927807784482
1.38948e-05;-0.006923204733232398
1.38950e-05;-0.0069284816586803145
1.38953e-05;-0.006933758584128195
1.38955e-05;-0.006939035509576112
1.38958e-05;-0.0069443124350240274
1.38960e-05;-0.006949589360471908
1.38963e-05;-0.006954866285919825
1.38965e-05;-0.006960143211367741
