Time(s);Current(A)
1.80000e-06;0.007390132223299395
1.80025e-06;0.0074076252048766375
1.80050e-06;0.0074251181864538945
1.80075e-06;0.007442611168031137
1.80100e-06;0.007460104149608394
1.80125e-06;0.007477597131185636
1.80150e-06;0.007495090112762877
1.80175e-06;0.007512583094340134
1.80200e-06;0.007530076075917377
1.80225e-06;0.007547569057494634
1.80250e-06;0.007565062039071876
1.80275e-06;0.007574708460480447
1.80300e-06;0.00758337247887946
1.80325e-06;0.007592036497278467
1.80350e-06;0.00760070051567748
1.80375e-06;0.007609364534076487
1.80400e-06;0.007618028552475493
1.80425e-06;0.0076266925708745065
1.80450e-06;0.007635356589273513
1.80475e-06;0.007644020607672527
1.80500e-06;0.007652684626071533
1.80525e-06;0.007661348644470547
1.80550e-06;0.007670012662869554
1.80575e-06;0.00767867668126856
1.80600e-06;0.007687340699667574
1.80625e-06;0.00769600471806658
1.80650e-06;0.007704668736465594
1.80675e-06;0.0077133327548646
1.80700e-06;0.007721996773263607
1.80725e-06;0.00772921076377582
1.80750e-06;0.007734144610349495
1.80775e-06;0.0077390784569231754
1.80800e-06;0.0077440123034968516
1.80825e-06;0.007748946150070528
1.80850e-06;0.007753879996644207
1.80875e-06;0.007758813843217883
1.80900e-06;0.007763747689791564
1.80925e-06;0.00776868153636524
1.80950e-06;0.0077736153829389195
1.80975e-06;0.007778549229512596
1.81000e-06;0.007783483076086272
1.81025e-06;0.007788416922659952
1.81050e-06;0.007793350769233628
1.81075e-06;0.007798284615807308
1.81100e-06;0.007803218462380984
1.81125e-06;0.007795786642776413
1.81150e-06;0.007786806620213317
1.81175e-06;0.007777826597650229
1.81200e-06;0.007768846575087133
1.81225e-06;0.0077598665525240446
1.81250e-06;0.007750886529960957
1.81275e-06;0.007741906507397861
1.81300e-06;0.007732926484834773
1.81325e-06;0.007723946462271677
1.81350e-06;0.007714966439708589
1.81375e-06;0.007705986417145494
1.81400e-06;0.007697006394582406
1.81425e-06;0.007688026372019318
1.81450e-06;0.007679046349456222
1.81475e-06;0.007670066326893134
1.81500e-06;0.007655662720401152
1.81525e-06;0.0076327306213659985
1.81550e-06;0.007609798522330845
1.81575e-06;0.007586866423295673
1.81600e-06;0.00756393432426052
1.81625e-06;0.007541002225225348
1.81650e-06;0.0075180701261901945
1.81675e-06;0.007495138027155041
1.81700e-06;0.007472205928119869
1.81725e-06;0.007449273829084716
1.81750e-06;0.007426341730049544
1.81775e-06;0.007403409631014391
1.81800e-06;0.007380477531979218
1.81825e-06;0.0073591802328018836
1.81850e-06;0.007340453628312704
1.81875e-06;0.007321727023823508
1.81900e-06;0.007303000419334329
1.81925e-06;0.007284273814845133
1.81950e-06;0.007265547210355953
1.81975e-06;0.007246820605866774
1.82000e-06;0.007228094001377578
1.82025e-06;0.007209367396888398
1.82050e-06;0.0071906407923992026
1.82075e-06;0.007171914187910023
1.82100e-06;0.007153187583420843
1.82125e-06;0.007134460978931647
1.82150e-06;0.007124216759840855
1.82175e-06;0.007127310946048935
1.82200e-06;0.007130405132257013
1.82225e-06;0.0071334993184650934
1.82250e-06;0.007136593504673171
1.82275e-06;0.007139687690881249
1.82300e-06;0.00714278187708933
1.82325e-06;0.007145876063297408
1.82350e-06;0.0071489702495054885
1.82375e-06;0.0071520644357135656
1.82400e-06;0.0071551586219216435
1.82425e-06;0.007158252808129724
1.82450e-06;0.007161346994337802
1.82475e-06;0.007164441180545883
1.82500e-06;0.007174244321667675
1.82525e-06;0.007194597179121158
1.82550e-06;0.007214950036574657
1.82575e-06;0.00723530289402814
1.82600e-06;0.007255655751481639
1.82625e-06;0.0072760086089351216
1.82650e-06;0.007296361466388622
1.82675e-06;0.0073167143238421035
1.82700e-06;0.007337067181295586
1.82725e-06;0.007357420038749086
1.82750e-06;0.007377772896202568
1.82775e-06;0.007398125753656068
1.82800e-06;0.007418478611109551
1.82825e-06;0.007438831468563033
1.82850e-06;0.007457118857248696
1.82875e-06;0.007472158331784907
1.82900e-06;0.007487197806321131
1.82925e-06;0.007502237280857341
1.82950e-06;0.007517276755393552
1.82975e-06;0.007532316229929776
1.83000e-06;0.007547355704465987
1.83025e-06;0.00756239517900221
1.83050e-06;0.0075774346535384205
1.83075e-06;0.007592474128074644
1.83100e-06;0.007607513602610855
1.83125e-06;0.0076225530771470654
1.83150e-06;0.007637592551683289
1.83175e-06;0.0076526320262195
1.83200e-06;0.007667671500755723
1.83225e-06;0.007682710975291934
1.83250e-06;0.007697750449828145
1.83275e-06;0.007712789924364368
1.83300e-06;0.007727829398900579
1.83325e-06;0.007742868873436802
1.83350e-06;0.0077519964915160385
1.83375e-06;0.007760383934862893
1.83400e-06;0.007768771378209756
1.83425e-06;0.007777158821556611
1.83450e-06;0.007785546264903473
1.83475e-06;0.0077939337082503285
1.83500e-06;0.007802321151597191
1.83525e-06;0.007810708594944046
1.83550e-06;0.007819096038290901
1.83575e-06;0.007827483481637762
1.83600e-06;0.007835870924984618
1.83625e-06;0.00784425836833148
1.83650e-06;0.007852645811678336
1.83675e-06;0.00786103325502519
1.83700e-06;0.007869420698372053
1.83725e-06;0.007877808141718907
1.83750e-06;0.00788619558506577
1.83775e-06;0.007894583028412625
1.83800e-06;0.007902970471759481
1.83825e-06;0.007909939160929223
1.83850e-06;0.00791467688353198
1.83875e-06;0.007919414606134741
1.83900e-06;0.0079241523287375
1.83925e-06;0.00792889005134026
1.83950e-06;0.007933627773943018
1.83975e-06;0.007938365496545776
1.84000e-06;0.007943103219148536
1.84025e-06;0.007947840941751294
1.84050e-06;0.007952578664354056
1.84075e-06;0.007957316386956813
1.84100e-06;0.00795442904532378
1.84125e-06;0.00793955142119135
1.84150e-06;0.007924673797058935
1.84175e-06;0.007909796172926505
1.84200e-06;0.007894918548794089
1.84225e-06;0.007880040924661671
1.84250e-06;0.007865163300529244
1.84275e-06;0.007850285676396826
1.84300e-06;0.007835408052264398
1.84325e-06;0.00782053042813198
1.84350e-06;0.007805652803999565
1.84375e-06;0.007779736035623214
1.84400e-06;0.0077364604025946405
1.84425e-06;0.00769318476956603
1.84450e-06;0.0076499091365374566
1.84475e-06;0.007606633503508846
1.84500e-06;0.007563357870480273
1.84525e-06;0.007520082237451699
1.84550e-06;0.007476806604423089
1.84575e-06;0.007433530971394515
1.84600e-06;0.007390255338365905
1.84625e-06;0.007346979705337331
1.84650e-06;0.007293554574877341
1.84675e-06;0.00723885870964923
1.84700e-06;0.007184162844421165
1.84725e-06;0.007129466979193054
1.84750e-06;0.007074771113964989
1.84775e-06;0.007020075248736925
1.84800e-06;0.006965379383508813
1.84825e-06;0.006910683518280749
1.84850e-06;0.006855987653052637
1.84875e-06;0.006801291787824573
1.84900e-06;0.006752457568006155
1.84925e-06;0.0067128406848811625
1.84950e-06;0.006673223801756169
1.84975e-06;0.006633606918631144
1.85000e-06;0.00659399003550615
1.85025e-06;0.006554373152381124
1.85050e-06;0.006514756269256131
1.85075e-06;0.006475139386131139
1.85100e-06;0.006435522503006112
1.85125e-06;0.00639590561988112
1.85150e-06;0.0063562887367560935
1.85175e-06;0.006316671853631101
1.85200e-06;0.006289222322164803
1.85225e-06;0.006263296164332634
1.85250e-06;0.0062373700065004875
1.85275e-06;0.006211443848668319
1.85300e-06;0.006185517690836173
1.85325e-06;0.006159591533004004
1.85350e-06;0.006133665375171857
1.85375e-06;0.0061077392173397105
1.85400e-06;0.006081813059507542
1.85425e-06;0.006055886901675396
1.85450e-06;0.006029960743843227
1.85475e-06;0.006005893080226465
1.85500e-06;0.005984747866831108
1.85525e-06;0.005963602653435733
1.85550e-06;0.005942457440040376
1.85575e-06;0.005921312226645001
1.85600e-06;0.005900167013249644
1.85625e-06;0.005879021799854287
1.85650e-06;0.0058578765864589115
1.85675e-06;0.005836731373063554
1.85700e-06;0.005815586159668179
1.85725e-06;0.005794440946272822
1.85750e-06;0.0057732957328774474
1.85775e-06;0.00575215051948209
1.85800e-06;0.005731005306086733
1.85825e-06;0.005709860092691358
1.85850e-06;0.005692563949277338
1.85875e-06;0.005681320402274854
1.85900e-06;0.005670076855272379
1.85925e-06;0.005658833308269905
1.85950e-06;0.005647589761267421
1.85975e-06;0.0056363462142649465
1.86000e-06;0.005625102667262462
1.86025e-06;0.005613859120259988
1.86050e-06;0.0056026155732575135
1.86075e-06;0.005591372026255029
1.86100e-06;0.005580128479252555
1.86125e-06;0.005568884932250071
1.86150e-06;0.005557641385247596
1.86175e-06;0.005546397838245113
1.86200e-06;0.005535154291242638
1.86225e-06;0.005531904985074972
1.86250e-06;0.005541226485264009
1.86275e-06;0.005550547985453038
1.86300e-06;0.0055598694856420754
1.86325e-06;0.005569190985831105
1.86350e-06;0.005578512486020134
1.86375e-06;0.005587833986209171
1.86400e-06;0.005597155486398201
1.86425e-06;0.005606476986587237
1.86450e-06;0.005615798486776267
1.86475e-06;0.005625119986965296
1.86500e-06;0.005634441487154333
1.86525e-06;0.0056437629873433625
1.86550e-06;0.0056580269562242136
1.86575e-06;0.005680062872201894
1.86600e-06;0.005702098788179592
1.86625e-06;0.005724134704157272
1.86650e-06;0.005746170620134951
1.86675e-06;0.0057682065361126505
1.86700e-06;0.00579024245209033
1.86725e-06;0.005812278368068028
1.86750e-06;0.005834314284045708
1.86775e-06;0.005856350200023388
1.86800e-06;0.0058783861160010865
1.86825e-06;0.005900422031978766
1.86850e-06;0.005922457947956464
1.86875e-06;0.005941714414549291
1.86900e-06;0.005956600244740757
1.86925e-06;0.005971486074932235
1.86950e-06;0.0059863719051237
1.86975e-06;0.006001257735315178
1.87000e-06;0.006016143565506644
1.87025e-06;0.006031029395698122
1.87050e-06;0.006045915225889587
1.87075e-06;0.006060801056081053
1.87100e-06;0.006075686886272531
1.87125e-06;0.0060905727164639965
1.87150e-06;0.006105458546655475
1.87175e-06;0.006120344376846941
1.87200e-06;0.006127152926142158
1.87225e-06;0.006121260090011571
1.87250e-06;0.006115367253880988
1.87275e-06;0.006109474417750401
1.87300e-06;0.0061035815816198186
1.87325e-06;0.006097688745489237
1.87350e-06;0.006091795909358649
1.87375e-06;0.006085903073228067
1.87400e-06;0.006080010237097479
1.87425e-06;0.006074117400966897
1.87450e-06;0.006068224564836309
1.87475e-06;0.0060623317287057275
1.87500e-06;0.006056438892575145
1.87525e-06;0.0060450049880816595
1.87550e-06;0.006024857848794146
1.87575e-06;0.006004710709506615
1.87600e-06;0.0059845635702191
1.87625e-06;0.005964416430931587
1.87650e-06;0.0059442692916440555
1.87675e-06;0.005924122152356542
1.87700e-06;0.005903975013069011
1.87725e-06;0.005883827873781496
1.87750e-06;0.005863680734493983
1.87775e-06;0.0058435335952064515
1.87800e-06;0.005823386455918938
1.87825e-06;0.0058046142600808
1.87850e-06;0.005786014209558868
1.87875e-06;0.005767414159036935
1.87900e-06;0.005748814108514987
1.87925e-06;0.005730214057993053
1.87950e-06;0.005711614007471105
1.87975e-06;0.005693013956949172
1.88000e-06;0.005674413906427223
1.88025e-06;0.00565581385590529
1.88050e-06;0.0056372138053833575
1.88075e-06;0.005618613754861409
1.88100e-06;0.005607354047435523
1.88125e-06;0.005607636903406042
1.88150e-06;0.005607919759376561
1.88175e-06;0.005608202615347079
1.88200e-06;0.0056084854713175985
1.88225e-06;0.005608768327288118
1.88250e-06;0.005609051183258637
1.88275e-06;0.005609334039229156
1.88300e-06;0.005609616895199674
1.88325e-06;0.0056098997511701935
1.88350e-06;0.005610182607140713
1.88375e-06;0.005610465463111232
1.88400e-06;0.005610748319081751
1.88425e-06;0.00561103117505227
1.88450e-06;0.005618551618143784
1.88475e-06;0.005637453042626249
1.88500e-06;0.005656354467108729
1.88525e-06;0.005675255891591194
1.88550e-06;0.005694157316073675
1.88575e-06;0.00571305874055614
1.88600e-06;0.005731960165038605
1.88625e-06;0.005750861589521085
1.88650e-06;0.00576976301400355
1.88675e-06;0.005788664438486031
1.88700e-06;0.005807565862968496
1.88725e-06;0.005826467287450961
1.88750e-06;0.005845368711933441
1.88775e-06;0.005864270136415906
1.88800e-06;0.005883736286458837
1.88825e-06;0.00590409045774238
1.88850e-06;0.005924444629025941
1.88875e-06;0.005944798800309484
1.88900e-06;0.005965152971593027
1.88925e-06;0.005985507142876587
1.88950e-06;0.00600586131416013
1.88975e-06;0.00602621548544369
1.89000e-06;0.006045083626148549
1.89025e-06;0.0060616150093016005
1.89050e-06;0.0060781463924546655
1.89075e-06;0.006094677775607717
1.89100e-06;0.006111209158760782
1.89125e-06;0.006127740541913833
1.89150e-06;0.006144271925066884
1.89175e-06;0.006160803308219949
1.89200e-06;0.006180964856386669
1.89225e-06;0.0062068347766633695
1.89250e-06;0.006232704696940048
1.89275e-06;0.0062585746172167485
1.89300e-06;0.006284444537493427
1.89325e-06;0.006310314457770106
1.89350e-06;0.006336184378046806
1.89375e-06;0.006362054298323485
1.89400e-06;0.0063879242186001845
1.89425e-06;0.006413794138876864
1.89450e-06;0.006439664059153542
1.89475e-06;0.0064655339794302425
1.89500e-06;0.006491403899706921
1.89525e-06;0.006521239789355139
1.89550e-06;0.006557312097696037
1.89575e-06;0.006593384406036935
1.89600e-06;0.006629456714377863
1.89625e-06;0.006665529022718761
1.89650e-06;0.00670160133105969
1.89675e-06;0.006737673639400588
1.89700e-06;0.006773745947741516
1.89725e-06;0.006809818256082414
1.89750e-06;0.006845890564423312
1.89775e-06;0.00688196287276424
1.89800e-06;0.006918035181105138
1.89825e-06;0.006954107489446067
1.89850e-06;0.006986631539320095
1.89875e-06;0.007013576013721894
1.89900e-06;0.007040520488123716
1.89925e-06;0.007067464962525515
1.89950e-06;0.007094409436927337
1.89975e-06;0.007121353911329136
1.90000e-06;0.007148298385730935
1.90025e-06;0.007175242860132757
1.90050e-06;0.007202187334534556
1.90075e-06;0.007229131808936379
1.90100e-06;0.007256076283338178
1.90125e-06;0.0072722761904655195
1.90150e-06;0.007271580450169437
1.90175e-06;0.0072708847098733554
1.90200e-06;0.007270188969577273
1.90225e-06;0.0072694932292811905
1.90250e-06;0.007268797488985108
1.90275e-06;0.007268101748689026
1.90300e-06;0.007267406008392944
1.90325e-06;0.007266710268096861
1.90350e-06;0.007266014527800779
1.90375e-06;0.007265318787504697
1.90400e-06;0.0072539599372630666
1.90425e-06;0.0072258335298484005
1.90450e-06;0.00719770712243371
1.90475e-06;0.007169580715019044
1.90500e-06;0.0071414543076043545
1.90525e-06;0.0071133279001896884
1.90550e-06;0.007085201492774998
1.90575e-06;0.007057075085360332
1.90600e-06;0.007028948677945666
1.90625e-06;0.007000822270530976
1.90650e-06;0.00697269586311631
1.90675e-06;0.0069408868603646635
1.90700e-06;0.006903287039721012
1.90725e-06;0.00686568721907736
1.90750e-06;0.006828087398433708
1.90775e-06;0.006790487577790025
1.90800e-06;0.006752887757146341
1.90825e-06;0.006715287936502657
1.90850e-06;0.006677688115859037
1.90875e-06;0.006640088295215354
1.90900e-06;0.006602488474571669
1.90925e-06;0.00656488865392805
1.90950e-06;0.00653326559283591
1.90975e-06;0.006511040883444308
1.91000e-06;0.006488816174052744
1.91025e-06;0.006466591464661143
1.91050e-06;0.006444366755269541
1.91075e-06;0.00642214204587794
1.91100e-06;0.006399917336486376
1.91125e-06;0.0063776926270947745
1.91150e-06;0.006355467917703173
1.91175e-06;0.006333243208311609
1.91200e-06;0.0063230988018302525
1.91225e-06;0.006331950464108431
1.91250e-06;0.006340802126386609
1.91275e-06;0.006349653788664772
1.91300e-06;0.006358505450942951
1.91325e-06;0.006367357113221129
1.91350e-06;0.006376208775499292
1.91375e-06;0.00638506043777747
1.91400e-06;0.0063939121000556485
1.91425e-06;0.006402763762333812
1.91450e-06;0.006421945444842676
1.91475e-06;0.006457370906671384
1.91500e-06;0.006492796368500094
1.91525e-06;0.006528221830328742
1.91550e-06;0.006563647292157451
1.91575e-06;0.006599072753986159
1.91600e-06;0.006634498215814808
1.91625e-06;0.006669923677643516
1.91650e-06;0.006705349139472225
1.91675e-06;0.006740774601300934
1.91700e-06;0.006779141577788657
1.91725e-06;0.006822134035536116
1.91750e-06;0.0068651264932835755
1.91775e-06;0.006908118951030962
1.91800e-06;0.006951111408778421
1.91825e-06;0.006994103866525881
1.91850e-06;0.007037096324273268
1.91875e-06;0.007080088782020727
1.91900e-06;0.007123081239768186
1.91925e-06;0.007166073697515645
1.91950e-06;0.007200333594712017
1.91975e-06;0.007220861690486372
1.92000e-06;0.007241389786260727
1.92025e-06;0.007261917882035046
1.92050e-06;0.007282445977809401
1.92075e-06;0.007302974073583756
1.92100e-06;0.007323502169358111
1.92125e-06;0.00734403026513243
1.92150e-06;0.007364558360906786
1.92175e-06;0.00738508645668114
1.92200e-06;0.00740561455245546
1.92225e-06;0.007426142648229815
1.92250e-06;0.00744667074400417
1.92275e-06;0.007467198839778489
1.92300e-06;0.0074877269355528445
1.92325e-06;0.007508255031327199
1.92350e-06;0.007518091852667889
1.92375e-06;0.007511116828660638
1.92400e-06;0.007504141804653376
1.92425e-06;0.007497166780646114
1.92450e-06;0.007490191756638864
1.92475e-06;0.007483216732631601
1.92500e-06;0.007476241708624339
1.92525e-06;0.007469266684617076
1.92550e-06;0.007462291660609826
1.92575e-06;0.007455316636602564
1.92600e-06;0.0074483416125953016
1.92625e-06;0.007441366588588051
1.92650e-06;0.007434391564580789
1.92675e-06;0.007427416540573526
1.92700e-06;0.007420441516566276
1.92725e-06;0.007413466492559014
1.92750e-06;0.007404117344762015
1.92775e-06;0.0073910349280981065
1.92800e-06;0.007377952511434219
1.92825e-06;0.0073648700947703104
1.92850e-06;0.007351787678106401
1.92875e-06;0.007338705261442514
1.92900e-06;0.007325622844778605
1.92925e-06;0.007312540428114697
1.92950e-06;0.007299458011450787
1.92975e-06;0.007286375594786901
1.93000e-06;0.007273293178122991
1.93025e-06;0.007260210761459082
1.93050e-06;0.007247128344795195
1.93075e-06;0.007234045928131287
1.93100e-06;0.0072209635114673775
1.93125e-06;0.007214200565971173
1.93150e-06;0.0072082288292790245
1.93175e-06;0.007202257092586875
1.93200e-06;0.007196285355894725
1.93225e-06;0.007190313619202586
1.93250e-06;0.007184341882510437
1.93275e-06;0.007178370145818287
1.93300e-06;0.007172398409126148
1.93325e-06;0.007166426672433998
1.93350e-06;0.007160454935741849
1.93375e-06;0.0071544831990497
1.93400e-06;0.00714851146235756
1.93425e-06;0.007142539725665411
1.93450e-06;0.007136567988973262
1.93475e-06;0.0071325117931079225
1.93500e-06;0.007131467752279882
1.93525e-06;0.007130423711451841
1.93550e-06;0.007129379670623803
1.93575e-06;0.007128335629795763
1.93600e-06;0.007127291588967722
1.93625e-06;0.007126247548139682
1.93650e-06;0.007125203507311643
1.93675e-06;0.007124159466483603
1.93700e-06;0.007123115425655562
1.93725e-06;0.007122071384827524
1.93750e-06;0.007121027343999484
1.93775e-06;0.007119983303171443
1.93800e-06;0.007118939262343404
1.93825e-06;0.007117895221515364
1.93850e-06;0.007116851180687323
1.93875e-06;0.007115807139859283
1.93900e-06;0.0071127621115005535
1.93925e-06;0.007109466556015536
1.93950e-06;0.007106171000530518
1.93975e-06;0.0071028754450455055
1.94000e-06;0.007099579889560488
1.94025e-06;0.00709628433407547
1.94050e-06;0.007092988778590452
1.94075e-06;0.00708969322310544
1.94100e-06;0.007086397667620422
1.94125e-06;0.007083102112135404
1.94150e-06;0.007079806556650392
1.94175e-06;0.007076511001165374
1.94200e-06;0.007073215445680356
1.94225e-06;0.007069919890195344
1.94250e-06;0.007066624334710326
1.94275e-06;0.007063328779225308
1.94300e-06;0.007054890526743082
1.94325e-06;0.007038365471594338
1.94350e-06;0.007021840416445566
1.94375e-06;0.0070053153612967935
1.94400e-06;0.00698879030614805
1.94425e-06;0.006972265250999278
1.94450e-06;0.006955740195850506
1.94475e-06;0.006939215140701734
1.94500e-06;0.0069226900855529905
1.94525e-06;0.006906165030404219
1.94550e-06;0.006889639975255447
1.94575e-06;0.006873114920106703
1.94600e-06;0.006856589864957931
1.94625e-06;0.00684006480980916
1.94650e-06;0.006821805372968963
1.94675e-06;0.006800818650718894
1.94700e-06;0.006779831928468824
1.94725e-06;0.006758845206218753
1.94750e-06;0.0067378584839687195
1.94775e-06;0.006716871761718649
1.94800e-06;0.00669588503946858
1.94825e-06;0.006674898317218545
1.94850e-06;0.006653911594968476
1.94875e-06;0.0066329248727184055
1.94900e-06;0.006611938150468335
1.94925e-06;0.006590951428218301
1.94950e-06;0.006569964705968231
1.94975e-06;0.006548977983718162
1.95000e-06;0.0065308731973456385
1.95025e-06;0.0065173002056234785
1.95050e-06;0.006503727213901319
1.95075e-06;0.006490154222179182
1.95100e-06;0.006476581230457022
