Time(s);Current(A)
7.50000e-06;0.008973637998350334
7.50025e-06;0.008987905301399946
7.50050e-06;0.00900702790293994
7.50075e-06;0.009028587222265797
7.50100e-06;0.009050146541591727
7.50125e-06;0.009071705860917581
7.50150e-06;0.009093265180243438
7.50175e-06;0.009114824499569367
7.50200e-06;0.009136383818895222
7.50225e-06;0.00916136729468959
7.50250e-06;0.009188069244226391
7.50275e-06;0.009214771193763191
7.50300e-06;0.009241473143300082
7.50325e-06;0.009268175092836882
7.50350e-06;0.009294877042373683
7.50375e-06;0.009321578991910573
7.50400e-06;0.009348783643606924
7.50425e-06;0.009376240585310879
7.50450e-06;0.009403697527014927
7.50475e-06;0.009430380571973256
7.50500e-06;0.00945667522310409
7.50525e-06;0.009482969874235015
7.50550e-06;0.009507746083727654
7.50575e-06;0.009531760236314114
7.50600e-06;0.009555774388900656
7.50625e-06;0.009577878293951113
7.50650e-06;0.009599023507346543
7.50675e-06;0.009619049733019538
7.50700e-06;0.00963848274924084
7.50725e-06;0.009658584804621149
7.50750e-06;0.00967903059476297
7.50775e-06;0.009700296273110346
7.50800e-06;0.00972197342691631
7.50825e-06;0.009743650580722202
7.50850e-06;0.009765904849836278
7.50875e-06;0.009788448754518356
7.50900e-06;0.009810992659200357
7.50925e-06;0.009835359686023554
7.50950e-06;0.00986064167907501
7.50975e-06;0.00988592367212638
7.51000e-06;0.009913028856220012
7.51025e-06;0.009941049041121123
7.51050e-06;0.009969069226022137
7.51075e-06;0.009997089410923152
7.51100e-06;0.010025606129898128
7.51125e-06;0.010056620413396269
7.51150e-06;0.010087634696894514
7.51175e-06;0.010118648980392653
7.51200e-06;0.010149663263890794
7.51225e-06;0.010181833055806973
7.51250e-06;0.01021458276014625
7.51275e-06;0.010247332464485528
7.51300e-06;0.010280082168824915
7.51325e-06;0.010312831873164193
7.51350e-06;0.010345490705749149
7.51375e-06;0.010377692453751928
7.51400e-06;0.010409894201754597
7.51425e-06;0.010442095949757264
7.51450e-06;0.010474297697760043
7.51475e-06;0.010506499445762712
7.51500e-06;0.01053688673436691
7.51525e-06;0.010566363404294449
7.51550e-06;0.010595840074221886
7.51575e-06;0.01062170408913532
7.51600e-06;0.010645755028963477
7.51625e-06;0.010669805968791635
7.51650e-06;0.010693856908619874
7.51675e-06;0.010717907848448031
7.51700e-06;0.010741958788276188
7.51725e-06;0.010762321471398316
7.51750e-06;0.010780833137383304
7.51775e-06;0.010799344803368293
7.51800e-06;0.010817856469353343
7.51825e-06;0.010833652675523083
7.51850e-06;0.01084808607995383
7.51875e-06;0.010862519484384625
7.51900e-06;0.010876952888815372
7.51925e-06;0.010888241252524938
7.51950e-06;0.010897951221687916
7.51975e-06;0.010907661190850858
7.52000e-06;0.010917371160013834
7.52025e-06;0.010927081129176777
7.52050e-06;0.01093679109833972
7.52075e-06;0.010946501067502695
7.52100e-06;0.010956211036665638
7.52125e-06;0.010965155069529752
7.52150e-06;0.01097024644569415
7.52175e-06;0.010975337821858529
7.52200e-06;0.010980429198022907
7.52225e-06;0.010985520574187304
7.52250e-06;0.010990611950351684
7.52275e-06;0.010995703326516063
7.52300e-06;0.011000794702680458
7.52325e-06;0.011005886078844838
7.52350e-06;0.011009692866528137
7.52375e-06;0.011012854960666034
7.52400e-06;0.011016017054803921
7.52425e-06;0.011019179148941818
7.52450e-06;0.011022341243079704
7.52475e-06;0.011025442653082496
7.52500e-06;0.011028238822114254
7.52525e-06;0.011031034991146004
7.52550e-06;0.011033831160177752
7.52575e-06;0.011036627329209512
7.52600e-06;0.01103942349824126
7.52625e-06;0.011042430589087857
7.52650e-06;0.01104554353479352
7.52675e-06;0.011048414637766126
7.52700e-06;0.011051164367667678
7.52725e-06;0.011052356692379367
7.52750e-06;0.011052767405634772
7.52775e-06;0.011053178118890178
7.52800e-06;0.011051499372942997
7.52825e-06;0.011048771994783236
7.52850e-06;0.011046044616623465
7.52875e-06;0.011043317238463704
7.52900e-06;0.011037799057175498
7.52925e-06;0.011030880261768655
7.52950e-06;0.011023961466361837
7.52975e-06;0.011017042670955018
7.53000e-06;0.011007023079644695
7.53025e-06;0.01099544729883577
7.53050e-06;0.010983871518026845
7.53075e-06;0.010972295737217879
7.53100e-06;0.010960719956408954
7.53125e-06;0.010946348845671666
7.53150e-06;0.010930574848960836
7.53175e-06;0.010914800852250058
7.53200e-06;0.010899026855539281
7.53225e-06;0.01088325285882845
7.53250e-06;0.010866242177598353
7.53275e-06;0.01084861084427696
7.53300e-06;0.010830560316884993
7.53325e-06;0.01081229940950322
7.53350e-06;0.010793808131415408
7.53375e-06;0.010775201237697166
7.53400e-06;0.010756727977591677
7.53425e-06;0.010738321783888201
7.53450e-06;0.010720409817513632
7.53475e-06;0.010702745887902187
7.53500e-06;0.010685810897092514
7.53525e-06;0.01066924173716753
7.53550e-06;0.010654014907762632
7.53575e-06;0.010639461750770783
7.53600e-06;0.010624908593778983
7.53625e-06;0.01061226620108157
7.53650e-06;0.010600582759382979
7.53675e-06;0.010590194106470678
7.53700e-06;0.010580455266307891
7.53725e-06;0.010570596124888176
7.53750e-06;0.010560676608145947
7.53775e-06;0.010550641130913727
7.53800e-06;0.010540547456850045
7.53825e-06;0.010530453782786362
7.53850e-06;0.010520573633118592
7.53875e-06;0.010510800644461436
7.53900e-06;0.010501027655804279
7.53925e-06;0.010490333287674736
7.53950e-06;0.01047917650889213
7.53975e-06;0.010468019730109523
7.54000e-06;0.01045686295132688
7.54025e-06;0.010445032423494323
7.54050e-06;0.010432863762734397
7.54075e-06;0.01042069510197443
7.54100e-06;0.010408526441214504
7.54125e-06;0.010395354195123245
7.54150e-06;0.010381678281908564
7.54175e-06;0.010368002368693884
7.54200e-06;0.010354326455479157
7.54225e-06;0.010340650542264476
7.54250e-06;0.010326974629049796
7.54275e-06;0.010313298715835069
7.54300e-06;0.010299669054733373
7.54325e-06;0.010286272041585698
7.54350e-06;0.010272875028437977
7.54375e-06;0.010259478015290303
7.54400e-06;0.010246081002142627
7.54425e-06;0.010232683988994906
7.54450e-06;0.010219286975847232
7.54475e-06;0.010205889962699556
7.54500e-06;0.010193884847497142
7.54525e-06;0.010182578281000451
7.54550e-06;0.010171271714503724
7.54575e-06;0.010160793821098416
7.54600e-06;0.010151269447001194
7.54625e-06;0.010142628803053493
7.54650e-06;0.01013499698379477
7.54675e-06;0.010128844814540475
7.54700e-06;0.010125265416312925
7.54725e-06;0.010125321127728
7.54750e-06;0.010130709108998156
7.54775e-06;0.010138111260821224
7.54800e-06;0.010152989608671807
7.54825e-06;0.010171620018285059
7.54850e-06;0.010190250427898373
7.54875e-06;0.010208880837511624
7.54900e-06;0.010238586559108413
7.54925e-06;0.010273850622735059
7.54950e-06;0.010309114686361587
7.54975e-06;0.010344378749988234
7.55000e-06;0.010389178961964864
7.55025e-06;0.010438765059364257
7.55050e-06;0.010488351156763819
7.55075e-06;0.010544828118430712
7.55100e-06;0.010604763382720091
7.55125e-06;0.010664698647009674
7.55150e-06;0.010730946626742267
7.55175e-06;0.010800362754841232
7.55200e-06;0.010869778882940433
7.55225e-06;0.01094334788484327
7.55250e-06;0.011019001080224435
7.55275e-06;0.011094654275605857
7.55300e-06;0.011172846199574918
7.55325e-06;0.011252312229576558
7.55350e-06;0.011331778259578467
7.55375e-06;0.011411949664218298
7.55400e-06;0.011492475073648836
7.55425e-06;0.011572167055814282
7.55450e-06;0.011651440767704264
7.55475e-06;0.011728818494578
7.55500e-06;0.011805244687696096
7.55525e-06;0.01187890519212289
7.55550e-06;0.011951177686558444
7.55575e-06;0.012019468147376873
7.55600e-06;0.01208576015389929
7.55625e-06;0.012146759215169722
7.55650e-06;0.012205101917856509
7.55675e-06;0.012255065906708985
7.55700e-06;0.01230082488920858
7.55725e-06;0.01234658387170802
7.55750e-06;0.012379178496426606
7.55775e-06;0.012405166354379408
7.55800e-06;0.012431154212332122
7.55825e-06;0.012457142070284923
7.55850e-06;0.012467354805806694
7.55875e-06;0.012469650515953121
7.55900e-06;0.012471946226099557
7.55925e-06;0.012474241936245984
7.55950e-06;0.012464847030685152
7.55975e-06;0.01244958498199359
7.56000e-06;0.012427115089691205
7.56025e-06;0.01240102781305365
7.56050e-06;0.01236983331398047
7.56075e-06;0.012332832491556476
7.56100e-06;0.012291108438145397
7.56125e-06;0.012244929316737731
7.56150e-06;0.012194614536230388
7.56175e-06;0.01214050309109108
7.56200e-06;0.01208293615659492
7.56225e-06;0.012022255216914178
7.56250e-06;0.011958801447323761
7.56275e-06;0.011892917572215122
7.56300e-06;0.011824962752357386
7.56325e-06;0.011755333694104175
7.56350e-06;0.011684460025211528
7.56375e-06;0.011612782879050149
7.56400e-06;0.01154074401373316
7.56425e-06;0.011468785496270993
7.56450e-06;0.01139735094510549
7.56475e-06;0.011326882740775788
7.56500e-06;0.011257834732374178
7.56525e-06;0.011190684356320297
7.56550e-06;0.011125928304860602
7.56575e-06;0.011064071661411115
7.56600e-06;0.011005619825233058
7.56625e-06;0.010951078813380838
7.56650e-06;0.01090094968434927
7.56675e-06;0.010855583109637275
7.56700e-06;0.01081652381612476
7.56725e-06;0.01077981573684629
7.56750e-06;0.0107509572112345
7.56775e-06;0.010726038123546373
7.56800e-06;0.010701119035858244
7.56825e-06;0.010688842190917515
7.56850e-06;0.010682910080038356
7.56875e-06;0.010676977969159198
7.56900e-06;0.010671045858280019
7.56925e-06;0.010668649995329592
7.56950e-06;0.010684041446118826
7.56975e-06;0.010699432896908112
7.57000e-06;0.010714824347697344
7.57025e-06;0.010730215798486578
7.57050e-06;0.0107562308975642
7.57075e-06;0.010787577663221465
7.57100e-06;0.010818924428878838
7.57125e-06;0.010857208153616146
7.57150e-06;0.010898973314474777
7.57175e-06;0.01094073847533355
7.57200e-06;0.010987969075257627
7.57225e-06;0.011037942602848062
7.57250e-06;0.011087916130438665
7.57275e-06;0.011141814744917426
7.57300e-06;0.011197683233964317
7.57325e-06;0.011253551723011398
7.57350e-06;0.011311167164074555
7.57375e-06;0.011369659344034567
7.57400e-06;0.011428562346586311
7.57425e-06;0.011487671527752007
7.57450e-06;0.011546355003696437
7.57475e-06;0.011604824831914858
7.57500e-06;0.011661880190199052
7.57525e-06;0.011718225671624767
7.57550e-06;0.011771294597422738
7.57575e-06;0.011822719125584422
7.57600e-06;0.011874143653746281
7.57625e-06;0.011919844157150774
7.57650e-06;0.011962671957067041
7.57675e-06;0.012005499756983453
7.57700e-06;0.012044446497790896
7.57725e-06;0.012081445460153502
7.57750e-06;0.012118444422516235
7.57775e-06;0.012152812230435206
7.57800e-06;0.01218585954676501
7.57825e-06;0.012218906863094925
7.57850e-06;0.012251133573623361
7.57875e-06;0.012279232640068182
7.57900e-06;0.012307331706513096
7.57925e-06;0.012335430772957914
7.57950e-06;0.012361762920842546
7.57975e-06;0.012387208309265608
7.58000e-06;0.01241265369768867
7.58025e-06;0.01243809908611182
7.58050e-06;0.012463003013170059
7.58075e-06;0.012485183391607108
7.58100e-06;0.012507363770044235
7.58125e-06;0.012529544148481285
7.58150e-06;0.012551724526918336
7.58175e-06;0.012570249793504268
7.58200e-06;0.012586940677289755
7.58225e-06;0.01260363156107524
7.58250e-06;0.012620322444860783
7.58275e-06;0.01263701332864627
7.58300e-06;0.012653704212431756
7.58325e-06;0.012670395096217299
7.58350e-06;0.012687085980002785
7.58375e-06;0.012703776863788327
7.58400e-06;0.012720467747573815
7.58425e-06;0.0127371586313593
7.58450e-06;0.012753849515144843
7.58475e-06;0.01277054039893033
7.58500e-06;0.012787231282715816
7.58525e-06;0.012803922166501358
7.58550e-06;0.012820613050286844
7.58575e-06;0.012837303934072331
7.58600e-06;0.012853994817857874
7.58625e-06;0.01287068570164336
7.58650e-06;0.012887376585428847
7.58675e-06;0.012900759370679665
7.58700e-06;0.01291248192792635
7.58725e-06;0.012924204485173035
7.58750e-06;0.01293592704241976
7.58775e-06;0.012947649599666445
7.58800e-06;0.012959372156913168
7.58825e-06;0.012971094714159854
7.58850e-06;0.012982817271406539
7.58875e-06;0.012995370620452609
7.58900e-06;0.013008340917118635
7.58925e-06;0.01302131121378466
7.58950e-06;0.01303428151045073
7.58975e-06;0.013047251807116756
7.59000e-06;0.013060222103782783
7.59025e-06;0.013073192400448854
7.59050e-06;0.01308616269711488
7.59075e-06;0.01310039799516142
7.59100e-06;0.013115268156618192
7.59125e-06;0.013130138318074913
7.59150e-06;0.013145008479531635
7.59175e-06;0.013159878640988406
7.59200e-06;0.013174748802445128
7.59225e-06;0.0131896189639019
7.59250e-06;0.013204489125358619
7.59275e-06;0.01321935928681534
7.59300e-06;0.013234229448272112
7.59325e-06;0.013249099609728834
7.59350e-06;0.013263969771185555
7.59375e-06;0.013278839932642327
7.59400e-06;0.013293710094099048
7.59425e-06;0.01330694511520092
7.59450e-06;0.013319359512074505
7.59475e-06;0.013331773908948047
7.59500e-06;0.01334418830582159
7.59525e-06;0.013356602702695173
7.59550e-06;0.013369017099568717
7.59575e-06;0.013381431496442258
7.59600e-06;0.013393845893315843
7.59625e-06;0.013406260290189384
7.59650e-06;0.01341867468706297
7.59675e-06;0.013431089083936512
7.59700e-06;0.013443503480810054
7.59725e-06;0.013455917877683639
7.59750e-06;0.01346833227455718
7.59775e-06;0.013476176552470466
7.59800e-06;0.013481727235015194
7.59825e-06;0.013487277917559902
7.59850e-06;0.013492828600104608
7.59875e-06;0.013498379282649336
7.59900e-06;0.013503929965194044
7.59925e-06;0.01350948064773875
7.59950e-06;0.013515031330283478
7.59975e-06;0.013520582012828186
7.60000e-06;0.013526132695372893
7.60025e-06;0.01353168337791762
7.60050e-06;0.013537234060462327
7.60075e-06;0.013542784743007054
7.60100e-06;0.013548335425551762
7.60125e-06;0.013553886108096469
7.60150e-06;0.013559436790641196
7.60175e-06;0.013564987473185904
7.60200e-06;0.013569931006284088
7.60225e-06;0.01357182057996034
7.60250e-06;0.013573710153636585
7.60275e-06;0.013575599727312832
7.60300e-06;0.013577489300989084
7.60325e-06;0.01357937887466533
7.60350e-06;0.013581268448341576
7.60375e-06;0.013583158022017828
7.60400e-06;0.013585047595694073
7.60425e-06;0.013586937169370318
7.60450e-06;0.01358882674304657
7.60475e-06;0.013590716316722817
7.60500e-06;0.01359260589039907
7.60525e-06;0.013594495464075314
7.60550e-06;0.013596385037751561
7.60575e-06;0.013598274611427813
7.60600e-06;0.013600164185104058
7.60625e-06;0.013602053758780304
7.60650e-06;0.013603330894525565
7.60675e-06;0.013604300667417904
7.60700e-06;0.013605270440310242
7.60725e-06;0.013606240213202584
7.60750e-06;0.013607209986094923
7.60775e-06;0.013608179758987262
7.60800e-06;0.013609149531879606
7.60825e-06;0.013607135869032635
7.60850e-06;0.013603624915972416
7.60875e-06;0.013600113962912186
7.60900e-06;0.013596603009851967
7.60925e-06;0.013593092056791737
7.60950e-06;0.01358958110373152
7.60975e-06;0.0135860701506713
7.61000e-06;0.013578771022833617
7.61025e-06;0.013569570732203877
7.61050e-06;0.013560370441574137
7.61075e-06;0.013551170150944366
7.61100e-06;0.013541969860314626
7.61125e-06;0.013532769569684886
7.61150e-06;0.013523569279055115
7.61175e-06;0.013514368988425375
7.61200e-06;0.013505168697795635
7.61225e-06;0.01349543726764264
7.61250e-06;0.013483034207695779
7.61275e-06;0.013470631147748918
7.61300e-06;0.013458228087802015
7.61325e-06;0.013445825027855154
7.61350e-06;0.01343342196790825
7.61375e-06;0.013421018907961388
7.61400e-06;0.013408615848014527
7.61425e-06;0.013396212788067624
7.61450e-06;0.013383809728120763
7.61475e-06;0.013372129520111138
7.61500e-06;0.013360812088184378
7.61525e-06;0.013349494656257656
7.61550e-06;0.01333852963118922
7.61575e-06;0.013329337211285566
7.61600e-06;0.013320144791381943
7.61625e-06;0.01331095237147832
7.61650e-06;0.013303277536872287
7.61675e-06;0.013296364329400916
7.61700e-06;0.013288676191667343
7.61725e-06;0.013280599141418534
7.61750e-06;0.01327252209116975
7.61775e-06;0.013262058776605372
7.61800e-06;0.013250397872913126
7.61825e-06;0.013238736969220882
7.61850e-06;0.013227076065528596
7.61875e-06;0.013215415161836351
7.61900e-06;0.013200130833891096
7.61925e-06;0.0131830280261308
7.61950e-06;0.013165925218370561
7.61975e-06;0.013148822410610323
7.62000e-06;0.013131719602850025
7.62025e-06;0.013110374196198838
7.62050e-06;0.013086899565943865
7.62075e-06;0.013063424935688815
7.62100e-06;0.013039950305433843
7.62125e-06;0.01301647567517887
7.62150e-06;0.01299300104492382
7.62175e-06;0.012968727037868078
7.62200e-06;0.012940432168527607
7.62225e-06;0.012912137299187231
7.62250e-06;0.012883842429846856
7.62275e-06;0.012855547560506383
7.62300e-06;0.012827252691166007
7.62325e-06;0.012798957821825632
7.62350e-06;0.012769974869363532
7.62375e-06;0.012740646590166316
7.62400e-06;0.0127113183109691
7.62425e-06;0.012682855291328404
7.62450e-06;0.012654826517563634
7.62475e-06;0.012626797743798865
7.62500e-06;0.012600440992144257
7.62525e-06;0.012574923374481508
7.62550e-06;0.01254940575681876
7.62575e-06;0.012526824033161741
7.62600e-06;0.012505715740054175
7.62625e-06;0.012484607446946535
7.62650e-06;0.012464328982410499
7.62675e-06;0.01244822455245024
7.62700e-06;0.012432120122489928
7.62725e-06;0.012416015692529668
7.62750e-06;0.012401595657342128
7.62775e-06;0.012388020965586671
7.62800e-06;0.01237444627383126
7.62825e-06;0.012360871582075848
7.62850e-06;0.012347296890320391
7.62875e-06;0.01233372219856498
7.62900e-06;0.012320147506809568
7.62925e-06;0.012307823930409892
7.62950e-06;0.012296128248471806
7.62975e-06;0.01228443256653368
7.63000e-06;0.012272736884595634
7.63025e-06;0.012261041202657507
7.63050e-06;0.012249345520719383
7.63075e-06;0.012237649838781336
7.63100e-06;0.012226398615949858
7.63125e-06;0.012215370452814806
7.63150e-06;0.012204342289679829
7.63175e-06;0.012193314126544777
7.63200e-06;0.012182285963409726
7.63225e-06;0.012171257800274749
7.63250e-06;0.012160229637139697
7.63275e-06;0.012149201474004645
7.63300e-06;0.012138173310869593
7.63325e-06;0.012127145147734617
7.63350e-06;0.012117652313889718
7.63375e-06;0.012108930012317156
7.63400e-06;0.012100207710744654
7.63425e-06;0.012091485409172093
7.63450e-06;0.012082763107599532
7.63475e-06;0.01207404080602703
7.63500e-06;0.012065318504454468
7.63525e-06;0.012056596202881907
7.63550e-06;0.012047873901309404
7.63575e-06;0.012039151599736843
7.63600e-06;0.012032337685373096
7.63625e-06;0.012026481529023953
7.63650e-06;0.012021862491271528
7.63675e-06;0.01201786432345869
7.63700e-06;0.012017388067961845
7.63725e-06;0.012018679346711553
7.63750e-06;0.012026114567752239
7.63775e-06;0.01203663323535078
7.63800e-06;0.012047151902949393
7.63825e-06;0.012065758142941845
7.63850e-06;0.01208842327477882
7.63875e-06;0.01211108840661595
7.63900e-06;0.01213375353845308
7.63925e-06;0.012167050293879975
7.63950e-06;0.012205682718428243
7.63975e-06;0.012244315142976511
7.64000e-06;0.01228294756752452
7.64025e-06;0.012333697207394901
7.64050e-06;0.012390528086982294
7.64075e-06;0.012447358966569302
7.64100e-06;0.012504189846156696
7.64125e-06;0.012561020725744089
7.64150e-06;0.012617851605331482
7.64175e-06;0.012677250698523799
7.64200e-06;0.01274956789644269
7.64225e-06;0.012821885094361583
7.64250e-06;0.012894202292279984
7.64275e-06;0.012966519490198876
7.64300e-06;0.013038836688117767
7.64325e-06;0.01311115388603617
7.64350e-06;0.013186418671455308
7.64375e-06;0.013263162756012206
7.64400e-06;0.013339906840568582
7.64425e-06;0.013415426415423428
7.64450e-06;0.013490331448336317
7.64475e-06;0.0135652364812487
7.64500e-06;0.013636786721375613
7.64525e-06;0.013706653299159833
7.64550e-06;0.013776519876943581
7.64575e-06;0.013840676485786406
7.64600e-06;0.013901967445303566
7.64625e-06;0.013963258404820312
7.64650e-06;0.014016042494522067
7.64675e-06;0.014064557260519795
7.64700e-06;0.014113072026517194
7.64725e-06;0.014147290827776951
7.64750e-06;0.014174334945227738
7.64775e-06;0.014201379062678344
7.64800e-06;0.01422842318012913
7.64825e-06;0.014255467297579918
7.64850e-06;0.014263512745999699
7.64875e-06;0.01426202337493837
7.64900e-06;0.014260534003877045
7.64925e-06;0.014259044632815727
7.64950e-06;0.0142575552617544
7.64975e-06;0.014241353295003744
7.65000e-06;0.014217767550801555
7.65025e-06;0.014194181806599523
7.65050e-06;0.014162350465415157
7.65075e-06;0.014126380924938358
7.65100e-06;0.014084425156706146
7.65125e-06;0.014039465093755296
7.65150e-06;0.013989298900890674
7.65175e-06;0.013936519919264997
