Time(s);Current(A)
7.05000e-06;-0.0012773864449377636
7.05025e-06;-0.0012369945774229271
7.05050e-06;-0.0011936431923981645
7.05075e-06;-0.0011454147304819167
7.05100e-06;-0.0010971862685655051
7.05125e-06;-0.0010462558414261784
7.05150e-06;-0.0009908727654661979
7.05175e-06;-0.0009354896895060298
7.05200e-06;-0.0008783355559661584
7.05225e-06;-0.000818262843986809
7.05250e-06;-0.000758190132007256
7.05275e-06;-0.0006974028697882736
7.05300e-06;-0.0006354380789858245
7.05325e-06;-0.0005734732881831656
7.05350e-06;-0.0005120087565556365
7.05375e-06;-0.0004513686168949435
7.05400e-06;-0.0003907284772344559
7.05425e-06;-0.000331035482830453
7.05450e-06;-0.00027360613076113865
7.05475e-06;-0.00021819108972870186
7.05500e-06;-0.00016519680911446049
7.05525e-06;-0.00011503052039625475
7.05550e-06;-6.809940071442835e-05
7.05575e-06;-2.4752287483123566e-05
7.05600e-06;1.4997210911981951e-05
7.05625e-06;5.168274135983375e-05
7.05650e-06;8.59021602785459e-05
7.05675e-06;0.00011777141791533939
7.05700e-06;0.0001471129361051943
7.05725e-06;0.00017373140194427321
7.05750e-06;0.0001974315542733648
7.05775e-06;0.00021805469566666397
7.05800e-06;0.00023565211891732527
7.05825e-06;0.0002506179058458264
7.05850e-06;0.00026338632054360663
7.05875e-06;0.00027408972895247204
7.05900e-06;0.0002826766460404573
7.05925e-06;0.0002890844662164489
7.05950e-06;0.00029325065247030673
7.05975e-06;0.00029513555913504894
7.06000e-06;0.0002948311001785199
7.06025e-06;0.0002926438485052047
7.06050e-06;0.0002889055487159279
7.06075e-06;0.0002837588459540215
7.06100e-06;0.0002769767203981604
7.06125e-06;0.00026892371961461265
7.06150e-06;0.00025987545792133677
7.06175e-06;0.0002491870761860651
7.06200e-06;0.00023772099814090694
7.06225e-06;0.0002249733312259596
7.06250e-06;0.00021178943324712512
7.06275e-06;0.00019788665712922287
7.06300e-06;0.000183631226760026
7.06325e-06;0.00016879464696596184
7.06350e-06;0.00015395806717189767
7.06375e-06;0.0001390041713547997
7.06400e-06;0.00012385694697571718
7.06425e-06;0.00010870972259663467
7.06450e-06;9.381960536240505e-05
7.06475e-06;7.957301416344396e-05
7.06500e-06;6.594816240908508e-05
7.06525e-06;5.305001258012086e-05
7.06550e-06;4.098351899132745e-05
7.06575e-06;2.9798380423867695e-05
7.06600e-06;1.9237311115572323e-05
7.06625e-06;8.574455938541444e-06
7.06650e-06;-2.8899531939665004e-06
7.06675e-06;-1.5332062968969863e-05
7.06700e-06;-2.8629902844256702e-05
7.06725e-06;-4.2644086755601394e-05
7.06750e-06;-5.7235240135443394e-05
7.06775e-06;-7.229861070961861e-05
7.06800e-06;-8.79217340355485e-05
7.06825e-06;-0.00010448563153166668
7.06850e-06;-0.00012235495383343918
7.06875e-06;-0.0001415663259144192
7.06900e-06;-0.00016196964015313946
7.06925e-06;-0.00018340388866399472
7.06950e-06;-0.00020583387310949434
7.06975e-06;-0.00022895022345806754
7.07000e-06;-0.0002526830929369618
7.07025e-06;-0.00027743194261955557
7.07050e-06;-0.00030293398381147886
7.07075e-06;-0.00032967723168369735
7.07100e-06;-0.0003570306027447021
7.07125e-06;-0.00038538941394685073
7.07150e-06;-0.0004137482251490954
7.07175e-06;-0.00044252068515235083
7.07200e-06;-0.0004719748093124618
7.07225e-06;-0.0005014289334726725
7.07250e-06;-0.0005308830576327834
7.07275e-06;-0.0005603371817928944
7.07300e-06;-0.0005895067842800423
7.07325e-06;-0.000618207515043418
7.07350e-06;-0.0006469082458067938
7.07375e-06;-0.0006756089765702668
7.07400e-06;-0.0007043097073336426
7.07425e-06;-0.0007319144109264461
7.07450e-06;-0.0007577129387608497
7.07475e-06;-0.0007835114665951658
7.07500e-06;-0.0008079074779123082
7.07525e-06;-0.0008299922405650981
7.07550e-06;-0.0008520770032178131
7.07575e-06;-0.0008725885212683528
7.07600e-06;-0.0008905074427674482
7.07625e-06;-0.0009084263642665434
7.07650e-06;-0.0009263452857656994
7.07675e-06;-0.0009442642072647946
7.07700e-06;-0.00096218312876389
7.07725e-06;-0.0009789913442853433
7.07750e-06;-0.0009956447254040584
7.07775e-06;-0.0010122981065227735
7.07800e-06;-0.001028951487641545
7.07825e-06;-0.0010456048687602602
7.07850e-06;-0.0010626470533199644
7.07875e-06;-0.0010803299586289266
7.07900e-06;-0.0010980128639378288
7.07925e-06;-0.001115695769246731
7.07950e-06;-0.0011333786745556932
7.07975e-06;-0.0011510615798645955
7.08000e-06;-0.0011687444851735578
7.08025e-06;-0.00118642739048246
7.08050e-06;-0.0012041102957913623
7.08075e-06;-0.0012217932011003244
7.08100e-06;-0.0012394761064092267
7.08125e-06;-0.0012572418611155169
7.08150e-06;-0.0012751441458068572
7.08175e-06;-0.0012930464304981369
7.08200e-06;-0.0013109487151894163
7.08225e-06;-0.0013288509998807567
7.08250e-06;-0.0013467532845720363
7.08275e-06;-0.0013646555692633157
7.08300e-06;-0.001382557853954656
7.08325e-06;-0.0014004601386459355
7.08350e-06;-0.0014183624233372152
7.08375e-06;-0.0014362647080285555
7.08400e-06;-0.0014524516176041794
7.08425e-06;-0.001465811709530458
7.08450e-06;-0.0014791718014566916
7.08475e-06;-0.0014925318933829252
7.08500e-06;-0.0015058919853092039
7.08525e-06;-0.0015192520772354375
7.08550e-06;-0.001532612169161671
7.08575e-06;-0.0015459722610879497
7.08600e-06;-0.0015593323530141833
7.08625e-06;-0.0015726924449404169
7.08650e-06;-0.0015826223432856912
7.08675e-06;-0.0015920740665020885
7.08700e-06;-0.0016015257897184858
7.08725e-06;-0.001610977512934915
7.08750e-06;-0.0016204292361513123
7.08775e-06;-0.0016298809593677096
7.08800e-06;-0.001639332682584139
7.08825e-06;-0.0016487844058005363
7.08850e-06;-0.0016582361290169657
7.08875e-06;-0.001667680896027883
7.08900e-06;-0.0016771141997009899
7.08925e-06;-0.0016865475033741287
7.08950e-06;-0.0016959808070472356
7.08975e-06;-0.0017054141107203423
7.09000e-06;-0.0017148474143934811
7.09025e-06;-0.001724280718066588
7.09050e-06;-0.001733714021739695
7.09075e-06;-0.0017431473254128338
7.09100e-06;-0.0017525806290859408
7.09125e-06;-0.0017620139327590477
7.09150e-06;-0.0017714472364321865
7.09175e-06;-0.0017808805401052935
7.09200e-06;-0.0017899449498705417
7.09225e-06;-0.0017984014483983265
7.09250e-06;-0.0018068579469260827
7.09275e-06;-0.0018153144454538673
7.09300e-06;-0.0018237709439816235
7.09325e-06;-0.0018322274425093797
7.09350e-06;-0.0018406839410371643
7.09375e-06;-0.0018491404395649205
7.09400e-06;-0.0018575969380926764
7.09425e-06;-0.0018660534366204613
7.09450e-06;-0.0018745099351482174
7.09475e-06;-0.0018829664336759734
7.09500e-06;-0.0018914229322037582
7.09525e-06;-0.0018988973583729325
7.09550e-06;-0.0019047533983067928
7.09575e-06;-0.001910609438240673
7.09600e-06;-0.0019144230121121567
7.09625e-06;-0.001914870745439903
7.09650e-06;-0.0019114831339996905
7.09675e-06;-0.0019017751438972206
7.09700e-06;-0.0018883726717872104
7.09725e-06;-0.0018688819529456577
7.09750e-06;-0.0018460370605228006
7.09775e-06;-0.0018176647257406703
7.09800e-06;-0.0017854344703393237
7.09825e-06;-0.0017468466328593151
7.09850e-06;-0.0017036365052361454
7.09875e-06;-0.0016528091682728792
7.09900e-06;-0.00159787959909225
7.09925e-06;-0.001536189839487408
7.09950e-06;-0.0014710427212517947
7.09975e-06;-0.0014001981189463524
7.10000e-06;-0.0013260123346153397
7.10025e-06;-0.001246320517097016
7.10050e-06;-0.0011632404753705505
7.10075e-06;-0.0010745768782446901
7.10100e-06;-0.0009832825129923745
7.10125e-06;-0.0008876528267351799
7.10150e-06;-0.0007902279756104757
7.10175e-06;-0.0006898448189327676
7.10200e-06;-0.0005881707500184285
7.10225e-06;-0.00048436934845357704
7.10250e-06;-0.0003796431796419917
7.10275e-06;-0.0002733930593923653
7.10300e-06;-0.00016714293914309885
7.10325e-06;-6.107046902945119e-05
7.10350e-06;4.421890743003662e-05
7.10375e-06;0.00014798697687032133
7.10400e-06;0.0002497123991079252
7.10425e-06;0.00034901893100254
7.10450e-06;0.0004455084720814317
7.10475e-06;0.000538601982143329
7.10500e-06;0.0006276202041589307
7.10525e-06;0.0007118781982083244
7.10550e-06;0.000790691195126082
7.10575e-06;0.0008634822335879237
7.10600e-06;0.0009302911215290563
7.10625e-06;0.0009921567479696557
7.10650e-06;0.0010502157656103587
7.10675e-06;0.0011039221747341063
7.10700e-06;0.0011540085863817745
7.10725e-06;0.0012007257885349094
7.10750e-06;0.0012418907702018618
7.10775e-06;0.0012794309098773792
7.10800e-06;0.0013109975646750226
7.10825e-06;0.001339877495328685
7.10850e-06;0.0013643298933942454
7.10875e-06;0.0013864401622960111
7.10900e-06;0.0014046907669218024
7.10925e-06;0.001419727401256496
7.10950e-06;0.001429467638403112
7.10975e-06;0.0014392078755497612
7.11000e-06;0.0014455775329700875
7.11025e-06;0.001446392711858627
7.11050e-06;0.0014472078907471692
7.11075e-06;0.0014456588848690865
7.11100e-06;0.0014402138686314897
7.11125e-06;0.0014347688523938746
7.11150e-06;0.001426363622536865
7.11175e-06;0.0014130801686551245
7.11200e-06;0.001399796714773339
7.11225e-06;0.0013865132608915985
7.11250e-06;0.001373229807009858
7.11275e-06;0.0013599463531280723
7.11300e-06;0.0013449976059745458
7.11325e-06;0.0013273045725326446
7.11350e-06;0.0013096115390906834
7.11375e-06;0.0012919185056487821
7.11400e-06;0.001274225472206821
7.11425e-06;0.0012565324387649199
7.11450e-06;0.0012413150421231596
7.11475e-06;0.001230177320959868
7.11500e-06;0.0012190395997966142
7.11525e-06;0.0012079018786333605
7.11550e-06;0.001196764157470069
7.11575e-06;0.001185626436306815
7.11600e-06;0.0011744887151435613
7.11625e-06;0.0011633509939802697
7.11650e-06;0.001152213272817016
7.11675e-06;0.0011410755516537622
7.11700e-06;0.0011299378304904706
7.11725e-06;0.0011188001093272169
7.11750e-06;0.001107662388163963
7.11775e-06;0.0010965246670006715
7.11800e-06;0.0010980152096941487
7.11825e-06;0.0011012661549846417
7.11850e-06;0.0011045171002751237
7.11875e-06;0.0011077680455656056
7.11900e-06;0.0011110189908560986
7.11925e-06;0.0011142699361465808
7.11950e-06;0.0011175208814370628
7.11975e-06;0.0011207718267275558
7.12000e-06;0.0011240227720180377
7.12025e-06;0.0011272737173085197
7.12050e-06;0.001130524662599013
7.12075e-06;0.0011337756078894949
7.12100e-06;0.0011370265531799768
7.12125e-06;0.0011431080130959212
7.12150e-06;0.0011538539622078
7.12175e-06;0.001164599911319679
7.12200e-06;0.0011753458604315942
7.12225e-06;0.001186091809543473
7.12250e-06;0.0011968377586553884
7.12275e-06;0.0012075837077672672
7.12300e-06;0.0012183296568791461
7.12325e-06;0.0012291959702303411
7.12350e-06;0.0012402606353895517
7.12375e-06;0.0012513253005487623
7.12400e-06;0.0012623899657080103
7.12425e-06;0.001273454630867221
7.12450e-06;0.0012845192960264315
7.12475e-06;0.0012955839611856796
7.12500e-06;0.0013066486263448901
7.12525e-06;0.0013151758150852931
7.12550e-06;0.0013195214210021435
7.12575e-06;0.0013238670269189795
7.12600e-06;0.0013282126328358153
7.12625e-06;0.0013325582387526658
7.12650e-06;0.0013369038446695016
7.12675e-06;0.0013412494505863522
7.12700e-06;0.001345595056503188
7.12725e-06;0.0013499406624200238
7.12750e-06;0.0013402897666686252
7.12775e-06;0.0013286877335198293
7.12800e-06;0.0013170857003710333
7.12825e-06;0.0013054836672221981
7.12850e-06;0.0012938816340734023
7.12875e-06;0.0012822796009246062
7.12900e-06;0.001270677567775771
7.12925e-06;0.0012590755346269752
7.12950e-06;0.0012432613813235442
7.12975e-06;0.001220505950001707
7.13000e-06;0.0011977505186799471
7.13025e-06;0.0011731190128662207
7.13050e-06;0.0011453958681262606
7.13075e-06;0.0011176727233863943
7.13100e-06;0.0010880884587990784
7.13125e-06;0.0010554371994892222
7.13150e-06;0.0010227859401793662
7.13175e-06;0.0009901346808693994
7.13200e-06;0.0009574834215595432
7.13225e-06;0.000924832162249687
7.13250e-06;0.000889968937278852
7.13275e-06;0.0008547973603338994
7.13300e-06;0.0008196257833889466
7.13325e-06;0.0007844542064438748
7.13350e-06;0.0007492826294989222
7.13375e-06;0.0007147067170331618
7.13400e-06;0.0006811124177700375
7.13425e-06;0.000647518118507027
7.13450e-06;0.0006148673374172713
7.13475e-06;0.0005837714079733297
7.13500e-06;0.0005538113384127636
7.13525e-06;0.0005257230861197225
7.13550e-06;0.0004991156184253942
7.13575e-06;0.0004749483796907317
7.13600e-06;0.00045209036447241356
7.13625e-06;0.0004323277556310809
7.13650e-06;0.0004150688805747631
7.13675e-06;0.00040036241352638525
7.13700e-06;0.00038824887413954287
7.13725e-06;0.00037876873485118384
7.13750e-06;0.00037196243899446154
7.13775e-06;0.0003678694995232947
7.13800e-06;0.0003665189682413992
7.13825e-06;0.0003679068788057812
7.13850e-06;0.0003719858694349321
7.13875e-06;0.00037868352241789886
7.13900e-06;0.00038792228703771507
7.13925e-06;0.00039962463068997904
7.13950e-06;0.0004137129877969422
7.13975e-06;0.00043051792829924905
7.14000e-06;0.000449402094210253
7.14025e-06;0.00046982325902940336
7.14050e-06;0.0004927772900395617
7.14075e-06;0.0005170476063892242
7.14100e-06;0.0005434870684792249
7.14125e-06;0.0005712381245133933
7.14150e-06;0.0006011505951980905
7.14175e-06;0.0006310630658828891
7.14200e-06;0.0006622436414060375
7.14225e-06;0.0006955139645894251
7.14250e-06;0.0007287842877729253
7.14275e-06;0.0007620546109563128
7.14300e-06;0.0007953249341397003
7.14325e-06;0.000828603126996778
7.14350e-06;0.0008618942885227725
7.14375e-06;0.0008951854500488798
7.14400e-06;0.0009284766115748744
7.14425e-06;0.000961767773100869
7.14450e-06;0.000993711979176405
7.14475e-06;0.0010234364973240129
7.14500e-06;0.0010531610154716205
7.14525e-06;0.0010809363898672938
7.14550e-06;0.001105499712331919
7.14575e-06;0.0011300630347965438
7.14600e-06;0.0011521621016071166
7.14625e-06;0.0011702002482705737
7.14650e-06;0.0011856167824455556
7.14675e-06;0.0011967130834685102
7.14700e-06;0.0012051588432587153
7.14725e-06;0.00120923669735933
7.14750e-06;0.0012106812663550404
7.14775e-06;0.00120778636654717
7.14800e-06;0.00120211982485921
7.14825e-06;0.001191885812125065
7.14850e-06;0.0011787798081815584
7.14875e-06;0.0011609409645490084
7.14900e-06;0.001140451184001824
7.14925e-06;0.0011155928457091359
7.14950e-06;0.0010883334875935683
7.14975e-06;0.0010571174175376067
7.15000e-06;0.0010236527531241853
7.15025e-06;0.0009864825632255982
7.15050e-06;0.000947240044270177
7.15075e-06;0.000904582472658251
7.15100e-06;0.0008598894143716513
7.15125e-06;0.0008118420170859515
7.15150e-06;0.0007637946198002516
7.15175e-06;0.0007140530591171089
7.15200e-06;0.0006615196362099154
7.15225e-06;0.0006089862133025439
7.15250e-06;0.0005555529291261398
7.15275e-06;0.0005006367368143462
7.15300e-06;0.0004457205445023666
7.15325e-06;0.00039095907480923636
7.15350e-06;0.00033645257711878223
7.15375e-06;0.00028194607942814347
7.15400e-06;0.00022809090164236666
7.15425e-06;0.00017580988766885067
7.15450e-06;0.00012497700314793452
7.15475e-06;7.592862322227521e-05
7.15500e-06;2.9024037259613555e-05
7.15525e-06;-1.5376240052787798e-05
7.15550e-06;-5.691174720370132e-05
7.15575e-06;-9.528798037886221e-05
7.15600e-06;-0.00013058558862851522
7.15625e-06;-0.0001634860879361181
7.15650e-06;-0.0001947126925438155
7.15675e-06;-0.00022442002289779615
7.15700e-06;-0.0002524238253987383
7.15725e-06;-0.00027851958743010664
7.15750e-06;-0.00030250282934859854
7.15775e-06;-0.00032421040866197293
7.15800e-06;-0.00034371416983680354
7.15825e-06;-0.00036146232835326255
7.15850e-06;-0.0003779291826115067
7.15875e-06;-0.000392982897013216
7.15900e-06;-0.00040686725768239673
7.15925e-06;-0.00041967101105047676
7.15950e-06;-0.0004306939995245106
7.15975e-06;-0.0004405790947495002
7.16000e-06;-0.000448589021863972
7.16025e-06;-0.00045585195098923545
7.16050e-06;-0.000461883879922461
7.16075e-06;-0.00046715260622668797
7.16100e-06;-0.00047116362823129725
7.16125e-06;-0.0004751746502359066
7.16150e-06;-0.0004781781341991033
7.16175e-06;-0.0004795212662734047
7.16200e-06;-0.0004808643983477061
7.16225e-06;-0.0004815827010548881
7.16250e-06;-0.00048127132887410836
7.16275e-06;-0.00048095995669332855
7.16300e-06;-0.00048006511489636684
7.16325e-06;-0.00047820875617451497
7.16350e-06;-0.0004763523974526631
7.16375e-06;-0.0004744960387308049
7.16400e-06;-0.000472639680008953
7.16425e-06;-0.00047078332128710115
7.16450e-06;-0.000468926962565243
7.16475e-06;-0.0004670706038433911
7.16500e-06;-0.00046489680254166985
7.16525e-06;-0.0004626787491759222
7.16550e-06;-0.00046046069581017455
7.16575e-06;-0.0004582426424444194
7.16600e-06;-0.00045602458907867177
7.16625e-06;-0.0004538065357129241
7.16650e-06;-0.000451588482347169
7.16675e-06;-0.0004481240671078753
7.16700e-06;-0.0004426057350875992
7.16725e-06;-0.00043708740306730437
7.16750e-06;-0.00043156907104702826
7.16775e-06;-0.0004260507390267521
7.16800e-06;-0.0004205324070064573
7.16825e-06;-0.00041501407498618117
7.16850e-06;-0.00040949574296590506
7.16875e-06;-0.00040397741094561025
7.16900e-06;-0.00039661145445039946
7.16925e-06;-0.0003862007426602396
7.16950e-06;-0.00037579003087011504
7.16975e-06;-0.00036537931907999044
7.17000e-06;-0.0003549686072898306
7.17025e-06;-0.000344557895499706
7.17050e-06;-0.0003341471837095814
7.17075e-06;-0.0003237364719194216
7.17100e-06;-0.000313325760129297
7.17125e-06;-0.00030191272707053875
7.17150e-06;-0.00028884793899812454
7.17175e-06;-0.0002757831509257545
7.17200e-06;-0.00026271836285338455
7.17225e-06;-0.0002496535747809703
7.17250e-06;-0.00023643298585668965
7.17275e-06;-0.00022295564807721241
7.17300e-06;-0.00020947831029768954
7.17325e-06;-0.00019600097251821228
7.17350e-06;-0.00018252363473868937
7.17375e-06;-0.00016934300307091794
7.17400e-06;-0.00015665132222449256
7.17425e-06;-0.00014395964137802416
7.17450e-06;-0.00013163237074940512
7.17475e-06;-0.00011990562255113433
7.17500e-06;-0.00010848436277111778
7.17525e-06;-9.78137149720485e-05
7.17550e-06;-8.78302378105588e-05
7.17575e-06;-7.866564339036402e-05
7.17600e-06;-7.069678364553475e-05
7.17625e-06;-6.465392356954963e-05
7.17650e-06;-6.119256584654298e-05
7.17675e-06;-6.049784204040622e-05
7.17700e-06;-6.249821445866844e-05
7.17725e-06;-6.710752024386797e-05
7.17750e-06;-7.423958844957086e-05
7.17775e-06;-8.383662263281811e-05
7.17800e-06;-9.599435526989711e-05
7.17825e-06;-0.00011102988320645739
7.17850e-06;-0.0001292134373792594
7.17875e-06;-0.00015052057277533984
7.17900e-06;-0.0001747660954633314
7.17925e-06;-0.00020175566461545622
7.17950e-06;-0.00023129492291690737
7.17975e-06;-0.00026320729157018765
7.18000e-06;-0.00029741240454024727
7.18025e-06;-0.00033396853838607045
7.18050e-06;-0.00037290458854985644
7.18075e-06;-0.0004144056312195607
7.18100e-06;-0.00045775456432398635
7.18125e-06;-0.0005022686927296464
7.18150e-06;-0.0005487029811086086
7.18175e-06;-0.0005963250552948439
7.18200e-06;-0.0006459045170210427
7.18225e-06;-0.0006954839787470736
7.18250e-06;-0.0007450634404731046
7.18275e-06;-0.0007946429021993035
7.18300e-06;-0.0008448837707483561
7.18325e-06;-0.0008952168405927535
7.18350e-06;-0.0009455499104373213
7.18375e-06;-0.0009958829802817187
7.18400e-06;-0.0010449152922478258
7.18425e-06;-0.0010918040466406484
7.18450e-06;-0.001138692801033312
7.18475e-06;-0.0011834843093988363
7.18500e-06;-0.0012248197036945296
7.18525e-06;-0.001266155097990083
7.18550e-06;-0.0013049132474621025
7.18575e-06;-0.0013394242785795098
7.18600e-06;-0.001371217854255008
7.18625e-06;-0.0013985332543302678
7.18650e-06;-0.0014227477392263024
7.18675e-06;-0.0014418521338223724
7.18700e-06;-0.0014577793565419858
7.18725e-06;-0.0014684708232832497
7.18750e-06;-0.001475932954082602
7.18775e-06;-0.0014780733661897195
7.18800e-06;-0.0014768903799714905
7.18825e-06;-0.001470230666863398
7.18850e-06;-0.0014602712743623022
7.18875e-06;-0.0014448742421051327
7.18900e-06;-0.0014263936387258868
7.18925e-06;-0.001402831526834001
7.18950e-06;-0.0013764170759329648
7.18975e-06;-0.0013453021707916708
7.19000e-06;-0.0013115398239244192
7.19025e-06;-0.0012734146791410117
7.19050e-06;-0.0012324113807671607
7.19075e-06;-0.0011866650875377994
7.19100e-06;-0.001140918794308438
7.19125e-06;-0.0010925247662553093
7.19150e-06;-0.001039767457281689
7.19175e-06;-0.0009870101483080687
7.19200e-06;-0.0009323451011285618
7.19225e-06;-0.0008745362354519278
7.19250e-06;-0.0008167273697752938
7.19275e-06;-0.0007589185040984638
7.19300e-06;-0.00070067927663896
7.19325e-06;-0.0006417308432048349
7.19350e-06;-0.0005827824097705101
7.19375e-06;-0.000523833976336385
7.19400e-06;-0.0004658480364053233
