Time(s);Current(A)
9.80000e-06;-0.003909158569397208
9.80025e-06;-0.003940984955872894
9.80050e-06;-0.0039731619925133495
9.80075e-06;-0.004005673649537399
9.80100e-06;-0.004038400887361381
9.80125e-06;-0.004071149272105297
9.80150e-06;-0.0041037145640546455
9.80175e-06;-0.004135891686651948
9.80200e-06;-0.004167476400183359
9.80225e-06;-0.004198317612239998
9.80250e-06;-0.004228353064888858
9.80275e-06;-0.004257511156490069
9.80300e-06;-0.004285633517129233
9.80325e-06;-0.004312514992611049
9.80350e-06;-0.004337944451658566
9.80375e-06;-0.004361709088186621
9.80400e-06;-0.004383589300149405
9.80425e-06;-0.004403034781281111
9.80450e-06;-0.004418977473963539
9.80475e-06;-0.00443050787337843
9.80500e-06;-0.004437348756447005
9.80525e-06;-0.004437738575948654
9.80550e-06;-0.004436747881559904
9.80575e-06;-0.004426883248004522
9.80600e-06;-0.004414793439222526
9.80625e-06;-0.004402703630440529
9.80650e-06;-0.004378812762673864
9.80675e-06;-0.0043519627328477
9.80700e-06;-0.004325112703021536
9.80725e-06;-0.004286557296460441
9.80750e-06;-0.004245066720540892
9.80775e-06;-0.004203576144621344
9.80800e-06;-0.004152162909885643
9.80825e-06;-0.0040982615293367695
9.80850e-06;-0.004044360148787895
9.80875e-06;-0.003981283758855714
9.80900e-06;-0.003915906699152641
9.80925e-06;-0.00385052963944957
9.80950e-06;-0.0037791980971315217
9.80975e-06;-0.003706373444824786
9.81000e-06;-0.0036302575278999924
9.81025e-06;-0.003553316313398656
9.81050e-06;-0.003474435764896593
9.81075e-06;-0.0033940221867231214
9.81100e-06;-0.0033126393158242943
9.81125e-06;-0.003230757722101693
9.81150e-06;-0.0031488591788343336
9.81175e-06;-0.0030674252264722515
9.81200e-06;-0.002986935869569175
9.81225e-06;-0.0029078208504505427
9.81250e-06;-0.0028304298283684725
9.81275e-06;-0.0027551366579575266
9.81300e-06;-0.0026824131874821073
9.81325e-06;-0.002612780428964459
9.81350e-06;-0.002546766954083134
9.81375e-06;-0.0024849013350767197
9.81400e-06;-0.0024277072575486286
9.81425e-06;-0.002375495724522872
9.81450e-06;-0.002328157433989224
9.81475e-06;-0.0022854647399759543
9.81500e-06;-0.002247409775975414
9.81525e-06;-0.0022141333956270785
9.81550e-06;-0.0021857996978565998
9.81575e-06;-0.002164691054567293
9.81600e-06;-0.002145143990709976
9.81625e-06;-0.0021339473438785573
9.81650e-06;-0.0021248445970342964
9.81675e-06;-0.0021251094650870353
9.81700e-06;-0.00212772329950292
9.81725e-06;-0.002130337133918787
9.81750e-06;-0.0021418320433362775
9.81775e-06;-0.0021555539173200647
9.81800e-06;-0.002174448217347778
9.81825e-06;-0.0021979334874213776
9.81850e-06;-0.0022252585366184636
9.81875e-06;-0.0022560621579904056
9.81900e-06;-0.0022900696041628726
9.81925e-06;-0.002327064600251839
9.81950e-06;-0.00236683955467998
9.81975e-06;-0.0024091873409695748
9.82000e-06;-0.0024538994834610887
9.82025e-06;-0.002500715196592902
9.82050e-06;-0.0025492703876930324
9.82075e-06;-0.002599172182039221
9.82100e-06;-0.0026500812655828074
9.82125e-06;-0.0027016954101131774
9.82150e-06;-0.002753717849917186
9.82175e-06;-0.0028058519120760642
9.82200e-06;-0.0028578000395882634
9.82225e-06;-0.0029092324238765765
9.82250e-06;-0.0029597540789400973
9.82275e-06;-0.0030089519654622207
9.82300e-06;-0.0030564471071796704
9.82325e-06;-0.003101883450938671
9.82350e-06;-0.0031449083049922056
9.82375e-06;-0.003185169303220207
9.82400e-06;-0.003222313428249576
9.82425e-06;-0.003255984311405646
9.82450e-06;-0.003285864813212374
9.82475e-06;-0.003310118403275357
9.82500e-06;-0.0033331546671583148
9.82525e-06;-0.0033478599979501825
9.82550e-06;-0.0033604763144276686
9.82575e-06;-0.0033730926309050694
9.82600e-06;-0.0033753757608353634
9.82625e-06;-0.0033750678035040227
9.82650e-06;-0.0033747598461726837
9.82675e-06;-0.00336415450557422
9.82700e-06;-0.0033509670555278495
9.82725e-06;-0.0033377796054815684
9.82750e-06;-0.0033151384761547368
9.82775e-06;-0.0032901267994806488
9.82800e-06;-0.0032651151228065612
9.82825e-06;-0.0032316451228608556
9.82850e-06;-0.003196054165010638
9.82875e-06;-0.00316046320716042
9.82900e-06;-0.003117839107561435
9.82925e-06;-0.0030734514199429012
9.82950e-06;-0.0030290637323243676
9.82975e-06;-0.002980140197260668
9.83000e-06;-0.0029300792805686494
9.83025e-06;-0.0028773308840381842
9.83050e-06;-0.002823908591344097
9.83075e-06;-0.0027690186744170416
9.83100e-06;-0.002713116844341954
9.83125e-06;-0.002656669893897485
9.83150e-06;-0.002600002575713751
9.83175e-06;-0.002543439828012859
9.83200e-06;-0.0024873061239170198
9.83225e-06;-0.0024319259826643146
9.83250e-06;-0.002377629368587239
9.83275e-06;-0.0023247650980022993
9.83300e-06;-0.0022736977302816198
9.83325e-06;-0.0022247970921603277
9.83350e-06;-0.0021796263876481528
9.83375e-06;-0.0021352783200441474
9.83400e-06;-0.0020960962562313373
9.83425e-06;-0.002058209588234949
9.83450e-06;-0.002024333104793045
9.83475e-06;-0.0019914621909373135
9.83500e-06;-0.001962422569337239
9.83525e-06;-0.0019343436593738696
9.83550e-06;-0.0019062647494105002
9.83575e-06;-0.0018838523755769449
9.83600e-06;-0.0018628609080166138
9.83625e-06;-0.0018418694404562829
9.83650e-06;-0.0018266274915558882
9.83675e-06;-0.0018128272571256156
9.83700e-06;-0.0017990270226952495
9.83725e-06;-0.0017852267882648835
9.83750e-06;-0.0017736488755912987
9.83775e-06;-0.0017672683070223934
9.83800e-06;-0.0017608877384534883
9.83825e-06;-0.0017545071698846263
9.83850e-06;-0.0017481266013157212
9.83875e-06;-0.001745636707565555
9.83900e-06;-0.0017441224158643409
9.83925e-06;-0.0017426081241631165
9.83950e-06;-0.0017435686023445558
9.83975e-06;-0.0017451496388302802
9.84000e-06;-0.0017467306753160153
9.84025e-06;-0.0017504469089796785
9.84050e-06;-0.001754698551753208
9.84075e-06;-0.0017589501945267664
9.84100e-06;-0.0017642670624482633
9.84125e-06;-0.0017698510397749763
9.84150e-06;-0.001775435017101727
9.84175e-06;-0.0017817969246247665
9.84200e-06;-0.0017883539012113023
9.84225e-06;-0.0017949108777978826
9.84250e-06;-0.0018015179913868236
9.84275e-06;-0.0018081376770267164
9.84300e-06;-0.0018147573626666543
9.84325e-06;-0.0018206641472915954
9.84350e-06;-0.0018263921691765146
9.84375e-06;-0.0018321201910614726
9.84400e-06;-0.0018367069446099163
9.84425e-06;-0.0018410075206237106
9.84450e-06;-0.001845308096637534
9.84475e-06;-0.0018478400402525362
9.84500e-06;-0.0018499284923210089
9.84525e-06;-0.0018520169443894674
9.84550e-06;-0.0018510537479542238
9.84575e-06;-0.0018493253386260805
9.84600e-06;-0.0018475969292979489
9.84625e-06;-0.0018458685199698054
9.84650e-06;-0.001844140110641662
9.84675e-06;-0.0018424117013135304
9.84700e-06;-0.0018391407382550844
9.84725e-06;-0.0018322622046395615
9.84750e-06;-0.0018253836710240851
9.84775e-06;-0.0018185051374085622
9.84800e-06;-0.0018116266037930392
9.84825e-06;-0.0018047480701775629
9.84850e-06;-0.00179786953656204
9.84875e-06;-0.001787885222327097
9.84900e-06;-0.0017771221213578753
9.84925e-06;-0.0017663590203885805
9.84950e-06;-0.001755595919419286
9.84975e-06;-0.001744832818450064
9.85000e-06;-0.0017340697174807694
9.85025e-06;-0.001721803825019072
9.85050e-06;-0.001709161101666199
9.85075e-06;-0.0016965183783132403
9.85100e-06;-0.0016838756549602816
9.85125e-06;-0.0016712329316074083
9.85150e-06;-0.0016585902082544496
9.85175e-06;-0.0016458581473406692
9.85200e-06;-0.0016331036846813965
9.85225e-06;-0.0016206814572260837
9.85250e-06;-0.001608342539057986
9.85275e-06;-0.0015965462081212285
9.85300e-06;-0.0015848859330717209
9.85325e-06;-0.0015737888616136591
9.85350e-06;-0.0015632958832125137
9.85375e-06;-0.0015534476430224724
9.85400e-06;-0.0015443330550803248
9.85425e-06;-0.0015363306680162999
9.85450e-06;-0.0015302854193173642
9.85475e-06;-0.0015269379959074378
9.85500e-06;-0.0015265045872788533
9.85525e-06;-0.0015289257067206033
9.85550e-06;-0.0015341027968528193
9.85575e-06;-0.0015429541803669191
9.85600e-06;-0.0015525893526855536
9.85625e-06;-0.0015666274907773798
9.85650e-06;-0.0015817696898950701
9.85675e-06;-0.0016034658283655017
9.85700e-06;-0.001626805392967082
9.85725e-06;-0.0016501449575686625
9.85750e-06;-0.0016793943127339454
9.85775e-06;-0.0017101255711821587
9.85800e-06;-0.0017438970214183212
9.85825e-06;-0.0017803480866902886
9.85850e-06;-0.00181929799261285
9.85875e-06;-0.0018607932368982204
9.85900e-06;-0.0019046743030791265
9.85925e-06;-0.0019506736824592844
9.85950e-06;-0.0019985082065780146
9.85975e-06;-0.0020478951023375678
9.86000e-06;-0.00209855338870734
9.86025e-06;-0.0021502726841545502
9.86050e-06;-0.002202957748677801
9.86075e-06;-0.0022564875406582874
9.86100e-06;-0.0023106120701584113
9.86125e-06;-0.002365013639723115
9.86150e-06;-0.002419365075620397
9.86175e-06;-0.0024733392507955546
9.86200e-06;-0.0025266097828028416
9.86225e-06;-0.002578895338600212
9.86250e-06;-0.002629986147965275
9.86275e-06;-0.002679656290904211
9.86300e-06;-0.00272759940607825
9.86325e-06;-0.0027734665416278216
9.86350e-06;-0.0028169030031254924
9.86375e-06;-0.0028575540033484686
9.86400e-06;-0.0028950788559663587
9.86425e-06;-0.0029297651491124064
9.86450e-06;-0.0029629824864219043
9.86475e-06;-0.0029960504892547622
9.86500e-06;-0.003029301633723242
9.86525e-06;-0.003062518788598742
9.86550e-06;-0.0030954051876064775
9.86575e-06;-0.0031272754255603757
9.86600e-06;-0.003158910474359378
9.86625e-06;-0.003189542441832476
9.86650e-06;-0.003220050769294806
9.86675e-06;-0.0032512851403601623
9.86700e-06;-0.0032836178674578737
9.86725e-06;-0.0033161823761865567
9.86750e-06;-0.0033492044936502684
9.86775e-06;-0.0033823413583087135
9.86800e-06;-0.0034154782229671586
9.86825e-06;-0.003448615087625379
9.86850e-06;-0.003482507714851111
9.86875e-06;-0.0035165898525202377
9.86900e-06;-0.003550671990189133
9.86925e-06;-0.0035857360498801343
9.86950e-06;-0.0036210463303894273
9.86975e-06;-0.0036564006359024
9.87000e-06;-0.0036915455766109682
9.87025e-06;-0.0037263818968915996
9.87050e-06;-0.0037610954914485935
9.87075e-06;-0.003795860512468503
9.87100e-06;-0.003830607712837638
9.87125e-06;-0.0038651333195429496
9.87150e-06;-0.0038992140479969426
9.87175e-06;-0.003932626241308346
9.87200e-06;-0.003965148941511922
9.87225e-06;-0.003996657945372564
9.87250e-06;-0.004027194611413627
9.87275e-06;-0.004056793703341862
9.87300e-06;-0.004084818036647954
9.87325e-06;-0.004112494382428446
9.87350e-06;-0.004137747956851707
9.87375e-06;-0.004162394011804877
9.87400e-06;-0.004184802144571784
9.87425e-06;-0.004205240681706242
9.87450e-06;-0.004224511075520443
9.87475e-06;-0.00424307543099078
9.87500e-06;-0.004261513988153661
9.87525e-06;-0.004278769423752398
9.87550e-06;-0.004295728186954429
9.87575e-06;-0.004312686950156461
9.87600e-06;-0.004327864174404988
9.87625e-06;-0.004342594670737037
9.87650e-06;-0.004356536191840347
9.87675e-06;-0.004370279874294283
9.87700e-06;-0.004384023556748313
9.87725e-06;-0.0043971495151667326
9.87750e-06;-0.004410120576847643
9.87775e-06;-0.004423091638528641
9.87800e-06;-0.004435675959206096
9.87825e-06;-0.004447355808660351
9.87850e-06;-0.004459035658114686
9.87875e-06;-0.004470715507569021
9.87900e-06;-0.004481575129597673
9.87925e-06;-0.004492229076365508
9.87950e-06;-0.0045028830231333425
9.87975e-06;-0.004513536969901178
9.88000e-06;-0.00452419091666894
9.88025e-06;-0.004534844863436776
9.88050e-06;-0.004545498810204611
9.88075e-06;-0.004556152756972374
9.88100e-06;-0.004566144892216364
9.88125e-06;-0.004574589248784083
9.88150e-06;-0.0045830336053517455
9.88175e-06;-0.004591477961919465
9.88200e-06;-0.004599922318487184
9.88225e-06;-0.004608366675054846
9.88250e-06;-0.004616811031622566
9.88275e-06;-0.0046252553881902855
9.88300e-06;-0.004633699744757947
9.88325e-06;-0.004640907262066388
9.88350e-06;-0.004647463978461348
9.88375e-06;-0.00465354733211033
9.88400e-06;-0.004659082547242103
9.88425e-06;-0.004663369923238326
9.88450e-06;-0.004664687315501475
9.88475e-06;-0.004661498822818474
9.88500e-06;-0.004653368263359218
9.88525e-06;-0.004638637001775645
9.88550e-06;-0.0046225009068478025
9.88575e-06;-0.0045995065912258805
9.88600e-06;-0.004574792549724764
9.88625e-06;-0.004542878512023355
9.88650e-06;-0.004509159046886827
9.88675e-06;-0.004464112838672121
9.88700e-06;-0.0044162264049714
9.88725e-06;-0.00436833997127068
9.88750e-06;-0.004308630016223731
9.88775e-06;-0.00424595526658112
9.88800e-06;-0.0041832805169385095
9.88825e-06;-0.004110514082255447
9.88850e-06;-0.004035217117759583
9.88875e-06;-0.003959920153263209
9.88900e-06;-0.0038763991691143896
9.88925e-06;-0.003790815979612611
9.88950e-06;-0.0037003803597637423
9.88975e-06;-0.0036087279738732585
9.89000e-06;-0.0035138285345237166
9.89025e-06;-0.0034181148837159783
9.89050e-06;-0.003320474743413645
9.89075e-06;-0.0032212372209882638
9.89100e-06;-0.003121003223201799
9.89125e-06;-0.003020351889936964
9.89150e-06;-0.00291988262062802
9.89175e-06;-0.0028201952798070735
9.89200e-06;-0.0027218868936077206
9.89225e-06;-0.00262545843136397
9.89250e-06;-0.002531253305757612
9.89275e-06;-0.00243964377537521
9.89300e-06;-0.002351171311664719
9.89325e-06;-0.0022664669014710397
9.89350e-06;-0.0021861748799812007
9.89375e-06;-0.002110938977808394
9.89400e-06;-0.002041398085044723
9.89425e-06;-0.001977945134632826
9.89450e-06;-0.0019204826895808625
9.89475e-06;-0.0018687659059277038
9.89500e-06;-0.0018227940483369774
9.89525e-06;-0.0017827354596638572
9.89550e-06;-0.0017487849027411912
9.89575e-06;-0.001721136861174345
9.89600e-06;-0.0016999823978106488
9.89625e-06;-0.0016853589042995002
9.89650e-06;-0.001679325037662167
9.89675e-06;-0.001675116740193431
9.89700e-06;-0.0016799849465431555
9.89725e-06;-0.0016871291220130551
9.89750e-06;-0.0017008821672557038
9.89775e-06;-0.001720605653045364
9.89800e-06;-0.001745652365728967
9.89825e-06;-0.001775836634293843
9.89850e-06;-0.0018107806759364944
9.89875e-06;-0.0018500486645753372
9.89900e-06;-0.0018933009330274796
9.89925e-06;-0.0019402637875089114
9.89950e-06;-0.001990673966299198
9.89975e-06;-0.002044268626659863
9.90000e-06;-0.0021007828784584373
9.90025e-06;-0.0021598919121985027
9.90050e-06;-0.0022211502935003276
9.90075e-06;-0.0022840765808847413
9.90100e-06;-0.002348249127122036
9.90125e-06;-0.0024132881230345933
9.90150e-06;-0.0024788201549479547
9.90175e-06;-0.002544471762510588
9.90200e-06;-0.002609868926912922
9.90225e-06;-0.0026745993281017066
9.90250e-06;-0.0027381757375165515
9.90275e-06;-0.002800088027146517
9.90300e-06;-0.002859863527206092
9.90325e-06;-0.002917056496382262
9.90350e-06;-0.002971224370860825
9.90375e-06;-0.00302192486521392
9.90400e-06;-0.003068717137115609
9.90425e-06;-0.0031112299196196717
9.90450e-06;-0.003149264933417122
9.90475e-06;-0.00318275171696499
9.90500e-06;-0.0032116234590961203
9.90525e-06;-0.0032338630176282127
9.90550e-06;-0.0032546722564046364
9.90575e-06;-0.0032656079805634458
9.90600e-06;-0.0032740678820006473
9.90625e-06;-0.0032825277834377916
9.90650e-06;-0.0032791733470405302
9.90675e-06;-0.003272856418847543
9.90700e-06;-0.0032665394906545983
9.90725e-06;-0.0032492846293560667
9.90750e-06;-0.0032292870382032344
9.90775e-06;-0.0032092894470505374
9.90800e-06;-0.003180843615877755
9.90825e-06;-0.0031502793552087025
9.90850e-06;-0.003113650068526243
9.90875e-06;-0.003075499952656304
9.90900e-06;-0.0030321330134378327
9.90925e-06;-0.002987457935195118
9.90950e-06;-0.002938393852598804
9.90975e-06;-0.002888229209855038
9.91000e-06;-0.002834508500940036
9.91025e-06;-0.0027798960944105497
9.91050e-06;-0.0027226999879162214
9.91075e-06;-0.0026648560084685333
9.91100e-06;-0.0026057700212993337
9.91125e-06;-0.0025459113105550484
9.91150e-06;-0.002485750033872619
9.91175e-06;-0.002425628452858793
9.91200e-06;-0.002365889526490686
9.91225e-06;-0.0023068868716626797
9.91250e-06;-0.002249000732897252
9.91275e-06;-0.0021926305930414117
9.91300e-06;-0.0021381768291299725
9.91325e-06;-0.002086035860637085
9.91350e-06;-0.0020366038252834064
9.91375e-06;-0.0019902760700632534
9.91400e-06;-0.0019474486393403735
9.91425e-06;-0.001908515577042832
9.91450e-06;-0.0018738158243534564
9.91475e-06;-0.0018435573697727153
9.91500e-06;-0.0018178404243123494
9.91525e-06;-0.0017967310275008553
9.91550e-06;-0.0017802912056463648
9.91575e-06;-0.00176858335708038
9.91600e-06;-0.001763615520391356
9.91625e-06;-0.0017600992538032462
9.91650e-06;-0.0017643584730522362
9.91675e-06;-0.001770567426034236
9.91700e-06;-0.0017842496001595084
9.91725e-06;-0.0017998057139540073
9.91750e-06;-0.0018206769394774908
9.91775e-06;-0.0018462679901654832
9.91800e-06;-0.0018759780254298762
9.91825e-06;-0.0019096596870929869
9.91850e-06;-0.0019471438832823818
9.91875e-06;-0.001988210407057108
9.91900e-06;-0.002032596411426904
9.91925e-06;-0.0020800257392772246
9.91950e-06;-0.0021302210426337024
9.91975e-06;-0.002182904647894968
9.92000e-06;-0.0022377991604072404
9.92025e-06;-0.002294626720417956
9.92050e-06;-0.0023530957390249766
9.92075e-06;-0.002412882552357985
9.92100e-06;-0.0024736371343928123
9.92125e-06;-0.002535001300487876
9.92150e-06;-0.002596615467333536
9.92175e-06;-0.0026581202838906553
9.92200e-06;-0.0027191566786278964
9.92225e-06;-0.0027793652543882724
9.92250e-06;-0.0028383779576547107
9.92275e-06;-0.0028958065309376817
9.92300e-06;-0.002951246647502281
9.92325e-06;-0.0030042882942688557
9.92350e-06;-0.003054521130287205
9.92375e-06;-0.003101535094115075
9.92400e-06;-0.003144926686316974
9.92425e-06;-0.0031846071492641157
9.92450e-06;-0.0032210599141386884
9.92475e-06;-0.0032537877620408104
9.92500e-06;-0.003285737714285569
9.92525e-06;-0.003313259570207991
9.92550e-06;-0.0033396710635166544
9.92575e-06;-0.003359757010758029
9.92600e-06;-0.003378256802380191
9.92625e-06;-0.0033967565940022275
9.92650e-06;-0.0034094400589995207
9.92675e-06;-0.0034206650571607174
9.92700e-06;-0.003428120007155136
9.92725e-06;-0.003434629602705755
9.92750e-06;-0.0034362835722979365
9.92775e-06;-0.0034367199745343564
9.92800e-06;-0.0034371563767707793
9.92825e-06;-0.003432887533030367
9.92850e-06;-0.003427438830307598
9.92875e-06;-0.003419177367293479
9.92900e-06;-0.0034102105935450507
9.92925e-06;-0.003398185959060872
9.92950e-06;-0.003385394553939387
9.92975e-06;-0.0033726031488179016
9.93000e-06;-0.0033565787757570318
9.93025e-06;-0.003339743723236995
9.93050e-06;-0.003322908670716958
9.93075e-06;-0.003304443669215423
9.93100e-06;-0.003285569951579681
9.93125e-06;-0.003265977500159262
9.93150e-06;-0.0032462048234082443
9.93175e-06;-0.003226034804708874
9.93200e-06;-0.0032057651509489775
9.93225e-06;-0.003185557113579312
9.93250e-06;-0.0031653645267626014
9.93275e-06;-0.0031459632731024667
9.93300e-06;-0.003126760449351792
9.93325e-06;-0.0031088584574288313
9.93350e-06;-0.00309128265421601
9.93375e-06;-0.003075440486780276
9.93400e-06;-0.0030600330353519074
9.93425e-06;-0.003047141803702098
9.93450e-06;-0.0030348815240838945
9.93475e-06;-0.0030263147840631443
9.93500e-06;-0.003018674213660973
9.93525e-06;-0.003015846112923534
9.93550e-06;-0.0030142247579313503
9.93575e-06;-0.0030126034029391555
9.93600e-06;-0.003016720190632292
9.93625e-06;-0.0030222758402307193
9.93650e-06;-0.0030278314898291836
9.93675e-06;-0.003039674431210205
9.93700e-06;-0.003053093935797963
9.93725e-06;-0.003066513440385812
9.93750e-06;-0.0030847824279080353
9.93775e-06;-0.0031042674423986862
9.93800e-06;-0.003126347512140203
9.93825e-06;-0.0031507201649433846
9.93850e-06;-0.0031771575531575917
9.93875e-06;-0.00320562599164929
9.93900e-06;-0.0032359888171685854
9.93925e-06;-0.0032680575009757054
9.93950e-06;-0.003301635674042398
9.93975e-06;-0.003336527571914816
9.94000e-06;-0.0033725381753087792
9.94025e-06;-0.0034095040647032387
9.94050e-06;-0.003447310290416254
9.94075e-06;-0.003485822294300121
9.94100e-06;-0.003524841273229863
9.94125e-06;-0.0035641353857911954
9.94150e-06;-0.003603468448354376
9.94175e-06;-0.0036426045567987115
9.94200e-06;-0.00368130803983495
9.94225e-06;-0.0037193630049884986
9.94250e-06;-0.003756584382856807
9.94275e-06;-0.0037927746048085948
9.94300e-06;-0.003827695413632658
9.94325e-06;-0.0038610887463555047
9.94350e-06;-0.0038926932741999948
9.94375e-06;-0.00392224752835307
9.94400e-06;-0.003949490040001725
9.94425e-06;-0.00397412825291005
9.94450e-06;-0.003995853997153609
