Time(s);Current(A)
2.00000e-06;-0.009465604747311543
2.00025e-06;-0.009468910135662555
2.00050e-06;-0.00947330397504855
2.00075e-06;-0.009478984842566686
2.00100e-06;-0.009485846361635153
2.00125e-06;-0.009493933150044395
2.00150e-06;-0.009504478515556766
2.00175e-06;-0.00951502388106912
2.00200e-06;-0.009527134756657875
2.00225e-06;-0.009542386922982062
2.00250e-06;-0.009557639089306251
2.00275e-06;-0.009572891255630414
2.00300e-06;-0.009588143421954604
2.00325e-06;-0.00960739729689175
2.00350e-06;-0.009627455708582644
2.00375e-06;-0.009647514120273572
2.00400e-06;-0.009667572531964498
2.00425e-06;-0.009688556964290903
2.00450e-06;-0.009711399513078457
2.00475e-06;-0.009734242061866051
2.00500e-06;-0.00975748430876328
2.00525e-06;-0.009781528574112946
2.00550e-06;-0.009805572839462652
2.00575e-06;-0.00982970342556143
2.00600e-06;-0.009854007219468554
2.00625e-06;-0.00987831101337572
2.00650e-06;-0.009902343919142709
2.00675e-06;-0.009925833271458373
2.00700e-06;-0.009948923803327488
2.00725e-06;-0.009971214077828335
2.00750e-06;-0.00999264108583592
2.00775e-06;-0.010012335897367367
2.00800e-06;-0.010032030708898847
2.00825e-06;-0.010051725520430327
2.00850e-06;-0.01006772975329493
2.00875e-06;-0.010082992001555536
2.00900e-06;-0.010098254249816167
2.00925e-06;-0.010112714481449622
2.00950e-06;-0.010125565418170954
2.00975e-06;-0.010138416354892307
2.01000e-06;-0.010151267291613662
2.01025e-06;-0.010164118228334995
2.01050e-06;-0.01017696916505635
2.01075e-06;-0.010189820101777703
2.01100e-06;-0.010202671038499058
2.01125e-06;-0.01021552197522039
2.01150e-06;-0.010227496134625882
2.01175e-06;-0.01023929401943375
2.01200e-06;-0.010251091904241595
2.01225e-06;-0.01026288978904946
2.01250e-06;-0.010274687673857327
2.01275e-06;-0.010286485558665173
2.01300e-06;-0.01029828344347304
2.01325e-06;-0.010310081328280905
2.01350e-06;-0.010321899934846598
2.01375e-06;-0.010333760120873734
2.01400e-06;-0.01034562030690089
2.01425e-06;-0.010357480492928046
2.01450e-06;-0.010369340678955181
2.01475e-06;-0.010381200864982338
2.01500e-06;-0.010393061051009494
2.01525e-06;-0.01040492123703665
2.01550e-06;-0.010416781423063785
2.01575e-06;-0.01042802342449207
2.01600e-06;-0.010438025001101152
2.01625e-06;-0.010448026577710217
2.01650e-06;-0.010458028154319298
2.01675e-06;-0.01046802973092838
2.01700e-06;-0.010478031307537446
2.01725e-06;-0.010488032884146526
2.01750e-06;-0.010498034460755609
2.01775e-06;-0.01050803603736469
2.01800e-06;-0.010517108082685883
2.01825e-06;-0.010524314967209117
2.01850e-06;-0.01053152185173235
2.01875e-06;-0.010537880707174156
2.01900e-06;-0.010542537940928949
2.01925e-06;-0.010547195174683744
2.01950e-06;-0.010549988974756293
2.01975e-06;-0.010549043682343058
2.02000e-06;-0.010548098389929823
2.02025e-06;-0.010547153097516589
2.02050e-06;-0.010546207805103356
2.02075e-06;-0.010545262512690121
2.02100e-06;-0.010544317220276886
2.02125e-06;-0.010540729557100807
2.02150e-06;-0.010531839817033935
2.02175e-06;-0.01052295007696706
2.02200e-06;-0.010514060336900189
2.02225e-06;-0.01050517059683333
2.02250e-06;-0.010496280856766457
2.02275e-06;-0.010487391116699583
2.02300e-06;-0.010476426359761067
2.02325e-06;-0.010461297955859011
2.02350e-06;-0.010446169551956956
2.02375e-06;-0.0104310411480549
2.02400e-06;-0.010415912744152869
2.02425e-06;-0.010400784340250813
2.02450e-06;-0.010385655936348758
2.02475e-06;-0.010367876057017375
2.02500e-06;-0.010349563103031723
2.02525e-06;-0.01033125014904607
2.02550e-06;-0.01031293719506045
2.02575e-06;-0.010294624241074798
2.02600e-06;-0.010276311287089146
2.02625e-06;-0.010257927309903447
2.02650e-06;-0.01023940082036751
2.02675e-06;-0.010220874330831542
2.02700e-06;-0.010202610572331444
2.02725e-06;-0.01018487399955921
2.02750e-06;-0.010167499695145892
2.02775e-06;-0.01015085230412464
2.02800e-06;-0.010134870078492684
2.02825e-06;-0.010120222547480014
2.02850e-06;-0.01010557501646732
2.02875e-06;-0.010092516799131285
2.02900e-06;-0.010082647635896273
2.02925e-06;-0.010072778472661243
2.02950e-06;-0.010062909309426214
2.02975e-06;-0.0100530401461912
2.03000e-06;-0.01004317098295617
2.03025e-06;-0.010033301819721141
2.03050e-06;-0.01002343265648611
2.03075e-06;-0.010018908030735069
2.03100e-06;-0.01001545791521332
2.03125e-06;-0.01001200779969157
2.03150e-06;-0.010008557684169824
2.03175e-06;-0.010005107568648076
2.03200e-06;-0.010001657453126325
2.03225e-06;-0.009998207337604575
2.03250e-06;-0.009996550491761378
2.03275e-06;-0.009998491950083486
2.03300e-06;-0.010000433408405595
2.03325e-06;-0.0100023748667277
2.03350e-06;-0.010004316325049807
2.03375e-06;-0.010006257783371915
2.03400e-06;-0.010008199241694021
2.03425e-06;-0.010010140700016129
2.03450e-06;-0.010013090322218279
2.03475e-06;-0.010018062886274796
2.03500e-06;-0.010023035450331305
2.03525e-06;-0.01002800801438782
2.03550e-06;-0.010032980578444338
2.03575e-06;-0.010037953142500847
2.03600e-06;-0.010042925706557362
2.03625e-06;-0.01004789827061388
2.03650e-06;-0.01005299249426678
2.03675e-06;-0.010058330835264468
2.03700e-06;-0.010063669176262164
2.03725e-06;-0.01006900751725986
2.03750e-06;-0.010074027266545566
2.03775e-06;-0.01007840774227527
2.03800e-06;-0.010082788218004974
2.03825e-06;-0.01008716869373467
2.03850e-06;-0.010091178021219775
2.03875e-06;-0.01009444261728466
2.03900e-06;-0.010097707213349546
2.03925e-06;-0.010101481267041034
2.03950e-06;-0.010106277578300304
2.03975e-06;-0.010111073889559574
2.04000e-06;-0.010116567091148458
2.04025e-06;-0.01012345864536997
2.04050e-06;-0.01013035019959148
2.04075e-06;-0.010137241753812991
2.04100e-06;-0.010145538295492964
2.04125e-06;-0.010156654029559245
2.04150e-06;-0.010167769763625528
2.04175e-06;-0.010178885497691791
2.04200e-06;-0.010190001231758073
2.04225e-06;-0.010201116965824354
2.04250e-06;-0.010212232699890618
2.04275e-06;-0.010224997127812436
2.04300e-06;-0.010241069759759067
2.04325e-06;-0.0102571423917057
2.04350e-06;-0.010273215023652305
2.04375e-06;-0.010289287655598936
2.04400e-06;-0.010305360287545567
2.04425e-06;-0.010321432919492172
2.04450e-06;-0.010338212391410768
2.04475e-06;-0.010356410180521688
2.04500e-06;-0.01037460796963261
2.04525e-06;-0.010392805758743498
2.04550e-06;-0.01041100354785442
2.04575e-06;-0.01042920133696534
2.04600e-06;-0.01044739912607623
2.04625e-06;-0.01046559691518715
2.04650e-06;-0.01048379470429807
2.04675e-06;-0.010501992493408961
2.04700e-06;-0.010520190282519881
2.04725e-06;-0.010536291254653492
2.04750e-06;-0.010548184836591153
2.04775e-06;-0.010560078418528792
2.04800e-06;-0.010571972000466452
2.04825e-06;-0.01058386558240411
2.04850e-06;-0.010595759164341752
2.04875e-06;-0.01060765274627941
2.04900e-06;-0.01061954632821707
2.04925e-06;-0.01063143991015473
2.04950e-06;-0.01064333349209237
2.04975e-06;-0.01065522707403003
2.05000e-06;-0.010663629946431046
2.05025e-06;-0.01066502849883625
2.05050e-06;-0.010666427051241456
2.05075e-06;-0.010667825603646664
2.05100e-06;-0.010669224156051869
2.05125e-06;-0.010670622708457077
2.05150e-06;-0.010672021260862283
2.05175e-06;-0.010673419813267492
2.05200e-06;-0.010674818365672696
2.05225e-06;-0.010676216918077902
2.05250e-06;-0.010671175608822274
2.05275e-06;-0.010664839576262287
2.05300e-06;-0.010658503543702288
2.05325e-06;-0.010652167511142289
2.05350e-06;-0.01064583147858229
2.05375e-06;-0.010639495446022301
2.05400e-06;-0.010633159413462302
2.05425e-06;-0.010626823380902303
2.05450e-06;-0.010620487348342316
2.05475e-06;-0.010612948099037824
2.05500e-06;-0.01060299452249858
2.05525e-06;-0.010593040945959354
2.05550e-06;-0.010583087369420109
2.05575e-06;-0.010573133792880865
2.05600e-06;-0.010563180216341622
2.05625e-06;-0.010553226639802394
2.05650e-06;-0.010543300587958592
2.05675e-06;-0.010533429766082406
2.05700e-06;-0.010523558944206238
2.05725e-06;-0.010513688122330053
2.05750e-06;-0.010503817300453867
2.05775e-06;-0.010493946478577683
2.05800e-06;-0.010484075656701513
2.05825e-06;-0.010474721121998506
2.05850e-06;-0.01046640254876204
2.05875e-06;-0.01045811696533339
2.05900e-06;-0.01044989757795112
2.05925e-06;-0.01044079428055423
2.05950e-06;-0.010429917364205316
2.05975e-06;-0.010417837636366367
2.06000e-06;-0.0104033443944602
2.06025e-06;-0.010388851152554035
2.06050e-06;-0.010373134241752017
2.06075e-06;-0.01035496196523526
2.06100e-06;-0.010336789688718507
2.06125e-06;-0.010316378132196316
2.06150e-06;-0.01029147332478766
2.06175e-06;-0.010266568517379004
2.06200e-06;-0.01024166370997035
2.06225e-06;-0.010216758902561737
2.06250e-06;-0.010186239503079708
2.06275e-06;-0.01015459129934913
2.06300e-06;-0.010122943095618606
2.06325e-06;-0.01009129489188803
2.06350e-06;-0.010057951043012922
2.06375e-06;-0.010021204779508956
2.06400e-06;-0.009984458516004928
2.06425e-06;-0.009946983998621695
2.06450e-06;-0.009908048195744746
2.06475e-06;-0.009868862723524335
2.06500e-06;-0.009829017366000595
2.06525e-06;-0.009788697647394066
2.06550e-06;-0.009747967091567143
2.06575e-06;-0.009707018123756038
2.06600e-06;-0.009666086990131321
2.06625e-06;-0.009625409625067822
2.06650e-06;-0.009585222584499562
2.06675e-06;-0.009545744458080053
2.06700e-06;-0.009507125879398278
2.06725e-06;-0.009469460586013168
2.06750e-06;-0.009432889136505869
2.06775e-06;-0.009397631912047752
2.06800e-06;-0.00936393788756196
2.06825e-06;-0.009332055104616682
2.06850e-06;-0.009302232226339397
2.06875e-06;-0.009274642953101783
2.06900e-06;-0.009249173032994886
2.06925e-06;-0.009225433171150222
2.06950e-06;-0.00920315147914495
2.06975e-06;-0.009182340260132036
2.07000e-06;-0.009163117790046174
2.07025e-06;-0.00914560389973607
2.07050e-06;-0.009130230659579311
2.07075e-06;-0.009116758147214946
2.07100e-06;-0.00910435230530268
2.07125e-06;-0.009094086802223981
2.07150e-06;-0.009084897055992051
2.07175e-06;-0.009077865880994563
2.07200e-06;-0.009070834705997073
2.07225e-06;-0.009065553281493905
2.07250e-06;-0.009063782837279561
2.07275e-06;-0.009062012393065215
2.07300e-06;-0.00906024194885087
2.07325e-06;-0.009058471504636527
2.07350e-06;-0.009058316848548313
2.07375e-06;-0.00906140436914768
2.07400e-06;-0.009064491889747043
2.07425e-06;-0.009067579410346409
2.07450e-06;-0.009070666930945777
2.07475e-06;-0.009074707428484383
2.07500e-06;-0.009080660131940456
2.07525e-06;-0.009086612835396541
2.07550e-06;-0.009092908033977706
2.07575e-06;-0.009099890469760445
2.07600e-06;-0.009106872905543196
2.07625e-06;-0.009114032526021346
2.07650e-06;-0.009121547678316763
2.07675e-06;-0.009129062830612194
2.07700e-06;-0.009136538849458
2.07725e-06;-0.00914393634466817
2.07750e-06;-0.00915105536253364
2.07775e-06;-0.009157615598749232
2.07800e-06;-0.009164175834964823
2.07825e-06;-0.00916943639904139
2.07850e-06;-0.009172089092294687
2.07875e-06;-0.009174741785547984
2.07900e-06;-0.009177394478801282
2.07925e-06;-0.009180047172054574
2.07950e-06;-0.009182699865307871
2.07975e-06;-0.009185352558561169
2.08000e-06;-0.009188005251814462
2.08025e-06;-0.00919065794506776
2.08050e-06;-0.009193310638321057
2.08075e-06;-0.00919596333157435
2.08100e-06;-0.009198616024827647
2.08125e-06;-0.009201268718080944
2.08150e-06;-0.009203921411334241
2.08175e-06;-0.009206574104587535
2.08200e-06;-0.009209226797840833
2.08225e-06;-0.00921187949109413
2.08250e-06;-0.009214532184347422
2.08275e-06;-0.009217184877600721
2.08300e-06;-0.009219837570854018
2.08325e-06;-0.009219879428887752
2.08350e-06;-0.009219396382912385
2.08375e-06;-0.009218913336937019
2.08400e-06;-0.00921843029096165
2.08425e-06;-0.009217947244986284
2.08450e-06;-0.009217464199010917
2.08475e-06;-0.009216981153035549
2.08500e-06;-0.009216498107060184
2.08525e-06;-0.009216015061084815
2.08550e-06;-0.009215532015109449
2.08575e-06;-0.00921504896913408
2.08600e-06;-0.009214565923158714
2.08625e-06;-0.009214082877183347
2.08650e-06;-0.00921359983120798
2.08675e-06;-0.009213116785232614
2.08700e-06;-0.009212633739257245
2.08725e-06;-0.009212150693281879
2.08750e-06;-0.009211667647306512
2.08775e-06;-0.009211184601331145
2.08800e-06;-0.009210489883662567
2.08825e-06;-0.009209354945755205
2.08850e-06;-0.009208172512428751
2.08875e-06;-0.009207027143009364
2.08900e-06;-0.009206327053189578
2.08925e-06;-0.009207014999641137
2.08950e-06;-0.009209260884029824
2.08975e-06;-0.009212527284116005
2.09000e-06;-0.009217841410726764
2.09025e-06;-0.009224049204900806
2.09050e-06;-0.009232050197139328
2.09075e-06;-0.009241284564195127
2.09100e-06;-0.00925299377248489
2.09125e-06;-0.009264702980774671
2.09150e-06;-0.009278871053811089
2.09175e-06;-0.009297972987810554
2.09200e-06;-0.009317074921810052
2.09225e-06;-0.00933617685580955
2.09250e-06;-0.009355278789809048
2.09275e-06;-0.009374380723808513
2.09300e-06;-0.009399868351041524
2.09325e-06;-0.009426639811108663
2.09350e-06;-0.009453411271175756
2.09375e-06;-0.009480182731242895
2.09400e-06;-0.009506954191310032
2.09425e-06;-0.009535354861647492
2.09450e-06;-0.009567024641017666
2.09475e-06;-0.009598694420387896
2.09500e-06;-0.009630364199758124
2.09525e-06;-0.009662033979128298
2.09550e-06;-0.009693703758498528
2.09575e-06;-0.009725442924882333
2.09600e-06;-0.009757321320509221
2.09625e-06;-0.009789199716136164
2.09650e-06;-0.009821078111763106
2.09675e-06;-0.009852956507390048
2.09700e-06;-0.009884834903016938
2.09725e-06;-0.00991552261955599
2.09750e-06;-0.00994382116642654
2.09775e-06;-0.009972119713297041
2.09800e-06;-0.009996797412713391
2.09825e-06;-0.010014209662522118
2.09850e-06;-0.010031621912330846
2.09875e-06;-0.010049034162139543
2.09900e-06;-0.010066446411948272
2.09925e-06;-0.010083858661757
2.09950e-06;-0.010101270911565697
2.09975e-06;-0.010118683161374424
2.10000e-06;-0.010136095411183151
2.10025e-06;-0.010153507660991849
2.10050e-06;-0.010170919910800576
2.10075e-06;-0.010188332160609303
2.10100e-06;-0.01019508865848684
2.10125e-06;-0.010199702835444335
2.10150e-06;-0.01020431701240184
2.10175e-06;-0.010208931189359343
2.10200e-06;-0.010213545366316839
2.10225e-06;-0.010218159543274343
2.10250e-06;-0.010222773720231847
2.10275e-06;-0.010227387897189352
2.10300e-06;-0.010232002074146847
2.10325e-06;-0.010236616251104351
2.10350e-06;-0.010241230428061856
2.10375e-06;-0.010243535831481286
2.10400e-06;-0.01024120854103301
2.10425e-06;-0.010238881250584735
2.10450e-06;-0.010236553960136462
2.10475e-06;-0.010234226669688188
2.10500e-06;-0.010231899379239911
2.10525e-06;-0.010229572088791635
2.10550e-06;-0.010227244798343364
2.10575e-06;-0.010224917507895087
2.10600e-06;-0.010222590217446812
2.10625e-06;-0.01022026292699854
2.10650e-06;-0.010217372937156908
2.10675e-06;-0.010213353856918999
2.10700e-06;-0.010209334776681088
2.10725e-06;-0.010205315696443186
2.10750e-06;-0.010201296616205276
2.10775e-06;-0.010197277535967367
2.10800e-06;-0.010193258455729465
2.10825e-06;-0.010189239375491555
2.10850e-06;-0.010185220295253646
2.10875e-06;-0.010181201215015744
2.10900e-06;-0.010177182134777835
2.10925e-06;-0.010173109849649618
2.10950e-06;-0.010168930805688195
2.10975e-06;-0.01016475176172678
2.11000e-06;-0.010160572717765357
2.11025e-06;-0.010156393673803934
2.11050e-06;-0.010152214629842518
2.11075e-06;-0.010148035585881095
2.11100e-06;-0.010143856541919672
2.11125e-06;-0.01013967749795825
2.11150e-06;-0.010135498453996835
2.11175e-06;-0.010131319410035412
2.11200e-06;-0.010127140366073989
2.11225e-06;-0.010122961322112572
2.11250e-06;-0.01011878227815115
2.11275e-06;-0.0101142754380781
2.11300e-06;-0.01010911085526362
2.11325e-06;-0.01010394627244913
2.11350e-06;-0.010098781689634642
2.11375e-06;-0.010093617106820153
2.11400e-06;-0.010088452524005672
2.11425e-06;-0.010083287941191184
2.11450e-06;-0.010078123358376694
2.11475e-06;-0.010072958775562213
2.11500e-06;-0.010067794192747724
2.11525e-06;-0.010062629609933236
2.11550e-06;-0.010057465027118746
2.11575e-06;-0.010052300444304265
2.11600e-06;-0.010047135861489778
2.11625e-06;-0.010042019424766336
2.11650e-06;-0.010036999596089169
2.11675e-06;-0.010031979767411991
2.11700e-06;-0.010026959938734814
2.11725e-06;-0.010021940110057647
2.11750e-06;-0.01001692028138047
2.11775e-06;-0.010011900452703292
2.11800e-06;-0.010007393716612259
2.11825e-06;-0.010002990136918691
2.11850e-06;-0.009998586557225117
2.11875e-06;-0.009994182977531543
2.11900e-06;-0.009989779397837975
2.11925e-06;-0.0099853758181444
2.11950e-06;-0.009980348711094576
2.11975e-06;-0.00997407045865852
2.12000e-06;-0.009967792206222476
2.12025e-06;-0.009961513953786421
2.12050e-06;-0.009955235701350366
2.12075e-06;-0.009948957448914322
2.12100e-06;-0.009942679196478267
2.12125e-06;-0.00993640094404221
2.12150e-06;-0.009930122691606166
2.12175e-06;-0.009922762401009129
2.12200e-06;-0.009913230935339657
2.12225e-06;-0.009903699469670183
2.12250e-06;-0.009894168004000725
2.12275e-06;-0.009884636538331253
2.12300e-06;-0.00987510507266178
2.12325e-06;-0.009865573606992323
2.12350e-06;-0.00985604214132285
2.12375e-06;-0.009846510675653376
2.12400e-06;-0.009836287171256721
2.12425e-06;-0.009824675049260616
2.12450e-06;-0.00981306292726449
2.12475e-06;-0.009801450805268366
2.12500e-06;-0.009789838683272259
2.12525e-06;-0.009778226561276134
2.12550e-06;-0.009766614439280008
2.12575e-06;-0.009755002317283901
2.12600e-06;-0.009743390195287777
2.12625e-06;-0.00973177807329165
2.12650e-06;-0.009721192776899559
2.12675e-06;-0.00971081392206015
2.12700e-06;-0.009700435067220724
2.12725e-06;-0.009690056212381297
2.12750e-06;-0.00967967735754189
2.12775e-06;-0.009669298502702463
2.12800e-06;-0.009658919647863036
2.12825e-06;-0.00964854079302361
2.12850e-06;-0.009638161938184201
2.12875e-06;-0.009628581749717383
2.12900e-06;-0.009620604133675483
2.12925e-06;-0.009612626517633598
2.12950e-06;-0.0096046489015917
2.12975e-06;-0.0095966712855498
2.13000e-06;-0.009588693669507915
2.13025e-06;-0.009580716053466018
2.13050e-06;-0.009572738437424119
2.13075e-06;-0.00956476082138222
2.13100e-06;-0.009556783205340334
2.13125e-06;-0.009548640237567005
2.13150e-06;-0.009540165481534777
2.13175e-06;-0.009531690725502563
2.13200e-06;-0.009523215969470334
2.13225e-06;-0.009514741213438106
2.13250e-06;-0.009506266457405878
2.13275e-06;-0.009497791701373662
2.13300e-06;-0.009489316945341435
2.13325e-06;-0.009480842189309207
2.13350e-06;-0.009472367433276991
2.13375e-06;-0.009463709229132389
2.13400e-06;-0.009454682925245022
2.13425e-06;-0.00944565662135767
2.13450e-06;-0.009436630317470303
2.13475e-06;-0.009427604013582938
2.13500e-06;-0.00941857770969557
2.13525e-06;-0.009409551405808219
2.13550e-06;-0.009400525101920852
2.13575e-06;-0.009391498798033486
2.13600e-06;-0.009382472494146135
2.13625e-06;-0.009373446190258768
2.13650e-06;-0.0093644198863714
2.13675e-06;-0.009355393582484035
2.13700e-06;-0.00934819548199935
2.13725e-06;-0.0093413649387197
2.13750e-06;-0.009334534395440052
2.13775e-06;-0.009327703852160417
2.13800e-06;-0.009320873308880769
2.13825e-06;-0.009314042765601119
2.13850e-06;-0.009307212222321483
2.13875e-06;-0.009300381679041835
2.13900e-06;-0.009293551135762187
2.13925e-06;-0.009286720592482539
2.13950e-06;-0.009279890049202901
2.13975e-06;-0.009273059505923253
2.14000e-06;-0.009267407825786477
2.14025e-06;-0.009264121605910095
2.14050e-06;-0.009260835386033707
2.14075e-06;-0.009257549166157317
2.14100e-06;-0.00925426294628093
2.14125e-06;-0.009250976726404547
2.14150e-06;-0.009247690506528159
2.14175e-06;-0.009244404286651771
2.14200e-06;-0.009241118066775389
2.14225e-06;-0.009237831846899
2.14250e-06;-0.009234545627022611
2.14275e-06;-0.009231259407146229
2.14300e-06;-0.00922797318726984
2.14325e-06;-0.009224686967393453
2.14350e-06;-0.009221400747517065
2.14375e-06;-0.009219829606734394
2.14400e-06;-0.009218603279705626
2.14425e-06;-0.009217376952676859
2.14450e-06;-0.009216150625648093
2.14475e-06;-0.009214924298619325
2.14500e-06;-0.009213697971590558
2.14525e-06;-0.00921247164456179
2.14550e-06;-0.009211245317533024
2.14575e-06;-0.009210018990504255
2.14600e-06;-0.009208792663475488
2.14625e-06;-0.009207566336446723
2.14650e-06;-0.009206340009417955
2.14675e-06;-0.009205113682389188
2.14700e-06;-0.00920388735536042
2.14725e-06;-0.009202682638967235
2.14750e-06;-0.009201521285622575
