Time(s);Current(A)
3.05000e-06;-0.002242037666643676
3.05025e-06;-0.0022423774247604285
3.05050e-06;-0.0022427171828771804
3.05075e-06;-0.0022430569409939323
3.05100e-06;-0.0022435606687486094
3.05125e-06;-0.002244311227432258
3.05150e-06;-0.0022450617861159068
3.05175e-06;-0.0022458123447995546
3.05200e-06;-0.0022465629034832033
3.05225e-06;-0.0022473134621668524
3.05250e-06;-0.0022480640208505
3.05275e-06;-0.0022488145795341486
3.05300e-06;-0.002249484165987342
3.05325e-06;-0.0022500318612714305
3.05350e-06;-0.0022505795565555178
3.05375e-06;-0.0022516719663727516
3.05400e-06;-0.0022535843596695098
3.05425e-06;-0.002255496752966265
3.05450e-06;-0.002258320917353446
3.05475e-06;-0.002262517612095093
3.05500e-06;-0.002266714306836739
3.05525e-06;-0.0022724555882103693
3.05550e-06;-0.0022805220058597577
3.05575e-06;-0.002288588423509146
3.05600e-06;-0.0022966548411585204
3.05625e-06;-0.0023047212588079087
3.05650e-06;-0.002312787676457297
3.05675e-06;-0.002320854094106672
3.05700e-06;-0.002331128347455572
3.05725e-06;-0.002344726155967766
3.05750e-06;-0.0023583239644799597
3.05775e-06;-0.0023719217729921307
3.05800e-06;-0.0023855195815043247
3.05825e-06;-0.0023991173900165183
3.05850e-06;-0.0024127151985286893
3.05875e-06;-0.002427710330279373
3.05900e-06;-0.002444808916043942
3.05925e-06;-0.0024619075018085107
3.05950e-06;-0.002479006087573051
3.05975e-06;-0.00249610467333762
3.06000e-06;-0.002513203259102189
3.06025e-06;-0.0025303018448667287
3.06050e-06;-0.0025474004306312976
3.06075e-06;-0.0025641615180961442
3.06100e-06;-0.0025808847498190253
3.06125e-06;-0.0025976079815419346
3.06150e-06;-0.002614331213264844
3.06175e-06;-0.002631054444987753
3.06200e-06;-0.002647777676710634
3.06225e-06;-0.0026645009084335434
3.06250e-06;-0.0026800104837118696
3.06275e-06;-0.002693693086927024
3.06300e-06;-0.002707375690142202
3.06325e-06;-0.002719881909463202
3.06350e-06;-0.002730617264780795
3.06375e-06;-0.002741352620098369
3.06400e-06;-0.002751387999893309
3.06425e-06;-0.0027585526771007813
3.06450e-06;-0.0027629821452996024
3.06475e-06;-0.002767411613498431
3.06500e-06;-0.0027718410816972593
3.06525e-06;-0.00277627054989608
3.06550e-06;-0.0027807000180949085
3.06575e-06;-0.002785129486293737
3.06600e-06;-0.0027895589544925654
3.06625e-06;-0.0027939884226913865
3.06650e-06;-0.0027984178908902146
3.06675e-06;-0.0027964968601305617
3.06700e-06;-0.0027938635210423514
3.06725e-06;-0.0027912301819541367
3.06750e-06;-0.002788596842865922
3.06775e-06;-0.0027859635037777073
3.06800e-06;-0.002783330164689497
3.06825e-06;-0.0027806968256012823
3.06850e-06;-0.002778063486513067
3.06875e-06;-0.0027754301474248568
3.06900e-06;-0.0027712132126710906
3.06925e-06;-0.0027646124195748085
3.06950e-06;-0.002758011626478538
3.06975e-06;-0.002751410833382256
3.07000e-06;-0.0027448100402859745
3.07025e-06;-0.002738209247189693
3.07050e-06;-0.002731608454093422
3.07075e-06;-0.0027250076609971405
3.07100e-06;-0.002718406867900859
3.07125e-06;-0.002711806074804588
3.07150e-06;-0.0027052052817083064
3.07175e-06;-0.0026993948703361668
3.07200e-06;-0.002693673112704241
3.07225e-06;-0.002687951355072325
3.07250e-06;-0.002682229597440399
3.07275e-06;-0.002676507839808473
3.07300e-06;-0.002670786082176557
3.07325e-06;-0.002665064324544631
3.07350e-06;-0.0026593425669127055
3.07375e-06;-0.0026536208092807893
3.07400e-06;-0.0026478990516488636
3.07425e-06;-0.002644075371236456
3.07450e-06;-0.0026431089525058705
3.07475e-06;-0.0026421425337752867
3.07500e-06;-0.002641176115044701
3.07525e-06;-0.0026402096963141154
3.07550e-06;-0.0026392432775835316
3.07575e-06;-0.0026382768588529455
3.07600e-06;-0.00263731044012236
3.07625e-06;-0.002636344021391776
3.07650e-06;-0.0026353776026611904
3.07675e-06;-0.0026385930489110504
3.07700e-06;-0.0026422775570841407
3.07725e-06;-0.0026459620652572245
3.07750e-06;-0.002649646573430315
3.07775e-06;-0.002653331081603405
3.07800e-06;-0.0026570155897764893
3.07825e-06;-0.0026607000979495797
3.07850e-06;-0.00266438460612267
3.07875e-06;-0.00266806911429576
3.07900e-06;-0.0026727622777954056
3.07925e-06;-0.002678973815882325
3.07950e-06;-0.002685185353969245
3.07975e-06;-0.0026913968920561546
3.08000e-06;-0.002697608430143074
3.08025e-06;-0.002703819968229994
3.08050e-06;-0.0027100315063169037
3.08075e-06;-0.002716243044403823
3.08100e-06;-0.002722454582490743
3.08125e-06;-0.00272830372536037
3.08150e-06;-0.0027341122199071935
3.08175e-06;-0.002739920714454027
3.08200e-06;-0.0027457292090008606
3.08225e-06;-0.0027515377035476846
3.08250e-06;-0.002757346198094518
3.08275e-06;-0.0027631546926413517
3.08300e-06;-0.0027689631871881852
3.08325e-06;-0.0027733678001471613
3.08350e-06;-0.00277565908651136
3.08375e-06;-0.002777950372875558
3.08400e-06;-0.0027802416592397523
3.08425e-06;-0.002782532945603951
3.08450e-06;-0.002784824231968149
3.08475e-06;-0.0027871155183323434
3.08500e-06;-0.0027872089925447758
3.08525e-06;-0.002783994000494161
3.08550e-06;-0.0027807790084435455
3.08575e-06;-0.0027775640163929358
3.08600e-06;-0.0027743490243423204
3.08625e-06;-0.002771134032291705
3.08650e-06;-0.0027679190402410954
3.08675e-06;-0.002762509938334459
3.08700e-06;-0.002753797943398391
3.08725e-06;-0.002745085948462323
3.08750e-06;-0.00273637395352627
3.08775e-06;-0.002727661958590202
3.08800e-06;-0.0027189499636541344
3.08825e-06;-0.0027102379687180813
3.08850e-06;-0.0027015259737820136
3.08875e-06;-0.002689519637035555
3.08900e-06;-0.002677143788046883
3.08925e-06;-0.0026647679390581895
3.08950e-06;-0.002652392090069496
3.08975e-06;-0.0026400162410808027
3.09000e-06;-0.00262764039209213
3.09025e-06;-0.0026152645431034367
3.09050e-06;-0.0026026320147386306
3.09075e-06;-0.0025896130952732105
3.09100e-06;-0.002576594175807768
3.09125e-06;-0.002563575256342325
3.09150e-06;-0.002550556336876883
3.09175e-06;-0.0025375374174114625
3.09200e-06;-0.002525387364712595
3.09225e-06;-0.002514545256544887
3.09250e-06;-0.002503703148377197
3.09275e-06;-0.0024928610402094892
3.09300e-06;-0.0024820189320417813
3.09325e-06;-0.002471176823874092
3.09350e-06;-0.0024618000764840627
3.09375e-06;-0.0024546292031003814
3.09400e-06;-0.0024474583297167006
3.09425e-06;-0.002441772844291414
3.09450e-06;-0.0024383233806954657
3.09475e-06;-0.002434873917099517
3.09500e-06;-0.002433865856072293
3.09525e-06;-0.0024365329490053985
3.09550e-06;-0.002439200041938504
3.09575e-06;-0.00244186713487161
3.09600e-06;-0.002444534227804711
3.09625e-06;-0.0024472013207378165
3.09650e-06;-0.002449868413670922
3.09675e-06;-0.0024597184597507436
3.09700e-06;-0.002470374186988211
3.09725e-06;-0.002481029914225678
3.09750e-06;-0.002491685641463127
3.09775e-06;-0.0025023413687005943
3.09800e-06;-0.0025129970959380616
3.09825e-06;-0.0025255311651746215
3.09850e-06;-0.002540892787771376
3.09875e-06;-0.002556254410368156
3.09900e-06;-0.002572408167594419
3.09925e-06;-0.002589754360987461
3.09950e-06;-0.002607100554380532
3.09975e-06;-0.002624945243352876
3.10000e-06;-0.0026435403403185067
3.10025e-06;-0.002662135437284106
3.10050e-06;-0.0026808761301497226
3.10075e-06;-0.0026998359951237445
3.10100e-06;-0.0027187958600977343
3.10125e-06;-0.0027374972768603573
3.10150e-06;-0.002755809639814378
3.10175e-06;-0.002774122002768367
3.10200e-06;-0.002791790088376031
3.10225e-06;-0.002808488314087814
3.10250e-06;-0.002825186539799597
3.10275e-06;-0.002840797195116323
3.10300e-06;-0.002854770681415639
3.10325e-06;-0.002868744167714955
3.10350e-06;-0.002880333443707397
3.10375e-06;-0.0028883336598437776
3.10400e-06;-0.0028963338759801583
3.10425e-06;-0.0029043340921165385
3.10450e-06;-0.0029123343082529058
3.10475e-06;-0.0029203345243892865
3.10500e-06;-0.0029247452439897445
3.10525e-06;-0.00292375253173542
3.10550e-06;-0.002922759819481094
3.10575e-06;-0.002921767107226768
3.10600e-06;-0.0029207743949724433
3.10625e-06;-0.0029197816827181175
3.10650e-06;-0.0029152487144135882
3.10675e-06;-0.0029053864381896
3.10700e-06;-0.002895524161965628
3.10725e-06;-0.0028856618857416396
3.10750e-06;-0.0028757996095176513
3.10775e-06;-0.00286593733329368
3.10800e-06;-0.0028560750570696914
3.10825e-06;-0.002840081274371934
3.10850e-06;-0.0028233997467963104
3.10875e-06;-0.0028067182192207155
3.10900e-06;-0.002790036691645092
3.10925e-06;-0.0027733551640694684
3.10950e-06;-0.0027566736364938735
3.10975e-06;-0.0027388529866132546
3.11000e-06;-0.0027193175642881203
3.11025e-06;-0.002699782141963019
3.11050e-06;-0.002680047779878379
3.11075e-06;-0.0026600139447553964
3.11100e-06;-0.002639980109632414
3.11125e-06;-0.0026201537331780114
3.11150e-06;-0.0026006396536618786
3.11175e-06;-0.002581125574145746
3.11200e-06;-0.0025622486160923864
3.11225e-06;-0.00254433074585893
3.11250e-06;-0.0025264128756254736
3.11275e-06;-0.00250936669114298
3.11300e-06;-0.002493632694736809
3.11325e-06;-0.002478734496241118
3.11350e-06;-0.0024650944622286214
3.11375e-06;-0.002451426873417631
3.11400e-06;-0.002437717805119291
3.11425e-06;-0.0024232962772244406
3.11450e-06;-0.0024078022516016615
3.11475e-06;-0.002392308225978857
3.11500e-06;-0.0023763480766311657
3.11525e-06;-0.0023596862501100075
3.11550e-06;-0.0023430244235888775
3.11575e-06;-0.0023254154492715925
3.11600e-06;-0.0023063806904405283
3.11625e-06;-0.0022873459316094967
3.11650e-06;-0.0022669411773153588
3.11675e-06;-0.0022444741067457682
3.11700e-06;-0.0022220070361761777
3.11725e-06;-0.0021995399656066254
3.11750e-06;-0.002177072895037035
3.11775e-06;-0.002151671869767231
3.11800e-06;-0.0021259417553370803
3.11825e-06;-0.0021002116409068864
3.11850e-06;-0.0020744815264766925
3.11875e-06;-0.0020479294612354856
3.11900e-06;-0.0020201400761774998
3.11925e-06;-0.001992188266501952
3.11950e-06;-0.00196399195168652
3.11975e-06;-0.0019356880895167244
3.12000e-06;-0.0019071290726183133
3.12025e-06;-0.001878387570090018
3.12050e-06;-0.001849610481312184
3.12075e-06;-0.0018209726625948576
3.12100e-06;-0.0017926487599058366
3.12125e-06;-0.0017648125138558664
3.12150e-06;-0.001737608756759573
3.12175e-06;-0.0017111047617307596
3.12200e-06;-0.00168532901575007
3.12225e-06;-0.0016603727299461081
3.12250e-06;-0.001636396253327454
3.12275e-06;-0.0016135774450241342
3.12300e-06;-0.0015920941181961502
3.12325e-06;-0.0015721246890779705
3.12350e-06;-0.001553863679361488
3.12375e-06;-0.0015375350567263153
3.12400e-06;-0.0015233360392543408
3.12425e-06;-0.001511367295226419
3.12450e-06;-0.0015016598114853715
3.12475e-06;-0.0014942300960218958
3.12500e-06;-0.0014890945863813589
3.12525e-06;-0.001486270208755459
3.12550e-06;-0.0014862656719561629
3.12575e-06;-0.0014884061422709319
3.12600e-06;-0.0014924562577030872
3.12625e-06;-0.0014993810484989856
3.12650e-06;-0.0015085265872259613
3.12675e-06;-0.0015210151184851602
3.12700e-06;-0.001533503649744359
3.12725e-06;-0.0015483964959355236
3.12750e-06;-0.0015669086663869063
3.12775e-06;-0.0015854208368382891
3.12800e-06;-0.0016057192211595057
3.12825e-06;-0.0016287064741920916
3.12850e-06;-0.0016528779097926282
3.12875e-06;-0.0016788319490943515
3.12900e-06;-0.0017057340965054926
3.12925e-06;-0.0017340634740337724
3.12950e-06;-0.0017631136442004553
3.12975e-06;-0.0017932488562009147
3.13000e-06;-0.0018238669044768267
3.13025e-06;-0.0018552117880863898
3.13050e-06;-0.001886749741152667
3.13075e-06;-0.0019185783304243671
3.13100e-06;-0.0019503647046295932
3.13125e-06;-0.0019819597934126335
3.13150e-06;-0.002013162321837669
3.13175e-06;-0.0020437919131239546
3.13200e-06;-0.0020736642712509954
3.13225e-06;-0.002102035391570617
3.13250e-06;-0.002128936566528125
3.13275e-06;-0.0021558377414856787
3.13300e-06;-0.0021810984378737405
3.13325e-06;-0.00220388964750437
3.13350e-06;-0.0022254995322739165
3.13375e-06;-0.0022453311151777785
3.13400e-06;-0.0022649836151246816
3.13425e-06;-0.00228436653337819
3.13450e-06;-0.002303469659680988
3.13475e-06;-0.0023221516024767015
3.13500e-06;-0.0023408335452723837
3.13525e-06;-0.0023589156949159426
3.13550e-06;-0.0023760949487375144
3.13575e-06;-0.0023932742025590567
3.13600e-06;-0.0024106198461631145
3.13625e-06;-0.002428215963849595
3.13650e-06;-0.002445812081536075
3.13675e-06;-0.002463408199222526
3.13700e-06;-0.0024809706981961475
3.13725e-06;-0.002498482589397286
3.13750e-06;-0.0025159944805983945
3.13775e-06;-0.002533506371799533
3.13800e-06;-0.002551181303303011
3.13825e-06;-0.00256910166676461
3.13850e-06;-0.0025870220302261784
3.13875e-06;-0.002604942393687777
3.13900e-06;-0.002622862757149376
3.13925e-06;-0.0026407831206109443
3.13950e-06;-0.002658703484072543
3.13975e-06;-0.0026766238475341413
3.14000e-06;-0.0026939863308760486
3.14025e-06;-0.002710509011983793
3.14050e-06;-0.0027270316930915377
3.14075e-06;-0.0027435543741992823
3.14100e-06;-0.002760077055306999
3.14125e-06;-0.0027765997364147437
3.14150e-06;-0.0027931224175224883
3.14175e-06;-0.0028096450986302046
3.14200e-06;-0.002825152879509441
3.14225e-06;-0.0028391328850667797
3.14250e-06;-0.002853112890624118
3.14275e-06;-0.0028663646998366766
3.14300e-06;-0.002878520322080558
3.14325e-06;-0.0028898515307743057
3.14350e-06;-0.002899941712378316
3.14375e-06;-0.0029086353814789297
3.14400e-06;-0.0029152268170007764
3.14425e-06;-0.002919672107001511
3.14450e-06;-0.0029208867068592393
3.14475e-06;-0.0029221013067169677
3.14500e-06;-0.002920818069510555
3.14525e-06;-0.002915774724938371
3.14550e-06;-0.002910731380366179
3.14575e-06;-0.002901832839413978
3.14600e-06;-0.002887130896585437
3.14625e-06;-0.0028724289537568706
3.14650e-06;-0.0028577270109283043
3.14675e-06;-0.002843025068099738
3.14700e-06;-0.0028283231252711964
3.14725e-06;-0.0028037114821594295
3.14750e-06;-0.002777988310315702
3.14775e-06;-0.0027522651384720175
3.14800e-06;-0.00272654196662829
3.14825e-06;-0.0027008187947845617
3.14850e-06;-0.0026724250702763
3.14875e-06;-0.0026400112417791686
3.14900e-06;-0.0026075974132820368
3.14925e-06;-0.002574175983712569
3.14950e-06;-0.002539237766571894
3.14975e-06;-0.002503732236555869
3.15000e-06;-0.0024673727047509497
3.15025e-06;-0.002430698639335409
3.15050e-06;-0.0023935510922170433
3.15075e-06;-0.0023563815663133546
3.15100e-06;-0.002319279880586563
3.15125e-06;-0.0022825173842096055
3.15150e-06;-0.0022462992248241196
3.15175e-06;-0.0022108007517233786
3.15200e-06;-0.0021761878583653397
3.15225e-06;-0.0021426599019670673
3.15250e-06;-0.0021104485850538582
3.15275e-06;-0.002079793117630348
3.15300e-06;-0.0020509328495981094
3.15325e-06;-0.0020241057368555735
3.15350e-06;-0.0019995093482208593
3.15375e-06;-0.0019772174462209862
3.15400e-06;-0.001957195450900437
3.15425e-06;-0.001939894731624559
3.15450e-06;-0.0019246633001627142
3.15475e-06;-0.001911351062740577
3.15500e-06;-0.0019009278751084633
3.15525e-06;-0.0018925137947287743
3.15550e-06;-0.0018871241145741481
3.15575e-06;-0.0018841282633486431
3.15600e-06;-0.0018847359513285804
3.15625e-06;-0.0018853436393085165
3.15650e-06;-0.0018885998870868022
3.15675e-06;-0.0018958431319955563
3.15700e-06;-0.0019030863769042981
3.15725e-06;-0.0019127857781785008
3.15750e-06;-0.0019261825429734863
3.15775e-06;-0.0019395793077684718
3.15800e-06;-0.001954716377257794
3.15825e-06;-0.0019724732062960564
3.15850e-06;-0.001991386361069535
3.15875e-06;-0.0020120401853914254
3.15900e-06;-0.002033670183755759
3.15925e-06;-0.0020567696611586248
3.15950e-06;-0.002080637187911551
3.15975e-06;-0.0021056608941688944
3.16000e-06;-0.0021311764512563424
3.16025e-06;-0.002157432413695224
3.16050e-06;-0.002183921639352494
3.16075e-06;-0.0022107620067069464
3.16100e-06;-0.0022375872258922343
3.16125e-06;-0.0022643896418517257
3.16150e-06;-0.0022909111196800593
3.16175e-06;-0.0023170096886038307
3.16200e-06;-0.0023425187799999067
3.16225e-06;-0.0023671405041509395
3.16250e-06;-0.0023908754563377634
3.16275e-06;-0.002413275510487093
3.16300e-06;-0.0024344977247836414
3.16325e-06;-0.002453946883355302
3.16350e-06;-0.0024715088557518785
3.16375e-06;-0.0024862299612479423
3.16400e-06;-0.0025009510667440313
3.16425e-06;-0.002513110675692249
3.16450e-06;-0.0025214143477675253
3.16475e-06;-0.002529718019842788
3.16500e-06;-0.0025353530120055465
3.16525e-06;-0.0025369707193176544
3.16550e-06;-0.0025385884266297598
3.16575e-06;-0.002536406706142549
3.16600e-06;-0.002528505534750885
3.16625e-06;-0.002520604363359221
3.16650e-06;-0.00251270319196757
3.16675e-06;-0.002504802020575906
3.16700e-06;-0.0024969008491842414
3.16725e-06;-0.002479357335054768
3.16750e-06;-0.0024607322805463173
3.16775e-06;-0.0024421072260378666
3.16800e-06;-0.002423482171529448
3.16825e-06;-0.0024048571170209973
3.16850e-06;-0.002383678372383152
3.16875e-06;-0.0023586554422279538
3.16900e-06;-0.0023336325120727986
3.16925e-06;-0.002307562282729209
3.16950e-06;-0.002279915506440461
3.16975e-06;-0.00225168441043628
3.17000e-06;-0.0022225737114755584
3.17025e-06;-0.002193134353004094
3.17050e-06;-0.0021632002484720907
3.17075e-06;-0.0021331907748285274
3.17100e-06;-0.002103109200075676
3.17125e-06;-0.002073199634054374
3.17150e-06;-0.0020436331613177417
3.17175e-06;-0.0020145818407307737
3.17200e-06;-0.0019862241974919724
3.17225e-06;-0.0019587489099048847
3.17250e-06;-0.0019326283318358303
3.17275e-06;-0.0019076435082959772
3.17300e-06;-0.0018845316327363618
3.17325e-06;-0.001864239190677252
3.17350e-06;-0.0018439467486181076
3.17375e-06;-0.0018236543065589632
3.17400e-06;-0.0018051674588874253
3.17425e-06;-0.0017893986543000015
3.17450e-06;-0.0017736298497125777
3.17475e-06;-0.001757861045125154
3.17500e-06;-0.0017445081934607115
3.17525e-06;-0.0017347921852529508
3.17550e-06;-0.00172507617704519
3.17575e-06;-0.0017153601688374457
3.17600e-06;-0.001705644160629685
3.17625e-06;-0.0016959281524219242
3.17650e-06;-0.0016862121442141797
3.17675e-06;-0.001676496136006419
3.17700e-06;-0.0016690938828548575
3.17725e-06;-0.0016651746300783167
3.17750e-06;-0.0016612553773017826
3.17775e-06;-0.0016573361245252418
3.17800e-06;-0.001653416871748701
3.17825e-06;-0.001649497618972167
3.17850e-06;-0.001645578366195626
3.17875e-06;-0.0016416591134190853
3.17900e-06;-0.001639171420712022
3.17925e-06;-0.0016388387202741562
3.17950e-06;-0.0016385060198362898
3.17975e-06;-0.0016381733193984234
3.18000e-06;-0.0016378406189605577
3.18025e-06;-0.0016375079185226916
3.18050e-06;-0.0016371752180848252
3.18075e-06;-0.0016368425176469595
3.18100e-06;-0.0016370325045537643
3.18125e-06;-0.001638009316415384
3.18150e-06;-0.0016389861282770039
3.18175e-06;-0.001639962940138622
3.18200e-06;-0.0016409397520002417
3.18225e-06;-0.0016419165638618615
3.18250e-06;-0.0016428933757234795
3.18275e-06;-0.0016438701875850993
3.18300e-06;-0.0016447684202552963
3.18325e-06;-0.0016455483641064294
3.18350e-06;-0.0016463283079575614
3.18375e-06;-0.0016473506380042435
3.18400e-06;-0.0016487378429791333
3.18425e-06;-0.0016501250479540206
3.18450e-06;-0.0016522428102283553
3.18475e-06;-0.0016554603135237682
3.18500e-06;-0.001658677816819176
3.18525e-06;-0.001661895320114589
3.18550e-06;-0.0016651128234100021
3.18575e-06;-0.0016683303267054153
3.18600e-06;-0.0016715478300008229
3.18625e-06;-0.001675880157561736
3.18650e-06;-0.0016818906806276607
3.18675e-06;-0.0016879012036935751
3.18700e-06;-0.0016939117267594998
3.18725e-06;-0.0016999222498254244
3.18750e-06;-0.001705932772891349
3.18775e-06;-0.0017119432959572635
3.18800e-06;-0.0017188889907818383
3.18825e-06;-0.0017272424420487242
3.18850e-06;-0.0017355958933155957
3.18875e-06;-0.0017439493445824813
3.18900e-06;-0.0017523027958493672
3.18925e-06;-0.0017606562471162387
3.18950e-06;-0.0017690096983831245
3.18975e-06;-0.0017773631496500102
3.19000e-06;-0.001786304996864906
3.19025e-06;-0.0017953128419388282
3.19050e-06;-0.0018043206870127656
3.19075e-06;-0.001813328532086703
3.19100e-06;-0.001822336377160625
3.19125e-06;-0.0018313442222345623
3.19150e-06;-0.0018403520673084997
3.19175e-06;-0.0018490202650279564
3.19200e-06;-0.0018571771761874978
3.19225e-06;-0.001865334087347053
3.19250e-06;-0.0018731396477200018
3.19275e-06;-0.001880416303826104
3.19300e-06;-0.0018872984337657134
3.19325e-06;-0.0018935866655818562
3.19350e-06;-0.0018992765447160421
3.19375e-06;-0.0019040656964330195
3.19400e-06;-0.0019077014420774098
3.19425e-06;-0.0019096009132734475
