Time(s);Current(A)
9.25000e-06;-0.007245743879743826
9.25025e-06;-0.007266288622909061
9.25050e-06;-0.007284039481767417
9.25075e-06;-0.007300680043089787
9.25100e-06;-0.007317320604412046
9.25125e-06;-0.0073288085999318915
9.25150e-06;-0.007338248951209502
9.25175e-06;-0.007347689302487049
9.25200e-06;-0.007351173662251243
9.25225e-06;-0.007352291094120355
9.25250e-06;-0.00735340852598946
9.25275e-06;-0.007348507762778423
9.25300e-06;-0.007341215351798721
9.25325e-06;-0.00733392294081907
9.25350e-06;-0.00731829687363473
9.25375e-06;-0.007299358987873469
9.25400e-06;-0.007280421102112336
9.25425e-06;-0.007261483216351075
9.25450e-06;-0.007242545330589815
9.25475e-06;-0.007214733906096176
9.25500e-06;-0.007183396112179712
9.25525e-06;-0.007152058318263248
9.25550e-06;-0.007120720524346997
9.25575e-06;-0.007089382730430533
9.25600e-06;-0.007052493401477805
9.25625e-06;-0.007013397876779309
9.25650e-06;-0.006974302352081078
9.25675e-06;-0.006932908350053458
9.25700e-06;-0.006890600926625757
9.25725e-06;-0.006847013387118641
9.25750e-06;-0.006802917125855747
9.25775e-06;-0.006758151565322756
9.25800e-06;-0.00671312002336461
9.25825e-06;-0.0066680443279815696
9.25850e-06;-0.006623166687907901
9.25875e-06;-0.006578771942886675
9.25900e-06;-0.0065350962169490314
9.25925e-06;-0.00649235461964612
9.25950e-06;-0.006450782024295384
9.25975e-06;-0.006410648694471255
9.26000e-06;-0.00637223995676988
9.26025e-06;-0.006335841791272195
9.26050e-06;-0.006301740648047
9.26075e-06;-0.00627023603731647
9.26100e-06;-0.006241733471280805
9.26125e-06;-0.00621672857280053
9.26150e-06;-0.006195562881089694
9.26175e-06;-0.006178345190405466
9.26200e-06;-0.006165093613937278
9.26225e-06;-0.006155816067927272
9.26250e-06;-0.006151953538824383
9.26275e-06;-0.006149793568943199
9.26300e-06;-0.006153533829520483
9.26325e-06;-0.006159618858392357
9.26350e-06;-0.0061731870318789146
9.26375e-06;-0.0061897290282288435
9.26400e-06;-0.00620627102457866
9.26425e-06;-0.006233401089899077
9.26450e-06;-0.006264738883815541
9.26475e-06;-0.006296076677732005
9.26500e-06;-0.006327414471648257
9.26525e-06;-0.006358752265564721
9.26550e-06;-0.006400772722304124
9.26575e-06;-0.006447038499504272
9.26600e-06;-0.006493304276704732
9.26625e-06;-0.006539570053905193
9.26650e-06;-0.006585835831105339
9.26675e-06;-0.006637690598774923
9.26700e-06;-0.006691766447086109
9.26725e-06;-0.006745842295396928
9.26750e-06;-0.006802024845219291
9.26775e-06;-0.006859044604188836
9.26800e-06;-0.006916064363157995
9.26825e-06;-0.00697306579429092
9.26850e-06;-0.0070300599418896634
9.26875e-06;-0.007087054089488021
9.26900e-06;-0.007142435387464192
9.26925e-06;-0.007197175734432366
9.26950e-06;-0.007249517634053401
9.26975e-06;-0.007300906383906178
9.27000e-06;-0.00734011631661893
9.27025e-06;-0.007374486352906438
9.27050e-06;-0.007408856389194179
9.27075e-06;-0.00744322642548192
9.27100e-06;-0.007477596461769429
9.27125e-06;-0.007511966498057169
9.27150e-06;-0.007546336534344911
9.27175e-06;-0.007580706570632419
9.27200e-06;-0.00761507660692016
9.27225e-06;-0.007649446643207902
9.27250e-06;-0.00768381667949541
9.27275e-06;-0.007702452313486421
9.27300e-06;-0.007714835051439975
9.27325e-06;-0.0077272177893935295
9.27350e-06;-0.007739600527347
9.27375e-06;-0.007751983265300555
9.27400e-06;-0.00776436600325411
9.27425e-06;-0.00777674874120758
9.27450e-06;-0.007789131479161135
9.27475e-06;-0.007801514217114689
9.27500e-06;-0.007813896955068159
9.27525e-06;-0.007826279693021715
9.27550e-06;-0.00782879696953084
9.27575e-06;-0.007827393683719503
9.27600e-06;-0.007825990397908157
9.27625e-06;-0.007824587112096812
9.27650e-06;-0.007823183826285475
9.27675e-06;-0.00782178054047413
9.27700e-06;-0.007820377254662782
9.27725e-06;-0.007818973968851447
9.27750e-06;-0.0078175706830401
9.27775e-06;-0.007816167397228754
9.27800e-06;-0.007814764111417417
9.27825e-06;-0.007813360825606071
9.27850e-06;-0.007811957539794725
9.27875e-06;-0.007810554253983389
9.27900e-06;-0.0078091509681720425
9.27925e-06;-0.007806284698902929
9.27950e-06;-0.00780283703586398
9.27975e-06;-0.007799389372825008
9.28000e-06;-0.007795941709786036
9.28025e-06;-0.007792494046747087
9.28050e-06;-0.007789046383708115
9.28075e-06;-0.007785598720669143
9.28100e-06;-0.007782151057630194
9.28125e-06;-0.007778703394591222
9.28150e-06;-0.007775255731552249
9.28175e-06;-0.007771808068513277
9.28200e-06;-0.007768360405474329
9.28225e-06;-0.007764912742435357
9.28250e-06;-0.007761465079396385
9.28275e-06;-0.007758017416357435
9.28300e-06;-0.007758377797911541
9.28325e-06;-0.00776025150717296
9.28350e-06;-0.007762125216434365
9.28375e-06;-0.007763998925695784
9.28400e-06;-0.007765872634957202
9.28425e-06;-0.007767746344218608
9.28450e-06;-0.0077696200534800265
9.28475e-06;-0.007771493762741445
9.28500e-06;-0.007773367472002851
9.28525e-06;-0.007775241181264269
9.28550e-06;-0.007777114890525687
9.28575e-06;-0.007778988599787093
9.28600e-06;-0.007781503135620633
9.28625e-06;-0.007786348955987975
9.28650e-06;-0.007791194776355283
9.28675e-06;-0.007796040596722625
9.28700e-06;-0.007800886417089967
9.28725e-06;-0.007805732237457275
9.28750e-06;-0.007810578057824617
9.28775e-06;-0.007815423878191959
9.28800e-06;-0.007820269698559267
9.28825e-06;-0.007825115518926609
9.28850e-06;-0.00782996133929395
9.28875e-06;-0.007834807159661259
9.28900e-06;-0.0078396529800286
9.28925e-06;-0.007842729263648174
9.28950e-06;-0.00784510232835196
9.28975e-06;-0.007847475393055761
9.29000e-06;-0.007849848457759564
9.29025e-06;-0.007852221522463365
9.29050e-06;-0.007854594587167151
9.29075e-06;-0.007856967651870954
9.29100e-06;-0.007859340716574756
9.29125e-06;-0.007861713781278541
9.29150e-06;-0.007864086845982344
9.29175e-06;-0.007866459910686146
9.29200e-06;-0.007868832975389931
9.29225e-06;-0.007871206040093734
9.29250e-06;-0.007873579104797536
9.29275e-06;-0.007875952169501321
9.29300e-06;-0.007878325234205124
9.29325e-06;-0.007880698298908926
9.29350e-06;-0.007880022042843026
9.29375e-06;-0.007878133978065876
9.29400e-06;-0.007876245913288725
9.29425e-06;-0.007874357848511588
9.29450e-06;-0.007872469783734437
9.29475e-06;-0.007870581718957286
9.29500e-06;-0.007868693654180149
9.29525e-06;-0.007866805589402998
9.29550e-06;-0.007864917524625847
9.29575e-06;-0.007863029459848708
9.29600e-06;-0.007861141395071559
9.29625e-06;-0.007859253330294408
9.29650e-06;-0.00785736526551727
9.29675e-06;-0.007855477200740119
9.29700e-06;-0.00785358913596297
9.29725e-06;-0.00785170107118583
9.29750e-06;-0.00784981300640868
9.29775e-06;-0.007846993598847999
9.29800e-06;-0.007843804073027028
9.29825e-06;-0.007840614547206037
9.29850e-06;-0.007837425021385045
9.29875e-06;-0.007834235495564052
9.29900e-06;-0.007831064115258145
9.29925e-06;-0.007827958747131623
9.29950e-06;-0.007824853379005101
9.29975e-06;-0.007821748010878598
9.30000e-06;-0.007818642642752076
9.30025e-06;-0.007815537274625554
9.30050e-06;-0.007812620758951045
9.30075e-06;-0.007809779293775894
9.30100e-06;-0.007805484431157204
9.30125e-06;-0.007800611984277493
9.30150e-06;-0.0077902725658912635
9.30175e-06;-0.0077777605575421625
9.30200e-06;-0.007765248549193147
9.30225e-06;-0.007746616709581855
9.30250e-06;-0.007725552831691347
9.30275e-06;-0.007704488953800982
9.30300e-06;-0.007676841716998701
9.30325e-06;-0.007646578234716143
9.30350e-06;-0.007616314752433788
9.30375e-06;-0.007576529051894963
9.30400e-06;-0.007532959194847299
9.30425e-06;-0.007489389337799931
9.30450e-06;-0.007445819480752267
9.30475e-06;-0.007399459654418141
9.30500e-06;-0.007342950104999439
9.30525e-06;-0.007286440555580353
9.30550e-06;-0.007229931006161268
9.30575e-06;-0.007173421456742566
9.30600e-06;-0.0071110932635099254
9.30625e-06;-0.007046452724742945
9.30650e-06;-0.006979608846782103
9.30675e-06;-0.006911889355583444
9.30700e-06;-0.006843025041063246
9.30725e-06;-0.006772974656447871
9.30750e-06;-0.006702020908823129
9.30775e-06;-0.0066304860608731395
9.30800e-06;-0.006558782740426704
9.30825e-06;-0.006487335032489151
9.30850e-06;-0.006416566154792064
9.30875e-06;-0.006346890263716589
9.30900e-06;-0.006278631098603028
9.30925e-06;-0.006211999525262523
9.30950e-06;-0.006147253932033182
9.30975e-06;-0.006084782264087051
9.31000e-06;-0.006025029527426956
9.31025e-06;-0.005968446879463128
9.31050e-06;-0.005915485080322032
9.31075e-06;-0.005866574896125474
9.31100e-06;-0.005821928877051752
9.31125e-06;-0.0057814190883317546
9.31150e-06;-0.005744880140567222
9.31175e-06;-0.005712336952668374
9.31200e-06;-0.00568391585213157
9.31225e-06;-0.005659755469264821
9.31250e-06;-0.005639994639509563
9.31275e-06;-0.005624759932721863
9.31300e-06;-0.005615547141009963
9.31325e-06;-0.005608212044412266
9.31350e-06;-0.005606622724592443
9.31375e-06;-0.005607316792741177
9.31400e-06;-0.00561682679096885
9.31425e-06;-0.00562984026478417
9.31450e-06;-0.005642853738599578
9.31475e-06;-0.005655867212414986
9.31500e-06;-0.005672029338759709
9.31525e-06;-0.005699646054025396
9.31550e-06;-0.0057272627692910826
9.31575e-06;-0.005754879484556769
9.31600e-06;-0.005782496199822268
9.31625e-06;-0.005816557611881492
9.31650e-06;-0.0058531801647035255
9.31675e-06;-0.00588980271752531
9.31700e-06;-0.005923975260631192
9.31725e-06;-0.0059571741629352555
9.31750e-06;-0.005990373065239094
9.31775e-06;-0.0060361637894920635
9.31800e-06;-0.006083623430946003
9.31825e-06;-0.006129675693524564
9.31850e-06;-0.006179332502694528
9.31875e-06;-0.006220504812482245
9.31900e-06;-0.006264525782135844
9.31925e-06;-0.006306593757561898
9.31950e-06;-0.0063482817565364775
9.31975e-06;-0.0063878541639489795
9.32000e-06;-0.006427426571361749
9.32025e-06;-0.006463661818778691
9.32050e-06;-0.006499160839642782
9.32075e-06;-0.006527903838136266
9.32100e-06;-0.006549508959404842
9.32125e-06;-0.006571114080673271
9.32150e-06;-0.006592719201941846
9.32175e-06;-0.006614324323210422
9.32200e-06;-0.006626679447549098
9.32225e-06;-0.006632513244656193
9.32250e-06;-0.006638347041763289
9.32275e-06;-0.006644180838870345
9.32300e-06;-0.006650014635977441
9.32325e-06;-0.006645302102849226
9.32350e-06;-0.006635779174303375
9.32375e-06;-0.00662625624575746
9.32400e-06;-0.006608193096962313
9.32425e-06;-0.006586234580258601
9.32450e-06;-0.006564276063555039
9.32475e-06;-0.006542317546851327
9.32500e-06;-0.006517844362473794
9.32525e-06;-0.006482420887466818
9.32550e-06;-0.006446997412459602
9.32575e-06;-0.006411573937452386
9.32600e-06;-0.00637615046244541
9.32625e-06;-0.006336059673054625
9.32650e-06;-0.006293840026779581
9.32675e-06;-0.006249098949827621
9.32700e-06;-0.0062032077971327995
9.32725e-06;-0.006156045935477883
9.32750e-06;-0.006107673840167572
9.32775e-06;-0.006058528648131416
9.32800e-06;-0.006009059377938797
9.32825e-06;-0.005959679198205568
9.32850e-06;-0.005910432965341555
9.32875e-06;-0.005861426779927714
9.32900e-06;-0.005813029347080638
9.32925e-06;-0.0057656211840908245
9.32950e-06;-0.005719499701925179
9.32975e-06;-0.005674940802126751
9.33000e-06;-0.005632369938452804
9.33025e-06;-0.0055921903835624434
9.33050e-06;-0.0055545744631801085
9.33075e-06;-0.005519755604682297
9.33100e-06;-0.005488302294418932
9.33125e-06;-0.005460954036850098
9.33150e-06;-0.005438191233460213
9.33175e-06;-0.005420132792980508
9.33200e-06;-0.005406851409892666
9.33225e-06;-0.00539839027770536
9.33250e-06;-0.005394647342020151
9.33275e-06;-0.005395558881451977
9.33300e-06;-0.005401271688218538
9.33325e-06;-0.005413807172218829
9.33350e-06;-0.005428758624831757
9.33375e-06;-0.005452126572217362
9.33400e-06;-0.005479333453810033
9.33425e-06;-0.005506540335402705
9.33450e-06;-0.005544748231067056
9.33475e-06;-0.005587973912683256
9.33500e-06;-0.005631199594299457
9.33525e-06;-0.005674425275915364
9.33550e-06;-0.005720578226973723
9.33575e-06;-0.005779478171000988
9.33600e-06;-0.005838378115027854
9.33625e-06;-0.005897278059055119
9.33650e-06;-0.005956178003082384
9.33675e-06;-0.006020900577436176
9.33700e-06;-0.006088278971741882
9.33725e-06;-0.006155657366047588
9.33750e-06;-0.006225422503661735
9.33775e-06;-0.006296276283375048
9.33800e-06;-0.00636713006308836
9.33825e-06;-0.006438146992003259
9.33850e-06;-0.006509238336583313
9.33875e-06;-0.006579082157405272
9.33900e-06;-0.006648356957303069
9.33925e-06;-0.006715345376501922
9.33950e-06;-0.006781290931026582
9.33975e-06;-0.006841905168306295
9.34000e-06;-0.006900087683510248
9.34025e-06;-0.0069582701987142
9.34050e-06;-0.007014089445833432
9.34075e-06;-0.0070596176820778385
9.34100e-06;-0.007105145918322245
9.34125e-06;-0.00715067415456665
9.34150e-06;-0.0071869412647794124
9.34175e-06;-0.007218984187312489
9.34200e-06;-0.007251027109845566
9.34225e-06;-0.0072830700323784255
9.34250e-06;-0.007315112954911502
9.34275e-06;-0.007347155877444579
9.34300e-06;-0.0073791987999774385
9.34325e-06;-0.007411241722510516
9.34350e-06;-0.007443284645043592
9.34375e-06;-0.0074753275675764515
9.34400e-06;-0.007507370490109529
9.34425e-06;-0.00753705079382709
9.34450e-06;-0.007556442913952459
9.34475e-06;-0.0075758350340779605
9.34500e-06;-0.007595227154203461
9.34525e-06;-0.007614619274328831
9.34550e-06;-0.007634011394454332
9.34575e-06;-0.007653403514579833
9.34600e-06;-0.007672795634705203
9.34625e-06;-0.007692187754830704
9.34650e-06;-0.007711579874956205
9.34675e-06;-0.007730971995081574
9.34700e-06;-0.007750364115207076
9.34725e-06;-0.007765924357581011
9.34750e-06;-0.007779736802685041
9.34775e-06;-0.007793549247789163
9.34800e-06;-0.007807361692893285
9.34825e-06;-0.007821174137997313
9.34850e-06;-0.007834986583101436
9.34875e-06;-0.007848120578888548
9.34900e-06;-0.007858300221189819
9.34925e-06;-0.007868479863491158
9.34950e-06;-0.007878659505792496
9.34975e-06;-0.007888839148093836
9.35000e-06;-0.007899018790395106
9.35025e-06;-0.007909198432696446
9.35050e-06;-0.007917553442661016
9.35075e-06;-0.007925076200757447
9.35100e-06;-0.007929859587279897
9.35125e-06;-0.007933393490789286
9.35150e-06;-0.007931383412789499
9.35175e-06;-0.007926844612222095
9.35200e-06;-0.007915454397957936
9.35225e-06;-0.007900939114750904
9.35250e-06;-0.007886423831543773
9.35275e-06;-0.00786395959515333
9.35300e-06;-0.007837869679768657
9.35325e-06;-0.007811779764383809
9.35350e-06;-0.007773797457191622
9.35375e-06;-0.007730390788555383
9.35400e-06;-0.007686984119918848
9.35425e-06;-0.007643577451282315
9.35450e-06;-0.007596918765659298
9.35475e-06;-0.0075360989518846065
9.35500e-06;-0.0074752791381099155
9.35525e-06;-0.007414459324335636
9.35550e-06;-0.007353639510560944
9.35575e-06;-0.007284264481665927
9.35600e-06;-0.007210987245393532
9.35625e-06;-0.007137710009120641
9.35650e-06;-0.007060676183854422
9.35675e-06;-0.006981928902050275
9.35700e-06;-0.006901653795392192
9.35725e-06;-0.006819757926467883
9.35750e-06;-0.006736687213293243
9.35775e-06;-0.006652836000053951
9.35800e-06;-0.0065686895959124626
9.35825e-06;-0.006484743436413384
9.35850e-06;-0.0064014921997098
9.35875e-06;-0.006319421144006953
9.35900e-06;-0.006238930069259732
9.35925e-06;-0.006160313609087402
9.35950e-06;-0.006083915596545313
9.35975e-06;-0.006010207618733725
9.36000e-06;-0.005939717545002553
9.36025e-06;-0.005872979634712773
9.36050e-06;-0.005810528640953195
9.36075e-06;-0.0057528382077328835
9.36100e-06;-0.005699850614175807
9.36125e-06;-0.005650764315480742
9.36150e-06;-0.005604871006068593
9.36175e-06;-0.0055620906268377965
9.36200e-06;-0.005522642707346474
9.36225e-06;-0.005486784146760056
9.36250e-06;-0.0054547713505168635
9.36275e-06;-0.005428151288425716
9.36300e-06;-0.005403430029174646
9.36325e-06;-0.005383127069907281
9.36350e-06;-0.005364839387001488
9.36375e-06;-0.005351298274558305
9.36400e-06;-0.005339922169309352
9.36425e-06;-0.005328546064060398
9.36450e-06;-0.005324811865302096
9.36475e-06;-0.005324563295306931
9.36500e-06;-0.005324314725311766
9.36525e-06;-0.005324066155316602
9.36550e-06;-0.005323817585321437
9.36575e-06;-0.0053304846653559855
9.36600e-06;-0.005340306113831067
9.36625e-06;-0.005350127562306217
9.36650e-06;-0.0053599490107813655
9.36675e-06;-0.005369770459256515
9.36700e-06;-0.00538360543140054
9.36725e-06;-0.005399271053207718
9.36750e-06;-0.005414936675014896
9.36775e-06;-0.005431985840430574
9.36800e-06;-0.005449666068187075
9.36825e-06;-0.005467346295943575
9.36850e-06;-0.005485687222003836
9.36875e-06;-0.005504329505979914
9.36900e-06;-0.005522969551384778
9.36925e-06;-0.005541608575731718
9.36950e-06;-0.005559362724857673
9.36975e-06;-0.005576713264422759
9.37000e-06;-0.005593628386404132
9.37025e-06;-0.005608647453035925
9.37050e-06;-0.00562366651966772
9.37075e-06;-0.005637092619023908
9.37100e-06;-0.005649792133651365
9.37125e-06;-0.005663168496275008
9.37150e-06;-0.005676853583016958
9.37175e-06;-0.005692481589674329
9.37200e-06;-0.00570899580156741
9.37225e-06;-0.00572551001346038
9.37250e-06;-0.005743550717723758
9.37275e-06;-0.005762287686161589
9.37300e-06;-0.005781024654599292
9.37325e-06;-0.005803938263928184
9.37350e-06;-0.005828756923998683
9.37375e-06;-0.005853575584069013
9.37400e-06;-0.005878394244139512
9.37425e-06;-0.005903212904210011
9.37450e-06;-0.0059280315642803415
9.37475e-06;-0.0059578042357453145
9.37500e-06;-0.005989836532427711
9.37525e-06;-0.006021868829110109
9.37550e-06;-0.006053901125792289
9.37575e-06;-0.006085933422474687
9.37600e-06;-0.006117965719157085
9.37625e-06;-0.006153180540756755
9.37650e-06;-0.006189846976611531
9.37675e-06;-0.006226513412466306
9.37700e-06;-0.0062631798483208335
9.37725e-06;-0.006299846284175609
9.37750e-06;-0.006336512720030384
9.37775e-06;-0.006373179155884911
9.37800e-06;-0.0064089158537241515
9.37825e-06;-0.006444228479170642
9.37850e-06;-0.0064795411046168925
9.37875e-06;-0.006514853730063382
9.37900e-06;-0.006550166355509872
9.37925e-06;-0.006585478980956122
9.37950e-06;-0.006620791606402612
9.37975e-06;-0.0066522675492152695
9.38000e-06;-0.006681993503151645
9.38025e-06;-0.006711719457088222
9.38050e-06;-0.006737301602511903
9.38075e-06;-0.006760993672707814
9.38100e-06;-0.006784685742903886
9.38125e-06;-0.006800288515209701
9.38150e-06;-0.006812201594445878
9.38175e-06;-0.006824114673682136
9.38200e-06;-0.006836027752918394
9.38225e-06;-0.006847940832154571
9.38250e-06;-0.006859853911390829
9.38275e-06;-0.006871766990627088
9.38300e-06;-0.006872154214908212
9.38325e-06;-0.006867284262642497
9.38350e-06;-0.006862414310376782
9.38375e-06;-0.006857544358111067
9.38400e-06;-0.0068526744058453855
9.38425e-06;-0.006847804453579671
9.38450e-06;-0.006842934501313956
9.38475e-06;-0.006828698757173124
9.38500e-06;-0.006810191085129177
9.38525e-06;-0.00679168341308523
9.38550e-06;-0.006773175741041408
9.38575e-06;-0.0067546680689974615
9.38600e-06;-0.006736160396953514
9.38625e-06;-0.0067161426068969516
9.38650e-06;-0.006689548905699401
9.38675e-06;-0.00666295520450185
9.38700e-06;-0.006636361503304479
9.38725e-06;-0.0066097678021069285
9.38750e-06;-0.006583174100909378
9.38775e-06;-0.006556580399712007
9.38800e-06;-0.006528494596502158
9.38825e-06;-0.006499728215258293
9.38850e-06;-0.006470961834014624
9.38875e-06;-0.006442472982301862
9.38900e-06;-0.0064141107174451656
9.38925e-06;-0.006386559295061609
9.38950e-06;-0.0063593777143988815
9.38975e-06;-0.0063339773968299476
9.39000e-06;-0.006309389549537691
9.39025e-06;-0.006284801702245268
9.39050e-06;-0.00626269914869311
9.39075e-06;-0.00624173018809514
9.39100e-06;-0.00622185428984074
9.39125e-06;-0.006202476959522646
9.39150e-06;-0.006181595682444778
9.39175e-06;-0.00616002842470269
9.39200e-06;-0.006138461166960604
9.39225e-06;-0.006115676766070442
9.39250e-06;-0.006092337201469019
9.39275e-06;-0.0060689976368674394
9.39300e-06;-0.0060441264631616925
9.39325e-06;-0.00601855669143494
9.39350e-06;-0.005992986919708014
9.39375e-06;-0.005964068956104095
9.39400e-06;-0.005933623814179548
9.39425e-06;-0.005903178672254796
9.39450e-06;-0.005872733530330044
9.39475e-06;-0.0058414899121872355
9.39500e-06;-0.005806769275282996
9.39525e-06;-0.005772048638378756
9.39550e-06;-0.0057373280014747525
9.39575e-06;-0.005702607364570513
9.39600e-06;-0.0056657746357269495
9.39625e-06;-0.005627978538850942
9.39650e-06;-0.005589643585904162
