Time(s);Current(A)
9.05000e-06;-0.00985920171179875
9.05025e-06;-0.009848098794505017
9.05050e-06;-0.009836995877211284
9.05075e-06;-0.009830937480072795
9.05100e-06;-0.009831105490665255
9.05125e-06;-0.009831273501257716
9.05150e-06;-0.009831441511850177
9.05175e-06;-0.009831609522442638
9.05200e-06;-0.00983634692108824
9.05225e-06;-0.00984672427600818
9.05250e-06;-0.009857101630928048
9.05275e-06;-0.009867478985847986
9.05300e-06;-0.009877856340767925
9.05325e-06;-0.009890858649102769
9.05350e-06;-0.009907100914804063
9.05375e-06;-0.009923343180505357
9.05400e-06;-0.00994048066089051
9.05425e-06;-0.00995872309704122
9.05450e-06;-0.00997696553319193
9.05475e-06;-0.009995610767319979
9.05500e-06;-0.010014753171518625
9.05525e-06;-0.010033850974768405
9.05550e-06;-0.01005289372745144
9.05575e-06;-0.010071401893995151
9.05600e-06;-0.01008925022547637
9.05625e-06;-0.010104528855437318
9.05650e-06;-0.010116635724969033
9.05675e-06;-0.010128742594500747
9.05700e-06;-0.010140849464032379
9.05725e-06;-0.010152956333564094
9.05750e-06;-0.010165063203095808
9.05775e-06;-0.01017717007262744
9.05800e-06;-0.010189276942159155
9.05825e-06;-0.010201383811690869
9.05850e-06;-0.010213490681222502
9.05875e-06;-0.010225597550754216
9.05900e-06;-0.010237704420285931
9.05925e-06;-0.010245670250915932
9.05950e-06;-0.01025340695000464
9.05975e-06;-0.010261143649093401
9.06000e-06;-0.010268880348182161
9.06025e-06;-0.010276617047270868
9.06050e-06;-0.010284353746359628
9.06075e-06;-0.010292090445448389
9.06100e-06;-0.010299827144537095
9.06125e-06;-0.010307563843625855
9.06150e-06;-0.010315300542714616
9.06175e-06;-0.010323037241803324
9.06200e-06;-0.010330180523831948
9.06225e-06;-0.01033659135629978
9.06250e-06;-0.01034300218876757
9.06275e-06;-0.0103494130212354
9.06300e-06;-0.010355823853703233
9.06325e-06;-0.010362234686171022
9.06350e-06;-0.010368645518638853
9.06375e-06;-0.010375056351106686
9.06400e-06;-0.010381467183574475
9.06425e-06;-0.010387878016042306
9.06450e-06;-0.010392579042350084
9.06475e-06;-0.010397185461838057
9.06500e-06;-0.01040179188132606
9.06525e-06;-0.010406398300814064
9.06550e-06;-0.010411004720302035
9.06575e-06;-0.010415611139790039
9.06600e-06;-0.010420217559278041
9.06625e-06;-0.010424823978766014
9.06650e-06;-0.010429430398254018
9.06675e-06;-0.010433244516511828
9.06700e-06;-0.01043608070419237
9.06725e-06;-0.010438916891872933
9.06750e-06;-0.010442548393669548
9.06775e-06;-0.010447161544822477
9.06800e-06;-0.010451774695975373
9.06825e-06;-0.010458566247188382
9.06850e-06;-0.01046804657881364
9.06875e-06;-0.010477526910438833
9.06900e-06;-0.01048700724206409
9.06925e-06;-0.010496487573689347
9.06950e-06;-0.01050596790531454
9.06975e-06;-0.010515448236939798
9.07000e-06;-0.010528334675740568
9.07025e-06;-0.01054542524326114
9.07050e-06;-0.010562515810781825
9.07075e-06;-0.010579606378302513
9.07100e-06;-0.010596696945823084
9.07125e-06;-0.01061378751334377
9.07150e-06;-0.010630878080864456
9.07175e-06;-0.010650799131387395
9.07200e-06;-0.010674213822676661
9.07225e-06;-0.010697628513965926
9.07250e-06;-0.010721043205255033
9.07275e-06;-0.0107444578965443
9.07300e-06;-0.010767872587833566
9.07325e-06;-0.010791287279122673
9.07350e-06;-0.01081470197041194
9.07375e-06;-0.01083949464445623
9.07400e-06;-0.010864363564901504
9.07425e-06;-0.010889232485346945
9.07450e-06;-0.010914101405792388
9.07475e-06;-0.010938970326237661
9.07500e-06;-0.010963839246683104
9.07525e-06;-0.010988708167128547
9.07550e-06;-0.011012371139052205
9.07575e-06;-0.011034545619112941
9.07600e-06;-0.011056720099173679
9.07625e-06;-0.01107738745620587
9.07650e-06;-0.011096194584277528
9.07675e-06;-0.011115001712349313
9.07700e-06;-0.011131573652059353
9.07725e-06;-0.011145386718045098
9.07750e-06;-0.011159199784030937
9.07775e-06;-0.01117018826220021
9.07800e-06;-0.011177690375979562
9.07825e-06;-0.011185192489758966
9.07850e-06;-0.011187929024752354
9.07875e-06;-0.011184783446936505
9.07900e-06;-0.011181637869120636
9.07925e-06;-0.011178492291304767
9.07950e-06;-0.011175346713488918
9.07975e-06;-0.011172201135673049
9.08000e-06;-0.01116905555785718
9.08025e-06;-0.011152767628930199
9.08050e-06;-0.011135752508772353
9.08075e-06;-0.011118737388614505
9.08100e-06;-0.011101722268456774
9.08125e-06;-0.011084707148298928
9.08150e-06;-0.011067692028141082
9.08175e-06;-0.011046120044109807
9.08200e-06;-0.011018923562285886
9.08225e-06;-0.010991727080461965
9.08250e-06;-0.010964530598638228
9.08275e-06;-0.010937334116814306
9.08300e-06;-0.010910137634990385
9.08325e-06;-0.010880757026639033
9.08350e-06;-0.010848680569744555
9.08375e-06;-0.010816604112850077
9.08400e-06;-0.010784527655955818
9.08425e-06;-0.01075245119906134
9.08450e-06;-0.010720374742166864
9.08475e-06;-0.010688175875814655
9.08500e-06;-0.010655825920524319
9.08525e-06;-0.01062394031529929
9.08550e-06;-0.010592627853356858
9.08575e-06;-0.010562108829789607
9.08600e-06;-0.010532569140367954
9.08625e-06;-0.010504179905327664
9.08650e-06;-0.010477210666212131
9.08675e-06;-0.010452168993960235
9.08700e-06;-0.0104295065008704
9.08725e-06;-0.010406844007780719
9.08750e-06;-0.01038655967618736
9.08775e-06;-0.010369210688826564
9.08800e-06;-0.010351861701465888
9.08825e-06;-0.010338397848998046
9.08850e-06;-0.0103297293850343
9.08875e-06;-0.010321060921070612
9.08900e-06;-0.010312392457106865
9.08925e-06;-0.010303723993143119
9.08950e-06;-0.01029505552917943
9.08975e-06;-0.010286387065215683
9.09000e-06;-0.0102882999588809
9.09025e-06;-0.010290798339147592
9.09050e-06;-0.010293296719414301
9.09075e-06;-0.01029579509968101
9.09100e-06;-0.010298293479947701
9.09125e-06;-0.010300791860214408
9.09150e-06;-0.01030733035752571
9.09175e-06;-0.01031885553647467
9.09200e-06;-0.010330380715423708
9.09225e-06;-0.010341905894372746
9.09250e-06;-0.010353431073321706
9.09275e-06;-0.010364956252270746
9.09300e-06;-0.010376481431219784
9.09325e-06;-0.010388006610168822
9.09350e-06;-0.01040381705544421
9.09375e-06;-0.010419864612639237
9.09400e-06;-0.010435912169834265
9.09425e-06;-0.010451959727029184
9.09450e-06;-0.010468007284224212
9.09475e-06;-0.01048405484141924
9.09500e-06;-0.010500102398614158
9.09525e-06;-0.01051597658177816
9.09550e-06;-0.01053163677087032
9.09575e-06;-0.010547296959962373
9.09600e-06;-0.010560522812593783
9.09625e-06;-0.010570743984717943
9.09650e-06;-0.010580965156842035
9.09675e-06;-0.010591186328966197
9.09700e-06;-0.010601407501090359
9.09725e-06;-0.010611628673214451
9.09750e-06;-0.01062184984533861
9.09775e-06;-0.010632071017462772
9.09800e-06;-0.010642292189586865
9.09825e-06;-0.010652513361711026
9.09850e-06;-0.01065865533939127
9.09875e-06;-0.01065976240253571
9.09900e-06;-0.010660869465680156
9.09925e-06;-0.0106619765288246
9.09950e-06;-0.01066308359196904
9.09975e-06;-0.010664190655113487
9.10000e-06;-0.010665297718257933
9.10025e-06;-0.01066640478140237
9.10050e-06;-0.010667511844546817
9.10075e-06;-0.010668618907691264
9.10100e-06;-0.01066663341607319
9.10125e-06;-0.010660830810772048
9.10150e-06;-0.010655028205470906
9.10175e-06;-0.010649225600169765
9.10200e-06;-0.010643422994868663
9.10225e-06;-0.010637620389567521
9.10250e-06;-0.01063181778426638
9.10275e-06;-0.010626015178965276
9.10300e-06;-0.010620212573664134
9.10325e-06;-0.010614409968362992
9.10350e-06;-0.010607373459055047
9.10375e-06;-0.010598813952668528
9.10400e-06;-0.01059025444628201
9.10425e-06;-0.01058169493989555
9.10450e-06;-0.010573135433509032
9.10475e-06;-0.010564575927122512
9.10500e-06;-0.010556016420736052
9.10525e-06;-0.010547456914349534
9.10550e-06;-0.010538897407963016
9.10575e-06;-0.010530337901576555
9.10600e-06;-0.01052208700318831
9.10625e-06;-0.010514217016991952
9.10650e-06;-0.010506347030795646
9.10675e-06;-0.01049904212889489
9.10700e-06;-0.010492434705668852
9.10725e-06;-0.010485827282442857
9.10750e-06;-0.010480697109335024
9.10775e-06;-0.010477390293313415
9.10800e-06;-0.010474083477291828
9.10825e-06;-0.01047388388055439
9.10850e-06;-0.010477519497793531
9.10875e-06;-0.010481155115032649
9.10900e-06;-0.01048479073227179
9.10925e-06;-0.010488426349510933
9.10950e-06;-0.01049206196675005
9.10975e-06;-0.01049569758398919
9.11000e-06;-0.010503771620883721
9.11025e-06;-0.010517323960897282
9.11050e-06;-0.010530876300910937
9.11075e-06;-0.01054442864092459
9.11100e-06;-0.010557980980938244
9.11125e-06;-0.010571533320951804
9.11150e-06;-0.010585085660965459
9.11175e-06;-0.010602147728443334
9.11200e-06;-0.01062354182227457
9.11225e-06;-0.01064493591610595
9.11250e-06;-0.01066633000993733
9.11275e-06;-0.010687724103768566
9.11300e-06;-0.010709118197599945
9.11325e-06;-0.010730512291431326
9.11350e-06;-0.01075190638526256
9.11375e-06;-0.010775632259834194
9.11400e-06;-0.010799487156260395
9.11425e-06;-0.010823342052686435
9.11450e-06;-0.010847196949112636
9.11475e-06;-0.010871051845538836
9.11500e-06;-0.010894906741964876
9.11525e-06;-0.010918761638391077
9.11550e-06;-0.010940798525113558
9.11575e-06;-0.010960591458130439
9.11600e-06;-0.010980384391147454
9.11625e-06;-0.01100017732416447
9.11650e-06;-0.011019970257181351
9.11675e-06;-0.011039763190198367
9.11700e-06;-0.011056615308940254
9.11725e-06;-0.011069837605972839
9.11750e-06;-0.011083059903005513
9.11775e-06;-0.011096282200038186
9.11800e-06;-0.011109504497070771
9.11825e-06;-0.011122726794103446
9.11850e-06;-0.01113250260293492
9.11875e-06;-0.011138024441088999
9.11900e-06;-0.011143546279243114
9.11925e-06;-0.01114906811739723
9.11950e-06;-0.011154589955551346
9.11975e-06;-0.011160111793705425
9.12000e-06;-0.01116563363185954
9.12025e-06;-0.011171155470013655
9.12050e-06;-0.011176677308167734
9.12075e-06;-0.01118219914632185
9.12100e-06;-0.011187720984475966
9.12125e-06;-0.011193242822630045
9.12150e-06;-0.01119876466078416
9.12175e-06;-0.011204286498938277
9.12200e-06;-0.011209808337092354
9.12225e-06;-0.011215330175246471
9.12250e-06;-0.011220852013400586
9.12275e-06;-0.011226373851554665
9.12300e-06;-0.011226742033870528
9.12325e-06;-0.01122682505462575
9.12350e-06;-0.011226908075380973
9.12375e-06;-0.011226991096136195
9.12400e-06;-0.011227074116891419
9.12425e-06;-0.01122715713764664
9.12450e-06;-0.011227240158401864
9.12475e-06;-0.011227323179157086
9.12500e-06;-0.01122740619991231
9.12525e-06;-0.011227489220667531
9.12550e-06;-0.011227572241422755
9.12575e-06;-0.011227655262177977
9.12600e-06;-0.0112277382829332
9.12625e-06;-0.011227821303688422
9.12650e-06;-0.011227904324443644
9.12675e-06;-0.011227987345198868
9.12700e-06;-0.011228070365954091
9.12725e-06;-0.011226342361907548
9.12750e-06;-0.011222379025559014
9.12775e-06;-0.011218415689210481
9.12800e-06;-0.011214452352861948
9.12825e-06;-0.01121048901651344
9.12850e-06;-0.011206525680164907
9.12875e-06;-0.011202562343816374
9.12900e-06;-0.011198599007467867
9.12925e-06;-0.011194635671119333
9.12950e-06;-0.011190672334770798
9.12975e-06;-0.011183944573258438
9.13000e-06;-0.011173804705595055
9.13025e-06;-0.011163664837931672
9.13050e-06;-0.011153524970268357
9.13075e-06;-0.011143385102604974
9.13100e-06;-0.01113324523494159
9.13125e-06;-0.011123105367278275
9.13150e-06;-0.011112965499614892
9.13175e-06;-0.011102825631951509
9.13200e-06;-0.011092685764288193
9.13225e-06;-0.01108073054327379
9.13250e-06;-0.011066534647265992
9.13275e-06;-0.01105233875125829
9.13300e-06;-0.011038142855250493
9.13325e-06;-0.011023946959242694
9.13350e-06;-0.011009751063234994
9.13375e-06;-0.010995555167227195
9.13400e-06;-0.010981359271219397
9.13425e-06;-0.010967163375211695
9.13450e-06;-0.010952967479203898
9.13475e-06;-0.010938771583196099
9.13500e-06;-0.010925490783460945
9.13525e-06;-0.010913339479167181
9.13550e-06;-0.010901188174873419
9.13575e-06;-0.010889036870579738
9.13600e-06;-0.010876885566285976
9.13625e-06;-0.010864734261992214
9.13650e-06;-0.010852582957698451
9.13675e-06;-0.01084043165340477
9.13700e-06;-0.010828280349111008
9.13725e-06;-0.010816129044817246
9.13750e-06;-0.010803977740523565
9.13775e-06;-0.01079408695127276
9.13800e-06;-0.010786986296255087
9.13825e-06;-0.010779885641237464
9.13850e-06;-0.01077278498621979
9.13875e-06;-0.010765684331202119
9.13900e-06;-0.010758583676184494
9.13925e-06;-0.010751483021166821
9.13950e-06;-0.01074438236614915
9.13975e-06;-0.010737281711131525
9.14000e-06;-0.010730181056113853
9.14025e-06;-0.01072308040109618
9.14050e-06;-0.010715979746078555
9.14075e-06;-0.010708879091060884
9.14100e-06;-0.01070177843604321
9.14125e-06;-0.010694677781025588
9.14150e-06;-0.010687577126007914
9.14175e-06;-0.010680476470990243
9.14200e-06;-0.010673375815972618
9.14225e-06;-0.010666275160954945
9.14250e-06;-0.010661647631777543
9.14275e-06;-0.010657156945348061
9.14300e-06;-0.010652666258918548
9.14325e-06;-0.010648175572489035
9.14350e-06;-0.01064368488605955
9.14375e-06;-0.010639194199630038
9.14400e-06;-0.010634703513200524
9.14425e-06;-0.01063021282677104
9.14450e-06;-0.010625722140341527
9.14475e-06;-0.010621231453912014
9.14500e-06;-0.0106167407674825
9.14525e-06;-0.010612250081053017
9.14550e-06;-0.010607759394623504
9.14575e-06;-0.01060326870819399
9.14600e-06;-0.010598778021764507
9.14625e-06;-0.010594287335334993
9.14650e-06;-0.01058979664890548
9.14675e-06;-0.010585305962475998
9.14700e-06;-0.010580480585549758
9.14725e-06;-0.010575242103028118
9.14750e-06;-0.010570003620506512
9.14775e-06;-0.010564765137984872
9.14800e-06;-0.010559526655463232
9.14825e-06;-0.010554288172941628
9.14850e-06;-0.010549049690419988
9.14875e-06;-0.010543811207898348
9.14900e-06;-0.010538572725376744
9.14925e-06;-0.010531124295946706
9.14950e-06;-0.010520948148095026
9.14975e-06;-0.010510772000243416
9.15000e-06;-0.010500595852391737
9.15025e-06;-0.010490419704540057
9.15050e-06;-0.010480243556688447
9.15075e-06;-0.01047006740883677
9.15100e-06;-0.01045989126098509
9.15125e-06;-0.01044971511313348
9.15150e-06;-0.010437635945151968
9.15175e-06;-0.010423207895826025
9.15200e-06;-0.01040877984650018
9.15225e-06;-0.010394351797174238
9.15250e-06;-0.010379923747848295
9.15275e-06;-0.010365495698522449
9.15300e-06;-0.010351067649196506
9.15325e-06;-0.010336639599870563
9.15350e-06;-0.01032221155054462
9.15375e-06;-0.010306917412614143
9.15400e-06;-0.010291575352356737
9.15425e-06;-0.01027623329209933
9.15450e-06;-0.010260891231842026
9.15475e-06;-0.01024554917158462
9.15500e-06;-0.010230207111327213
9.15525e-06;-0.01021486505106991
9.15550e-06;-0.010199522990812504
9.15575e-06;-0.010185093962732197
9.15600e-06;-0.010171791882399054
9.15625e-06;-0.010158489802065821
9.15650e-06;-0.010145187721732589
9.15675e-06;-0.01013275702722604
9.15700e-06;-0.01012140187673504
9.15725e-06;-0.010110046726244042
9.15750e-06;-0.010098691575753119
9.15775e-06;-0.010086210355513013
9.15800e-06;-0.01007233923708669
9.15825e-06;-0.010058468118660461
9.15850e-06;-0.010043411532025212
9.15875e-06;-0.010026891732196683
9.15900e-06;-0.010010371932368265
9.15925e-06;-0.009991673696393664
9.15950e-06;-0.009970286635458818
9.15975e-06;-0.009948899574524116
9.16000e-06;-0.009927512513589268
9.16025e-06;-0.009906125452654421
9.16050e-06;-0.00988473839171972
9.16075e-06;-0.009857167625019527
9.16100e-06;-0.00982925470213866
9.16125e-06;-0.009801341779257984
9.16150e-06;-0.009773428856377117
9.16175e-06;-0.00974551593349625
9.16200e-06;-0.009715426181164595
9.16225e-06;-0.009682649587002828
9.16250e-06;-0.009649872992840841
9.16275e-06;-0.009617096398678854
9.16300e-06;-0.00958431980451709
9.16325e-06;-0.009550719134880828
9.16350e-06;-0.009516101315988826
9.16375e-06;-0.009481483497097059
9.16400e-06;-0.009446865678205057
9.16425e-06;-0.009412247859313055
9.16450e-06;-0.009377773888901896
9.16475e-06;-0.009343477469430393
9.16500e-06;-0.009309586418395263
9.16525e-06;-0.009276541680104338
9.16550e-06;-0.009244288280127187
9.16575e-06;-0.00921289970949849
9.16600e-06;-0.009182527521220578
9.16625e-06;-0.0091533746721457
9.16650e-06;-0.009125649778530783
9.16675e-06;-0.00909956103980141
9.16700e-06;-0.009075318225047853
9.16725e-06;-0.009053129507504335
9.16750e-06;-0.009033176657096104
9.16775e-06;-0.009015580190863896
9.16800e-06;-0.009000949285316544
9.16825e-06;-0.008988342902946634
9.16850e-06;-0.008977971569991187
9.16875e-06;-0.008970358939266255
9.16900e-06;-0.008965038463843632
9.16925e-06;-0.008962547175956527
9.16950e-06;-0.00896291896330486
9.16975e-06;-0.008966824619741921
9.17000e-06;-0.008970730276179008
9.17025e-06;-0.008979047662432446
9.17050e-06;-0.00899281040877736
9.17075e-06;-0.00900657315512218
9.17100e-06;-0.009020335901467093
9.17125e-06;-0.009034098647812006
9.17150e-06;-0.009047861394156826
9.17175e-06;-0.009071298986930156
9.17200e-06;-0.009095271907326298
9.17225e-06;-0.009119244827722275
9.17250e-06;-0.009143217748118417
9.17275e-06;-0.009167190668514557
9.17300e-06;-0.009193484341365927
9.17325e-06;-0.009222642498972847
9.17350e-06;-0.009251800656579766
9.17375e-06;-0.009281759686051771
9.17400e-06;-0.009312707224765385
9.17425e-06;-0.009343654763478999
9.17450e-06;-0.009374641067503024
9.17475e-06;-0.009405675219216076
9.17500e-06;-0.00943670937092913
9.17525e-06;-0.009467003230258541
9.17550e-06;-0.009496383353079079
9.17575e-06;-0.009525763475899614
9.17600e-06;-0.009551604673219917
9.17625e-06;-0.009573077805293796
9.17650e-06;-0.009594550937367675
9.17675e-06;-0.00961602406944141
9.17700e-06;-0.009637497201515289
9.17725e-06;-0.009658970333589168
9.17750e-06;-0.009680443465662901
9.17775e-06;-0.009701916597736782
9.17800e-06;-0.00972338972981066
9.17825e-06;-0.009744862861884394
9.17850e-06;-0.009764424238897933
9.17875e-06;-0.009781625953115596
9.17900e-06;-0.00979882766733326
9.17925e-06;-0.009816029381550805
9.17950e-06;-0.009833231095768467
9.17975e-06;-0.009850432809986131
9.18000e-06;-0.009867634524203677
9.18025e-06;-0.00988483623842134
9.18050e-06;-0.009902037952639003
9.18075e-06;-0.009919239666856549
9.18100e-06;-0.009936785044584156
9.18125e-06;-0.009954754603220504
9.18150e-06;-0.00997272416185673
9.18175e-06;-0.009990693720493077
9.18200e-06;-0.010008663279129424
9.18225e-06;-0.01002663283776565
9.18250e-06;-0.010044602396401998
9.18275e-06;-0.010062571955038345
9.18300e-06;-0.01008054151367457
9.18325e-06;-0.010098184554461669
9.18350e-06;-0.010115424577081235
9.18375e-06;-0.010132664599700683
9.18400e-06;-0.010149904622320249
9.18425e-06;-0.010167144644939813
9.18450e-06;-0.010184384667559263
9.18475e-06;-0.010201624690178827
9.18500e-06;-0.010218864712798393
9.18525e-06;-0.01023610473541784
9.18550e-06;-0.010250754429414742
9.18575e-06;-0.010262206903114805
9.18600e-06;-0.010273659376814789
9.18625e-06;-0.01028511185051485
9.18650e-06;-0.010296564324214913
9.18675e-06;-0.010308016797914897
9.18700e-06;-0.01031946927161496
9.18725e-06;-0.010330921745315021
9.18750e-06;-0.010342374219015084
9.18775e-06;-0.010353826692715068
9.18800e-06;-0.010360720782718609
9.18825e-06;-0.010361988499007177
9.18850e-06;-0.010363256215295737
9.18875e-06;-0.010364523931584305
9.18900e-06;-0.010365791647872873
9.18925e-06;-0.010367059364161433
9.18950e-06;-0.010368327080450001
9.18975e-06;-0.01036959479673857
9.19000e-06;-0.01037086251302713
9.19025e-06;-0.010372130229315697
9.19050e-06;-0.010369387616084658
9.19075e-06;-0.010361695087686296
9.19100e-06;-0.010354002559287883
9.19125e-06;-0.010346310030889469
9.19150e-06;-0.010338617502491109
9.19175e-06;-0.010330924974092695
9.19200e-06;-0.010323232445694282
9.19225e-06;-0.01031553991729592
9.19250e-06;-0.010307847388897506
9.19275e-06;-0.010300154860499093
9.19300e-06;-0.010288272071523205
9.19325e-06;-0.010276157427472607
9.19350e-06;-0.010264042783422009
9.19375e-06;-0.010251928139371492
9.19400e-06;-0.010239813495320894
9.19425e-06;-0.010227698851270296
9.19450e-06;-0.010215584207219781
9.19475e-06;-0.010203469563169183
9.19500e-06;-0.010191354919118585
9.19525e-06;-0.01017940071722359
9.19550e-06;-0.010167644547698515
9.19575e-06;-0.010155888378173442
9.19600e-06;-0.010144132208648368
9.19625e-06;-0.010132376039123373
9.19650e-06;-0.010120619869598299
9.19675e-06;-0.010112555086326122
9.19700e-06;-0.010104694554465042
9.19725e-06;-0.01009683402260391
9.19750e-06;-0.010088973490742779
