Time(s);Current(A)
1.38000e-05;-0.0016752325761595496
1.38003e-05;-0.001639960348153983
1.38005e-05;-0.0016071583462498344
1.38008e-05;-0.001576919738379701
1.38010e-05;-0.001549428653347174
1.38013e-05;-0.0015248690072425248
1.38015e-05;-0.0015034202140490078
1.38018e-05;-0.001485412938203605
1.38020e-05;-0.0014710431547462364
1.38023e-05;-0.0014576800385431988
1.38025e-05;-0.001449135503167106
1.38028e-05;-0.001440590967790955
1.38030e-05;-0.0014332574266567339
1.38033e-05;-0.0014317205115779816
1.38035e-05;-0.001430183596499219
1.38038e-05;-0.0014297604259545136
1.38040e-05;-0.0014346683795074043
1.38043e-05;-0.0014395763330603284
1.38045e-05;-0.0014451662516985805
1.38048e-05;-0.0014540205100383725
1.38050e-05;-0.0014633719207946462
1.38053e-05;-0.0014751030345674856
1.38055e-05;-0.0014872905922783946
1.38058e-05;-0.0015016629950805043
1.38060e-05;-0.0015163436436467816
1.38063e-05;-0.0015324997620098143
1.38065e-05;-0.0015487994614993613
1.38068e-05;-0.0015658876087038442
1.38070e-05;-0.0015834600358722137
1.38073e-05;-0.0016011133971686978
1.38075e-05;-0.001619154163176896
1.38078e-05;-0.001637174720800292
1.38080e-05;-0.001655098547617715
1.38083e-05;-0.001672850306427005
1.38085e-05;-0.0016897784329967275
1.38088e-05;-0.0017063485791135539
1.38090e-05;-0.0017212051920442492
1.38093e-05;-0.0017360618049749445
1.38095e-05;-0.0017503455083557635
1.38098e-05;-0.0017618868845565784
1.38100e-05;-0.0017734282607573936
1.38103e-05;-0.001784001888651275
1.38105e-05;-0.0017899432277545255
1.38108e-05;-0.001795884566857776
1.38110e-05;-0.001801825905960986
1.38113e-05;-0.0018077672450642365
1.38115e-05;-0.001813708584167487
1.38118e-05;-0.001819649923270697
1.38120e-05;-0.0018242530773092968
1.38123e-05;-0.0018224507851890494
1.38125e-05;-0.0018206484930688143
1.38128e-05;-0.001818846200948567
1.38130e-05;-0.0018170439088283198
1.38133e-05;-0.0018152416167080848
1.38135e-05;-0.0018134393245878373
1.38138e-05;-0.0018106279960966865
1.38140e-05;-0.0018029867466052157
1.38143e-05;-0.001795345497113693
1.38145e-05;-0.0017877042476221702
1.38148e-05;-0.0017800629981306992
1.38150e-05;-0.0017724217486391766
1.38153e-05;-0.0017642097522672865
1.38155e-05;-0.0017532657806930542
1.38158e-05;-0.0017423218091187477
1.38160e-05;-0.0017313778375444412
1.38163e-05;-0.001720433865970209
1.38165e-05;-0.0017094898943959024
1.38168e-05;-0.001698378059445065
1.38170e-05;-0.0016864627184255152
1.38173e-05;-0.0016745473774058847
1.38175e-05;-0.0016626485531446588
1.38178e-05;-0.0016508287891042483
1.38180e-05;-0.001639089677541921
1.38183e-05;-0.0016277366225267147
1.38185e-05;-0.001616629840225272
1.38188e-05;-0.0016067018833722773
1.38190e-05;-0.0015967739265192154
1.38193e-05;-0.0015868459696661535
1.38195e-05;-0.0015772641505557823
1.38198e-05;-0.0015693391775224138
1.38200e-05;-0.0015614142044890452
1.38203e-05;-0.0015534892314557301
1.38205e-05;-0.0015456657127617289
1.38208e-05;-0.0015383278221963335
1.38210e-05;-0.0015309899316309878
1.38213e-05;-0.0015236520410655925
1.38215e-05;-0.001516314150500197
1.38218e-05;-0.0015089762599348514
1.38220e-05;-0.001501638369369456
1.38223e-05;-0.0014943004788040607
1.38225e-05;-0.0014869728332161081
1.38228e-05;-0.0014796501697748078
1.38230e-05;-0.0014723275063335073
1.38233e-05;-0.0014650048428922566
1.38235e-05;-0.0014576821794509561
1.38238e-05;-0.0014503595160096558
1.38240e-05;-0.001443036852568405
1.38243e-05;-0.0014356496579479888
1.38245e-05;-0.0014279535740680921
1.38248e-05;-0.001420257490188248
1.38250e-05;-0.0014125614063083512
1.38253e-05;-0.0014048653224284547
1.38255e-05;-0.0013971692385486103
1.38258e-05;-0.0013894731546687136
1.38260e-05;-0.0013818252501759361
1.38263e-05;-0.0013744079643610548
1.38265e-05;-0.0013669906785462236
1.38268e-05;-0.0013595733927313422
1.38270e-05;-0.001352156106916461
1.38273e-05;-0.0013447388211016299
1.38275e-05;-0.0013373215352867486
1.38278e-05;-0.0013300418891251673
1.38280e-05;-0.0013234210781371634
1.38283e-05;-0.0013168002671491148
1.38285e-05;-0.0013102532149209484
1.38288e-05;-0.0013041069207404535
1.38290e-05;-0.001298244231719046
1.38293e-05;-0.0012927090364330963
1.38295e-05;-0.0012875548599111787
1.38298e-05;-0.0012829884611250829
1.38300e-05;-0.0012798360924523504
1.38303e-05;-0.0012793384826461605
1.38305e-05;-0.0012821398486204355
1.38308e-05;-0.0012882189641614966
1.38310e-05;-0.0012974240035716837
1.38313e-05;-0.0013096031253276574
1.38315e-05;-0.0013248702275939833
1.38318e-05;-0.0013436387057787944
1.38320e-05;-0.0013636422995117045
1.38323e-05;-0.0013895579799648857
1.38325e-05;-0.0014167761104242128
1.38328e-05;-0.0014502286352277916
1.38330e-05;-0.0014845458052920504
1.38333e-05;-0.0015235149104400603
1.38335e-05;-0.0015654098818736267
1.38338e-05;-0.0016100201044239358
1.38340e-05;-0.001657377917406947
1.38343e-05;-0.0017076782494294372
1.38345e-05;-0.0017608822177757842
1.38348e-05;-0.0018166894985446414
1.38350e-05;-0.0018747486539968628
1.38353e-05;-0.001934708342691973
1.38355e-05;-0.001996219597095116
1.38358e-05;-0.0020589711068081515
1.38360e-05;-0.0021228037162598534
1.38363e-05;-0.002187660351363957
1.38365e-05;-0.0022533373223250406
1.38368e-05;-0.0023194672148779305
1.38370e-05;-0.002385650339278446
1.38373e-05;-0.0024514873909722776
1.38375e-05;-0.0025165805943633793
1.38378e-05;-0.002580555908631015
1.38380e-05;-0.002643134368328509
1.38383e-05;-0.0027041010042501965
1.38385e-05;-0.002763148802369043
1.38388e-05;-0.002819868797805186
1.38390e-05;-0.0028738314984932613
1.38393e-05;-0.002924607837792335
1.38395e-05;-0.002971777029033933
1.38398e-05;-0.0030150550113186396
1.38400e-05;-0.003054740027820473
1.38403e-05;-0.003091402540719513
1.38405e-05;-0.003125072995005552
1.38408e-05;-0.0031578194764788933
1.38410e-05;-0.0031861432078638726
1.38413e-05;-0.00321340099473853
1.38415e-05;-0.0032355564602967015
1.38418e-05;-0.0032566775663755133
1.38420e-05;-0.0032728475381619527
1.38423e-05;-0.0032882499132172974
1.38425e-05;-0.0032999780583993507
1.38428e-05;-0.003310750042202006
1.38430e-05;-0.0033169451999683626
1.38433e-05;-0.0033231403577347186
1.38435e-05;-0.0033281663999277645
1.38438e-05;-0.0033275962752916683
1.38440e-05;-0.0033270261506555716
1.38443e-05;-0.0033256198475230493
1.38445e-05;-0.003320211036450529
1.38448e-05;-0.003314802225378008
1.38450e-05;-0.0033086715588691745
1.38453e-05;-0.0032990856108290867
1.38455e-05;-0.0032894996627889986
1.38458e-05;-0.003279339350008525
1.38460e-05;-0.0032664297445302777
1.38463e-05;-0.003253520139052031
1.38465e-05;-0.0032403295944444434
1.38468e-05;-0.0032257942878019903
1.38470e-05;-0.0032112589811595376
1.38473e-05;-0.0031965724687242274
1.38475e-05;-0.0031811621845229234
1.38478e-05;-0.003165751900321619
1.38480e-05;-0.0031504340643668982
1.38483e-05;-0.003135558747374496
1.38485e-05;-0.003120683430382094
1.38488e-05;-0.0031064433834970674
1.38490e-05;-0.0030952441630142753
1.38493e-05;-0.003084044942531483
1.38495e-05;-0.003072845722048767
1.38498e-05;-0.0030616465015659744
1.38500e-05;-0.0030504472810831823
1.38503e-05;-0.003039248060600466
1.38505e-05;-0.0030291327613676607
1.38508e-05;-0.0030242058321172964
1.38510e-05;-0.0030192789028669655
1.38513e-05;-0.003014351973616601
1.38515e-05;-0.003009425044366237
1.38518e-05;-0.0030044981151158725
1.38520e-05;-0.0029995711858655416
1.38523e-05;-0.0029958036977355213
1.38525e-05;-0.002997586068052836
1.38528e-05;-0.0029993684383701385
1.38530e-05;-0.0030011508086874535
1.38533e-05;-0.003002933179004768
1.38535e-05;-0.0030047155493220707
1.38538e-05;-0.0030064979196393854
1.38540e-05;-0.0030082802899567005
1.38543e-05;-0.003010062660274003
1.38545e-05;-0.003012722365746682
1.38548e-05;-0.003019581582378807
1.38550e-05;-0.0030264407990108853
1.38553e-05;-0.00303330001564301
1.38555e-05;-0.003040159232275135
1.38558e-05;-0.0030470184489072133
1.38560e-05;-0.003053877665539338
1.38563e-05;-0.0030607368821714627
1.38565e-05;-0.0030675960988035414
1.38568e-05;-0.00307469109221741
1.38570e-05;-0.0030829146705512647
1.38573e-05;-0.0030911382488850634
1.38575e-05;-0.0030993390269840474
1.38578e-05;-0.0031074306679531646
1.38580e-05;-0.0031155223089222276
1.38583e-05;-0.0031234873012925936
1.38585e-05;-0.003130846069005703
1.38588e-05;-0.003138204836718763
1.38590e-05;-0.0031451443042806587
1.38593e-05;-0.0031500767216819095
1.38595e-05;-0.0031550091390831264
1.38598e-05;-0.0031599415564843767
1.38600e-05;-0.003164873973885627
1.38603e-05;-0.0031698063912868777
1.38605e-05;-0.0031747388086880947
1.38608e-05;-0.003178944689899318
1.38610e-05;-0.0031796728843681067
1.38613e-05;-0.00318040107883689
1.38615e-05;-0.0031811292733056784
1.38618e-05;-0.003181857467774467
1.38620e-05;-0.0031825856622432506
1.38623e-05;-0.003183313856712039
1.38625e-05;-0.003183213776127682
1.38628e-05;-0.0031791490187508004
1.38630e-05;-0.003175084261373891
1.38633e-05;-0.003171019503996982
1.38635e-05;-0.0031669547466201
1.38638e-05;-0.0031628899892431907
1.38640e-05;-0.0031588252318662815
1.38643e-05;-0.0031547604744894
1.38645e-05;-0.0031506957171124907
1.38648e-05;-0.0031466309597355815
1.38650e-05;-0.0031419992088004885
1.38653e-05;-0.0031346534485593327
1.38655e-05;-0.003127307688318177
1.38658e-05;-0.0031199619280770706
1.38660e-05;-0.0031126161678359148
1.38663e-05;-0.003105270407594759
1.38665e-05;-0.003097924647353653
1.38668e-05;-0.0030905788871124973
1.38670e-05;-0.0030832331268713415
1.38673e-05;-0.0030758873666302355
1.38675e-05;-0.0030684954479841976
1.38678e-05;-0.003060882584428647
1.38680e-05;-0.003053269720873148
1.38683e-05;-0.0030457610409790094
1.38685e-05;-0.0030387510535700934
1.38688e-05;-0.0030317410661611774
1.38690e-05;-0.0030248397822249798
1.38693e-05;-0.0030185269446596223
1.38695e-05;-0.0030126069615955876
1.38698e-05;-0.0030069643983941068
1.38700e-05;-0.003000857563924413
1.38703e-05;-0.0029929125961823586
1.38705e-05;-0.0029821687425463455
1.38708e-05;-0.0029705493800095528
1.38710e-05;-0.0029547392479828804
1.38713e-05;-0.002938929115956315
1.38715e-05;-0.002922365610522341
1.38718e-05;-0.0029021959575238937
1.38720e-05;-0.002880939363682359
1.38723e-05;-0.0028544799460660315
1.38725e-05;-0.002828020528449704
1.38728e-05;-0.002800280984941632
1.38730e-05;-0.0027664139051770276
1.38733e-05;-0.002732546825412423
1.38735e-05;-0.0026975891395234577
1.38738e-05;-0.0026574110853780533
1.38740e-05;-0.002617233031232649
1.38743e-05;-0.002577054977087517
1.38745e-05;-0.002532447592679043
1.38748e-05;-0.002485686218822805
1.38750e-05;-0.002438924844966884
1.38753e-05;-0.0023915829330636083
1.38755e-05;-0.0023414621788961708
1.38758e-05;-0.0022911583522551133
1.38760e-05;-0.0022398568275263176
1.38763e-05;-0.0021878689067933344
1.38765e-05;-0.002135319557343064
1.38768e-05;-0.002082493883516514
1.38770e-05;-0.002029708767820052
1.38773e-05;-0.0019772809921704206
1.38775e-05;-0.0019255255091011317
1.38778e-05;-0.001874734121395275
1.38780e-05;-0.001825101765705624
1.38783e-05;-0.001776756237890261
1.38785e-05;-0.0017299121858055874
1.38788e-05;-0.001684884719172368
1.38790e-05;-0.0016420088209335344
1.38793e-05;-0.001601619185138767
1.38795e-05;-0.001564052919981125
1.38798e-05;-0.001529681663939278
1.38800e-05;-0.0014989991180295922
1.38803e-05;-0.001472513906428238
1.38805e-05;-0.0014504870521383241
1.38808e-05;-0.0014329709849728132
1.38810e-05;-0.001419982099374372
1.38813e-05;-0.0014115367136059433
1.38815e-05;-0.0014076526705955256
1.38818e-05;-0.00140878751620295
1.38820e-05;-0.0014158047407643493
1.38823e-05;-0.0014244811149448334
1.38825e-05;-0.0014410992857203629
1.38828e-05;-0.0014588996218488136
1.38830e-05;-0.0014831044592128126
1.38833e-05;-0.0015115937693666213
1.38835e-05;-0.0015441853923739643
1.38838e-05;-0.0015807103060630399
1.38840e-05;-0.001621047722294603
1.38843e-05;-0.0016650825478926842
1.38845e-05;-0.0017126026121792543
1.38848e-05;-0.0017633139195248732
1.38850e-05;-0.001816908298454433
1.38853e-05;-0.0018730775214321842
1.38855e-05;-0.0019315141168161328
1.38858e-05;-0.001991918922175078
1.38860e-05;-0.0020540227603382507
1.38863e-05;-0.002117560677545157
1.38865e-05;-0.002182206149204198
1.38868e-05;-0.0022475814639256694
1.38870e-05;-0.0023133007408625093
1.38873e-05;-0.0023789777139764543
1.38875e-05;-0.0024442264391149123
1.38878e-05;-0.0025086662145712806
1.38880e-05;-0.0025719357472714192
1.38883e-05;-0.002633675355179421
1.38885e-05;-0.002693487830291282
1.38888e-05;-0.0027509435973867105
1.38890e-05;-0.002805607576463782
1.38893e-05;-0.002857045032475816
1.38895e-05;-0.0029048240956939426
1.38898e-05;-0.002948567487663043
1.38900e-05;-0.0029881438570273193
1.38903e-05;-0.0030236785192476402
1.38905e-05;-0.0030548816932682676
1.38908e-05;-0.0030810235686917586
1.38910e-05;-0.0031052963143929375
1.38913e-05;-0.0031206221586807404
1.38915e-05;-0.0031359480029686474
1.38918e-05;-0.003148997847343535
1.38920e-05;-0.0031511532382220435
1.38923e-05;-0.003153308629100567
1.38925e-05;-0.003153401778973631
1.38928e-05;-0.003143623668042336
1.38930e-05;-0.003133845557110975
1.38933e-05;-0.003122134241091379
1.38935e-05;-0.003101169316224567
1.38938e-05;-0.003080204391357612
1.38940e-05;-0.003057818951506645
1.38943e-05;-0.003028633979570598
1.38945e-05;-0.002998509202072589
1.38948e-05;-0.0029638858883773967
1.38950e-05;-0.002928457055797288
1.38953e-05;-0.0028891724726164115
1.38955e-05;-0.002849221485512646
1.38958e-05;-0.002806080644795986
1.38960e-05;-0.0027624698107682312
1.38963e-05;-0.0027166092753030504
1.38965e-05;-0.0026704867450217497
1.38968e-05;-0.0026231101328207376
1.38970e-05;-0.0025756536527379676
1.38973e-05;-0.002527823441914899
1.38975e-05;-0.002480089577912565
1.38978e-05;-0.002432728846473067
1.38980e-05;-0.0023860562545817946
1.38983e-05;-0.00234042610449216
1.38985e-05;-0.0022961842108678676
1.38988e-05;-0.002253652069910076
1.38990e-05;-0.002213145440207551
1.38993e-05;-0.0021749801522360636
1.38995e-05;-0.0021394747580154977
1.38998e-05;-0.002106995549502912
1.39000e-05;-0.0020780836674943732
1.39003e-05;-0.002053335485690507
1.39005e-05;-0.0020330572252094665
1.39008e-05;-0.0020172959194508628
1.39010e-05;-0.002006442087618175
1.39013e-05;-0.00200119315358766
1.39015e-05;-0.001997519568253042
1.39018e-05;-0.0020013866524135025
1.39020e-05;-0.0020073324071597253
1.39023e-05;-0.0020232280656428694
1.39025e-05;-0.002039123724126013
1.39028e-05;-0.002056628837774069
1.39030e-05;-0.00208258674423068
1.39033e-05;-0.002112843934510609
1.39035e-05;-0.0021472039827041874
1.39038e-05;-0.0021854890271213938
1.39040e-05;-0.002227590058493636
1.39043e-05;-0.002273419616189785
1.39045e-05;-0.0023227765838900833
1.39048e-05;-0.0023753580237136206
1.39050e-05;-0.0024308421320584353
1.39053e-05;-0.002488907987825749
1.39055e-05;-0.002549235049206581
1.39058e-05;-0.002611514319893397
1.39060e-05;-0.0026754799437708416
1.39063e-05;-0.002740879640790792
1.39065e-05;-0.002807389827323937
1.39068e-05;-0.002874623372532576
1.39070e-05;-0.0029421813254015263
1.39073e-05;-0.003009665272463333
1.39075e-05;-0.0030766770502484043
1.39078e-05;-0.003142825603060649
1.39080e-05;-0.0032077471367740846
1.39083e-05;-0.0032710863904527
1.39085e-05;-0.003332443422746666
1.39088e-05;-0.003391378212708818
1.39090e-05;-0.0034474441106928494
1.39093e-05;-0.0035001940416279844
1.39095e-05;-0.0035491913198387195
1.39098e-05;-0.0035941726310285593
1.39100e-05;-0.003635600969119844
1.39103e-05;-0.003674527235075449
1.39105e-05;-0.0037115018335684494
1.39108e-05;-0.0037464133411892553
1.39110e-05;-0.0037790127096203217
1.39113e-05;-0.003808794089085427
1.39115e-05;-0.0038350559887055436
1.39118e-05;-0.0038605866847951065
1.39120e-05;-0.003882270883442309
1.39123e-05;-0.003902029522234063
1.39125e-05;-0.00392009264107567
1.39128e-05;-0.0039361602837942235
1.39130e-05;-0.003951426914027736
1.39133e-05;-0.003962859364292429
1.39135e-05;-0.003974291814557121
1.39138e-05;-0.00398493709342056
1.39140e-05;-0.003991814444972808
1.39143e-05;-0.003998302636752405
1.39145e-05;-0.004002928050319201
1.39148e-05;-0.004007080345601651
1.39150e-05;-0.004008967981239976
1.39153e-05;-0.004010855616878289
1.39155e-05;-0.004012171047094071
1.39158e-05;-0.004010747520538769
1.39160e-05;-0.004009323993983475
1.39163e-05;-0.004007593844505564
1.39165e-05;-0.004004395993225185
1.39168e-05;-0.004001198141944828
1.39170e-05;-0.003997770115588002
1.39173e-05;-0.003993240317805501
1.39175e-05;-0.003988710520023031
1.39178e-05;-0.003984050143954537
1.39180e-05;-0.003978764733123165
1.39183e-05;-0.003973479322291829
1.39185e-05;-0.00396824849790499
1.39188e-05;-0.003963278960646842
1.39190e-05;-0.003958366397151963
1.39193e-05;-0.003953772014435832
1.39195e-05;-0.003949433970748003
1.39198e-05;-0.003945172566974845
1.39200e-05;-0.00393999290383409
1.39203e-05;-0.003932339129706806
1.39205e-05;-0.0039214011784932026
1.39208e-05;-0.003906976539581121
1.39210e-05;-0.0038888369369646917
1.39213e-05;-0.0038697809057336974
1.39215e-05;-0.0038463382359622445
1.39218e-05;-0.0038218781258299275
1.39220e-05;-0.0037925478675722405
1.39223e-05;-0.003761537815426825
1.39225e-05;-0.0037224871494323402
1.39228e-05;-0.003683436483437855
1.39230e-05;-0.0036427006520886895
1.39233e-05;-0.003593898495466478
1.39235e-05;-0.003545096338844267
1.39238e-05;-0.003494844476233591
1.39240e-05;-0.0034376533539103166
1.39243e-05;-0.003380462231587042
1.39245e-05;-0.0033220670758054944
1.39248e-05;-0.0032579086128861996
1.39250e-05;-0.003193073425585839
1.39253e-05;-0.003124998984071391
1.39255e-05;-0.0030564979032215423
1.39258e-05;-0.0029859546419766492
1.39260e-05;-0.0029151463078847333
1.39263e-05;-0.0028429164638457474
1.39265e-05;-0.0027698703418543905
1.39268e-05;-0.0026964061182553184
1.39270e-05;-0.0026229634577741674
1.39273e-05;-0.0025499823298565246
1.39275e-05;-0.002477900467915499
1.39278e-05;-0.0024071250187131473
1.39280e-05;-0.0023379372797582903
1.39283e-05;-0.002270532437699655
1.39285e-05;-0.0022052204346506964
1.39288e-05;-0.0021424427539910368
1.39290e-05;-0.002082666646587227
1.39293e-05;-0.0020263592109465048
1.39295e-05;-0.0019739871748700156
1.39298e-05;-0.0019260041085467435
1.39300e-05;-0.0018827871933290601
1.39303e-05;-0.0018445650611305928
1.39305e-05;-0.0018114519652749168
1.39308e-05;-0.0017835326287561845
1.39310e-05;-0.0017608931946203885
1.39313e-05;-0.0017436192683649603
1.39315e-05;-0.0017322773541502158
1.39318e-05;-0.0017278043864473052
1.39320e-05;-0.0017252311175433765
1.39323e-05;-0.001731751074057594
1.39325e-05;-0.0017396404529098771
1.39328e-05;-0.0017549624618899147
1.39330e-05;-0.0017753367507216044
1.39333e-05;-0.0018006102332568128
1.39335e-05;-0.0018306296221687716
1.39338e-05;-0.0018652365631135369
1.39340e-05;-0.0019042427164874462
1.39343e-05;-0.0019474013939319134
1.39345e-05;-0.001994421081824286
1.39348e-05;-0.0020449986389589865
1.39350e-05;-0.0020988314817964172
1.39353e-05;-0.0021556169304994283
1.39355e-05;-0.002215052264996345
1.39358e-05;-0.0022768318768269244
1.39360e-05;-0.002340630856192559
1.39363e-05;-0.0024060880779377862
1.39365e-05;-0.0024728141977243437
1.39368e-05;-0.002540412937796732
1.39370e-05;-0.0026084880606346995
1.39373e-05;-0.0026766434810786078
1.39375e-05;-0.002744482921372497
1.39378e-05;-0.002811608454096372
1.39380e-05;-0.002877610231868405
1.39383e-05;-0.0029420556070695416
1.39385e-05;-0.003004494098540889
1.39388e-05;-0.0030644710685076466
1.39390e-05;-0.0031215321839122043
1.39393e-05;-0.003175222806978579
1.39395e-05;-0.0032250896105430115
1.39398e-05;-0.003270698986693385
1.39400e-05;-0.003311721253674339
1.39403e-05;-0.0033479915357378007
1.39405e-05;-0.0033794290637186326
1.39408e-05;-0.0034055103085463257
1.39410e-05;-0.0034253594701637836
1.39413e-05;-0.0034429639151359343
1.39415e-05;-0.0034498236491694637
1.39418e-05;-0.0034566833832030395
1.39420e-05;-0.0034608604952581475
1.39423e-05;-0.0034521967893976118
1.39425e-05;-0.003443533083537017
1.39428e-05;-0.0034327783815551963
1.39430e-05;-0.003412014777584858
1.39433e-05;-0.003389688881408331
1.39435e-05;-0.0033598848127908082
1.39438e-05;-0.003328632158079601
1.39440e-05;-0.0032904456042139297
