Time(s);Current(A)
9.55000e-06;-0.008549222472542096
9.55025e-06;-0.008561629661448486
9.55050e-06;-0.008572539917850024
9.55075e-06;-0.008583307379287886
9.55100e-06;-0.008594074840725822
9.55125e-06;-0.008604842302163757
9.55150e-06;-0.008615609763601621
9.55175e-06;-0.008626377225039556
9.55200e-06;-0.008637144686477492
9.55225e-06;-0.008647912147915354
9.55250e-06;-0.00865867960935329
9.55275e-06;-0.008666780508882714
9.55300e-06;-0.008671090081554275
9.55325e-06;-0.008675399654225863
9.55350e-06;-0.008679709226897453
9.55375e-06;-0.008684018799569012
9.55400e-06;-0.008688328372240602
9.55425e-06;-0.008692637944912191
9.55450e-06;-0.00869694751758378
9.55475e-06;-0.00870125709025534
9.55500e-06;-0.008705566662926928
9.55525e-06;-0.008703185551036325
9.55550e-06;-0.00870016620324944
9.55575e-06;-0.008697146855462535
9.55600e-06;-0.008694127507675628
9.55625e-06;-0.008691108159888744
9.55650e-06;-0.008688088812101839
9.55675e-06;-0.008685069464314932
9.55700e-06;-0.008682050116528048
9.55725e-06;-0.008679030768741143
9.55750e-06;-0.008673951204961242
9.55775e-06;-0.00866594241902333
9.55800e-06;-0.008657933633085362
9.55825e-06;-0.008649924847147394
9.55850e-06;-0.008641916061209481
9.55875e-06;-0.008633907275271514
9.55900e-06;-0.008625898489333546
9.55925e-06;-0.008617889703395634
9.55950e-06;-0.008609880917457666
9.55975e-06;-0.008601872131519698
9.56000e-06;-0.008592696195117567
9.56025e-06;-0.008583408922227158
9.56050e-06;-0.00857412164933675
9.56075e-06;-0.008564834376446404
9.56100e-06;-0.008555547103555994
9.56125e-06;-0.008546259830665585
9.56150e-06;-0.00853697255777524
9.56175e-06;-0.008528456040583528
9.56200e-06;-0.008521035386485337
9.56225e-06;-0.008513614732387194
9.56250e-06;-0.008506194078289
9.56275e-06;-0.008498773424190807
9.56300e-06;-0.008491352770092666
9.56325e-06;-0.008483932115994472
9.56350e-06;-0.008476511461896279
9.56375e-06;-0.008471739393045331
9.56400e-06;-0.008467219977292134
9.56425e-06;-0.008462700561538906
9.56450e-06;-0.008458181145785677
9.56475e-06;-0.008453661730032478
9.56500e-06;-0.00844914231427925
9.56525e-06;-0.008444622898526023
9.56550e-06;-0.008440103482772824
9.56575e-06;-0.008435584067019596
9.56600e-06;-0.008431064651266367
9.56625e-06;-0.00842654523551317
9.56650e-06;-0.008422025819759942
9.56675e-06;-0.008417506404006713
9.56700e-06;-0.008412986988253516
9.56725e-06;-0.008408467572500288
9.56750e-06;-0.00840394815674706
9.56775e-06;-0.008399428740993862
9.56800e-06;-0.008395690482302912
9.56825e-06;-0.008393062875400108
9.56850e-06;-0.008390435268497322
9.56875e-06;-0.008387807661594518
9.56900e-06;-0.008385180054691714
9.56925e-06;-0.008382552447788929
9.56950e-06;-0.008379924840886125
9.56975e-06;-0.008377297233983321
9.57000e-06;-0.008374669627080535
9.57025e-06;-0.008372042020177732
9.57050e-06;-0.008369414413274929
9.57075e-06;-0.008366786806372142
9.57100e-06;-0.008364159199469338
9.57125e-06;-0.008361531592566534
9.57150e-06;-0.00835890398566375
9.57175e-06;-0.008356276378760946
9.57200e-06;-0.008353648771858142
9.57225e-06;-0.008351021164955338
9.57250e-06;-0.008348784407659356
9.57275e-06;-0.008346584934178973
9.57300e-06;-0.008344385460698588
9.57325e-06;-0.008339765187719618
9.57350e-06;-0.008334913990516618
9.57375e-06;-0.008330062793313617
9.57400e-06;-0.00832521159611065
9.57425e-06;-0.008320360398907649
9.57450e-06;-0.008315509201704648
9.57475e-06;-0.008310658004501682
9.57500e-06;-0.008303573348845367
9.57525e-06;-0.008293313154305343
9.57550e-06;-0.00828305295976539
9.57575e-06;-0.008272792765225365
9.57600e-06;-0.008262532570685342
9.57625e-06;-0.008252272376145387
9.57650e-06;-0.008242012181605363
9.57675e-06;-0.00823175198706534
9.57700e-06;-0.008217125384834878
9.57725e-06;-0.008202082263471444
9.57750e-06;-0.008187039142108008
9.57775e-06;-0.008171996020744674
9.57800e-06;-0.008156952899381238
9.57825e-06;-0.008141909778017802
9.57850e-06;-0.00812686665665447
9.57875e-06;-0.008109612359249029
9.57900e-06;-0.008092147133961182
9.57925e-06;-0.008074681908673454
9.57950e-06;-0.008057216683385608
9.57975e-06;-0.008039751458097762
9.58000e-06;-0.008022286232810033
9.58025e-06;-0.008004821007522188
9.58050e-06;-0.00798750865966242
9.58075e-06;-0.007970210895043229
9.58100e-06;-0.007952913130424153
9.58125e-06;-0.007936636195114161
9.58150e-06;-0.007920456638466225
9.58175e-06;-0.007904277081818399
9.58200e-06;-0.00789266768373489
9.58225e-06;-0.007881494240930502
9.58250e-06;-0.00787032079812619
9.58275e-06;-0.007859147355321804
9.58300e-06;-0.007847973912517415
9.58325e-06;-0.007836800469713103
9.58350e-06;-0.007825627026908717
9.58375e-06;-0.007814453584104328
9.58400e-06;-0.007803280141300016
9.58425e-06;-0.0077921066984956286
9.58450e-06;-0.007780933255691241
9.58475e-06;-0.007769759812886929
9.58500e-06;-0.0077585863700825415
9.58525e-06;-0.007747412927278154
9.58550e-06;-0.007740082716130886
9.58575e-06;-0.007733119117455924
9.58600e-06;-0.007726155518780963
9.58625e-06;-0.007719191920106049
9.58650e-06;-0.007712228321431087
9.58675e-06;-0.007705264722756126
9.58700e-06;-0.007698301124081212
9.58725e-06;-0.00769133752540625
9.58750e-06;-0.0076843739267312885
9.58775e-06;-0.0076774103280563746
9.58800e-06;-0.007670446729381413
9.58825e-06;-0.007663483130706451
9.58850e-06;-0.0076565195320315365
9.58875e-06;-0.007649555933356575
9.58900e-06;-0.0076438958718458285
9.58925e-06;-0.0076383601569853556
9.58950e-06;-0.00763282444212492
9.58975e-06;-0.007627288727264446
9.59000e-06;-0.007621753012403973
9.59025e-06;-0.007616217297543537
9.59050e-06;-0.0076106815826830635
9.59075e-06;-0.007605952239574375
9.59100e-06;-0.007601299817652915
9.59125e-06;-0.007596647395731423
9.59150e-06;-0.0075919949738099315
9.59175e-06;-0.007587342551888472
9.59200e-06;-0.00758269012996698
9.59225e-06;-0.007578037708045489
9.59250e-06;-0.007574070704137361
9.59275e-06;-0.007570169083431438
9.59300e-06;-0.007566267462725516
9.59325e-06;-0.007561817025818335
9.59350e-06;-0.007557314236390498
9.59375e-06;-0.007552811446962661
9.59400e-06;-0.007546946323695682
9.59425e-06;-0.007540951245062454
9.59450e-06;-0.007534956166429224
9.59475e-06;-0.007526975189357411
9.59500e-06;-0.0075188047740205235
9.59525e-06;-0.007510634358683636
9.59550e-06;-0.007502463943346804
9.59575e-06;-0.007494293528009918
9.59600e-06;-0.0074861231126730305
9.59625e-06;-0.007474938813580767
9.59650e-06;-0.007463467014937298
9.59675e-06;-0.007451995216293828
9.59700e-06;-0.007440523417650435
9.59725e-06;-0.007429051619006965
9.59750e-06;-0.0074175798203634956
9.59775e-06;-0.007403845377079258
9.59800e-06;-0.007389895096234187
9.59825e-06;-0.007375944815389022
9.59850e-06;-0.007361994534543856
9.59875e-06;-0.007348044253698786
9.59900e-06;-0.007333691376152981
9.59925e-06;-0.007318766085237883
9.59950e-06;-0.007303840794322884
9.59975e-06;-0.007288915503407785
9.60000e-06;-0.007273990212492686
9.60025e-06;-0.007259064921577688
9.60050e-06;-0.007244316823978745
9.60075e-06;-0.007229585629154765
9.60100e-06;-0.0072153679664541245
9.60125e-06;-0.007201199290465212
9.60150e-06;-0.007187695060427148
9.60175e-06;-0.007174254213030388
9.60200e-06;-0.007164159897473607
9.60225e-06;-0.0071543848133406585
9.60250e-06;-0.007144609729207775
9.60275e-06;-0.007134834645074826
9.60300e-06;-0.007125059560941876
9.60325e-06;-0.007115284476808993
9.60350e-06;-0.007105509392676043
9.60375e-06;-0.007095734308543093
9.60400e-06;-0.00708595922441021
9.60425e-06;-0.00707618414027726
9.60450e-06;-0.0070664090561443115
9.60475e-06;-0.007056633972011428
9.60500e-06;-0.00705007941021498
9.60525e-06;-0.007043832059579352
9.60550e-06;-0.007037584708943766
9.60575e-06;-0.007031337358308138
9.60600e-06;-0.0070250900076725105
9.60625e-06;-0.007018842657036882
9.60650e-06;-0.007012595306401297
9.60675e-06;-0.007006347955765669
9.60700e-06;-0.007000100605130041
9.60725e-06;-0.006993853254494455
9.60750e-06;-0.006987605903858827
9.60775e-06;-0.0069813585532232
9.60800e-06;-0.0069763011191498634
9.60825e-06;-0.006971357193262517
9.60850e-06;-0.006966413267375171
9.60875e-06;-0.0069614693414878585
9.60900e-06;-0.006956525415600512
9.60925e-06;-0.006951581489713166
9.60950e-06;-0.006946637563825853
9.60975e-06;-0.006941693637938506
9.61000e-06;-0.0069375307973863105
9.61025e-06;-0.006933442465906759
9.61050e-06;-0.00692935413442718
9.61075e-06;-0.006925265802947601
9.61100e-06;-0.006921177471468049
9.61125e-06;-0.00691708913998847
9.61150e-06;-0.006913000808508891
9.61175e-06;-0.006908912477029339
9.61200e-06;-0.00690524739506975
9.61225e-06;-0.006901731515608962
9.61250e-06;-0.006898350999593942
9.61275e-06;-0.006895123117044165
9.61300e-06;-0.006892379678363714
9.61325e-06;-0.0068910495982770605
9.61350e-06;-0.00689201683727768
9.61375e-06;-0.00689552504495289
9.61400e-06;-0.0069014724434602005
9.61425e-06;-0.006909730469732524
9.61450e-06;-0.006920170176145081
9.61475e-06;-0.00693363564987726
9.61500e-06;-0.006947371726530171
9.61525e-06;-0.0069658339566430515
9.61550e-06;-0.006984747022657699
9.61575e-06;-0.007010225690391177
9.61600e-06;-0.0070363306621576485
9.61625e-06;-0.00706243563392412
9.61650e-06;-0.007096986763744846
9.61675e-06;-0.007132343587099805
9.61700e-06;-0.007167700410454765
9.61725e-06;-0.0072030572338094845
9.61750e-06;-0.007238414057164444
9.61775e-06;-0.007282505092685247
9.61800e-06;-0.00732742929971667
9.61825e-06;-0.007372353506748397
9.61850e-06;-0.0074172777137801234
9.61875e-06;-0.007462201920811546
9.61900e-06;-0.007511061790422982
9.61925e-06;-0.007560297089652604
9.61950e-06;-0.0076095323888818915
9.61975e-06;-0.007659987610310277
9.62000e-06;-0.007710559202214043
9.62025e-06;-0.007761130794117467
9.62050e-06;-0.0078105103793380025
9.62075e-06;-0.007859776256992157
9.62100e-06;-0.00790904213464598
9.62125e-06;-0.007955764724621764
9.62150e-06;-0.008002244706014386
9.62175e-06;-0.008044688557311839
9.62200e-06;-0.00808674739522233
9.62225e-06;-0.008128806233132824
9.62250e-06;-0.00815605153730703
9.62275e-06;-0.008181883753035997
9.62300e-06;-0.008207715968764965
9.62325e-06;-0.00823354818449393
9.62350e-06;-0.008259380400222723
9.62375e-06;-0.00828521261595169
9.62400e-06;-0.008311044831680657
9.62425e-06;-0.008336877047409449
9.62450e-06;-0.008362709263138417
9.62475e-06;-0.008388541478867384
9.62500e-06;-0.008414373694596175
9.62525e-06;-0.008432976932319864
9.62550e-06;-0.008441301984322067
9.62575e-06;-0.008449627036324212
9.62600e-06;-0.008457952088326413
9.62625e-06;-0.008466277140328616
9.62650e-06;-0.008474602192330762
9.62675e-06;-0.008482927244332963
9.62700e-06;-0.008491252296335164
9.62725e-06;-0.00849957734833731
9.62750e-06;-0.008507902400339513
9.62775e-06;-0.008516227452341714
9.62800e-06;-0.00852455250434386
9.62825e-06;-0.008523766984155065
9.62850e-06;-0.008522112390824623
9.62875e-06;-0.008520457797494189
9.62900e-06;-0.008518803204163745
9.62925e-06;-0.008517148610833301
9.62950e-06;-0.00851549401750287
9.62975e-06;-0.008513839424172425
9.63000e-06;-0.008512184830841981
9.63025e-06;-0.00851053023751155
9.63050e-06;-0.008508875644181105
9.63075e-06;-0.008507221050850661
9.63100e-06;-0.00850556645752023
9.63125e-06;-0.008503911864189785
9.63150e-06;-0.008502257270859341
9.63175e-06;-0.008500602677528897
9.63200e-06;-0.008498948084198465
9.63225e-06;-0.008497574660637254
9.63250e-06;-0.008496601005218337
9.63275e-06;-0.008495627349799426
9.63300e-06;-0.008494653694380508
9.63325e-06;-0.008493680038961591
9.63350e-06;-0.00849270638354268
9.63375e-06;-0.008491732728123763
9.63400e-06;-0.008490759072704846
9.63425e-06;-0.008489785417285935
9.63450e-06;-0.008488811761867018
9.63475e-06;-0.0084878381064481
9.63500e-06;-0.00848686445102919
9.63525e-06;-0.008485890795610272
9.63550e-06;-0.008484917140191355
9.63575e-06;-0.008483943484772443
9.63600e-06;-0.008482969829353527
9.63625e-06;-0.008481996173934608
9.63650e-06;-0.008485519859795069
9.63675e-06;-0.00848947255477088
9.63700e-06;-0.008493425249746691
9.63725e-06;-0.008497377944722476
9.63750e-06;-0.008501330639698287
9.63775e-06;-0.0085052833346741
9.63800e-06;-0.008509236029649885
9.63825e-06;-0.008513188724625696
9.63850e-06;-0.008517141419601507
9.63875e-06;-0.008521094114577292
9.63900e-06;-0.008525046809553103
9.63925e-06;-0.00852945665974886
9.63950e-06;-0.008534516494804426
9.63975e-06;-0.008539576329860025
9.64000e-06;-0.008544636164915624
9.64025e-06;-0.008549695999971225
9.64050e-06;-0.008554755835026791
9.64075e-06;-0.00855981567008239
9.64100e-06;-0.00856487550513799
9.64125e-06;-0.008569935340193556
9.64150e-06;-0.008574995175249157
9.64175e-06;-0.008580055010304757
9.64200e-06;-0.008585114845360323
9.64225e-06;-0.008588831938574475
9.64250e-06;-0.008592420945336184
9.64275e-06;-0.00859600995209787
9.64300e-06;-0.00859767859811678
9.64325e-06;-0.008599164057623298
9.64350e-06;-0.008600649517129806
9.64375e-06;-0.008595942954963038
9.64400e-06;-0.008590645725204708
9.64425e-06;-0.008585348495446413
9.64450e-06;-0.008580051265688081
9.64475e-06;-0.008574754035929751
9.64500e-06;-0.008569456806171456
9.64525e-06;-0.008564159576413126
9.64550e-06;-0.008549746665630959
9.64575e-06;-0.008534464194365935
9.64600e-06;-0.008519181723100809
9.64625e-06;-0.008503899251835683
9.64650e-06;-0.00848861678057066
9.64675e-06;-0.008473334309305533
9.64700e-06;-0.008458051838040407
9.64725e-06;-0.00843534097755545
9.64750e-06;-0.00841192151025298
9.64775e-06;-0.00838850204295051
9.64800e-06;-0.0083650825756482
9.64825e-06;-0.00834166310834573
9.64850e-06;-0.008318243641043261
9.64875e-06;-0.008293163417980004
9.64900e-06;-0.008265721926678947
9.64925e-06;-0.008238280435377703
9.64950e-06;-0.008210838944076461
9.64975e-06;-0.008183397452775404
9.65000e-06;-0.00815595596147416
9.65025e-06;-0.008128514470172918
9.65050e-06;-0.00810113397661682
9.65075e-06;-0.00807375930174029
9.65100e-06;-0.008046384626863759
9.65125e-06;-0.008020243902795219
9.65150e-06;-0.007994220887415313
9.65175e-06;-0.007970248032840105
9.65200e-06;-0.007946470746628617
9.65225e-06;-0.007922693460416966
9.65250e-06;-0.007906391864239316
9.65275e-06;-0.007890803386985508
9.65300e-06;-0.007875214909731594
9.65325e-06;-0.00785962643247768
9.65350e-06;-0.007844037955223872
9.65375e-06;-0.007828449477969958
9.65400e-06;-0.007812861000716044
9.65425e-06;-0.007797272523462235
9.65450e-06;-0.0077816840462083215
9.65475e-06;-0.007766095568954408
9.65500e-06;-0.0077505070917006
9.65525e-06;-0.007743385015434041
9.65550e-06;-0.00773707056371246
9.65575e-06;-0.007730756111990921
9.65600e-06;-0.0077244416602693395
9.65625e-06;-0.007718127208547758
9.65650e-06;-0.007711812756826219
9.65675e-06;-0.007705498305104638
9.65700e-06;-0.007699183853383056
9.65725e-06;-0.007692869401661475
9.65750e-06;-0.007686554949939936
9.65775e-06;-0.007680240498218354
9.65800e-06;-0.007678479045178039
9.65825e-06;-0.007677151910509218
9.65850e-06;-0.007675824775840387
9.65875e-06;-0.007674497641171557
9.65900e-06;-0.0076731705065027364
9.65925e-06;-0.007671843371833906
9.65950e-06;-0.007670516237165076
9.65975e-06;-0.007669189102496255
9.66000e-06;-0.007667861967827425
9.66025e-06;-0.007668015394637251
9.66050e-06;-0.007668310054751829
9.66075e-06;-0.00766860471486641
9.66100e-06;-0.00766889937498099
9.66125e-06;-0.007669194035095568
9.66150e-06;-0.0076694886952101485
9.66175e-06;-0.007669783355324728
9.66200e-06;-0.007670078015439306
9.66225e-06;-0.007670372675553886
9.66250e-06;-0.007670423842466284
9.66275e-06;-0.007670451782143523
9.66300e-06;-0.007669628865409993
9.66325e-06;-0.007668724784020685
9.66350e-06;-0.007664383055683782
9.66375e-06;-0.00765971340429466
9.66400e-06;-0.007655043752905538
9.66425e-06;-0.00764616438509531
9.66450e-06;-0.007636883445198408
9.66475e-06;-0.007627602505301507
9.66500e-06;-0.0076140737308430856
9.66525e-06;-0.007600139748142976
9.66550e-06;-0.007586205765442867
9.66575e-06;-0.007565983517657871
9.66600e-06;-0.007545161421455903
9.66625e-06;-0.007524339325253794
9.66650e-06;-0.007503517229051686
9.66675e-06;-0.007479903758437981
9.66700e-06;-0.007452321502107596
9.66725e-06;-0.0074247392457772125
9.66750e-06;-0.007397156989447015
9.66775e-06;-0.007369574733116631
9.66800e-06;-0.0073376436551314045
9.66825e-06;-0.007305297735572224
9.66850e-06;-0.007272951816012825
9.66875e-06;-0.007238862239507143
9.66900e-06;-0.007204606332567868
9.66925e-06;-0.007169603933568796
9.66950e-06;-0.007134083960566783
9.66975e-06;-0.007098217454853404
9.67000e-06;-0.007062208025209235
9.67025e-06;-0.007026263822229945
9.67050e-06;-0.006990591296073707
9.67075e-06;-0.006955398860237181
9.67100e-06;-0.006920861547336829
9.67125e-06;-0.006887095071950618
9.67150e-06;-0.006854220423537512
9.67175e-06;-0.006822421671323522
9.67200e-06;-0.006791918987879582
9.67225e-06;-0.006762934999852517
9.67250e-06;-0.006735691868228501
9.67275e-06;-0.00671041171344175
9.67300e-06;-0.006687326858550915
9.67325e-06;-0.006666656996361172
9.67350e-06;-0.006648546127876064
9.67375e-06;-0.006633056338264093
9.67400e-06;-0.006620221320088635
9.67425e-06;-0.006610071888098481
9.67450e-06;-0.006602639201047971
9.67475e-06;-0.006597954458243342
9.67500e-06;-0.006597340978931029
9.67525e-06;-0.006597093014295539
9.67550e-06;-0.006601924469007056
9.67575e-06;-0.006607240458262979
9.67600e-06;-0.006620155702676154
9.67625e-06;-0.006633795853103993
9.67650e-06;-0.0066474360035318324
9.67675e-06;-0.006661076153959579
9.67700e-06;-0.006678820130678759
9.67725e-06;-0.00670239894170173
9.67750e-06;-0.00672597775272454
9.67775e-06;-0.006749556563747511
9.67800e-06;-0.006773135374770481
9.67825e-06;-0.0068024329932548444
9.67850e-06;-0.0068322761386153934
9.67875e-06;-0.0068621192839759424
9.67900e-06;-0.00689496497683991
9.67925e-06;-0.006928097087872714
9.67950e-06;-0.006961229198905517
9.67975e-06;-0.006995843382916535
9.68000e-06;-0.007030598944417323
9.68025e-06;-0.007065354505918111
9.68050e-06;-0.007100074570785993
9.68075e-06;-0.00713479124956929
9.68100e-06;-0.007168585015903167
9.68125e-06;-0.007202290744031491
9.68150e-06;-0.007234274991752902
9.68175e-06;-0.0072660950244985015
9.68200e-06;-0.007295330179699609
9.68225e-06;-0.0073243187589877344
9.68250e-06;-0.007349847373086671
9.68275e-06;-0.007375045935157399
9.68300e-06;-0.0073949141216479025
9.68325e-06;-0.007414273834447292
9.68350e-06;-0.007433633547246682
9.68375e-06;-0.007446164728182923
9.68400e-06;-0.007458044523724288
9.68425e-06;-0.007469924319265654
9.68450e-06;-0.0074745765469456035
9.68475e-06;-0.007478539324500611
9.68500e-06;-0.007482502102055617
9.68525e-06;-0.00747691488256168
9.68550e-06;-0.00747041667242955
9.68575e-06;-0.007463918462297419
9.68600e-06;-0.007457420252165332
9.68625e-06;-0.007450922042033201
9.68650e-06;-0.007433857143275024
9.68675e-06;-0.007415784269921164
9.68700e-06;-0.007397711396567181
9.68725e-06;-0.0073796385232131985
9.68750e-06;-0.007361565649859339
9.68775e-06;-0.007336679066789225
9.68800e-06;-0.007311142512234126
9.68825e-06;-0.007285605957679201
9.68850e-06;-0.007256865495480853
9.68875e-06;-0.007227819407023745
9.68900e-06;-0.007196825679973189
9.68925e-06;-0.007165646164328281
9.68950e-06;-0.007133408338898613
9.68975e-06;-0.007100594712309231
9.69000e-06;-0.007067427584936028
9.69025e-06;-0.007034090771331968
9.69050e-06;-0.007000766507268269
9.69075e-06;-0.006967639416964058
9.69100e-06;-0.006934897343716232
9.69125e-06;-0.006902744993950423
9.69150e-06;-0.006871398433132704
9.69175e-06;-0.00684107210876629
9.69200e-06;-0.006811978524606068
9.69225e-06;-0.006784330022199235
9.69250e-06;-0.006758338092873674
9.69275e-06;-0.006734214571963392
9.69300e-06;-0.0067121398772606415
9.69325e-06;-0.0066922064038409225
9.69350e-06;-0.006674439346194519
9.69375e-06;-0.006658866339173693
9.69400e-06;-0.0066455336427104226
9.69425e-06;-0.006634487094370555
9.69450e-06;-0.0066268620968386064
9.69475e-06;-0.006619544462539185
9.69500e-06;-0.006616597802815564
9.69525e-06;-0.0066140680978722735
9.69550e-06;-0.006616744919977897
9.69575e-06;-0.006619918401650906
9.69600e-06;-0.006623091883323893
9.69625e-06;-0.006633855437790705
9.69650e-06;-0.006645343022351815
9.69675e-06;-0.006656830606912846
