Time(s);Current(A)
8.05000e-06;-0.001805090184272685
8.05025e-06;-0.0018037891266359561
8.05050e-06;-0.0018024466554374542
8.05075e-06;-0.0018011026405469622
8.05100e-06;-0.0017997586256564794
8.05125e-06;-0.0017984146107659874
8.05150e-06;-0.0017970705958754954
8.05175e-06;-0.0017958061533841648
8.05200e-06;-0.001794590692025483
8.05225e-06;-0.0017934295826293487
8.05250e-06;-0.0017923298059316331
8.05275e-06;-0.001791021021889276
8.05300e-06;-0.0017886959612052587
8.05325e-06;-0.0017845819338441309
8.05350e-06;-0.0017784873868488774
8.05375e-06;-0.0017705181075656912
8.05400e-06;-0.0017600003863682235
8.05425e-06;-0.0017493901775216666
8.05450e-06;-0.0017365224245155348
8.05475e-06;-0.001722041025482005
8.05500e-06;-0.0017055813169681673
8.05525e-06;-0.0016856343832642507
8.05550e-06;-0.0016655601326220405
8.05575e-06;-0.001641294133692017
8.05600e-06;-0.0016168718871948926
8.05625e-06;-0.0015882109233702596
8.05650e-06;-0.0015593919612062316
8.05675e-06;-0.0015305729990420084
8.05700e-06;-0.001496896192413561
8.05725e-06;-0.0014630383094596101
8.05750e-06;-0.0014291804265054299
8.05775e-06;-0.0013916328645547963
8.05800e-06;-0.0013539477696881501
8.05825e-06;-0.0013143045653035022
8.05850e-06;-0.001274588372316686
8.05875e-06;-0.0012338831359344252
8.05900e-06;-0.0011925534990600022
8.05925e-06;-0.0011506489953932199
8.05950e-06;-0.0011083484642618441
8.05975e-06;-0.0010659031893654979
8.06000e-06;-0.0010235672928016715
8.06025e-06;-0.000981594796986039
8.06050e-06;-0.0009402396079192318
8.06075e-06;-0.0008997129231892693
8.06100e-06;-0.0008601434294017341
8.06125e-06;-0.0008216648775917763
8.06150e-06;-0.0007845008249220147
8.06175e-06;-0.0007489203079239034
8.06200e-06;-0.0007151939340132573
8.06225e-06;-0.0006835923667211295
8.06250e-06;-0.0006543862155550713
8.06275e-06;-0.0006277479972723719
8.06300e-06;-0.0006036241848372709
8.06325e-06;-0.0005818809649664638
8.06350e-06;-0.0005625142743073697
8.06375e-06;-0.0005456046706056523
8.06400e-06;-0.0005312356257389315
8.06425e-06;-0.0005194904972611618
8.06450e-06;-0.0005104525824266574
8.06475e-06;-0.000504143953910601
8.06500e-06;-0.0005016178614778888
8.06525e-06;-0.0004992291063854833
8.06550e-06;-0.0005002769193539455
8.06575e-06;-0.0005036837196087933
8.06600e-06;-0.0005093719620636613
8.06625e-06;-0.0005173077719516714
8.06650e-06;-0.0005274572724140154
8.06675e-06;-0.0005397480910591818
8.06700e-06;-0.0005540191041745739
8.06725e-06;-0.0005700777070091793
8.06750e-06;-0.0005877824304970752
8.06775e-06;-0.0006070247829883055
8.06800e-06;-0.0006276974856719426
8.06825e-06;-0.0006496932057132577
8.06850e-06;-0.0006729047204172702
8.06875e-06;-0.0006972005691876455
8.06900e-06;-0.0007223938992281362
8.06925e-06;-0.0007482779256954031
8.06950e-06;-0.0007746780243091308
8.06975e-06;-0.0008014402666775341
8.07000e-06;-0.0008284114502374503
8.07025e-06;-0.000855438316309239
8.07050e-06;-0.0008823677724693445
8.07075e-06;-0.0009090314690349741
8.07100e-06;-0.0009352263688840705
8.07125e-06;-0.0009607371644029358
8.07150e-06;-0.0009853684519698937
8.07175e-06;-0.001008937762325075
8.07200e-06;-0.0010312634168082762
8.07225e-06;-0.0010521634687304117
8.07250e-06;-0.0010714561854070557
8.07275e-06;-0.001088955689941355
8.07300e-06;-0.0011044933465898556
8.07325e-06;-0.001117963681197227
8.07350e-06;-0.0011293206758124666
8.07375e-06;-0.0011374910511048565
8.07400e-06;-0.0011455454779760966
8.07425e-06;-0.0011493650034041204
8.07450e-06;-0.0011530266727292162
8.07475e-06;-0.0011512613884594968
8.07500e-06;-0.0011492938143001967
8.07525e-06;-0.0011473262401408837
8.07550e-06;-0.0011400491817488865
8.07575e-06;-0.001132574212142065
8.07600e-06;-0.0011211453135902456
8.07625e-06;-0.0011095690321954361
8.07650e-06;-0.0010943068876884316
8.07675e-06;-0.0010789073525018429
8.07700e-06;-0.0010601115685555903
8.07725e-06;-0.0010411891893151966
8.07750e-06;-0.0010192942927581391
8.07775e-06;-0.0009972885955114982
8.07800e-06;-0.0009728102617178822
8.07825e-06;-0.0009482397603085776
8.07850e-06;-0.0009216990283391429
8.07875e-06;-0.000895084855955
8.07900e-06;-0.0008673095325956321
8.07925e-06;-0.0008389042351669952
8.07950e-06;-0.0008100486797027395
8.07975e-06;-0.0007809111103619878
8.08000e-06;-0.0007516598657914311
8.08025e-06;-0.0007224633947785015
8.08050e-06;-0.0006934899819462667
8.08075e-06;-0.0006649073444826591
8.08100e-06;-0.0006368858161080231
8.08125e-06;-0.0006096054246789826
8.08150e-06;-0.0005832553659384948
8.08175e-06;-0.000558027577015989
8.08200e-06;-0.0005341140849849809
8.08225e-06;-0.0005117069169184899
8.08250e-06;-0.000490998043774103
8.08275e-06;-0.00047226602130895004
8.08300e-06;-0.00045593025714556223
8.08325e-06;-0.00044233274231513
8.08350e-06;-0.00043157931337766764
8.08375e-06;-0.0004236682145794695
8.08400e-06;-0.0004185939754464825
8.08425e-06;-0.0004163511805744521
8.08450e-06;-0.00041693427636106656
8.08475e-06;-0.00042039194002816907
8.08500e-06;-0.00042686123287590563
8.08525e-06;-0.00043643052812517464
8.08550e-06;-0.00044904030659929375
8.08575e-06;-0.00046456371266983865
8.08600e-06;-0.0004828714993632139
8.08625e-06;-0.0005038344726845301
8.08650e-06;-0.0005284934860817161
8.08675e-06;-0.0005532867191055046
8.08700e-06;-0.0005826707689049501
8.08725e-06;-0.0006122259415644068
8.08750e-06;-0.0006449723714640015
8.08775e-06;-0.0006797124768264539
8.08800e-06;-0.0007161980282630995
8.08825e-06;-0.0007548607655722861
8.08850e-06;-0.0007936023294847672
8.08875e-06;-0.0008345589577916809
8.08900e-06;-0.0008755981527031212
8.08925e-06;-0.0009179054555667316
8.08950e-06;-0.0009608288744565356
8.08975e-06;-0.0010040963882513875
8.09000e-06;-0.0010474530972378391
8.09025e-06;-0.001090643548909086
8.09050e-06;-0.0011334129993482746
8.09075e-06;-0.0011755195262655438
8.09100e-06;-0.0012167433450349426
8.09125e-06;-0.001256852459538382
8.09150e-06;-0.0012955785864107066
8.09175e-06;-0.0013326369564632063
8.09200e-06;-0.0013677423479737203
8.09225e-06;-0.00139938806779633
8.09250e-06;-0.0014309074579733118
8.09275e-06;-0.0014588330151754727
8.09300e-06;-0.0014850155437374916
8.09325e-06;-0.0015099809274738186
8.09350e-06;-0.001534903177778021
8.09375e-06;-0.0015586301025012736
8.09400e-06;-0.001581273540956754
8.09425e-06;-0.0016019570118954046
8.09450e-06;-0.001622568868493672
8.09475e-06;-0.0016411129089173302
8.09500e-06;-0.0016586819041895494
8.09525e-06;-0.0016756390968507599
8.09550e-06;-0.001692574732208855
8.09575e-06;-0.0017088895008363129
8.09600e-06;-0.0017246033569431882
8.09625e-06;-0.0017391831782065795
8.09650e-06;-0.0017537215310499535
8.09675e-06;-0.001767037061502852
8.09700e-06;-0.0017797806437150972
8.09725e-06;-0.0017920538449408712
8.09750e-06;-0.0018043102440482642
8.09775e-06;-0.0018165666431557402
8.09800e-06;-0.0018279875694829277
8.09825e-06;-0.0018393773535320933
8.09850e-06;-0.0018497386446819505
8.09875e-06;-0.0018600615987219712
8.09900e-06;-0.0018697482541485406
8.09925e-06;-0.0018790218217376452
8.09950e-06;-0.001888280875554043
8.09975e-06;-0.0018975399293703784
8.10000e-06;-0.001906095326743292
8.10025e-06;-0.0019146244952969423
8.10050e-06;-0.0019223220256593208
8.10075e-06;-0.0019299885566782336
8.10100e-06;-0.0019368509837258481
8.10125e-06;-0.0019436834377689319
8.10150e-06;-0.001950515891812062
8.10175e-06;-0.0019568171149818158
8.10200e-06;-0.0019627594840082524
8.10225e-06;-0.0019683013414820176
8.10250e-06;-0.0019733919345061982
8.10275e-06;-0.0019777133941388247
8.10300e-06;-0.0019804377896000805
8.10325e-06;-0.001980790152605756
8.10350e-06;-0.0019785723621815435
8.10375e-06;-0.0019738772808318553
8.10400e-06;-0.0019668075952374337
8.10425e-06;-0.001956422339509663
8.10450e-06;-0.001945916671622071
8.10475e-06;-0.0019322116096835943
8.10500e-06;-0.0019158502886900243
8.10525e-06;-0.0018950955833783325
8.10550e-06;-0.001874180639489549
8.10575e-06;-0.0018491819143776499
8.10600e-06;-0.001821564446264418
8.10625e-06;-0.0017905390916798955
8.10650e-06;-0.0017593901350569671
8.10675e-06;-0.0017241517856174588
8.10700e-06;-0.0016887610039131224
8.10725e-06;-0.0016491115276090786
8.10750e-06;-0.001609303308310628
8.10775e-06;-0.0015659125914570195
8.10800e-06;-0.0015223883368779224
8.10825e-06;-0.001476281739095228
8.10850e-06;-0.001430078884376215
8.10875e-06;-0.0013824985517436477
8.10900e-06;-0.0013340713740449795
8.10925e-06;-0.0012848982802483836
8.10950e-06;-0.0012352023105740811
8.10975e-06;-0.0011852779722745582
8.11000e-06;-0.0011354223530669926
8.11025e-06;-0.001085932432621149
8.11050e-06;-0.001037105298655213
8.11075e-06;-0.0009891964050443237
8.11100e-06;-0.0009423833359309585
8.11125e-06;-0.0008968513805093967
8.11150e-06;-0.0008528748282832868
8.11175e-06;-0.0008107725729167882
8.11200e-06;-0.0007708650475835382
8.11225e-06;-0.0007334727976889924
8.11250e-06;-0.0006989161483575275
8.11275e-06;-0.0006672665421653856
8.11300e-06;-0.0006380708883581055
8.11325e-06;-0.0006107987538635598
8.11350e-06;-0.0005853528299104273
8.11375e-06;-0.0005618786854980668
8.11400e-06;-0.000540530113633174
8.11425e-06;-0.0005214610111879291
8.11450e-06;-0.0005048250547541503
8.11475e-06;-0.000490620246946272
8.11500e-06;-0.000478515812660596
8.11525e-06;-0.0004689087002509865
8.11550e-06;-0.00045939187865887165
8.11575e-06;-0.00045225104793996475
8.11600e-06;-0.0004468464585183504
8.11625e-06;-0.0004431987170991365
8.11650e-06;-0.0004413572742278468
8.11675e-06;-0.0004412739355815187
8.11700e-06;-0.0004426947095738777
8.11725e-06;-0.00044533528611388724
8.11750e-06;-0.0004490813227839425
8.11775e-06;-0.00045391378813370973
8.11800e-06;-0.0004598168819208334
8.11825e-06;-0.0004667748288232978
8.11850e-06;-0.0004747718265071144
8.11875e-06;-0.0004837308491046857
8.11900e-06;-0.0004934459911233503
8.11925e-06;-0.0005036924588680473
8.11950e-06;-0.0005143517752279819
8.11975e-06;-0.0005253652810917734
8.12000e-06;-0.0005366763424969998
8.12025e-06;-0.000548228323389744
8.12050e-06;-0.0005599645315999252
8.12075e-06;-0.00057179000179648
8.12100e-06;-0.0005835291063895976
8.12125e-06;-0.0005949941734936696
8.12150e-06;-0.0006060644192567823
8.12175e-06;-0.0006166563014773147
8.12200e-06;-0.0006266876288462558
8.12225e-06;-0.0006360763243782071
8.12250e-06;-0.0006447401469236002
8.12275e-06;-0.0006528275416758236
8.12300e-06;-0.0006609438070112867
8.12325e-06;-0.0006696917583440526
8.12350e-06;-0.0006792125594094043
8.12375e-06;-0.0006894058971235477
8.12400e-06;-0.0007001631538996291
8.12425e-06;-0.0007115409195617903
8.12450e-06;-0.0007229410645745984
8.12475e-06;-0.0007348766678613894
8.12500e-06;-0.0007475228492153062
8.12525e-06;-0.0007617034784442056
8.12550e-06;-0.0007759403447078783
8.12575e-06;-0.0007915847950853028
8.12600e-06;-0.0008080590872910728
8.12625e-06;-0.0008257448498804018
8.12650e-06;-0.0008434746899665539
8.12675e-06;-0.000861204530052586
8.12700e-06;-0.0008808766736665233
8.12725e-06;-0.000900621216714766
8.12750e-06;-0.000920365759762875
8.12775e-06;-0.0009417295188297795
8.12800e-06;-0.0009631536342324035
8.12825e-06;-0.0009852864097494509
8.12850e-06;-0.0010074456005977706
8.12875e-06;-0.0010299588268947786
8.12900e-06;-0.0010524852498759514
8.12925e-06;-0.0010753891086513689
8.12950e-06;-0.0010983070363598457
8.12975e-06;-0.0011212209798367727
8.13000e-06;-0.0011441347748011694
8.13025e-06;-0.001166496669522208
8.13050e-06;-0.001188837992141676
8.13075e-06;-0.0012101849964676786
8.13100e-06;-0.0012314949375434208
8.13125e-06;-0.0012516048392996462
8.13150e-06;-0.001271670009546618
8.13175e-06;-0.0012905612905010065
8.13200e-06;-0.0013084384579013925
8.13225e-06;-0.0013245420496819779
8.13250e-06;-0.0013405808796083793
8.13275e-06;-0.0013539651451200529
8.13300e-06;-0.0013672504616468527
8.13325e-06;-0.0013772101606753025
8.13350e-06;-0.001387045897190924
8.13375e-06;-0.0013968816337064786
8.13400e-06;-0.0014025200103428177
8.13425e-06;-0.001408001930237446
8.13450e-06;-0.001413483850132037
8.13475e-06;-0.001415292215011576
8.13500e-06;-0.001416963647994712
8.13525e-06;-0.0014165476242256469
8.13550e-06;-0.0014147319234110506
8.13575e-06;-0.0014115702228758964
8.13600e-06;-0.0014064656566321505
8.13625e-06;-0.0014012904717079777
8.13650e-06;-0.0013936815946983862
8.13675e-06;-0.0013859820017280745
8.13700e-06;-0.0013760913619853474
8.13725e-06;-0.0013661190508946694
8.13750e-06;-0.0013542886288876142
8.13775e-06;-0.0013423889457288502
8.13800e-06;-0.0013288986563268204
8.13825e-06;-0.0013153490770193834
8.13850e-06;-0.00130047538605517
8.13875e-06;-0.0012855523387808189
8.13900e-06;-0.0012696548943709424
8.13925e-06;-0.0012537211292725976
8.13950e-06;-0.0012372196392363404
8.13975e-06;-0.0012206969872324263
8.14000e-06;-0.0012039719250427341
8.14025e-06;-0.0011872393180059051
8.14050e-06;-0.0011705808962382046
8.14075e-06;-0.001154101556004254
8.14100e-06;-0.0011379167749560337
8.14125e-06;-0.0011221488957876026
8.14150e-06;-0.0011072246522131827
8.14175e-06;-0.0010923312908458975
8.14200e-06;-0.0010784784311882647
8.14225e-06;-0.0010654994736488128
8.14250e-06;-0.001053492709408627
8.14275e-06;-0.0010423109113068406
8.14300e-06;-0.001031295366961706
8.14325e-06;-0.0010197833579909422
8.14350e-06;-0.0010076220222911166
8.14375e-06;-0.0009949260758445057
8.14400e-06;-0.0009818193887368115
8.14425e-06;-0.0009683496214276712
8.14450e-06;-0.0009548668645150543
8.14475e-06;-0.0009411136849004436
8.14500e-06;-0.0009268001523885202
8.14525e-06;-0.0009111068962593706
8.14550e-06;-0.000895362975447094
8.14575e-06;-0.0008780258390005525
8.14600e-06;-0.0008606293153833445
8.14625e-06;-0.0008419543771877623
8.14650e-06;-0.0008232317860421772
8.14675e-06;-0.0008045091948965923
8.14700e-06;-0.0007841293130692466
8.14725e-06;-0.0007636876556713505
8.14750e-06;-0.0007432459982734545
8.14775e-06;-0.0007213501805342254
8.14800e-06;-0.0006994001589152482
8.14825e-06;-0.0006768830576917893
8.14850e-06;-0.0006543448185556037
8.14875e-06;-0.0006315846689451763
8.14900e-06;-0.0006088162476137558
8.14925e-06;-0.0005857980823034968
8.14950e-06;-0.0005626632018731719
8.14975e-06;-0.0005395534981712681
8.15000e-06;-0.0005166108169924163
8.15025e-06;-0.000493976729826263
8.15050e-06;-0.00047179302216805567
8.15075e-06;-0.00045016181391224877
8.15100e-06;-0.00042910639028468544
8.15125e-06;-0.0004086495099400329
8.15150e-06;-0.00038889244140772136
8.15175e-06;-0.00036997756329585084
8.15200e-06;-0.00035204870568881515
8.15225e-06;-0.00033524972777481375
8.15250e-06;-0.0003197243775556839
8.15275e-06;-0.0003055003230338526
8.15300e-06;-0.00029236129042913326
8.15325e-06;-0.00028005690630338617
8.15350e-06;-0.00026854042973016557
8.15375e-06;-0.00025832623067997894
8.15400e-06;-0.0002481595205538341
8.15425e-06;-0.00023991920742492007
8.15450e-06;-0.00023175070081424715
8.15475e-06;-0.00022556119989214013
8.15500e-06;-0.0002194454664791144
8.15525e-06;-0.00021479815387003606
8.15550e-06;-0.0002102055766999522
8.15575e-06;-0.00020698161112478412
8.15600e-06;-0.00020380866059668771
8.15625e-06;-0.00020210137417711404
8.15650e-06;-0.00020044872044058042
8.15675e-06;-0.0001999103538566346
8.15700e-06;-0.00020003391211179325
8.15725e-06;-0.00020067580453503732
8.15750e-06;-0.000201786472264082
8.15775e-06;-0.0002033609170507561
8.15800e-06;-0.0002053957181491205
8.15825e-06;-0.00020788741377214233
8.15850e-06;-0.00021083258265093059
8.15875e-06;-0.00021419921401538645
8.15900e-06;-0.00021789535171496096
8.15925e-06;-0.0002218207001629649
8.15950e-06;-0.00022592502863786303
8.15975e-06;-0.0002301860329492203
8.16000e-06;-0.00023458239401826642
8.16025e-06;-0.0002390927652312821
8.16050e-06;-0.00024369581295758267
8.16075e-06;-0.00024835230310541156
8.16100e-06;-0.00025298549421043533
8.16125e-06;-0.0002575133715340342
8.16150e-06;-0.0002617936467359781
8.16175e-06;-0.00026606483758231697
8.16200e-06;-0.0002700295512370698
8.16225e-06;-0.0002737368006162202
8.16250e-06;-0.00027715746969711935
8.16275e-06;-0.000280532220838128
8.16300e-06;-0.0002846343393302246
8.16325e-06;-0.00029021188806711953
8.16350e-06;-0.00029744746706268155
8.16375e-06;-0.00030623274312514977
8.16400e-06;-0.0003164492657562193
8.16425e-06;-0.0003279785823660615
8.16450e-06;-0.00034070238065450083
8.16475e-06;-0.0003546732546376916
8.16500e-06;-0.0003702776051704801
8.16525e-06;-0.00038788584005622074
8.16550e-06;-0.000407514262587568
8.16575e-06;-0.00042899682642749866
8.16600e-06;-0.0004521612348078655
8.16625e-06;-0.0004774768226793045
8.16650e-06;-0.0005028703513102616
8.16675e-06;-0.0005308151349147022
8.16700e-06;-0.000558855016641239
8.16725e-06;-0.0005897821755739916
8.16750e-06;-0.0006208169578700382
8.16775e-06;-0.0006542668859333989
8.16800e-06;-0.0006878068386436698
8.16825e-06;-0.0007229674757391277
8.16850e-06;-0.0007581885239040018
8.16875e-06;-0.0007944344174320335
8.16900e-06;-0.0008307185121084089
8.16925e-06;-0.0008678598057847661
8.16950e-06;-0.0009050330515854251
8.16975e-06;-0.0009423896281532437
8.17000e-06;-0.0009797530383818538
8.17025e-06;-0.0010164241743502193
8.17050e-06;-0.0010530695057702237
8.17075e-06;-0.0010882713108191304
8.17100e-06;-0.0011234193083695587
8.17125e-06;-0.001157206943368215
8.17150e-06;-0.0011898123490433137
8.17175e-06;-0.0012210124088543706
8.17200e-06;-0.001250567178273192
8.17225e-06;-0.0012772075029152726
8.17250e-06;-0.001303741406934836
8.17275e-06;-0.0013271671053035512
8.17300e-06;-0.00134880536365271
8.17325e-06;-0.0013679637269280026
8.17350e-06;-0.0013870319745666454
8.17375e-06;-0.0014061002222052882
8.17400e-06;-0.0014217855205638076
8.17425e-06;-0.0014373447193642822
8.17450e-06;-0.0014505132108880612
8.17475e-06;-0.0014619696035720368
8.17500e-06;-0.00147202264504615
8.17525e-06;-0.001480503318427127
8.17550e-06;-0.001488927247529789
8.17575e-06;-0.001495312933558008
8.17600e-06;-0.0015016226440010278
8.17625e-06;-0.0015056913083721299
8.17650e-06;-0.0015096764376689095
8.17675e-06;-0.0015119362263575837
8.17700e-06;-0.0015131922098896846
8.17725e-06;-0.0015136889414982594
8.17750e-06;-0.0015135030187104536
8.17775e-06;-0.001512629814772561
8.17800e-06;-0.0015110617668721094
8.17825e-06;-0.0015087917569406644
8.17850e-06;-0.0015058120102523914
8.17875e-06;-0.0015021670270342438
8.17900e-06;-0.0014980081938023911
8.17925e-06;-0.0014935006850011145
8.17950e-06;-0.0014887180130809172
8.17975e-06;-0.0014836827859825228
8.18000e-06;-0.0014784158420485692
8.18025e-06;-0.0014729380196217
8.18050e-06;-0.0014672702692763242
8.18075e-06;-0.001461465756318414
8.18100e-06;-0.001455644839045563
8.18125e-06;-0.0014499366206071952
8.18150e-06;-0.0014445209988854038
8.18175e-06;-0.0014391161265313204
8.18200e-06;-0.001434074043711815
8.18225e-06;-0.0014293368378319382
8.18250e-06;-0.0014249388826461686
8.18275e-06;-0.001420651258885374
8.18300e-06;-0.0014157218459466979
8.18325e-06;-0.0014094210303485526
8.18350e-06;-0.001401571360244895
8.18375e-06;-0.001392280101614719
8.18400e-06;-0.0013816644805037298
8.18425e-06;-0.0013693181654459152
8.18450e-06;-0.0013569091070464168
8.18475e-06;-0.0013428748188710996
8.18500e-06;-0.0013273021931035306
8.18525e-06;-0.0013089303584365574
8.18550e-06;-0.0012904562363929835
8.18575e-06;-0.0012693934300460029
8.18600e-06;-0.0012467223670460206
8.18625e-06;-0.0012214707833311787
8.18650e-06;-0.0011961251110987692
8.18675e-06;-0.00117077943886636
8.18700e-06;-0.0011416157879032328
8.18725e-06;-0.0011123098216427002
8.18750e-06;-0.0010830038553821678
8.18775e-06;-0.001051210194800204
8.18800e-06;-0.001018002555577834
8.18825e-06;-0.0009847456667225853
8.18850e-06;-0.000950328103878353
8.18875e-06;-0.0009158672768688342
8.18900e-06;-0.0008807453760598155
8.18925e-06;-0.0008451659553604029
8.18950e-06;-0.0008092815142600379
8.18975e-06;-0.0007733061152918359
8.19000e-06;-0.00073745634497885
8.19025e-06;-0.0007019486256797679
8.19050e-06;-0.000666999429593318
8.19075e-06;-0.000632784041912709
8.19100e-06;-0.0005993970890344133
8.19125e-06;-0.0005669368697045115
8.19150e-06;-0.000535586552326596
8.19175e-06;-0.0005055730875620524
8.19200e-06;-0.0004771250527114238
8.19225e-06;-0.00045047086091151765
8.19250e-06;-0.00042583891902392494
8.19275e-06;-0.00040335951519337055
