Time(s);Current(A)
1.47500e-05;-0.001765594380730851
1.47503e-05;-0.0017484484215998406
1.47505e-05;-0.0017348057682426954
1.47508e-05;-0.0017224790451631543
1.47510e-05;-0.0017137809579775036
1.47513e-05;-0.0017067864371643519
1.47515e-05;-0.0017044894464493794
1.47518e-05;-0.001702192455734407
1.47520e-05;-0.0017018947892275059
1.47523e-05;-0.0017071101956453762
1.47525e-05;-0.0017123256020632463
1.47528e-05;-0.001719090638879711
1.47530e-05;-0.0017301287322417146
1.47533e-05;-0.0017423211672588194
1.47535e-05;-0.0017576966626813469
1.47538e-05;-0.0017738805969352797
1.47540e-05;-0.001792788006544145
1.47543e-05;-0.0018135153254884861
1.47545e-05;-0.001835923529480628
1.47548e-05;-0.0018598751320253555
1.47550e-05;-0.0018852326466274126
1.47553e-05;-0.0019118585867920707
1.47555e-05;-0.0019396140408344286
1.47558e-05;-0.0019683515817616056
1.47560e-05;-0.0019979063052546126
1.47563e-05;-0.002028098771142572
1.47565e-05;-0.002058746703088147
1.47568e-05;-0.0020896691916816356
1.47570e-05;-0.002120685203583177
1.47573e-05;-0.002151613611580435
1.47575e-05;-0.0021822728565585557
1.47578e-05;-0.00221247545343823
1.47580e-05;-0.0022420231449651468
1.47583e-05;-0.0022707088376468627
1.47585e-05;-0.002298323526558957
1.47588e-05;-0.002324659061105807
1.47590e-05;-0.002349507228727058
1.47593e-05;-0.00237239617180531
1.47595e-05;-0.00239320191812222
1.47598e-05;-0.00241273639526777
1.47600e-05;-0.002428765388099477
1.47603e-05;-0.002444794380931184
1.47605e-05;-0.0024588757935785927
1.47608e-05;-0.0024675868157999856
1.47610e-05;-0.0024762978380213786
1.47613e-05;-0.0024850088602427125
1.47615e-05;-0.0024937198824641054
1.47618e-05;-0.002495558514441847
1.47620e-05;-0.0024952993480653897
1.47623e-05;-0.0024950401816889304
1.47625e-05;-0.0024947810153124715
1.47628e-05;-0.002492727149603327
1.47630e-05;-0.0024857244575545627
1.47633e-05;-0.0024787217655057986
1.47635e-05;-0.0024704226465902717
1.47638e-05;-0.0024585486718149974
1.47640e-05;-0.0024466746970397226
1.47643e-05;-0.0024337681000681506
1.47645e-05;-0.002418014080226599
1.47648e-05;-0.002402260060385047
1.47650e-05;-0.0023856899645549262
1.47653e-05;-0.002366869565136453
1.47655e-05;-0.0023480491657179798
1.47658e-05;-0.002328683992718101
1.47660e-05;-0.002307816623890979
1.47663e-05;-0.0022869492550637157
1.47665e-05;-0.0022658607959458277
1.47668e-05;-0.0022441626873821543
1.47670e-05;-0.002222464578818334
1.47673e-05;-0.002200841365003559
1.47675e-05;-0.002179424671077846
1.47678e-05;-0.0021580079771519886
1.47680e-05;-0.002136914367524129
1.47683e-05;-0.0021167116525744197
1.47685e-05;-0.0020968244622209223
1.47688e-05;-0.002078068192579934
1.47690e-05;-0.0020603300623865816
1.47693e-05;-0.002043752563994544
1.47695e-05;-0.0020285658699039357
1.47698e-05;-0.002015402416577441
1.47700e-05;-0.002005305828924266
1.47703e-05;-0.0019990393859629823
1.47705e-05;-0.0019972447225613124
1.47708e-05;-0.0019996906084729046
1.47710e-05;-0.00200409042939956
1.47713e-05;-0.0020138781639974478
1.47715e-05;-0.002025664014489711
1.47718e-05;-0.0020429596060228946
1.47720e-05;-0.0020626088053216354
1.47723e-05;-0.0020887480031927244
1.47725e-05;-0.0021166050503144723
1.47728e-05;-0.002150249624753061
1.47730e-05;-0.002187770893096184
1.47733e-05;-0.00222890245015094
1.47735e-05;-0.0022734125459088744
1.47738e-05;-0.002321226657593561
1.47740e-05;-0.0023724319968303374
1.47743e-05;-0.002427005774073633
1.47745e-05;-0.00248467968292444
1.47748e-05;-0.0025450887538354112
1.47750e-05;-0.0026078677374910346
1.47753e-05;-0.002672651617406382
1.47755e-05;-0.0027390970497380685
1.47758e-05;-0.0028069592667630213
1.47760e-05;-0.002876094517881015
1.47763e-05;-0.0029462908676250177
1.47765e-05;-0.003017181961980123
1.47768e-05;-0.0030883409134749226
1.47770e-05;-0.0031593411144064426
1.47773e-05;-0.003229755910133918
1.47775e-05;-0.0032991723101733744
1.47778e-05;-0.0033672388461126208
1.47780e-05;-0.0034336676865661686
1.47783e-05;-0.0034981280233945047
1.47785e-05;-0.0035601925931969774
1.47788e-05;-0.0036193962003471243
1.47790e-05;-0.0036747238668186455
1.47793e-05;-0.0037258440465239673
1.47795e-05;-0.003775327643771641
1.47798e-05;-0.0038195017359156664
1.47800e-05;-0.0038609875629193892
1.47803e-05;-0.0039006800378236016
1.47805e-05;-0.003938651700624145
1.47808e-05;-0.003974623620210433
1.47810e-05;-0.004008316865471109
1.47813e-05;-0.004039452505294876
1.47815e-05;-0.004067837491738845
1.47818e-05;-0.004093688726524275
1.47820e-05;-0.004117710301063654
1.47823e-05;-0.00414047541735072
1.47825e-05;-0.004162041852646708
1.47828e-05;-0.004182028261660303
1.47830e-05;-0.004200325490622362
1.47833e-05;-0.004217923880936418
1.47835e-05;-0.004233125181173041
1.47838e-05;-0.004246679696218606
1.47840e-05;-0.004258942075142853
1.47843e-05;-0.004270307237351529
1.47845e-05;-0.004281225943410146
1.47848e-05;-0.004290913560831296
1.47850e-05;-0.004299915517444914
1.47853e-05;-0.004307026786183772
1.47855e-05;-0.004314138054922677
1.47858e-05;-0.004320691909267909
1.47860e-05;-0.004325708711146685
1.47863e-05;-0.004330436323455493
1.47865e-05;-0.004334366504720371
1.47868e-05;-0.004338296685985221
1.47870e-05;-0.004341812488194801
1.47873e-05;-0.004344185653335351
1.47875e-05;-0.004346558818475884
1.47878e-05;-0.004348664584989689
1.47880e-05;-0.004350033008292657
1.47883e-05;-0.0043514014315956156
1.47885e-05;-0.0043527050810616115
1.47888e-05;-0.004353830118731747
1.47890e-05;-0.004354889597677849
1.47893e-05;-0.0043557683005269986
1.47895e-05;-0.004356661565096513
1.47898e-05;-0.004357594983146915
1.47900e-05;-0.004358830417474162
1.47903e-05;-0.0043608986520817395
1.47905e-05;-0.004363386904538392
1.47908e-05;-0.004367033342858869
1.47910e-05;-0.004370679781179347
1.47913e-05;-0.004374761625266177
1.47915e-05;-0.00438004408690936
1.47918e-05;-0.004385326548552579
1.47920e-05;-0.0043913693867428365
1.47923e-05;-0.004399508939084349
1.47925e-05;-0.004407648491425916
1.47928e-05;-0.004415788043767483
1.47930e-05;-0.004423927596108995
1.47933e-05;-0.004434285958921704
1.47935e-05;-0.004445321614029467
1.47938e-05;-0.0044563572691371555
1.47940e-05;-0.004467392924244919
1.47943e-05;-0.00447894290069289
1.47945e-05;-0.004491911101883035
1.47948e-05;-0.004505113963647789
1.47950e-05;-0.004518963894485539
1.47953e-05;-0.004532959132702978
1.47955e-05;-0.004547355051400097
1.47958e-05;-0.004561860709700456
1.47960e-05;-0.004576668971467385
1.47963e-05;-0.004591540127473423
1.47965e-05;-0.004606594998495166
1.47968e-05;-0.004621662742060375
1.47970e-05;-0.00463664662455103
1.47973e-05;-0.004651450254080556
1.47975e-05;-0.004665982195943783
1.47978e-05;-0.004680174103350586
1.47980e-05;-0.004693983229335116
1.47983e-05;-0.004707355019866734
1.47985e-05;-0.0047202004809302886
1.47988e-05;-0.004732417756633302
1.47990e-05;-0.0047439050849559985
1.47993e-05;-0.004754560020415323
1.47995e-05;-0.004764255827339133
1.47998e-05;-0.004772756406730945
1.48000e-05;-0.004779723163161
1.48003e-05;-0.004784674903701755
1.48005e-05;-0.004787618115868193
1.48008e-05;-0.004789136974906733
1.48010e-05;-0.004786728225482808
1.48013e-05;-0.004784319476058883
1.48015e-05;-0.004781910726634974
1.48018e-05;-0.004777492831589993
1.48020e-05;-0.004767534781376205
1.48023e-05;-0.004757576731162485
1.48025e-05;-0.004747618680948697
1.48028e-05;-0.0047359602452227605
1.48030e-05;-0.004719613050511504
1.48033e-05;-0.004703265855800137
1.48035e-05;-0.004685666559687052
1.48038e-05;-0.004664614633769728
1.48040e-05;-0.0046435627078522616
1.48043e-05;-0.004621404049877633
1.48045e-05;-0.00459619361344425
1.48048e-05;-0.004570983177010697
1.48050e-05;-0.004544991075690237
1.48053e-05;-0.004516843558297396
1.48055e-05;-0.004488696040904363
1.48058e-05;-0.004460112828576229
1.48060e-05;-0.004430328201317653
1.48063e-05;-0.004400346773957352
1.48065e-05;-0.004369822676574329
1.48068e-05;-0.004339285318731273
1.48070e-05;-0.004308711395590509
1.48073e-05;-0.004278309238785201
1.48075e-05;-0.004248380722188848
1.48078e-05;-0.004218785761935633
1.48080e-05;-0.004190110572693866
1.48083e-05;-0.00416194244114438
1.48085e-05;-0.004135172505059814
1.48088e-05;-0.004108910556138847
1.48090e-05;-0.004084457217770311
1.48093e-05;-0.004061587677525922
1.48095e-05;-0.004040532517686481
1.48098e-05;-0.004021689009203335
1.48100e-05;-0.0040060309759387255
1.48103e-05;-0.0039938355396547795
1.48105e-05;-0.0039833462412784655
1.48108e-05;-0.003977561563936905
1.48110e-05;-0.003973456379652935
1.48113e-05;-0.003973982344076951
1.48115e-05;-0.003977158696517768
1.48118e-05;-0.0039876434096475025
1.48120e-05;-0.003998128122777237
1.48123e-05;-0.004008612835906901
1.48125e-05;-0.004021377263814448
1.48128e-05;-0.004041269290352283
1.48130e-05;-0.004064279439961781
1.48133e-05;-0.004090245444713063
1.48135e-05;-0.004119019972035805
1.48138e-05;-0.004150519774418111
1.48140e-05;-0.004184719912406894
1.48143e-05;-0.004221531578852275
1.48145e-05;-0.004260750317952145
1.48148e-05;-0.004302127684381839
1.48150e-05;-0.004345415045070525
1.48153e-05;-0.004390364762085726
1.48155e-05;-0.004436737343086221
1.48158e-05;-0.004484334322930484
1.48160e-05;-0.0045329936963555495
1.48163e-05;-0.0045825125095231714
1.48165e-05;-0.004632617129795222
1.48168e-05;-0.004683005001264486
1.48170e-05;-0.004733373909755162
1.48173e-05;-0.004783421888951539
1.48175e-05;-0.00483285298497039
1.48178e-05;-0.004881396100615724
1.48180e-05;-0.004928803699232962
1.48183e-05;-0.00497480193778601
1.48185e-05;-0.005019072532862653
1.48188e-05;-0.005061280643941059
1.48190e-05;-0.005101090187501024
1.48193e-05;-0.005138165545683698
1.48195e-05;-0.005172175779896436
1.48198e-05;-0.005202822360530439
1.48200e-05;-0.005229894250029407
1.48203e-05;-0.005253281552769739
1.48205e-05;-0.005272918978596217
1.48208e-05;-0.005288226636619551
1.48210e-05;-0.005299271191031954
1.48213e-05;-0.005307666173297597
1.48215e-05;-0.005308755044607746
1.48218e-05;-0.005309843915917903
1.48220e-05;-0.005307802079316892
1.48223e-05;-0.005297127415187102
1.48225e-05;-0.00528645275105724
1.48228e-05;-0.005273346238318512
1.48230e-05;-0.005253533980358207
1.48233e-05;-0.005231919291241889
1.48235e-05;-0.005205334455518846
1.48238e-05;-0.005177096028011585
1.48240e-05;-0.0051442978737319955
1.48243e-05;-0.0051100610214815535
1.48245e-05;-0.005071857005317868
1.48248e-05;-0.00503244981926421
1.48250e-05;-0.0049897249304924375
1.48253e-05;-0.004946033205454034
1.48255e-05;-0.004899675460149645
1.48258e-05;-0.00485260450037153
1.48260e-05;-0.00480356687435837
1.48263e-05;-0.004754110862235694
1.48265e-05;-0.004703501163716583
1.48268e-05;-0.0046527807961228
1.48270e-05;-0.00460175526207447
1.48273e-05;-0.004550927209739663
1.48275e-05;-0.004500643706952311
1.48278e-05;-0.00445087674246677
1.48280e-05;-0.004402534115924917
1.48283e-05;-0.004355052613756325
1.48285e-05;-0.004309945634669636
1.48288e-05;-0.004266052669306503
1.48290e-05;-0.004225507308189974
1.48293e-05;-0.004186490927710488
1.48295e-05;-0.004151690662726118
1.48298e-05;-0.004118189179267449
1.48300e-05;-0.004088269044574267
1.48303e-05;-0.004059323491743273
1.48305e-05;-0.004033065317413277
1.48308e-05;-0.004008086864246626
1.48310e-05;-0.003986637201501627
1.48313e-05;-0.003965187538756628
1.48315e-05;-0.003948179112122376
1.48318e-05;-0.003932526373610814
1.48320e-05;-0.003918145069507487
1.48323e-05;-0.003907269705362918
1.48325e-05;-0.0038963943412182746
1.48328e-05;-0.0038868350674242337
1.48330e-05;-0.0038809048709303965
1.48333e-05;-0.003874974674436519
1.48335e-05;-0.0038701613618933872
1.48338e-05;-0.0038684278213360563
1.48340e-05;-0.003867328769014953
1.48343e-05;-0.003867979297833322
1.48345e-05;-0.0038691808173637802
1.48348e-05;-0.0038719016762655102
1.48350e-05;-0.0038751704276409754
1.48353e-05;-0.0038799499750939185
1.48355e-05;-0.0038851198386169366
1.48358e-05;-0.0038915621667479578
1.48360e-05;-0.00389868029157702
1.48363e-05;-0.00390627649012883
1.48365e-05;-0.0039142604058230454
1.48368e-05;-0.003922588437364485
1.48370e-05;-0.003931216936521618
1.48373e-05;-0.003940102348935772
1.48375e-05;-0.003949189159196921
1.48378e-05;-0.003958366464116728
1.48380e-05;-0.003967454398211011
1.48383e-05;-0.003976287828801541
1.48385e-05;-0.003984767983425745
1.48388e-05;-0.003992825726410998
1.48390e-05;-0.004000392481618474
1.48393e-05;-0.004007399207248069
1.48395e-05;-0.004013726328306451
1.48398e-05;-0.0040190234170073965
1.48400e-05;-0.0040227015963055215
1.48403e-05;-0.004024328108553197
1.48405e-05;-0.004023558176047817
1.48408e-05;-0.00402052136596266
1.48410e-05;-0.004016445530657155
1.48413e-05;-0.004009504616339166
1.48415e-05;-0.004001501378048353
1.48418e-05;-0.003990568815175586
1.48420e-05;-0.003978060508921912
1.48423e-05;-0.003961207140391242
1.48425e-05;-0.003944353771860685
1.48428e-05;-0.003925806451827811
1.48430e-05;-0.0039025881143813592
1.48433e-05;-0.0038793697769350655
1.48435e-05;-0.0038547002246354
1.48438e-05;-0.0038260289935145753
1.48440e-05;-0.0037973577623939448
1.48443e-05;-0.003767534358387553
1.48445e-05;-0.003734533874278628
1.48448e-05;-0.0037008277353984685
1.48450e-05;-0.0036651757759196134
1.48453e-05;-0.003629025309886808
1.48455e-05;-0.003591500227880012
1.48458e-05;-0.003553603357268409
1.48460e-05;-0.0035146812913994354
1.48463e-05;-0.003475535346826023
1.48465e-05;-0.0034357720638415277
1.48468e-05;-0.003396026905551504
1.48470e-05;-0.0033563317255305464
1.48473e-05;-0.0033168989662993534
1.48475e-05;-0.003278189824054001
1.48478e-05;-0.003239936990356197
1.48480e-05;-0.0032029424129707117
1.48483e-05;-0.00316661129235
1.48485e-05;-0.0031321096326663504
1.48488e-05;-0.003098537475476138
1.48490e-05;-0.0030675283918623845
1.48493e-05;-0.003037385018014431
1.48495e-05;-0.003010175030747952
1.48498e-05;-0.002984724909938303
1.48500e-05;-0.0029598898250657616
1.48503e-05;-0.0029348217645708023
1.48505e-05;-0.0029096834979943607
1.48508e-05;-0.0028843516403801416
1.48510e-05;-0.0028591856004836947
1.48513e-05;-0.0028344767976718932
1.48515e-05;-0.0028099639584370398
1.48518e-05;-0.0027859502140008593
1.48520e-05;-0.0027614077981181887
1.48523e-05;-0.002735721378238792
1.48525e-05;-0.0027100349583595693
1.48528e-05;-0.0026840054478249856
1.48530e-05;-0.002657029875715763
1.48533e-05;-0.0026300543036067237
1.48535e-05;-0.0026028272155716775
1.48538e-05;-0.0025755233522549033
1.48540e-05;-0.002547832717253106
1.48543e-05;-0.002519075571624773
1.48545e-05;-0.00249031842599644
1.48548e-05;-0.0024613411195497066
1.48550e-05;-0.0024317567266444714
1.48553e-05;-0.002402172333739236
1.48555e-05;-0.00237264391567409
1.48558e-05;-0.002343269846450289
1.48560e-05;-0.0023138957772264874
1.48563e-05;-0.0022845551070125158
1.48565e-05;-0.002255306533505644
1.48568e-05;-0.002226057959998772
1.48570e-05;-0.0021972143055921465
1.48573e-05;-0.002169487202731338
1.48575e-05;-0.0021417600998705297
1.48578e-05;-0.002114656713703637
1.48580e-05;-0.0020892732064916337
1.48583e-05;-0.0020638896992796305
1.48585e-05;-0.0020391658896364473
1.48588e-05;-0.002016261175066998
1.48590e-05;-0.0019940987674286
1.48593e-05;-0.001973983247554802
1.48595e-05;-0.0019548423715075283
1.48598e-05;-0.001938389044827762
1.48600e-05;-0.001923183967404825
1.48603e-05;-0.0019114208976262238
1.48605e-05;-0.0019013014742850873
1.48608e-05;-0.0018957143537446347
1.48610e-05;-0.0018901272332042197
1.48613e-05;-0.0018865386623065777
1.48615e-05;-0.0018884610285159146
1.48618e-05;-0.0018903833947252384
1.48620e-05;-0.0018940527955865721
1.48623e-05;-0.0019025395889631063
1.48625e-05;-0.0019120412413000036
1.48628e-05;-0.0019249806874282744
1.48630e-05;-0.0019402946269748208
1.48633e-05;-0.001957878340600423
1.48635e-05;-0.0019776333514537866
1.48638e-05;-0.0019994881620165575
1.48640e-05;-0.0020233892829853743
1.48643e-05;-0.002049243681089148
1.48645e-05;-0.0020768996124929085
1.48648e-05;-0.0021061843168588596
1.48650e-05;-0.002136925157779347
1.48653e-05;-0.0021689496546835694
1.48655e-05;-0.0022020888421129424
1.48658e-05;-0.0022361909334387272
1.48660e-05;-0.0022711159297059895
1.48663e-05;-0.0023066983893838705
1.48665e-05;-0.0023427359449624974
1.48668e-05;-0.0023790138026586463
1.48670e-05;-0.0024153168889221033
1.48673e-05;-0.002451430177139734
1.48675e-05;-0.0024871409014861428
1.48678e-05;-0.002522247190388792
1.48680e-05;-0.0025565543879548275
1.48683e-05;-0.002589852092055425
1.48685e-05;-0.0026219067171434234
1.48688e-05;-0.0026524768178411554
1.48690e-05;-0.0026810355390529898
1.48693e-05;-0.0027074105943661
1.48695e-05;-0.002732930411959614
1.48698e-05;-0.0027556558306961734
1.48700e-05;-0.0027768854161515145
1.48703e-05;-0.0027970371184648218
1.48705e-05;-0.002816141279002852
1.48708e-05;-0.002834061909641147
1.48710e-05;-0.002850662648615613
1.48713e-05;-0.0028658077406327953
1.48715e-05;-0.0028794017056466364
1.48718e-05;-0.0028915452246379243
1.48720e-05;-0.0029025740282885826
1.48723e-05;-0.002912764991417839
1.48725e-05;-0.002922029183129985
1.48728e-05;-0.002930326103116591
1.48730e-05;-0.002938093286306895
1.48733e-05;-0.0029443997371208608
1.48735e-05;-0.0029501789916940436
1.48738e-05;-0.0029545045193918452
1.48740e-05;-0.0029584968005706837
1.48743e-05;-0.0029615701650669147
1.48745e-05;-0.002964270584283249
1.48748e-05;-0.0029659426187455345
1.48750e-05;-0.0029676146532078315
1.48753e-05;-0.0029688770179380998
1.48755e-05;-0.002969009731404982
1.48758e-05;-0.0029688692835223595
1.48760e-05;-0.0029679756019017974
1.48763e-05;-0.0029670819202812413
1.48765e-05;-0.0029659920582071715
1.48768e-05;-0.002964361234768805
1.48770e-05;-0.0029627304113304387
1.48773e-05;-0.002960921521805575
1.48775e-05;-0.002958621620707562
1.48778e-05;-0.002956321719609549
1.48780e-05;-0.002953997125551754
1.48783e-05;-0.002951604441442245
1.48785e-05;-0.002949240416037646
1.48788e-05;-0.0029469792725362797
1.48790e-05;-0.0029448112388596776
1.48793e-05;-0.002942749415488663
1.48795e-05;-0.0029408480944459353
1.48798e-05;-0.002939351765134876
1.48800e-05;-0.0029387079315348137
1.48803e-05;-0.002939250785746724
1.48805e-05;-0.002941185138343913
1.48808e-05;-0.0029444150814480125
1.48810e-05;-0.002948145336406891
1.48813e-05;-0.0029532551854014157
1.48815e-05;-0.002957832440179703
1.48818e-05;-0.0029654429334315937
1.48820e-05;-0.00297462734563091
1.48823e-05;-0.0029847103717749743
1.48825e-05;-0.002996704109106485
1.48828e-05;-0.0030096642991121027
1.48830e-05;-0.003023618943096562
1.48833e-05;-0.0030387562297435737
1.48835e-05;-0.0030549285206199323
1.48838e-05;-0.003072111083631721
1.48840e-05;-0.003090379499664803
1.48843e-05;-0.003109867476173113
1.48845e-05;-0.003130494398388491
1.48848e-05;-0.0031518918779553573
1.48850e-05;-0.0031739011214546903
1.48853e-05;-0.003196522628868776
1.48855e-05;-0.0032196568387948313
1.48858e-05;-0.003243203706821685
1.48860e-05;-0.003267123982402869
1.48863e-05;-0.0032906430606013167
1.48865e-05;-0.003312197530051304
1.48868e-05;-0.003339124662930011
1.48870e-05;-0.0033645417895497042
1.48873e-05;-0.003388883741097563
1.48875e-05;-0.0034127527325296435
1.48878e-05;-0.003436060218307726
1.48880e-05;-0.0034587760609354652
1.48883e-05;-0.0034808328045753
1.48885e-05;-0.0035021024991709966
1.48888e-05;-0.0035223574535525395
1.48890e-05;-0.003541460084044585
1.48893e-05;-0.003559262634896459
1.48895e-05;-0.003575640297938344
1.48898e-05;-0.0035911183120586956
1.48900e-05;-0.0036068291537836
1.48903e-05;-0.003623603279819316
1.48905e-05;-0.0036415577731699392
1.48908e-05;-0.003660472838657737
1.48910e-05;-0.0036801666351599723
1.48913e-05;-0.0037004510290269024
1.48915e-05;-0.00372115231483854
1.48918e-05;-0.0037425041250937824
1.48920e-05;-0.0037651204254455454
1.48923e-05;-0.003789425535274229
1.48925e-05;-0.003815397136296953
1.48928e-05;-0.003842802232433468
1.48930e-05;-0.0038719627520857986
1.48933e-05;-0.0039018910358515077
1.48935e-05;-0.00393181931961742
1.48938e-05;-0.003962817488741468
1.48940e-05;-0.003995679583975916
1.48943e-05;-0.004029283797943607
1.48945e-05;-0.004063998243114805
1.48948e-05;-0.004099932728748029
1.48950e-05;-0.00413673381003668
1.48953e-05;-0.004173865175425312
