Time(s);Current(A)
1.37500e-05;0.004350606442582507
1.37503e-05;0.004429098176125018
1.37505e-05;0.004507589909667528
1.37508e-05;0.004586081643209507
1.37510e-05;0.004664573376752018
1.37513e-05;0.004743065110294528
1.37515e-05;0.004821556843836506
1.37518e-05;0.004891769986343548
1.37520e-05;0.004943211655275476
1.37523e-05;0.0049946533242070535
1.37525e-05;0.005046094993138981
1.37528e-05;0.005097536662070908
1.37530e-05;0.005148978331002486
1.37533e-05;0.0052004199999344134
1.37535e-05;0.005235845418340117
1.37538e-05;0.005234954436738081
1.37540e-05;0.005234063455136038
1.37543e-05;0.005233172473533995
1.37545e-05;0.005232281491931959
1.37548e-05;0.005231390510329916
1.37550e-05;0.0052304995287278735
1.37553e-05;0.005229608547125837
1.37555e-05;0.005228717565523794
1.37558e-05;0.005227826583921752
1.37560e-05;0.005182308518195611
1.37563e-05;0.005126052174143793
1.37565e-05;0.005069795830091975
1.37568e-05;0.0050135394860405386
1.37570e-05;0.004957283141988721
1.37573e-05;0.004901026797936903
1.37575e-05;0.004844770453885086
1.37578e-05;0.004788514109833649
1.37580e-05;0.004732257765781831
1.37583e-05;0.004667733014487481
1.37585e-05;0.004584459881081773
1.37588e-05;0.0045011867476755
1.37590e-05;0.004417913614269228
1.37593e-05;0.00433464048086352
1.37595e-05;0.004251367347457248
1.37598e-05;0.0041680942140509755
1.37600e-05;0.004084664937174311
1.37603e-05;0.004001198088672519
1.37605e-05;0.003917731240170727
1.37608e-05;0.0038342643916694998
1.37610e-05;0.0037507975431677076
1.37613e-05;0.0036673306946659154
1.37615e-05;0.003587849759296887
1.37618e-05;0.0035174067704491943
1.37620e-05;0.0034469637816015013
1.37623e-05;0.003381061106372102
1.37625e-05;0.0033254534652563173
1.37628e-05;0.0032698458241405327
1.37630e-05;0.00321907882164798
1.37633e-05;0.00317928783181689
1.37635e-05;0.0031394968419858
1.37638e-05;0.00310478752985967
1.37640e-05;0.0030816007797705414
1.37643e-05;0.0030584140296814125
1.37645e-05;0.003040502942927892
1.37648e-05;0.0030345542752029378
1.37650e-05;0.003028605607477984
1.37653e-05;0.0030274464395166067
1.37655e-05;0.0030371473282844673
1.37658e-05;0.0030468482170523275
1.37660e-05;0.0030610356440652756
1.37663e-05;0.003085396171039168
1.37665e-05;0.0031097566980132258
1.37668e-05;0.003140046492552407
1.37670e-05;0.0031837807354256433
1.37673e-05;0.0032275149782991755
1.37675e-05;0.003271249221172708
1.37678e-05;0.003314983464045944
1.37680e-05;0.0033587177069194767
1.37683e-05;0.003402451949793009
1.37685e-05;0.0034507737158217372
1.37688e-05;0.0035094975622721853
1.37690e-05;0.0035682214087226333
1.37693e-05;0.0036269452551726832
1.37695e-05;0.0036856691016231313
1.37698e-05;0.0037443929480735793
1.37700e-05;0.0038031167945236297
1.37703e-05;0.0038609048924845837
1.37705e-05;0.003916571206922569
1.37708e-05;0.003972237521360177
1.37710e-05;0.004027903835798163
1.37713e-05;0.004083570150236148
1.37715e-05;0.004139236464673756
1.37718e-05;0.004194902779111742
1.37720e-05;0.004245442948010129
1.37723e-05;0.0042843597252970765
1.37725e-05;0.004323276502584287
1.37728e-05;0.004362193279871498
1.37730e-05;0.004401110057158444
1.37733e-05;0.0044400268344456555
1.37735e-05;0.004478943611732867
1.37738e-05;0.004512954529774781
1.37740e-05;0.004535841549215313
1.37743e-05;0.004558728568655844
1.37745e-05;0.004581615588096376
1.37748e-05;0.0046045026075367534
1.37750e-05;0.004627389626977285
1.37753e-05;0.004650276646417817
1.37755e-05;0.004673163665858193
1.37758e-05;0.004696050685298725
1.37760e-05;0.004718937704739257
1.37763e-05;0.004741824724179633
1.37765e-05;0.004764711743620165
1.37768e-05;0.004787598763060697
1.37770e-05;0.004810485782501073
1.37773e-05;0.004833372801941605
1.37775e-05;0.004856259821382137
1.37778e-05;0.004879146840822513
1.37780e-05;0.004902033860263045
1.37783e-05;0.004921558129569378
1.37785e-05;0.004933457457014658
1.37788e-05;0.00494535678446002
1.37790e-05;0.004957256111905381
1.37793e-05;0.004969155439350662
1.37795e-05;0.004981054766796023
1.37798e-05;0.004992954094241385
1.37800e-05;0.005004853421686666
1.37803e-05;0.005016752749132027
1.37805e-05;0.005028652076577388
1.37808e-05;0.0050405514040226685
1.37810e-05;0.00505245073146803
1.37813e-05;0.005064350058913391
1.37815e-05;0.005076249386358672
1.37818e-05;0.005088148713804033
1.37820e-05;0.005100048041249395
1.37823e-05;0.005111947368694676
1.37825e-05;0.005123846696140037
1.37828e-05;0.005134810498612157
1.37830e-05;0.005143653024377075
1.37833e-05;0.005152495550141932
1.37835e-05;0.00516133807590685
1.37838e-05;0.005170180601671768
1.37840e-05;0.005179023127436625
1.37843e-05;0.005187865653201543
1.37845e-05;0.005196708178966461
1.37848e-05;0.005205550704731319
1.37850e-05;0.005214393230496236
1.37853e-05;0.005223235756261154
1.37855e-05;0.005232078282026012
1.37858e-05;0.00524092080779093
1.37860e-05;0.005249763333555847
1.37863e-05;0.005258605859320705
1.37865e-05;0.005267448385085623
1.37868e-05;0.00527629091085054
1.37870e-05;0.005285133436615398
1.37873e-05;0.005293975962380316
1.37875e-05;0.005302818488145234
1.37878e-05;0.005312738272969903
1.37880e-05;0.00532291727050946
1.37883e-05;0.005333096268049017
1.37885e-05;0.005343275265588505
1.37888e-05;0.0053534542631280616
1.37890e-05;0.005363633260667619
1.37893e-05;0.005373812258207107
1.37895e-05;0.005383991255746664
1.37898e-05;0.00539417025328622
1.37900e-05;0.005404349250825708
1.37903e-05;0.005414528248365266
1.37905e-05;0.0054247072459048225
1.37908e-05;0.005434886243444311
1.37910e-05;0.005445065240983867
1.37913e-05;0.005455244238523425
1.37915e-05;0.005465423236062981
1.37918e-05;0.005475602233602469
1.37920e-05;0.005485781231142026
1.37923e-05;0.0054959602286815835
1.37925e-05;0.005503475239455215
1.37928e-05;0.005504949734755053
1.37930e-05;0.005506424230054891
1.37933e-05;0.00550789872535472
1.37935e-05;0.005509373220654558
1.37938e-05;0.005510847715954397
1.37940e-05;0.005512322211254224
1.37943e-05;0.005513796706554063
1.37945e-05;0.005515271201853901
1.37948e-05;0.00551674569715373
1.37950e-05;0.005518220192453568
1.37953e-05;0.005519694687753406
1.37955e-05;0.005521169183053234
1.37958e-05;0.005522643678353072
1.37960e-05;0.00552411817365291
1.37963e-05;0.005525592668952739
1.37965e-05;0.005527067164252577
1.37968e-05;0.005528541659552416
1.37970e-05;0.0055300161548522435
1.37973e-05;0.005531490650152082
1.37975e-05;0.00553296514545192
1.37978e-05;0.005534439640751749
1.37980e-05;0.005534354842424755
1.37983e-05;0.005530734389415201
1.37985e-05;0.005527113936405673
1.37988e-05;0.005523493483396119
1.37990e-05;0.0055198730303865655
1.37993e-05;0.005516252577377037
1.37995e-05;0.005512632124367483
1.37998e-05;0.00550901167135793
1.38000e-05;0.005505391218348376
1.38003e-05;0.005501770765338847
1.38005e-05;0.005498150312329294
1.38008e-05;0.00549452985931974
1.38010e-05;0.005490909406310212
1.38013e-05;0.005487288953300658
1.38015e-05;0.005483668500291104
1.38018e-05;0.005480048047281576
1.38020e-05;0.005476427594272022
1.38023e-05;0.005472807141262468
1.38025e-05;0.00546918668825294
1.38028e-05;0.005465566235243386
1.38030e-05;0.0054619457822338326
1.38033e-05;0.005458325329224304
1.38035e-05;0.0054531414755868615
1.38038e-05;0.005444412654756278
1.38040e-05;0.005435683833925754
1.38043e-05;0.005426955013095171
1.38045e-05;0.005418226192264587
1.38048e-05;0.005409497371434062
1.38050e-05;0.005400768550603479
1.38053e-05;0.005392039729772895
1.38055e-05;0.005383310908942371
1.38058e-05;0.0053721065609795456
1.38060e-05;0.005355289024487932
1.38063e-05;0.0053384714879964315
1.38065e-05;0.005321653951504818
1.38068e-05;0.005304836415013203
1.38070e-05;0.005288018878521703
1.38073e-05;0.005271201342030089
1.38075e-05;0.005254383805538475
1.38078e-05;0.005237566269046975
1.38080e-05;0.005220748732555361
1.38083e-05;0.005203931196063746
1.38085e-05;0.005187113659572246
1.38088e-05;0.005170296123080632
1.38090e-05;0.00515301883565634
1.38093e-05;0.005134699075851871
1.38095e-05;0.005116379316047526
1.38098e-05;0.005098059556243057
1.38100e-05;0.0050797397964385885
1.38103e-05;0.005061420036634244
1.38105e-05;0.005043100276829774
1.38108e-05;0.005024780517025306
1.38110e-05;0.005006460757220961
1.38113e-05;0.004988140997416492
1.38115e-05;0.004969821237612023
1.38118e-05;0.0049515014778076785
1.38120e-05;0.00493318171800321
1.38123e-05;0.004915198935259977
1.38125e-05;0.004897980238577745
1.38128e-05;0.004880761541895395
1.38130e-05;0.004863542845213046
1.38133e-05;0.004846324148530813
1.38135e-05;0.004829105451848463
1.38138e-05;0.004811886755166114
1.38140e-05;0.004794668058483881
1.38143e-05;0.004777449361801532
1.38145e-05;0.004760230665119182
1.38148e-05;0.004743011968436949
1.38150e-05;0.0047257932717545996
1.38153e-05;0.004697965598859301
1.38155e-05;0.00466758516810669
1.38158e-05;0.004637204737353874
1.38160e-05;0.004606824306601058
1.38163e-05;0.004576443875848447
1.38165e-05;0.004546063445095631
1.38168e-05;0.004515683014342815
1.38170e-05;0.004485302583590204
1.38173e-05;0.004454922152837387
1.38175e-05;0.004424541722084571
1.38178e-05;0.0043941612913317545
1.38180e-05;0.004361463009660679
1.38183e-05;0.004323509065862262
1.38185e-05;0.004285555122063845
1.38188e-05;0.004247601178265686
1.38190e-05;0.00420964723446727
1.38193e-05;0.004171693290668853
1.38195e-05;0.004133739346870694
1.38198e-05;0.004095785403072277
1.38200e-05;0.004057831459273861
1.38203e-05;0.004019877515475701
1.38205e-05;0.00398720038733172
1.38208e-05;0.003955792979503653
1.38210e-05;0.0039243855716757986
1.38213e-05;0.003892978163847731
1.38215e-05;0.0038615707560196635
1.38218e-05;0.003830163348191809
1.38220e-05;0.0037987559403637413
1.38223e-05;0.0037673485325356738
1.38225e-05;0.003735941124707819
1.38228e-05;0.003707978751492585
1.38230e-05;0.0036878278979055367
1.38233e-05;0.0036676770443186246
1.38235e-05;0.0036475261907315763
1.38238e-05;0.003627375337144528
1.38240e-05;0.0036072244835576163
1.38243e-05;0.0035870736299705675
1.38245e-05;0.0035669227763835193
1.38248e-05;0.0035467719227966076
1.38250e-05;0.0035266210692095593
1.38253e-05;0.0035064702156225105
1.38255e-05;0.003486319362035599
1.38258e-05;0.0034661685084485506
1.38260e-05;0.003446017654861502
1.38263e-05;0.0034258668012744535
1.38265e-05;0.003405715947687542
1.38268e-05;0.0033855650941004936
1.38270e-05;0.003365414240513445
1.38273e-05;0.003348172492071274
1.38275e-05;0.0033316307396392
1.38278e-05;0.003315088987207126
1.38280e-05;0.0032985472347751644
1.38283e-05;0.0032820054823430905
1.38285e-05;0.0032654637299110163
1.38288e-05;0.003248921977479055
1.38290e-05;0.003232380225046981
1.38293e-05;0.003215838472614907
1.38295e-05;0.0031992967201829453
1.38298e-05;0.0031827549677508715
1.38300e-05;0.0031662132153187973
1.38303e-05;0.003149671462886836
1.38305e-05;0.003133129710454762
1.38308e-05;0.0031165879580226877
1.38310e-05;0.0031000462055907263
1.38313e-05;0.0030835044531586525
1.38315e-05;0.003068822983189143
1.38318e-05;0.0030583596516735997
1.38320e-05;0.003047896320157986
1.38323e-05;0.003037432988642372
1.38325e-05;0.0030269696571268287
1.38328e-05;0.003016506325611215
1.38330e-05;0.003011515089546809
1.38333e-05;0.003018931676869726
1.38335e-05;0.0030263482641926928
1.38338e-05;0.00303376485151566
1.38340e-05;0.003041181438838577
1.38343e-05;0.003048598026161544
1.38345e-05;0.0030616209098433254
1.38348e-05;0.0030873559137170313
1.38350e-05;0.0031130909175905628
1.38353e-05;0.0031431482595464426
1.38355e-05;0.0031830063822131196
1.38358e-05;0.0032228645048795264
1.38360e-05;0.003268771511372386
1.38363e-05;0.0033283941927616384
1.38365e-05;0.0033880168741504866
1.38368e-05;0.003447639555539739
1.38370e-05;0.0035072622369289913
1.38373e-05;0.0035668849183178395
1.38375e-05;0.003626507599707092
1.38378e-05;0.0036861302810963443
1.38380e-05;0.0037603132660718767
1.38383e-05;0.0038379997869861134
1.38385e-05;0.00391568630790035
1.38388e-05;0.00399337282881406
1.38390e-05;0.004071059349728297
1.38393e-05;0.004148745870642534
1.38395e-05;0.0042264323915562445
1.38398e-05;0.004303847346839188
1.38400e-05;0.004380646534648417
1.38403e-05;0.004457445722457125
1.38405e-05;0.004534244910266354
1.38408e-05;0.004611044098075583
1.38410e-05;0.004687843285884292
1.38413e-05;0.0047646424736935205
1.38415e-05;0.00483447863977739
1.38418e-05;0.004888526348841848
1.38420e-05;0.004942574057906672
1.38423e-05;0.004996621766971496
1.38425e-05;0.005050669476035954
1.38428e-05;0.005104717185100778
1.38430e-05;0.005158764894165602
1.38433e-05;0.005199160815707163
1.38435e-05;0.005208601690853653
1.38438e-05;0.005218042566000207
1.38440e-05;0.005227483441146761
1.38443e-05;0.005236924316293251
1.38445e-05;0.005246365191439805
1.38448e-05;0.005255806066586359
1.38450e-05;0.005265246941732849
1.38453e-05;0.005260140533506336
1.38455e-05;0.005222048567089617
1.38458e-05;0.005183956600673156
1.38460e-05;0.005145864634256437
1.38463e-05;0.005107772667839718
1.38465e-05;0.005069680701423257
1.38468e-05;0.005031588735006538
1.38470e-05;0.0049934967685898194
1.38473e-05;0.0049648816640374405
1.38475e-05;0.004903856468172348
1.38478e-05;0.004849088828321111
1.38480e-05;0.004763773852693069
1.38483e-05;0.0046934812084004985
1.38485e-05;0.004597760013324828
1.38488e-05;0.004528662315162561
1.38490e-05;0.004448487861807888
1.38493e-05;0.00436709915278722
1.38495e-05;0.004283134821282922
1.38498e-05;0.004196918358299897
1.38500e-05;0.0041107018953168714
1.38503e-05;0.00402448543233443
1.38505e-05;0.003938434262912982
1.38508e-05;0.0038597765691659653
1.38510e-05;0.003781118875419481
1.38513e-05;0.0037024611816724637
1.38515e-05;0.0036238034879254467
1.38518e-05;0.003550862473714716
1.38520e-05;0.003483159047830928
1.38523e-05;0.003415455621946681
1.38525e-05;0.003356930415688405
1.38528e-05;0.0033068142405239657
1.38530e-05;0.0032566980653591865
1.38533e-05;0.0032145574556370357
1.38535e-05;0.0031797240122861817
1.38538e-05;0.0031516619613592214
1.38540e-05;0.0031298038205329467
1.38543e-05;0.00310794567970682
1.38545e-05;0.0030964642612067335
1.38548e-05;0.003094489934958759
1.38550e-05;0.0030925156087107976
1.38553e-05;0.0031000651889713706
1.38555e-05;0.003116340516624137
1.38558e-05;0.003132615844276793
1.38560e-05;0.003156467810254172
1.38563e-05;0.0031872614479123308
1.38565e-05;0.003218055085570281
1.38568e-05;0.0032572244308570657
1.38570e-05;0.0033040675504435735
1.38573e-05;0.0033509106700297634
1.38575e-05;0.003406064484868755
1.38578e-05;0.0034688325100492227
1.38580e-05;0.0035316005352292656
1.38583e-05;0.003594368560409734
1.38585e-05;0.0036571365855902023
1.38588e-05;0.003719904610770245
1.38590e-05;0.0037828799089865573
1.38593e-05;0.0038551263980299766
1.38595e-05;0.003927372887072906
1.38598e-05;0.003999619376116325
1.38600e-05;0.004071865865159744
1.38603e-05;0.0041441123542031635
1.38605e-05;0.0042163588432460935
1.38608e-05;0.004282051989339624
1.38610e-05;0.004341741000983539
1.38613e-05;0.004401430012627049
1.38615e-05;0.004461119024270963
1.38618e-05;0.004520808035914878
1.38620e-05;0.004580497047558388
1.38623e-05;0.004640186059202303
1.38625e-05;0.004699875070846218
1.38628e-05;0.004758865798264176
1.38630e-05;0.004786622717143293
1.38633e-05;0.004814379636022409
1.38635e-05;0.004842136554901337
1.38638e-05;0.004869893473780453
1.38640e-05;0.00489765039265957
1.38643e-05;0.004925407311538498
1.38645e-05;0.004953164230417614
1.38648e-05;0.0049809211492967305
1.38650e-05;0.004991725916518411
1.38653e-05;0.004986999221621588
1.38655e-05;0.004982272526724764
1.38658e-05;0.004977545831827973
1.38660e-05;0.0049728191369311486
1.38663e-05;0.004968092442034325
1.38665e-05;0.004963365747137534
1.38668e-05;0.00495863905224071
1.38670e-05;0.004953912357343887
1.38673e-05;0.004949185662447095
1.38675e-05;0.004932920364678872
1.38678e-05;0.004906083466500974
1.38680e-05;0.004879246568323257
1.38683e-05;0.004852409670145358
1.38685e-05;0.00482557277196746
1.38688e-05;0.004798735873789561
1.38690e-05;0.004771898975611845
1.38693e-05;0.004745062077433946
1.38695e-05;0.004718225179256047
1.38698e-05;0.004691388281078331
1.38700e-05;0.004663075469663417
1.38703e-05;0.004633410435179956
1.38705e-05;0.004603745400696696
1.38708e-05;0.004574080366213235
1.38710e-05;0.004544415331729774
1.38713e-05;0.004514750297246514
1.38715e-05;0.004485085262763053
1.38718e-05;0.004455420228279593
1.38720e-05;0.004425940159880065
1.38723e-05;0.004404733506586623
1.38725e-05;0.004383526853293181
1.38728e-05;0.004362320199999884
1.38730e-05;0.004341113546706443
1.38733e-05;0.004319906893413002
1.38735e-05;0.0042987002401197036
1.38738e-05;0.004277493586826262
1.38740e-05;0.004256286933532821
1.38743e-05;0.004236937175944041
1.38745e-05;0.004219288695330599
1.38748e-05;0.004201640214717158
1.38750e-05;0.004183991734103835
1.38753e-05;0.004166343253490393
1.38755e-05;0.0041486947728769505
1.38758e-05;0.004131046292263628
1.38760e-05;0.004113397811650186
1.38763e-05;0.004095749331036744
1.38765e-05;0.004078100850423422
1.38768e-05;0.0040604523698099795
1.38770e-05;0.004042803889196538
1.38773e-05;0.004025155408583096
1.38775e-05;0.004007506927969773
1.38778e-05;0.0039898584473563314
1.38780e-05;0.003972209966742889
1.38783e-05;0.003954561486129567
1.38785e-05;0.003938506967624891
1.38788e-05;0.0039239128278745015
1.38790e-05;0.003909318688124211
1.38793e-05;0.0038947245483738216
1.38795e-05;0.0038801304086234323
1.38798e-05;0.0038655362688731418
1.38800e-05;0.003850942129122752
1.38803e-05;0.0038363479893723626
1.38805e-05;0.003821753849622072
1.38808e-05;0.0038071597098716823
1.38810e-05;0.003792565570121293
1.38813e-05;0.0037779714303710025
1.38815e-05;0.003763377290620613
1.38818e-05;0.0037487831508702233
1.38820e-05;0.003734189011119933
1.38823e-05;0.0037195948713695435
1.38825e-05;0.0037050007316191537
1.38828e-05;0.003689431449113489
1.38830e-05;0.0036729687465228036
1.38833e-05;0.003656506043932118
1.38835e-05;0.003640043341341544
1.38838e-05;0.003623580638750858
1.38840e-05;0.0036071179361601723
1.38843e-05;0.0035906552335695984
1.38845e-05;0.0035741925309789127
1.38848e-05;0.0035577298283882273
1.38850e-05;0.003541267125797653
1.38853e-05;0.0035248044232069676
1.38855e-05;0.003508341720616282
1.38858e-05;0.0034918790180255965
1.38860e-05;0.0034687244585695593
1.38863e-05;0.00343943885902033
1.38865e-05;0.0034101532594711004
1.38868e-05;0.0033808676599220698
1.38870e-05;0.0033515820603728405
1.38873e-05;0.003322296460823611
1.38875e-05;0.00329301086127458
1.38878e-05;0.003263725261725351
1.38880e-05;0.0032344396621761216
1.38883e-05;0.0032051540626270906
1.38885e-05;0.0031758684630778613
1.38888e-05;0.003146582863528632
1.38890e-05;0.003117297263979601
1.38893e-05;0.0030865603344824347
1.38895e-05;0.003054493704981375
1.38898e-05;0.0030224270754805327
1.38900e-05;0.002990360445979473
1.38903e-05;0.0029582938164784134
1.38905e-05;0.002926227186977571
1.38908e-05;0.0028941605574765114
1.38910e-05;0.0028620939279754517
1.38913e-05;0.002834669724461959
1.38915e-05;0.002811498884466813
1.38918e-05;0.0027883280444716673
1.38920e-05;0.0027651572044766785
1.38923e-05;0.0027419863644815327
1.38925e-05;0.002718815524486387
1.38928e-05;0.002695644684491398
1.38930e-05;0.0026724738444962523
1.38933e-05;0.0026608909125180875
1.38935e-05;0.002659924754044317
1.38938e-05;0.0026589585955705407
1.38940e-05;0.002657992437096764
1.38943e-05;0.002657026278622987
1.38945e-05;0.002656060120149217
1.38948e-05;0.00265509396167544
1.38950e-05;0.002654127803201663
1.38953e-05;0.0026531616447278933
1.38955e-05;0.0026521954862541164
1.38958e-05;0.0026517670900931003
1.38960e-05;0.0026753924598532227
1.38963e-05;0.0026990178296135057
1.38965e-05;0.002722643199373788
1.38968e-05;0.0027462685691339106
1.38970e-05;0.0027698939388941936
1.38973e-05;0.002793519308654476
1.38975e-05;0.0028171446784145985
1.38978e-05;0.0028407700481748815
1.38980e-05;0.002864395417935164
1.38983e-05;0.0028880207876952864
1.38985e-05;0.0029174214290680874
1.38988e-05;0.0029521133404916662
1.38990e-05;0.00298680525191501
1.38993e-05;0.003021497163338589
1.38995e-05;0.0030561890747621678
1.38998e-05;0.0030908809861855116
1.39000e-05;0.0031255728976090904
