Time(s);Current(A)
6.55000e-06;0.0017580843969734548
6.55025e-06;0.00172513511620358
6.55050e-06;0.0016921858354337054
6.55075e-06;0.0016582086817273005
6.55100e-06;0.0016169205714549625
6.55125e-06;0.0015756324611826246
6.55150e-06;0.0015343443509101466
6.55175e-06;0.0014930562406378087
6.55200e-06;0.0014517681303654706
6.55225e-06;0.001410423217545259
6.55250e-06;0.0013686742849824906
6.55275e-06;0.001326925352419722
6.55300e-06;0.0012851764198568121
6.55325e-06;0.0012434274872940437
6.55350e-06;0.001202490518387069
6.55375e-06;0.0011673288071113723
6.55400e-06;0.001132167095835795
6.55425e-06;0.0010970053845600982
6.55450e-06;0.0010618436732845206
6.55475e-06;0.0010277320096216006
6.55500e-06;0.001001089024445215
6.55525e-06;0.0009752130623626868
6.55550e-06;0.0009547927089686851
6.55575e-06;0.0009351742485725759
6.55600e-06;0.000921259416192907
6.55625e-06;0.0009081687117562686
6.55650e-06;0.0009009397859320788
6.55675e-06;0.0008945560893654066
6.55700e-06;0.0008941842588274914
6.55725e-06;0.0008946545436502988
6.55750e-06;0.0009011145462737972
6.55775e-06;0.0009083738302399269
6.55800e-06;0.0009213181662892294
6.55825e-06;0.0009350110429481499
6.55850e-06;0.0009540280678452534
6.55875e-06;0.000973742182306119
6.55900e-06;0.0009984144889145278
6.55925e-06;0.0010238560356540306
6.55950e-06;0.0010547689602119549
6.55975e-06;0.0010856818847698791
6.56000e-06;0.0011173309708824854
6.56025e-06;0.0011542161566705606
6.56050e-06;0.0011911013424586356
6.56075e-06;0.0012286218823390725
6.56100e-06;0.0012706615081937143
6.56125e-06;0.001312701134048356
6.56150e-06;0.0013547407599031403
6.56175e-06;0.001396780385757782
6.56200e-06;0.0014388200116124239
6.56225e-06;0.0014811779270616058
6.56250e-06;0.0015237282351834953
6.56275e-06;0.0015662785433055288
6.56300e-06;0.0016088288514274182
6.56325e-06;0.0016513791595493075
6.56350e-06;0.0016926945691911374
6.56375e-06;0.0017252265107335393
6.56400e-06;0.0017577584522759412
6.56425e-06;0.0017902903938184533
6.56450e-06;0.0018228223353608552
6.56475e-06;0.001855354276903257
6.56500e-06;0.0018878862184457694
6.56525e-06;0.0019204181599881713
6.56550e-06;0.001951401357606086
6.56575e-06;0.0019713687971905877
6.56600e-06;0.0019913362367750217
6.56625e-06;0.0020113036763594557
6.56650e-06;0.0020312711159439574
6.56675e-06;0.0020512385555283915
6.56700e-06;0.002071205995112893
6.56725e-06;0.002091173434697327
6.56750e-06;0.0021100164992435932
6.56775e-06;0.002120862216286316
6.56800e-06;0.002131707933329002
6.56825e-06;0.0021425536503716877
6.56850e-06;0.0021533993674144104
6.56875e-06;0.0021642450844570962
6.56900e-06;0.002175090801499782
6.56925e-06;0.002185936518542505
6.56950e-06;0.0021967822355851907
6.56975e-06;0.0022076279526278765
6.57000e-06;0.0022184736696705992
6.57025e-06;0.002229319386713285
6.57050e-06;0.002240165103755971
6.57075e-06;0.0022510108207986937
6.57100e-06;0.00225801875576407
6.57125e-06;0.002262706912877699
6.57150e-06;0.0022673950699913124
6.57175e-06;0.002272083227104926
6.57200e-06;0.002276771384218555
6.57225e-06;0.0022814595413321683
6.57250e-06;0.0022861476984457818
6.57275e-06;0.002290835855559411
6.57300e-06;0.0022955240126730243
6.57325e-06;0.0023002121697866373
6.57350e-06;0.0023049003269002668
6.57375e-06;0.0023095884840138798
6.57400e-06;0.002314276641127493
6.57425e-06;0.002318141790109851
6.57450e-06;0.0023161531253747423
6.57475e-06;0.0023141644606396337
6.57500e-06;0.002312175795904518
6.57525e-06;0.0023101871311694095
6.57550e-06;0.0023081984664342944
6.57575e-06;0.002306209801699186
6.57600e-06;0.002304221136964077
6.57625e-06;0.0022997214265709875
6.57650e-06;0.002277361390188536
6.57675e-06;0.0022550013538060842
6.57700e-06;0.0022326413174235567
6.57725e-06;0.002210281281041105
6.57750e-06;0.0021879212446586534
6.57775e-06;0.0021655612082761263
6.57800e-06;0.0021432011718936746
6.57825e-06;0.00211888685077348
6.57850e-06;0.0020806722796202263
6.57875e-06;0.002042457708467102
6.57900e-06;0.002003341341322277
6.57925e-06;0.0019578107656841068
6.57950e-06;0.0019122801900460908
6.57975e-06;0.0018657449245863557
6.58000e-06;0.001812063597217647
6.58025e-06;0.0017583822698489379
6.58050e-06;0.001704700942480047
6.58075e-06;0.0016510196151113383
6.58100e-06;0.0015973382877426294
6.58125e-06;0.0015408675762755908
6.58150e-06;0.001482710799440955
6.58175e-06;0.001424554022606319
6.58200e-06;0.0013663972457714862
6.58225e-06;0.0013082404689368503
6.58250e-06;0.0012504371778746476
6.58275e-06;0.0011951481266894294
6.58300e-06;0.0011398590755043988
6.58325e-06;0.001084570024319368
6.58350e-06;0.0010292809731341497
6.58375e-06;0.0009796398879329522
6.58400e-06;0.0009334127606191643
6.58425e-06;0.000887185633305533
6.58450e-06;0.0008409585059919017
6.58475e-06;0.0007958140246300396
6.58500e-06;0.0007588707972721229
6.58525e-06;0.0007260275554247129
6.58550e-06;0.0006975694682978214
6.58575e-06;0.0006736163124371585
6.58600e-06;0.0006542179535179632
6.58625e-06;0.0006394224854178684
6.58650e-06;0.0006292780969053215
6.58675e-06;0.0006238344252652248
6.58700e-06;0.0006231529503141921
6.58725e-06;0.000627295557131386
6.58750e-06;0.0006362538019150622
6.58775e-06;0.0006499157509508276
6.58800e-06;0.0006681254675322735
6.58825e-06;0.000690726169729184
6.58850e-06;0.0007175608930045429
6.58875e-06;0.0007487082013608345
6.58900e-06;0.000784983768615009
6.58925e-06;0.0008221475426433163
6.58950e-06;0.0008656288690724897
6.58975e-06;0.0009098700544815147
6.59000e-06;0.0009595158923435593
6.59025e-06;0.0010099067144686213
6.59050e-06;0.0010655963895813752
6.59075e-06;0.0011212860646939407
6.59100e-06;0.001177683066964611
6.59125e-06;0.0012391110783598564
6.59150e-06;0.0013005390897548935
6.59175e-06;0.0013619671011499308
6.59200e-06;0.0014233951125451761
6.59225e-06;0.0014847776610469792
6.59250e-06;0.0015458368454196111
6.59275e-06;0.0016068960297920363
6.59300e-06;0.0016679552141644614
6.59325e-06;0.0017290143985370934
6.59350e-06;0.0017892390336950081
6.59375e-06;0.001843527766824708
6.59400e-06;0.0018978164999545921
6.59425e-06;0.001950941295770896
6.59450e-06;0.0019957873493165693
6.59475e-06;0.0020406334028623954
6.59500e-06;0.00208425131446495
6.59525e-06;0.0021191338152326653
6.59550e-06;0.0021540163160004996
6.59575e-06;0.002188898816768215
6.59600e-06;0.002223781317535931
6.59625e-06;0.0022586638183037648
6.59650e-06;0.00229354631907148
6.59675e-06;0.002328428819839314
6.59700e-06;0.0023586516253222257
6.59725e-06;0.0023860578409899444
6.59750e-06;0.0024134640566577555
6.59775e-06;0.0024408702723254737
6.59800e-06;0.0024682764879931924
6.59825e-06;0.0024956827036610035
6.59850e-06;0.002523088919328722
6.59875e-06;0.0025498528212625224
6.59900e-06;0.0025720481353542594
6.59925e-06;0.0025942434494459214
6.59950e-06;0.0026164387635375834
6.59975e-06;0.002638634077629321
6.60000e-06;0.002660829391720983
6.60025e-06;0.002683024705812645
6.60050e-06;0.002705220019904382
6.60075e-06;0.002727415333996044
6.60100e-06;0.002749610648087706
6.60125e-06;0.002771805962179443
6.60150e-06;0.002794001276271105
6.60175e-06;0.0028161965903628424
6.60200e-06;0.0028383919044545044
6.60225e-06;0.002855786282458274
6.60250e-06;0.0028702786965222023
6.60275e-06;0.002884771110586082
6.60300e-06;0.002899263524649961
6.60325e-06;0.0029137559387138897
6.60350e-06;0.002928248352777769
6.60375e-06;0.0029427407668416485
6.60400e-06;0.0029572331809055766
6.60425e-06;0.0029717255949694562
6.60450e-06;0.0029862180090333354
6.60475e-06;0.003000710423097264
6.60500e-06;0.003015202837161143
6.60525e-06;0.0030296952512250228
6.60550e-06;0.00304202034292773
6.60575e-06;0.0030389299109330114
6.60600e-06;0.0030358394789382825
6.60625e-06;0.003032749046943564
6.60650e-06;0.0030296586149488455
6.60675e-06;0.0030265681829541166
6.60700e-06;0.003023477750959398
6.60725e-06;0.0030203873189646796
6.60750e-06;0.0030172968869699507
6.60775e-06;0.003014206454975232
6.60800e-06;0.0030111160229805136
6.60825e-06;0.0030080255909857847
6.60850e-06;0.0029939475813162736
6.60875e-06;0.0029732280430759474
6.60900e-06;0.0029525085048355514
6.60925e-06;0.002931788966595225
6.60950e-06;0.0029110694283548994
6.60975e-06;0.002890349890114503
6.61000e-06;0.002869630351874177
6.61025e-06;0.0028489108136337806
6.61050e-06;0.002828191275393455
6.61075e-06;0.0028074717371531287
6.61100e-06;0.0027867521989127326
6.61125e-06;0.0027653096315030878
6.61150e-06;0.002738724371206513
6.61175e-06;0.0027121391109098487
6.61200e-06;0.002685553850613274
6.61225e-06;0.0026589685903167
6.61250e-06;0.002632383330020035
6.61275e-06;0.002605798069723461
6.61300e-06;0.002579212809426886
6.61325e-06;0.002552627549130222
6.61350e-06;0.0025294386587840635
6.61375e-06;0.0025083027312226163
6.61400e-06;0.0024871668036610976
6.61425e-06;0.0024660308760996504
6.61450e-06;0.0024448949485381317
6.61475e-06;0.0024237590209766845
6.61500e-06;0.0024026230934152373
6.61525e-06;0.0023814871658537186
6.61550e-06;0.0023594047501029453
6.61575e-06;0.002330590243470585
6.61600e-06;0.002301775736838127
6.61625e-06;0.0022729612302057663
6.61650e-06;0.0022441467235734054
6.61675e-06;0.0022153322169409474
6.61700e-06;0.002186517710308587
6.61725e-06;0.0021577032036762265
6.61750e-06;0.002128888697043768
6.61775e-06;0.0021000741904114075
6.61800e-06;0.002071259683779047
6.61825e-06;0.0020402398676872685
6.61850e-06;0.001993534336900212
6.61875e-06;0.0019468288061129978
6.61900e-06;0.0019001232753259418
6.61925e-06;0.0018534177445388856
6.61950e-06;0.0018067122137516711
6.61975e-06;0.0017600066829646151
6.62000e-06;0.001713301152177559
6.62025e-06;0.0016665956213903444
6.62050e-06;0.0016198900906032885
6.62075e-06;0.0015731845598162323
6.62100e-06;0.0015256503019874749
6.62125e-06;0.001472221553534253
6.62150e-06;0.0014187928050810315
6.62175e-06;0.0013653640566276286
6.62200e-06;0.001311935308174407
6.62225e-06;0.0012585065597211851
6.62250e-06;0.0012072939588017165
6.62275e-06;0.0011574209258559311
6.62300e-06;0.0011075478929099766
6.62325e-06;0.001057674859964191
6.62350e-06;0.0010078018270184054
6.62375e-06;0.0009586952947067322
6.62400e-06;0.000915040654967189
6.62425e-06;0.0008720253864918223
6.62450e-06;0.0008335577769353001
6.62475e-06;0.0007959072352447537
6.62500e-06;0.0007640682559055266
6.62525e-06;0.0007329606225840678
6.62550e-06;0.0007075737747924972
6.62575e-06;0.0006864014757138548
6.62600e-06;0.0006694804082011983
6.62625e-06;0.000656844863741787
6.62650e-06;0.0006485291705057459
6.62675e-06;0.0006445700012308926
6.62700e-06;0.0006450257501104392
6.62725e-06;0.0006499793268042895
6.62750e-06;0.0006594536626600967
6.62775e-06;0.0006733511099082242
6.62800e-06;0.0006915172899081734
6.62825e-06;0.0007137964899919891
6.62850e-06;0.0007402595900745763
6.62875e-06;0.0007716844801141714
6.62900e-06;0.0008039840666350967
6.62925e-06;0.0008425051108242071
6.62950e-06;0.0008818050632938789
6.62975e-06;0.0009266451602555857
6.63000e-06;0.0009722647717748657
6.63025e-06;0.0010234288400566896
6.63050e-06;0.0010745929083383402
6.63075e-06;0.0011265560972476306
6.63100e-06;0.0011842031951036322
6.63125e-06;0.0012418502929594387
6.63150e-06;0.0012994973908154403
6.63175e-06;0.0013571444886712465
6.63200e-06;0.0014149466815473826
6.63225e-06;0.0014738520194847583
6.63250e-06;0.0015327573574219345
6.63275e-06;0.0015916626953591108
6.63300e-06;0.0016505680332964867
6.63325e-06;0.0017088564561397808
6.63350e-06;0.001762756944171188
6.63375e-06;0.0018166574322027776
6.63400e-06;0.00186958247173217
6.63425e-06;0.001915569434236855
6.63450e-06;0.0019615563967416956
6.63475e-06;0.0020062695362917876
6.63500e-06;0.0020419223494830027
6.63525e-06;0.0020775751626743388
6.63550e-06;0.002112085343153
6.63575e-06;0.002138468314708084
6.63600e-06;0.0021648512862630785
6.63625e-06;0.0021899878572449257
6.63650e-06;0.002206259149166517
6.63675e-06;0.002222530441088053
6.63700e-06;0.0022375816403202974
6.63725e-06;0.002243954680698413
6.63750e-06;0.0022503277210765065
6.63775e-06;0.0022548324197857643
6.63800e-06;0.0022460481561581308
6.63825e-06;0.002237263892530527
6.63850e-06;0.0022284796289029235
6.63875e-06;0.0022196953652752903
6.63900e-06;0.0022109111016476867
6.63925e-06;0.002202126838020083
6.63950e-06;0.0021933425743924494
6.63975e-06;0.0021826247028233566
6.64000e-06;0.0021581536492024734
6.64025e-06;0.002133682595581673
6.64050e-06;0.0021092115419608726
6.64075e-06;0.002084740488339989
6.64100e-06;0.0020602694347191886
6.64125e-06;0.002035798381098388
6.64150e-06;0.002011327327477505
6.64175e-06;0.0019862686842343842
6.64200e-06;0.0019570306895967497
6.64225e-06;0.0019277926949590163
6.64250e-06;0.0018985547003213818
6.64275e-06;0.0018693167056837473
6.64300e-06;0.0018400787110460137
6.64325e-06;0.0018108407164083794
6.64350e-06;0.001784670192567726
6.64375e-06;0.001760353825805727
6.64400e-06;0.0017360374590438107
6.64425e-06;0.0017117210922818118
6.64450e-06;0.0016874047255198952
6.64475e-06;0.0016630883587579787
6.64500e-06;0.0016398246469627878
6.64525e-06;0.0016240481589641234
6.64550e-06;0.001608271670965459
6.64575e-06;0.0015930196808564162
6.64600e-06;0.0015820448857979984
6.64625e-06;0.0015749578702511401
6.64650e-06;0.0015678708547042577
6.64675e-06;0.0015616268107230794
6.64700e-06;0.0015613785744518372
6.64725e-06;0.001561130338180594
6.64750e-06;0.0015616901509549895
6.64775e-06;0.0015679973778711437
6.64800e-06;0.0015743046047873193
6.64825e-06;0.001581831222211964
6.64850e-06;0.0015980310040818637
6.64875e-06;0.0016142307859517086
6.64900e-06;0.0016304305678215534
6.64925e-06;0.0016466303496914534
6.64950e-06;0.0016628301315612982
6.64975e-06;0.001679029913431143
6.65000e-06;0.001695229695301043
6.65025e-06;0.0017171880013106258
6.65050e-06;0.0017426270929582963
6.65075e-06;0.0017680661846060529
6.65100e-06;0.0017935052762537234
6.65125e-06;0.0018189443679013939
6.65150e-06;0.0018443834595491505
6.65175e-06;0.001869822551196821
6.65200e-06;0.00189534091910626
6.65225e-06;0.0019214231556452582
6.65250e-06;0.0019475053921841682
6.65275e-06;0.001973587628723166
6.65300e-06;0.0019996698652620763
6.65325e-06;0.002025752101800986
6.65350e-06;0.0020518343383399843
6.65375e-06;0.002077916574878894
6.65400e-06;0.002103998811417804
6.65425e-06;0.0021242703940167747
6.65450e-06;0.002141029680706186
6.65475e-06;0.0021577889673955967
6.65500e-06;0.0021745482540850647
6.65525e-06;0.0021913075407744755
6.65550e-06;0.0022080668274638868
6.65575e-06;0.0022248261141533544
6.65600e-06;0.0022415854008427656
6.65625e-06;0.002256776963675104
6.65650e-06;0.0022608177698649444
6.65675e-06;0.0022648585760547714
6.65700e-06;0.0022688993822446114
6.65725e-06;0.0022729401884344384
6.65750e-06;0.002276980994624265
6.65775e-06;0.0022810218008141054
6.65800e-06;0.002285062607003932
6.65825e-06;0.002289103413193759
6.65850e-06;0.002293144219383599
6.65875e-06;0.002297185025573426
6.65900e-06;0.0023012258317632525
6.65925e-06;0.0022992017970140644
6.65950e-06;0.0022935118210060212
6.65975e-06;0.0022878218449979785
6.66000e-06;0.0022821318689899162
6.66025e-06;0.0022764418929818735
6.66050e-06;0.0022707519169738307
6.66075e-06;0.0022650619409657685
6.66100e-06;0.0022593719649577257
6.66125e-06;0.0022536819889496635
6.66150e-06;0.0022479920129416203
6.66175e-06;0.0022423020369335776
6.66200e-06;0.002236349825337695
6.66225e-06;0.0022285324094784838
6.66250e-06;0.002220714993619272
6.66275e-06;0.002212897577760034
6.66300e-06;0.0022050801619008225
6.66325e-06;0.002197262746041611
6.66350e-06;0.0021894453301823727
6.66375e-06;0.0021816279143231612
6.66400e-06;0.0021738104984639498
6.66425e-06;0.0021659930826047114
6.66450e-06;0.0021581756667455
6.66475e-06;0.0021510617280506693
6.66500e-06;0.0021489514145958503
6.66525e-06;0.002146841101141038
6.66550e-06;0.0021447307876862184
6.66575e-06;0.0021426204742314063
6.66600e-06;0.0021405101607765943
6.66625e-06;0.002138399847321775
6.66650e-06;0.0021362895338669623
6.66675e-06;0.0021341792204121503
6.66700e-06;0.002132068906957331
6.66725e-06;0.0021299585935025188
6.66750e-06;0.0021289154447728807
6.66775e-06;0.0021354627234570225
6.66800e-06;0.002142010002141142
6.66825e-06;0.0021485572808252616
6.66850e-06;0.0021551045595094034
6.66875e-06;0.0021616518381935225
6.66900e-06;0.002168199116877642
6.66925e-06;0.002174746395561784
6.66950e-06;0.0021812936742459034
6.66975e-06;0.002187840952930045
6.67000e-06;0.0021943882316141647
6.67025e-06;0.002200935510298284
6.67050e-06;0.00221027301910768
6.67075e-06;0.002221297104669545
6.67100e-06;0.0022323211902314094
6.67125e-06;0.0022433452757933113
6.67150e-06;0.0022543693613551762
6.67175e-06;0.002265393446917041
6.67200e-06;0.002276417532478943
6.67225e-06;0.0022874416180408076
6.67250e-06;0.002298465703602672
6.67275e-06;0.0023094897891645745
6.67300e-06;0.002320513874726439
6.67325e-06;0.002331270065088993
6.67350e-06;0.0023401207960446215
6.67375e-06;0.0023489715270002204
6.67400e-06;0.0023578222579558493
6.67425e-06;0.0023666729889114477
6.67450e-06;0.0023755237198670467
6.67475e-06;0.0023843744508226755
6.67500e-06;0.002393225181778274
6.67525e-06;0.002395131355400325
6.67550e-06;0.0023928398362054754
6.67575e-06;0.002390548317010633
6.67600e-06;0.0023882567978157914
6.67625e-06;0.0023859652786209417
6.67650e-06;0.0023836737594261
6.67675e-06;0.002381382240231258
6.67700e-06;0.0023768448358368463
6.67725e-06;0.002356333113535115
6.67750e-06;0.0023358213912333834
6.67775e-06;0.0023153096689315826
6.67800e-06;0.002294797946629851
6.67825e-06;0.00227428622432805
6.67850e-06;0.0022537745020263186
6.67875e-06;0.0022332627797245867
6.67900e-06;0.002212751057422786
6.67925e-06;0.0021825754043763457
6.67950e-06;0.0021465583116645533
6.67975e-06;0.002110541218952639
6.68000e-06;0.0020745241262408462
6.68025e-06;0.002038507033529054
6.68050e-06;0.0020024899408171396
6.68075e-06;0.001966472848105347
6.68100e-06;0.0019304557553935548
6.68125e-06;0.001893779762173419
6.68150e-06;0.0018524172043027727
6.68175e-06;0.0018110546464321265
6.68200e-06;0.00176969208856134
6.68225e-06;0.0017283295306906937
6.68250e-06;0.0016869669728199071
6.68275e-06;0.001646082041757013
6.68300e-06;0.001608594329068269
6.68325e-06;0.0015711066163793979
6.68350e-06;0.0015336189036906538
6.68375e-06;0.0014961311910019098
6.68400e-06;0.0014586434783130386
6.68425e-06;0.001422155383898675
6.68450e-06;0.001392777278943717
6.68475e-06;0.0013633991739886596
6.68500e-06;0.0013349038946531746
6.68525e-06;0.0013126878931276533
6.68550e-06;0.0012913089845527637
6.68575e-06;0.0012758840708260166
6.68600e-06;0.00126131407962041
6.68625e-06;0.0012528248997297783
6.68650e-06;0.00124520310512245
6.68675e-06;0.0012437507657749932
6.68700e-06;0.001243193585661404
6.68725e-06;0.001249003408712499
6.68750e-06;0.0012557018116348898
6.68775e-06;0.0012687204206594741
6.68800e-06;0.0012827608422461198
6.68825e-06;0.0013040691147023214
6.68850e-06;0.001325377387158451
6.68875e-06;0.0013477913082279179
6.68900e-06;0.001378069381230915
6.68925e-06;0.0014083474542338098
6.68950e-06;0.0014395718266054013
6.68975e-06;0.001477526946811409
6.69000e-06;0.0015154820670172883
6.69025e-06;0.0015543736354851662
6.69050e-06;0.00159992588377575
6.69075e-06;0.0016454781320661795
6.69100e-06;0.0016910303803567635
6.69125e-06;0.0017365826286471929
6.69150e-06;0.0017821348769376224
6.69175e-06;0.0018280258320591378
6.69200e-06;0.001876325908800863
6.69225e-06;0.0019246259855425882
6.69250e-06;0.001972926062284477
6.69275e-06;0.002021226139026202
6.69300e-06;0.0020695262157679273
6.69325e-06;0.002116564862957282
6.69350e-06;0.0021546313344184887
6.69375e-06;0.0021926978058796954
6.69400e-06;0.0022307642773410313
6.69425e-06;0.002268830748802238
6.69450e-06;0.0023068972202634447
6.69475e-06;0.00234496369172478
6.69500e-06;0.002383030163185987
6.69525e-06;0.002417998486693958
6.69550e-06;0.0024309305991344248
6.69575e-06;0.0024438627115748917
6.69600e-06;0.0024567948240154023
6.69625e-06;0.0024697269364558692
6.69650e-06;0.002482659048896336
6.69675e-06;0.002495591161336847
6.69700e-06;0.0025085232737773137
6.69725e-06;0.002519007174537265
6.69750e-06;0.002512077668920815
6.69775e-06;0.0025051481633043887
6.69800e-06;0.002496997168286311
