Time(s);Current(A)
5.75000e-06;-5.607626862815125e-05
5.75025e-06;-6.0048149562565395e-05
5.75050e-06;-6.446063222981409e-05
5.75075e-06;-6.895627688826977e-05
5.75100e-06;-7.382725766257155e-05
5.75125e-06;-7.875516597426851e-05
5.75150e-06;-8.394000609419557e-05
5.75175e-06;-8.919931243648978e-05
5.75200e-06;-9.47947081660564e-05
5.75225e-06;-0.00010039010389564197
5.75250e-06;-0.00010610297457612626
5.75275e-06;-0.00011234604650770797
5.75300e-06;-0.00011858911843931083
5.75325e-06;-0.00012483219037089257
5.75350e-06;-0.00013107526230247426
5.75375e-06;-0.00013731833423407714
5.75400e-06;-0.00014372884163491495
5.75425e-06;-0.0001502176438215537
5.75450e-06;-0.00015670644600821444
5.75475e-06;-0.00016319524819485322
5.75500e-06;-0.00016968405038149197
5.75525e-06;-0.00017610575776870024
5.75550e-06;-0.00018222464530935175
5.75575e-06;-0.00018834353285002395
5.75600e-06;-0.00019446242039067543
5.75625e-06;-0.00020043646811764113
5.75650e-06;-0.0002057568083962176
5.75675e-06;-0.00021107714867477602
5.75700e-06;-0.00021639748895333445
5.75725e-06;-0.00022154489747693292
5.75750e-06;-0.00022591181082164398
5.75775e-06;-0.00023002079272827275
5.75800e-06;-0.0002329656492611321
5.75825e-06;-0.0002355711167661535
5.75850e-06;-0.000236405634237152
5.75875e-06;-0.00023592902570445848
5.75900e-06;-0.0002341829308312212
5.75925e-06;-0.00023120895882190485
5.75950e-06;-0.00022704598715791787
5.75975e-06;-0.0002216981166705703
5.76000e-06;-0.00021504989677756107
5.76025e-06;-0.00020692415567141376
5.76050e-06;-0.00019727275307259521
5.76075e-06;-0.00018616999799091986
5.76100e-06;-0.00017370934810489043
5.76125e-06;-0.0001599842849178972
5.76150e-06;-0.00014508655319901082
5.76175e-06;-0.0001290860769967555
5.76200e-06;-0.00011197794432828709
5.76225e-06;-9.371857668485818e-05
5.76250e-06;-7.434521372676755e-05
5.76275e-06;-5.3971780586788406e-05
5.76300e-06;-3.272421251735827e-05
5.76325e-06;-1.0728437584247503e-05
5.76350e-06;1.1890710219164546e-05
5.76375e-06;3.502205561336867e-05
5.76400e-06;5.863235059538946e-05
5.76425e-06;8.272848503434903e-05
5.76450e-06;0.00010689439127818123
5.76475e-06;0.00013137519953282303
5.76500e-06;0.00015585600778754777
5.76525e-06;0.00018021295450957524
5.76550e-06;0.00020401087533701866
5.76575e-06;0.00022780879616454268
5.76600e-06;0.00025135759151820216
5.76625e-06;0.0002737820055736241
5.76650e-06;0.000295899094200479
5.76675e-06;0.0003166291269024556
5.76700e-06;0.0003369371199717159
5.76725e-06;0.0003553403159806542
5.76750e-06;0.0003732496407092998
5.76775e-06;0.0003889299696521351
5.76800e-06;0.00040432982392330804
5.76825e-06;0.0004184638081463162
5.76850e-06;0.00043236166864811895
5.76875e-06;0.0004451938288335206
5.76900e-06;0.00045802598901892224
5.76925e-06;0.00047045018380599047
5.76950e-06;0.00048103310296092756
5.76975e-06;0.0004916160221158646
5.77000e-06;0.0005019385560576068
5.77025e-06;0.0005110858899701582
5.77050e-06;0.0005202332238827096
5.77075e-06;0.0005289328774046952
5.77100e-06;0.000535612009094623
5.77125e-06;0.0005422911407845509
5.77150e-06;0.0005489702724745014
5.77175e-06;0.0005556494041644292
5.77200e-06;0.0005623285358543569
5.77225e-06;0.0005690076675443074
5.77250e-06;0.0005756867992342353
5.77275e-06;0.0005823659309241858
5.77300e-06;0.0005890450626141136
5.77325e-06;0.0005957241943040414
5.77350e-06;0.0006024033259939919
5.77375e-06;0.000607257867242505
5.77400e-06;0.0006112592086382323
5.77425e-06;0.0006152605500339733
5.77450e-06;0.0006192618914297006
5.77475e-06;0.0006232632328254281
5.77500e-06;0.000627264574221169
5.77525e-06;0.0006312659156168963
5.77550e-06;0.0006352672570126238
5.77575e-06;0.0006392685984083647
5.77600e-06;0.000643269939804092
5.77625e-06;0.0006472712811998194
5.77650e-06;0.0006510202095360996
5.77675e-06;0.000653629918670569
5.77700e-06;0.0006562396278050471
5.77725e-06;0.0006588493369395164
5.77750e-06;0.0006614590460739858
5.77775e-06;0.000664068755208464
5.77800e-06;0.0006666784643429333
5.77825e-06;0.0006700738736128236
5.77850e-06;0.0006738366854650245
5.77875e-06;0.0006775994973172128
5.77900e-06;0.000681362309169401
5.77925e-06;0.000685125121021602
5.77950e-06;0.0006888879328737902
5.77975e-06;0.0006932933299213137
5.78000e-06;0.0007005989152349268
5.78025e-06;0.0007079045005485152
5.78050e-06;0.0007152100858621035
5.78075e-06;0.0007225156711757166
5.78100e-06;0.000729821256489305
5.78125e-06;0.0007371268418029182
5.78150e-06;0.0007444324271165066
5.78175e-06;0.000751738012430095
5.78200e-06;0.0007590435977437081
5.78225e-06;0.0007669601936352731
5.78250e-06;0.0007776344716542693
5.78275e-06;0.0007883087496733016
5.78300e-06;0.0007989830276922976
5.78325e-06;0.0008096573057112938
5.78350e-06;0.0008203315837303261
5.78375e-06;0.0008310058617493222
5.78400e-06;0.0008416801397683183
5.78425e-06;0.0008523544177873506
5.78450e-06;0.0008630286958063467
5.78475e-06;0.0008737128892233193
5.78500e-06;0.0008844418339372288
5.78525e-06;0.000895170778651102
5.78550e-06;0.0009058997233650114
5.78575e-06;0.0009166286680788845
5.78600e-06;0.0009273576127927576
5.78625e-06;0.000938086557506667
5.78650e-06;0.0009488155022205402
5.78675e-06;0.0009571569894233801
5.78700e-06;0.000964382073541948
5.78725e-06;0.0009716071576604914
5.78750e-06;0.000978832241779035
5.78775e-06;0.0009860573258976028
5.78800e-06;0.000993282410016146
5.78825e-06;0.0010005074941346896
5.78850e-06;0.00100615348452418
5.78875e-06;0.0010046725302906231
5.78900e-06;0.001003191576057066
5.78925e-06;0.0010017106218235042
5.78950e-06;0.0010002296675899471
5.78975e-06;0.000998748713356385
5.79000e-06;0.0009972677591228282
5.79025e-06;0.0009957868048892711
5.79050e-06;0.000994305850655709
5.79075e-06;0.0009928248964221522
5.79100e-06;0.000989569536058617
5.79125e-06;0.000978305725029085
5.79150e-06;0.0009670419139995913
5.79175e-06;0.0009557781029700974
5.79200e-06;0.0009445142919405655
5.79225e-06;0.0009332504809110717
5.79250e-06;0.0009219866698815778
5.79275e-06;0.0009107228588520459
5.79300e-06;0.000899459047822552
5.79325e-06;0.0008881952367930583
5.79350e-06;0.0008761057362276378
5.79375e-06;0.000860289640154474
5.79400e-06;0.0008444735440812565
5.79425e-06;0.0008286574480080925
5.79450e-06;0.0008128413519349286
5.79475e-06;0.0007970252558617111
5.79500e-06;0.0007812091597885471
5.79525e-06;0.0007656403866390865
5.79550e-06;0.00075018726458431
5.79575e-06;0.0007347341425295858
5.79600e-06;0.0007192810204748617
5.79625e-06;0.0007038278984200851
5.79650e-06;0.0006883747763653611
5.79675e-06;0.0006733985606572945
5.79700e-06;0.0006605747726737441
5.79725e-06;0.0006477509846902372
5.79750e-06;0.0006352422978487828
5.79775e-06;0.0006241557611609465
5.79800e-06;0.0006130692244731477
5.79825e-06;0.0006019826877853113
5.79850e-06;0.0005905345038924384
5.79875e-06;0.0005774540928838792
5.79900e-06;0.0005643736818752758
5.79925e-06;0.0005512932708667167
5.79950e-06;0.0005379260303574971
5.79975e-06;0.0005232642384678296
5.80000e-06;0.0005086024465782118
5.80025e-06;0.000493413966695902
5.80050e-06;0.00047584837892751124
5.80075e-06;0.00045828279115918007
5.80100e-06;0.00044029974841958873
5.80125e-06;0.0004204326006348413
5.80150e-06;0.00040056545285016115
5.80175e-06;0.0003803491950761051
5.80200e-06;0.0003585572945679255
5.80225e-06;0.00033676539405981976
5.80250e-06;0.0003145841782510772
5.80275e-06;0.0002906458605455105
5.80300e-06;0.0002667075428399438
5.80325e-06;0.00024259658107521632
5.80350e-06;0.00021770642259456217
5.80375e-06;0.000192816264113908
5.80400e-06;0.00016783071985651153
5.80425e-06;0.00014241466971141943
5.80450e-06;0.00011699861956632731
5.80475e-06;9.159948190521276e-05
5.80500e-06;6.627667558226561e-05
5.80525e-06;4.1048437477542186e-05
5.80550e-06;1.6346353332162962e-05
5.80575e-06;-7.794154485589528e-06
5.80600e-06;-3.130849043355264e-05
5.80625e-06;-5.4175324992864484e-05
5.80650e-06;-7.631014291787596e-05
5.80675e-06;-9.756350942805394e-05
5.80700e-06;-0.00011777552046405765
5.80725e-06;-0.00013678629345592264
5.80750e-06;-0.0001544386335046551
5.80775e-06;-0.00017061124413170027
5.80800e-06;-0.0001853177809390077
5.80825e-06;-0.0001986833357227165
5.80850e-06;-0.00021076421260181368
5.80875e-06;-0.00022152151274489992
5.80900e-06;-0.00023089951950800754
5.80925e-06;-0.00023884253079899543
5.80950e-06;-0.0002452965219084488
5.80975e-06;-0.00025022996886766533
5.81000e-06;-0.0002536959120968915
5.81025e-06;-0.00025581711459021685
5.81050e-06;-0.00025667330925378546
5.81075e-06;-0.000256173244958961
5.81100e-06;-0.0002541579938747233
5.81125e-06;-0.0002517014275180237
5.81150e-06;-0.00024725306710377947
5.81175e-06;-0.0002423980469207311
5.81200e-06;-0.00023570764382342191
5.81225e-06;-0.00022868396985907855
5.81250e-06;-0.0002201561400816003
5.81275e-06;-0.0002113385066238961
5.81300e-06;-0.00020121289838224488
5.81325e-06;-0.00019083438018692266
5.81350e-06;-0.00017931440015213172
5.81375e-06;-0.00016759544394606398
5.81400e-06;-0.00015497844595386702
5.81425e-06;-0.00014222301554484747
5.81450e-06;-0.00012884279627747668
5.81475e-06;-0.00011546257701006054
5.81500e-06;-0.0001020317694173673
5.81525e-06;-8.837264086672574e-05
5.81550e-06;-7.471351231613044e-05
5.81575e-06;-6.108961972031945e-05
5.81600e-06;-4.767569871238932e-05
5.81625e-06;-3.4562997035219263e-05
5.81650e-06;-2.186068607956625e-05
5.81675e-06;-9.663275899435026e-06
5.81700e-06;1.9373339595794545e-06
5.81725e-06;1.2849246778650405e-05
5.81750e-06;2.2987675873348667e-05
5.81775e-06;3.235950279225375e-05
5.81800e-06;4.1296603173301296e-05
5.81825e-06;5.0334374505349654e-05
5.81850e-06;5.974420320577703e-05
5.81875e-06;6.951218721675471e-05
5.81900e-06;7.932563579098035e-05
5.81925e-06;8.934961443511226e-05
5.81950e-06;9.939766824458793e-05
5.81975e-06;0.00010950339588580714
5.82000e-06;0.00011986942359490381
5.82025e-06;0.0001304338877152197
5.82050e-06;0.00014189395751501544
5.82075e-06;0.00015351709426085638
5.82100e-06;0.00016587620321137535
5.82125e-06;0.00017835078343796
5.82150e-06;0.00019134652170244373
5.82175e-06;0.00020434225996697147
5.82200e-06;0.00021753043965401527
5.82225e-06;0.00023158716775907603
5.82250e-06;0.0002456438958641844
5.82275e-06;0.0002598773174171228
5.82300e-06;0.0002749082118456144
5.82325e-06;0.0002899391062741569
5.82350e-06;0.0003049700007026485
5.82375e-06;0.00032000089513119104
5.82400e-06;0.00033506927557078186
5.82425e-06;0.0003503068421201128
5.82450e-06;0.00036554440866949536
5.82475e-06;0.00038078197521882633
5.82500e-06;0.0003960195417681573
5.82525e-06;0.0004110432081085325
5.82550e-06;0.00042510147580622444
5.82575e-06;0.00043915974350391637
5.82600e-06;0.0004532180112016559
5.82625e-06;0.0004672762788993478
5.82650e-06;0.0004808366919126784
5.82675e-06;0.0004921501307939053
5.82700e-06;0.000503463569675094
5.82725e-06;0.0005147770085562826
5.82750e-06;0.0005260904474375096
5.82775e-06;0.0005367819886857892
5.82800e-06;0.0005446667111216628
5.82825e-06;0.00055199195700611
5.82850e-06;0.000556792109971
5.82875e-06;0.0005610204286489029
5.82900e-06;0.0005626678800757368
5.82925e-06;0.0005637517955326763
5.82950e-06;0.0005622922966429272
5.82975e-06;0.0005602433110664146
5.83000e-06;0.0005555337874295668
5.83025e-06;0.0005501971285069257
5.83050e-06;0.0005420300116041571
5.83075e-06;0.0005332805555472848
5.83100e-06;0.0005219028204838127
5.83125e-06;0.0005100004860834053
5.83150e-06;0.0004957304705568424
5.83175e-06;0.0004809721423547062
5.83200e-06;0.00046400990609557355
5.83225e-06;0.00044658830097300833
5.83250e-06;0.0004270934202837003
5.83275e-06;0.000407143622542359
5.83300e-06;0.0003851406416531528
5.83325e-06;0.00036313766076402117
5.83350e-06;0.00034075696919685976
5.83375e-06;0.0003166715510308063
5.83400e-06;0.00029258613286483443
5.83425e-06;0.0002683002076674513
5.83450e-06;0.00024310933143319838
5.83475e-06;0.0002179184551990308
5.83500e-06;0.00019272757896486326
5.83525e-06;0.00016753670273061033
5.83550e-06;0.00014234582649644276
5.83575e-06;0.00011729954087160737
5.83600e-06;9.301099352318502e-05
5.83625e-06;6.932757179932436e-05
5.83650e-06;4.6393205158186786e-05
5.83675e-06;2.4370762563579077e-05
5.83700e-06;3.425958301238189e-06
5.83725e-06;-1.627551352132279e-05
5.83750e-06;-3.4575096225554584e-05
5.83775e-06;-5.140707794809594e-05
5.83800e-06;-6.703940262459029e-05
5.83825e-06;-8.196471558756233e-05
5.83850e-06;-9.641230686993887e-05
5.83875e-06;-0.00011032381634688807
5.83900e-06;-0.00012359340330231694
5.83925e-06;-0.00013611524025248164
5.83950e-06;-0.00014778797683692258
5.83975e-06;-0.0001585274150647446
5.84000e-06;-0.00016843725478334718
5.84025e-06;-0.00017822899656914484
5.84050e-06;-0.0001874877253927694
5.84075e-06;-0.00019656701806553263
5.84100e-06;-0.00020483645918557673
5.84125e-06;-0.00021310590030559283
5.84150e-06;-0.00022110974248977695
5.84175e-06;-0.00022791485348419295
5.84200e-06;-0.00023471996447860892
5.84225e-06;-0.0002413954318642632
5.84250e-06;-0.0002474857770358539
5.84275e-06;-0.0002535761222074445
5.84300e-06;-0.00025951585538692073
5.84325e-06;-0.0002647758294704735
5.84350e-06;-0.0002700358035540263
5.84375e-06;-0.0002750874748459844
5.84400e-06;-0.00027919901039381775
5.84425e-06;-0.0002833105459416511
5.84450e-06;-0.0002874220814894984
5.84475e-06;-0.0002915336170373317
5.84500e-06;-0.00029564515258516513
5.84525e-06;-0.0002997566881330124
5.84550e-06;-0.00030365117487725097
5.84575e-06;-0.00030656605238589475
5.84600e-06;-0.0003094809298945286
5.84625e-06;-0.00031239580740316254
5.84650e-06;-0.0003153106849118063
5.84675e-06;-0.00031822556242044024
5.84700e-06;-0.0003211404399290741
5.84725e-06;-0.0003239234870117065
5.84750e-06;-0.0003261115420892742
5.84775e-06;-0.00032801592880379307
5.84800e-06;-0.0003286400313441094
5.84825e-06;-0.00032878321156744116
5.84850e-06;-0.00032641319003309945
5.84875e-06;-0.00032217046129670503
5.84900e-06;-0.0003161455620960141
5.84925e-06;-0.00030842901062256157
5.84950e-06;-0.0002991059961615945
5.84975e-06;-0.00028819372461824416
5.85000e-06;-0.00027547346191562807
5.85025e-06;-0.00026059631813882543
5.85050e-06;-0.00024345279785610945
5.85075e-06;-0.00022416643364291558
5.85100e-06;-0.0002028976775561012
5.85125e-06;-0.00017980699356482538
5.85150e-06;-0.0001550514856644044
5.85175e-06;-0.00012874564201250055
5.85200e-06;-0.00010085617073999415
5.85225e-06;-7.126828683130989e-05
5.85250e-06;-4.001713103228011e-05
5.85275e-06;-7.283834178028859e-06
5.85300e-06;2.672735998666294e-05
5.85325e-06;6.181222656640997e-05
5.85350e-06;9.776866280761144e-05
5.85375e-06;0.00013447574439949
5.85400e-06;0.00017193308724115246
5.85425e-06;0.00020957156513658228
5.85450e-06;0.0002480275622646405
5.85475e-06;0.0002864835593926987
5.85500e-06;0.0003249395565208872
5.85525e-06;0.00036270517183118996
5.85550e-06;0.00040014795652107085
5.85575e-06;0.0004375907412110786
5.85600e-06;0.0004746058997593297
5.85625e-06;0.0005096910475881247
5.85650e-06;0.0005442949431732183
5.85675e-06;0.0005767267966426795
5.85700e-06;0.0006084980470584296
5.85725e-06;0.0006372877889769717
5.85750e-06;0.0006652761151132877
5.85775e-06;0.0006896474008032824
5.85800e-06;0.0007133495370176072
5.85825e-06;0.0007340315920550759
5.85850e-06;0.000754114172863421
5.85875e-06;0.0007714911387065621
5.85900e-06;0.0007880098129184923
5.85925e-06;0.0008006547481626086
5.85950e-06;0.000813299683406682
5.85975e-06;0.0008249317805410967
5.86000e-06;0.0008319926220431215
5.86025e-06;0.0008390534635451224
5.86050e-06;0.0008452971882717995
5.86075e-06;0.0008478530090523039
5.86100e-06;0.0008504088298327997
5.86125e-06;0.0008521394537123844
5.86150e-06;0.0008501457055082159
5.86175e-06;0.0008481519573040543
5.86200e-06;0.0008454868055646573
5.86225e-06;0.0008397913993723452
5.86250e-06;0.0008340959931800525
5.86275e-06;0.0008276304209178899
5.86300e-06;0.0008176888479496893
5.86325e-06;0.0008077472749814886
5.86350e-06;0.0007978057020132542
5.86375e-06;0.0007878641290450535
5.86400e-06;0.0007779225560768528
5.86425e-06;0.0007679809831086184
5.86450e-06;0.0007561393808988727
5.86475e-06;0.0007434093027719208
5.86500e-06;0.0007306792246449257
5.86525e-06;0.0007179491465179738
5.86550e-06;0.0007052190683910219
5.86575e-06;0.0006924889902640268
5.86600e-06;0.000680121369135261
5.86625e-06;0.0006693896299686026
5.86650e-06;0.0006586578908019079
5.86675e-06;0.0006479261516352496
5.86700e-06;0.0006371944124685548
5.86725e-06;0.0006264626733018964
5.86750e-06;0.000615730934135238
5.86775e-06;0.0006049991949685433
5.86800e-06;0.0005954191006856959
5.86825e-06;0.0005910367404829699
5.86850e-06;0.0005866543802802291
5.86875e-06;0.0005822720200775031
5.86900e-06;0.0005778896598747772
5.86925e-06;0.0005735072996720363
5.86950e-06;0.0005691249394693104
5.86975e-06;0.0005647425792665844
5.87000e-06;0.0005612606678530922
5.87025e-06;0.0005618427638647805
5.87050e-06;0.0005624248598764688
5.87075e-06;0.0005634533652300348
5.87100e-06;0.0005664966557681273
5.87125e-06;0.00056953994630623
5.87150e-06;0.0005732411828883585
5.87175e-06;0.0005799119360494695
5.87200e-06;0.000586582689210603
5.87225e-06;0.000593253442371714
5.87250e-06;0.0005999241955328249
5.87275e-06;0.0006065949486939585
5.87300e-06;0.0006132657018550695
5.87325e-06;0.0006199364550161804
5.87350e-06;0.0006286736879291186
5.87375e-06;0.000638377230966297
5.87400e-06;0.0006480807740034752
5.87425e-06;0.0006577843170406865
5.87450e-06;0.0006674878600778648
5.87475e-06;0.0006771914031150431
5.87500e-06;0.0006868949461522543
5.87525e-06;0.0006965757959616896
5.87550e-06;0.0007061542241263788
5.87575e-06;0.0007157326522910354
5.87600e-06;0.0007253110804556921
5.87625e-06;0.0007348895086203812
5.87650e-06;0.0007444679367850378
5.87675e-06;0.0007540463649496946
5.87700e-06;0.0007629515676292033
5.87725e-06;0.0007688182928265312
5.87750e-06;0.0007746850180238592
5.87775e-06;0.0007805517432212071
5.87800e-06;0.0007864184684185351
5.87825e-06;0.000792285193615863
5.87850e-06;0.0007981519188132109
5.87875e-06;0.000803153272716836
5.87900e-06;0.0008042489349207638
5.87925e-06;0.0008053445971246953
5.87950e-06;0.0008058753121513805
5.87975e-06;0.0008038562436147146
5.88000e-06;0.0008018371750780555
5.88025e-06;0.0007992250020972731
5.88050e-06;0.0007939359629883529
5.88075e-06;0.0007886469238794506
5.88100e-06;0.0007827425608608841
5.88125e-06;0.0007740610483066785
5.88150e-06;0.0007653795357525023
5.88175e-06;0.0007566980231983262
5.88200e-06;0.0007476199571901824
5.88225e-06;0.0007362880359428708
5.88250e-06;0.0007228615524057323
5.88275e-06;0.0007094350688685482
5.88300e-06;0.0006960085853314096
5.88325e-06;0.000682582101794271
5.88350e-06;0.000669155618257087
5.88375e-06;0.0006557291347199484
5.88400e-06;0.0006407704364587481
5.88425e-06;0.0006250952566551433
5.88450e-06;0.0006094200768515385
5.88475e-06;0.0005937448970478806
5.88500e-06;0.000578069717244276
5.88525e-06;0.0005623945374406712
5.88550e-06;0.0005468691183845149
5.88575e-06;0.000532019616489728
5.88600e-06;0.000517170114594941
5.88625e-06;0.0005023206127001038
5.88650e-06;0.0004874711108053168
5.88675e-06;0.00047322016356837743
5.88700e-06;0.00046167068098061333
5.88725e-06;0.00045012119839288843
5.88750e-06;0.00043857171580516353
5.88775e-06;0.00042702223321739943
5.88800e-06;0.0004161896244034108
5.88825e-06;0.0004085924914681963
5.88850e-06;0.0004015003074347144
5.88875e-06;0.0003966871159537798
5.88900e-06;0.00039238332606569815
5.88925e-06;0.0003903786251200079
5.88950e-06;0.00038889067653473966
5.88975e-06;0.00038973499320820755
5.89000e-06;0.00039111875856174063
5.89025e-06;0.0003949372247734098
5.89050e-06;0.00039927914745669464
5.89075e-06;0.0004059835931521992
5.89100e-06;0.00041317081931257067
5.89125e-06;0.000422536984926358
5.89150e-06;0.0004323470841120463
5.89175e-06;0.0004441607945557218
5.89200e-06;0.00045648235637661417
5.89225e-06;0.00047109601053065654
5.89250e-06;0.00048570966468474845
5.89275e-06;0.0005008134896624459
5.89300e-06;0.0005181296090973789
5.89325e-06;0.0005354457285323703
5.89350e-06;0.0005531826306805646
5.89375e-06;0.0005728186570101734
5.89400e-06;0.0005924546833398488
5.89425e-06;0.0006120907096694577
5.89450e-06;0.0006317267359990665
