Time(s);Current(A)
8.00000e-06;-0.00016342022425531853
8.00025e-06;-0.00016386682877021005
8.00050e-06;-0.00016431343328510457
8.00075e-06;-0.00016476003779999912
8.00100e-06;-0.0001646750288746935
8.00125e-06;-0.0001643774858640185
8.00150e-06;-0.00016407994285334352
8.00175e-06;-0.00016378239984267054
8.00200e-06;-0.00016348485683199553
8.00225e-06;-0.00016318731382132054
8.00250e-06;-0.00016288977081064756
8.00275e-06;-0.000162495432695488
8.00300e-06;-0.00016206239680212226
8.00325e-06;-0.00016164900893233101
8.00350e-06;-0.00016125951684677384
8.00375e-06;-0.00016089465108436453
8.00400e-06;-0.00016041997920506637
8.00425e-06;-0.00015911332432422316
8.00450e-06;-0.0001557827422476812
8.00475e-06;-0.00014969598569443933
8.00500e-06;-0.00014079707650824604
8.00525e-06;-0.00012923806969194075
8.00550e-06;-0.00011518203400767256
8.00575e-06;-9.879203821730605e-05
8.00600e-06;-8.014502204843092e-05
8.00625e-06;-5.894977672248111e-05
8.00650e-06;-3.462088193028777e-05
8.00675e-06;-6.86092113875398e-06
8.00700e-06;2.4203906091155775e-05
8.00725e-06;5.831709047200767e-05
8.00750e-06;9.521523490077193e-05
8.00775e-06;0.00013463496943236399
8.00800e-06;0.00017636687304734542
8.00825e-06;0.00022043215212281172
8.00850e-06;0.0002670362781263963
8.00875e-06;0.00031620430348331795
8.00900e-06;0.0003683776590794768
8.00925e-06;0.0004214618234716799
8.00950e-06;0.0004768067996507615
8.00975e-06;0.0005330556272553384
8.01000e-06;0.0005913715308972847
8.01025e-06;0.000650513832221639
8.01050e-06;0.0007096561335463939
8.01075e-06;0.0007687984348711489
8.01100e-06;0.0008286570054145258
8.01125e-06;0.0008888019336985152
8.01150e-06;0.0009489468619825047
8.01175e-06;0.0010090917902660867
8.01200e-06;0.001066889684166349
8.01225e-06;0.0011237492556530604
8.01250e-06;0.0011806088271393866
8.01275e-06;0.0012335154519216198
8.01300e-06;0.0012848417255516826
8.01325e-06;0.0013361679991813974
8.01350e-06;0.0013812233999064023
8.01375e-06;0.0014237717642451777
8.01400e-06;0.0014663201285836649
8.01425e-06;0.0015034579192984515
8.01450e-06;0.001538432613240025
8.01475e-06;0.0015734073071813613
8.01500e-06;0.0016026099454484503
8.01525e-06;0.0016295049697965006
8.01550e-06;0.0016563999941443688
8.01575e-06;0.0016832950184924192
8.01600e-06;0.0017101900428404696
8.01625e-06;0.0017370850671883376
8.01650e-06;0.001763980091536388
8.01675e-06;0.0017908751158844383
8.01700e-06;0.0018112753145115876
8.01725e-06;0.0018290789425091038
8.01750e-06;0.0018468825705067406
8.01775e-06;0.0018646861985043774
8.01800e-06;0.0018824898265018936
8.01825e-06;0.0019002934544995304
8.01850e-06;0.0019180970824971672
8.01875e-06;0.0019359007104946832
8.01900e-06;0.001947467474552209
8.01925e-06;0.0019565407986892984
8.01950e-06;0.001965614122826326
8.01975e-06;0.001974687446963415
8.02000e-06;0.0019837607711005044
8.02025e-06;0.001992834095237532
8.02050e-06;0.0020019074193746212
8.02075e-06;0.0020109807435117104
8.02100e-06;0.002020054067648738
8.02125e-06;0.0020291273917858272
8.02150e-06;0.0020382007159229164
8.02175e-06;0.0020472740400599445
8.02200e-06;0.0020563473641970337
8.02225e-06;0.002065420688334123
8.02250e-06;0.0020744940124711505
8.02275e-06;0.0020835673366082397
8.02300e-06;0.002092640660745329
8.02325e-06;0.0021017139848823565
8.02350e-06;0.0021107873090194457
8.02375e-06;0.002119860633156535
8.02400e-06;0.002128933957293563
8.02425e-06;0.002138007281430652
8.02450e-06;0.0021470806055677413
8.02475e-06;0.0021494006178949445
8.02500e-06;0.002149020719269073
8.02525e-06;0.0021486408206432012
8.02550e-06;0.00214826092201733
8.02575e-06;0.002147881023391461
8.02600e-06;0.0021475011247655894
8.02625e-06;0.0021471212261397177
8.02650e-06;0.002146741327513849
8.02675e-06;0.0021463614288879775
8.02700e-06;0.002145981530262106
8.02725e-06;0.002145601631636237
8.02750e-06;0.0021452217330103656
8.02775e-06;0.002144841834384494
8.02800e-06;0.002144461935758625
8.02825e-06;0.0021440820371327533
8.02850e-06;0.002143702138506882
8.02875e-06;0.002143322239881013
8.02900e-06;0.0021429423412551414
8.02925e-06;0.00214256244262927
8.02950e-06;0.002142182544003401
8.02975e-06;0.0021418026453775296
8.03000e-06;0.002141422746751658
8.03025e-06;0.002141042848125789
8.03050e-06;0.0021384766461127504
8.03075e-06;0.0021350363804359426
8.03100e-06;0.0021315961147591583
8.03125e-06;0.0021281558490823505
8.03150e-06;0.002124715583405543
8.03175e-06;0.002121275317728759
8.03200e-06;0.002117835052051951
8.03225e-06;0.0021143947863751433
8.03250e-06;0.0021109545206983594
8.03275e-06;0.0021075142550215516
8.03300e-06;0.002104073989344744
8.03325e-06;0.0021006337236679595
8.03350e-06;0.002097193457991152
8.03375e-06;0.0020937531923143444
8.03400e-06;0.0020903129266375367
8.03425e-06;0.0020868726609607523
8.03450e-06;0.002083432395283945
8.03475e-06;0.00208086880602107
8.03500e-06;0.0020815176584588002
8.03525e-06;0.0020821665108965355
8.03550e-06;0.0020828153633342707
8.03575e-06;0.002083464215772001
8.03600e-06;0.0020841130682097363
8.03625e-06;0.0020847619206474715
8.03650e-06;0.002085410773085202
8.03675e-06;0.002086059625522937
8.03700e-06;0.0020867084779606724
8.03725e-06;0.0020873573303984033
8.03750e-06;0.002088006182836138
8.03775e-06;0.0020886550352738733
8.03800e-06;0.002089303887711604
8.03825e-06;0.002089952740149339
8.03850e-06;0.002090601592587074
8.03875e-06;0.002091250445024805
8.03900e-06;0.00209189929746254
8.03925e-06;0.002094744200794431
8.03950e-06;0.002098467064752476
8.03975e-06;0.002102189928710546
8.04000e-06;0.0021059127926686162
8.04025e-06;0.0021096356566266614
8.04050e-06;0.002113358520584731
8.04075e-06;0.0021170813845428015
8.04100e-06;0.0021208042485008466
8.04125e-06;0.0021245271124589165
8.04150e-06;0.0021282087658665337
8.04175e-06;0.0021317394097468798
8.04200e-06;0.0021352700536272497
8.04225e-06;0.0021388006975076195
8.04250e-06;0.002142331341387965
8.04275e-06;0.002145861985268335
8.04300e-06;0.002149392629148705
8.04325e-06;0.0021529232730290748
8.04350e-06;0.0021564539169094204
8.04375e-06;0.0021599845607897902
8.04400e-06;0.002154183273050909
8.04425e-06;0.002144651166253636
8.04450e-06;0.002135119059456298
8.04475e-06;0.00212558695265896
8.04500e-06;0.0021160548458616867
8.04525e-06;0.0021065227390643488
8.04550e-06;0.002096990632267011
8.04575e-06;0.0020874585254697375
8.04600e-06;0.0020779264186723996
8.04625e-06;0.0020683943118750617
8.04650e-06;0.002058862205077788
8.04675e-06;0.002043264105106042
8.04700e-06;0.0020054381350458456
8.04725e-06;0.0019676121649859057
8.04750e-06;0.0019297861949257096
8.04775e-06;0.0018919602248655134
8.04800e-06;0.0018541342548055737
8.04825e-06;0.0018163082847453774
8.04850e-06;0.0017784823146851814
8.04875e-06;0.0017406563446252417
8.04900e-06;0.0017028303745650454
8.04925e-06;0.0016650044045048492
8.04950e-06;0.0016271784344449095
8.04975e-06;0.001579508543329499
8.05000e-06;0.0015279031445628026
8.05025e-06;0.0014762977457964557
8.05050e-06;0.0014246923470297593
8.05075e-06;0.0013730869482630628
8.05100e-06;0.001320699703699861
8.05125e-06;0.0012679998844926695
8.05150e-06;0.001215300065285478
8.05175e-06;0.0011626002460782866
8.05200e-06;0.0011099004268714523
8.05225e-06;0.0010599024569374717
8.05250e-06;0.0010109846610955792
8.05275e-06;0.0009620668652540181
8.05300e-06;0.0009163691136488762
8.05325e-06;0.0008719587056400326
8.05350e-06;0.0008312457022092575
8.05375e-06;0.0007920108865781957
8.05400e-06;0.0007573815052952739
8.05425e-06;0.0007245933336297531
8.05450e-06;0.0006955622591085623
8.05475e-06;0.0006705842780806787
8.05500e-06;0.0006492270787939114
8.05525e-06;0.000631562489806209
8.05550e-06;0.0006176630711123165
8.05575e-06;0.0006076014326239869
8.05600e-06;0.0006014411107990041
8.05625e-06;0.0005991919352456424
8.05650e-06;0.0006007800558685915
8.05675e-06;0.0006060949429563122
8.05700e-06;0.0006150337620245838
8.05725e-06;0.0006274999634060782
8.05750e-06;0.000643397521084921
8.05775e-06;0.0006637746143048125
8.05800e-06;0.000685553912854183
8.05825e-06;0.0007116792710491872
8.05850e-06;0.0007395421432790763
8.05875e-06;0.0007711786211513606
8.05900e-06;0.0008043237512976554
8.05925e-06;0.000841338453993853
8.05950e-06;0.0008799001756364037
8.05975e-06;0.0009184618972792159
8.06000e-06;0.0009611380633687752
8.06025e-06;0.001005459145901181
8.06050e-06;0.0010497802284332866
8.06075e-06;0.0010941013109656925
8.06100e-06;0.0011384223934980983
8.06125e-06;0.0011838476076297486
8.06150e-06;0.0012297142432577933
8.06175e-06;0.001275580878885838
8.06200e-06;0.0013214475145135716
8.06225e-06;0.0013673141501416163
8.06250e-06;0.0014038434150800156
8.06275e-06;0.0014366396864681102
8.06300e-06;0.001469435957856427
8.06325e-06;0.001502232229244744
8.06350e-06;0.0015350285006328385
8.06375e-06;0.0015678247720211553
8.06400e-06;0.0016006210434094722
8.06425e-06;0.0016334173147975668
8.06450e-06;0.0016662135861858834
8.06475e-06;0.0016990098575742005
8.06500e-06;0.001731806128962295
8.06525e-06;0.0017593825267920365
8.06550e-06;0.001767831525681239
8.06575e-06;0.0017762805245703842
8.06600e-06;0.0017847295234595867
8.06625e-06;0.001793178522348789
8.06650e-06;0.0018016275212379344
8.06675e-06;0.0018100765201271368
8.06700e-06;0.0018185255190163393
8.06725e-06;0.0018269745179054844
8.06750e-06;0.001835423516794687
8.06775e-06;0.0018438725156838893
8.06800e-06;0.0018523215145730347
8.06825e-06;0.0018496381651080084
8.06850e-06;0.0018425042067946077
8.06875e-06;0.001835370248481207
8.06900e-06;0.0018282362901678548
8.06925e-06;0.001821102331854454
8.06950e-06;0.0018139683735410533
8.06975e-06;0.001806834415227701
8.07000e-06;0.0017997004569143004
8.07025e-06;0.001791319591615734
8.07050e-06;0.0017783696333913046
8.07075e-06;0.0017654196751667873
8.07100e-06;0.00175246971694227
8.07125e-06;0.0017395197587178406
8.07150e-06;0.0017265698004933234
8.07175e-06;0.0017136198422688061
8.07200e-06;0.0017006698840443765
8.07225e-06;0.0016877199258198592
8.07250e-06;0.0016760590764312018
8.07275e-06;0.0016649136007094697
8.07300e-06;0.0016537681249876618
8.07325e-06;0.001642622649265854
8.07350e-06;0.0016314771735441219
8.07375e-06;0.001620331697822314
8.07400e-06;0.0016091862221005063
8.07425e-06;0.0015980407463787741
8.07450e-06;0.0015868952706569663
8.07475e-06;0.0015767322142499676
8.07500e-06;0.001568290629992177
8.07525e-06;0.0015598490457343294
8.07550e-06;0.0015514074614764817
8.07575e-06;0.0015429658772186912
8.07600e-06;0.0015345242929608435
8.07625e-06;0.0015260827087029958
8.07650e-06;0.0015176411244452054
8.07675e-06;0.0015091995401873576
8.07700e-06;0.0015007212791599955
8.07725e-06;0.0014892925334656169
8.07750e-06;0.001477863787771316
8.07775e-06;0.0014664350420769373
8.07800e-06;0.0014551448815404886
8.07825e-06;0.0014440316841475118
8.07850e-06;0.0014329184867544595
8.07875e-06;0.0014218052893614074
8.07900e-06;0.0014103960862005345
8.07925e-06;0.001398941119710928
8.07950e-06;0.0013874861532213215
8.07975e-06;0.0013760311867317926
8.08000e-06;0.001364576220242186
8.08025e-06;0.0013531212537525794
8.08050e-06;0.0013416662872630506
8.08075e-06;0.0013305352810996905
8.08100e-06;0.0013196423307298374
8.08125e-06;0.001308749380360058
8.08150e-06;0.0012978564299902047
8.08175e-06;0.0012869634796203516
8.08200e-06;0.0012760705292505722
8.08225e-06;0.0012651775788807191
8.08250e-06;0.0012542846285108658
8.08275e-06;0.0012433916781410864
8.08300e-06;0.0012324987277712333
8.08325e-06;0.00122160577740138
8.08350e-06;0.0012107128270316008
8.08375e-06;0.0012041372817889636
8.08400e-06;0.0011996838010753276
8.08425e-06;0.0011952303203617218
8.08450e-06;0.0011907768396480856
8.08475e-06;0.0011863233589344496
8.08500e-06;0.0011818698782208438
8.08525e-06;0.0011774163975072078
8.08550e-06;0.0011729629167935719
8.08575e-06;0.0011685094360799357
8.08600e-06;0.0011640559553663299
8.08625e-06;0.001159602474652694
8.08650e-06;0.001155148993939058
8.08675e-06;0.0011561718964368402
8.08700e-06;0.0011588818233855029
8.08725e-06;0.0011615917503341657
8.08750e-06;0.0011643016772828099
8.08775e-06;0.0011670116042314725
8.08800e-06;0.0011697215311801351
8.08825e-06;0.0011724314581287795
8.08850e-06;0.0011751413850774421
8.08875e-06;0.0011778513120261048
8.08900e-06;0.001180561238974749
8.08925e-06;0.001184287907982601
8.08950e-06;0.001190841935381037
8.08975e-06;0.0011973959627794282
8.09000e-06;0.0012039499901778641
8.09025e-06;0.0012105040175762998
8.09050e-06;0.001217058044974691
8.09075e-06;0.001223612072373127
8.09100e-06;0.0012301660997715627
8.09125e-06;0.0012367201271699542
8.09150e-06;0.00124327415456839
8.09175e-06;0.0012498281819668256
8.09200e-06;0.00125583589300256
8.09225e-06;0.0012616753088284711
8.09250e-06;0.0012675147246543825
8.09275e-06;0.0012733541404802544
8.09300e-06;0.0012791935563061657
8.09325e-06;0.0012850329721320768
8.09350e-06;0.0012908723879579487
8.09375e-06;0.00129671180378386
8.09400e-06;0.0013025512196097714
8.09425e-06;0.0013083906354356828
8.09450e-06;0.0013098527505158572
8.09475e-06;0.001309966418436089
8.09500e-06;0.001310080086356321
8.09525e-06;0.0013101937542765523
8.09550e-06;0.0013103074221967842
8.09575e-06;0.0013104210901170163
8.09600e-06;0.0013105347580372475
8.09625e-06;0.0013106484259574793
8.09650e-06;0.0013107620938777114
8.09675e-06;0.0013108757617979426
8.09700e-06;0.0013055804385876785
8.09725e-06;0.0012986188513594056
8.09750e-06;0.0012916572641311795
8.09775e-06;0.0012846956769029065
8.09800e-06;0.0012777340896746334
8.09825e-06;0.0012707725024464075
8.09850e-06;0.0012638109152181343
8.09875e-06;0.0012568493279898614
8.09900e-06;0.0012498877407616353
8.09925e-06;0.0012418534507205642
8.09950e-06;0.0012308361865104845
8.09975e-06;0.0012198189223004792
8.10000e-06;0.0012088016580903992
8.10025e-06;0.0011977843938803196
8.10050e-06;0.0011867671296703142
8.10075e-06;0.0011757498654602345
8.10100e-06;0.0011647326012501546
8.10125e-06;0.0011537153370401495
8.10150e-06;0.0011426980728300696
8.10175e-06;0.0011318144770584974
8.10200e-06;0.0011209720584500046
8.10225e-06;0.0011101296398414386
8.10250e-06;0.0010992872212328725
8.10275e-06;0.0010884448026243063
8.10300e-06;0.0010776023840158137
8.10325e-06;0.0010683764215236396
8.10350e-06;0.0010596484156003088
8.10375e-06;0.0010509204096770372
8.10400e-06;0.0010421924037537064
8.10425e-06;0.0010334643978303756
8.10450e-06;0.001024736391907104
8.10475e-06;0.0010135778278863269
8.10500e-06;0.0010016705195239025
8.10525e-06;0.0009897632111615588
8.10550e-06;0.0009752505213297078
8.10575e-06;0.0009599352320310144
8.10600e-06;0.0009446199427324248
8.10625e-06;0.0009262365373713425
8.10650e-06;0.0009069079850730947
8.10675e-06;0.0008875794327749778
8.10700e-06;0.0008642699627288033
8.10725e-06;0.0008397341530852367
8.10750e-06;0.0008151983434418363
8.10775e-06;0.0007877368010337293
8.10800e-06;0.0007593739735029777
8.10825e-06;0.0007310111459724182
8.10850e-06;0.0006996136956064055
8.10875e-06;0.0006672814160422135
8.10900e-06;0.0006349491364782407
8.10925e-06;0.0006002514014622165
8.10950e-06;0.0005648249772668474
8.10975e-06;0.0005293985530717185
8.11000e-06;0.0004927183663090141
8.11025e-06;0.0004556519523545816
8.11050e-06;0.00041858553840040024
8.11075e-06;0.0003813514379285263
8.11100e-06;0.0003436510344468044
8.11125e-06;0.0003059506309650825
8.11150e-06;0.00026825022748361613
8.11175e-06;0.00023144332777404235
8.11200e-06;0.00019491167591580198
8.11225e-06;0.00015933984308451544
8.11250e-06;0.00012478102296339594
8.11275e-06;9.127739532805767e-05
8.11300e-06;5.90435521651251e-05
8.11325e-06;2.831790269684145e-05
8.11350e-06;-6.596365135107577e-07
8.11375e-06;-2.7649240432362654e-05
8.11400e-06;-5.2469711295144294e-05
8.11425e-06;-7.523452260582898e-05
8.11450e-06;-9.63437817224468e-05
8.11475e-06;-0.00011604847928644946
8.11500e-06;-0.00013432252465931036
8.11525e-06;-0.00015105692715369903
8.11550e-06;-0.00016613727961232322
8.11575e-06;-0.00017944923050180586
8.11600e-06;-0.00019091517969195882
8.11625e-06;-0.0002006420905600795
8.11650e-06;-0.0002089164742018856
8.11675e-06;-0.00021593139242862303
8.11700e-06;-0.00022170635932808954
8.11725e-06;-0.00022620894772969942
8.11750e-06;-0.00022940335306786378
8.11775e-06;-0.00023125381100569658
8.11800e-06;-0.00023174757368549522
8.11825e-06;-0.00023061208960287587
8.11850e-06;-0.00022907323184342846
8.11875e-06;-0.0002261918545180411
8.11900e-06;-0.00022289690800863883
8.11925e-06;-0.00021835578316873724
8.11950e-06;-0.00021343076749523023
8.11975e-06;-0.0002073077830459515
8.12000e-06;-0.00020081575893303704
8.12025e-06;-0.00019337796092157053
8.12050e-06;-0.00018564881301143008
8.12075e-06;-0.00017729164484458457
8.12100e-06;-0.00016874101221597235
8.12125e-06;-0.00016019037958736013
8.12150e-06;-0.00015119792709136423
8.12175e-06;-0.00014206937000009584
8.12200e-06;-0.00013294081290882745
8.12225e-06;-0.000123907110030919
8.12250e-06;-0.00011490262741952606
8.12275e-06;-0.00010589814480813313
8.12300e-06;-9.750101062070931e-05
8.12325e-06;-8.929097284397463e-05
8.12350e-06;-8.160128898718593e-05
8.12375e-06;-7.44834442165818e-05
8.12400e-06;-6.793707051082242e-05
8.12425e-06;-6.193313202765413e-05
8.12450e-06;-5.636759673932404e-05
8.12475e-06;-5.11752099640558e-05
8.12500e-06;-4.6362959068004295e-05
8.12525e-06;-4.1959476877235545e-05
8.12550e-06;-3.7994813953400065e-05
8.12575e-06;-3.449901722026293e-05
8.12600e-06;-3.149253199582913e-05
8.12625e-06;-2.8947499748764085e-05
8.12650e-06;-2.678907981357897e-05
8.12675e-06;-2.496673486177261e-05
8.12700e-06;-2.3475177450682432e-05
8.12725e-06;-2.2322679222399893e-05
8.12750e-06;-2.1518396864140336e-05
8.12775e-06;-2.107148813076676e-05
8.12800e-06;-2.0985093087935597e-05
8.12825e-06;-2.123209183712976e-05
8.12850e-06;-2.175594392861616e-05
8.12875e-06;-2.2515331993227967e-05
8.12900e-06;-2.3497287367980803e-05
8.12925e-06;-2.4697334623855068e-05
8.12950e-06;-2.6111552876478833e-05
8.12975e-06;-2.7736018994084304e-05
8.13000e-06;-2.9563046434657553e-05
8.13025e-06;-3.161158907223517e-05
8.13050e-06;-3.371382604873298e-05
8.13075e-06;-3.595730278070126e-05
8.13100e-06;-3.824428905394901e-05
8.13125e-06;-4.065614764126789e-05
8.13150e-06;-4.310647370596924e-05
8.13175e-06;-4.55567997706872e-05
8.13200e-06;-4.8007125835405155e-05
8.13225e-06;-5.041248524033244e-05
8.13250e-06;-5.2803992463697334e-05
8.13275e-06;-5.519549968706223e-05
8.13300e-06;-5.758700691041092e-05
8.13325e-06;-5.980154969096228e-05
8.13350e-06;-6.186284748197075e-05
8.13375e-06;-6.378184552347585e-05
8.13400e-06;-6.546177400130148e-05
8.13425e-06;-6.643038950390825e-05
8.13450e-06;-6.5912614228996e-05
8.13475e-06;-6.34437217852107e-05
8.13500e-06;-5.8991851913919445e-05
8.13525e-06;-5.2648505653935554e-05
8.13550e-06;-4.4512912093328975e-05
8.13575e-06;-3.468430459097078e-05
8.13600e-06;-2.3212073633980705e-05
8.13625e-06;-9.910435562000258e-06
8.13650e-06;5.596068892827671e-06
8.13675e-06;2.3488461146707344e-05
8.13700e-06;4.367660231905991e-05
8.13725e-06;6.599309108328297e-05
8.13750e-06;9.026569310597422e-05
8.13775e-06;0.00011632219310033645
8.13800e-06;0.00014402158249811692
8.13825e-06;0.00017337019603524915
8.13850e-06;0.00020449314705229017
8.13875e-06;0.00023739374484430345
8.13900e-06;0.00027241953377359356
8.13925e-06;0.0003079717398733173
8.13950e-06;0.0003452470189813965
8.13975e-06;0.0003830530984715068
8.14000e-06;0.00042223745095360725
8.14025e-06;0.00046184638662391357
8.14050e-06;0.0005014553222942198
8.14075e-06;0.0005419557147630683
8.14100e-06;0.0005827307245044541
8.14125e-06;0.0006235057342458399
8.14150e-06;0.0006642807439869494
8.14175e-06;0.0007043950128345964
8.14200e-06;0.0007426718920549695
8.14225e-06;0.0007809487712750831
8.14250e-06;0.0008192256504954563
8.14275e-06;0.0008575025297158294
8.14300e-06;0.0008918555789954755
8.14325e-06;0.000924999874831964
8.14350e-06;0.0009581441706684523
8.14375e-06;0.000987147187696285
8.14400e-06;0.0010148744651800761
8.14425e-06;0.0010382150792430098
8.14450e-06;0.0010602043619291242
8.14475e-06;0.0010771473663526488
8.14500e-06;0.001092535842083664
8.14525e-06;0.0011027507712224826
8.14550e-06;0.0011113719660880079
8.14575e-06;0.0011147403164022168
8.14600e-06;0.0011164905043505688
