Time(s);Current(A)
1.30000e-05;-0.008821156842495835
1.30003e-05;-0.008797263917064504
1.30005e-05;-0.008773370991633335
1.30008e-05;-0.008749478066202004
1.30010e-05;-0.008725585140770672
1.30013e-05;-0.008704182209435356
1.30015e-05;-0.008682926013433189
1.30018e-05;-0.008661669817431024
1.30020e-05;-0.008640413621429003
1.30023e-05;-0.008619157425426837
1.30025e-05;-0.008597901229424672
1.30028e-05;-0.008579950868140047
1.30030e-05;-0.008562195319670325
1.30033e-05;-0.008544439771200603
1.30035e-05;-0.008526684222731
1.30038e-05;-0.008508928674261278
1.30040e-05;-0.008491173125791555
1.30043e-05;-0.008473417577321955
1.30045e-05;-0.008455662028852232
1.30048e-05;-0.008433350261716521
1.30050e-05;-0.008410769996649156
1.30053e-05;-0.008388189731581638
1.30055e-05;-0.00836560946651412
1.30058e-05;-0.008343029201446603
1.30060e-05;-0.00832044893637924
1.30063e-05;-0.008297868671311721
1.30065e-05;-0.008275288406244204
1.30068e-05;-0.008246939042083434
1.30070e-05;-0.008218249704956085
1.30073e-05;-0.008189560367828736
1.30075e-05;-0.008160871030701582
1.30078e-05;-0.008132181693574233
1.30080e-05;-0.008103492356446884
1.30083e-05;-0.00807480301931973
1.30085e-05;-0.008046113682192381
1.30088e-05;-0.008016403614508186
1.30090e-05;-0.007985417142858917
1.30093e-05;-0.007954430671209439
1.30095e-05;-0.00792344419955996
1.30098e-05;-0.007892457727910692
1.30100e-05;-0.007861471256261214
1.30103e-05;-0.007830484784611735
1.30105e-05;-0.007799498312962466
1.30108e-05;-0.007768511841312988
1.30110e-05;-0.0077411795214340174
1.30113e-05;-0.0077140625406918765
1.30115e-05;-0.007686945559949553
1.30118e-05;-0.007659828579207228
1.30120e-05;-0.007632711598465087
1.30123e-05;-0.00760859531872062
1.30125e-05;-0.007588231357966833
1.30128e-05;-0.007567867397213183
1.30130e-05;-0.007547503436459395
1.30133e-05;-0.007527139475705608
1.30135e-05;-0.007506775514951958
1.30138e-05;-0.007493265763258371
1.30140e-05;-0.007480159930053908
1.30143e-05;-0.007467054096849445
1.30145e-05;-0.00745394826364507
1.30148e-05;-0.007440842430440607
1.30150e-05;-0.007427736597236144
1.30153e-05;-0.0074146307640317695
1.30155e-05;-0.007401524930827306
1.30158e-05;-0.007388419097622843
1.30160e-05;-0.007375313264418469
1.30163e-05;-0.007362207431214006
1.30165e-05;-0.007349101598009543
1.30168e-05;-0.0073359957648051685
1.30170e-05;-0.007322889931600705
1.30173e-05;-0.007309784098396242
1.30175e-05;-0.0072966782651918685
1.30178e-05;-0.007288636338564163
1.30180e-05;-0.007280892827913692
1.30183e-05;-0.007273149317263273
1.30185e-05;-0.0072654058066128025
1.30188e-05;-0.007257662295962332
1.30190e-05;-0.007249918785311914
1.30193e-05;-0.007242175274661443
1.30195e-05;-0.007234431764010972
1.30198e-05;-0.007226688253360553
1.30200e-05;-0.007218944742710082
1.30203e-05;-0.0072112012320596115
1.30205e-05;-0.007203457721409194
1.30208e-05;-0.007195714210758723
1.30210e-05;-0.007187970700108252
1.30213e-05;-0.007180227189457833
1.30215e-05;-0.007172483678807362
1.30218e-05;-0.007167932868796609
1.30220e-05;-0.007163570204611167
1.30223e-05;-0.007159207540425695
1.30225e-05;-0.007154844876240223
1.30228e-05;-0.007150482212054752
1.30230e-05;-0.007146119547869309
1.30233e-05;-0.007141756883683838
1.30235e-05;-0.007137394219498366
1.30238e-05;-0.0071419807915381
1.30240e-05;-0.007147094742002983
1.30243e-05;-0.007152208692467866
1.30245e-05;-0.007157322642932715
1.30248e-05;-0.007162436593397598
1.30250e-05;-0.007167550543862481
1.30253e-05;-0.0071726644943273295
1.30255e-05;-0.007177778444792213
1.30258e-05;-0.007195264647996393
1.30260e-05;-0.0072134799479637276
1.30263e-05;-0.007231695247931185
1.30265e-05;-0.007249910547898642
1.30268e-05;-0.007268125847865976
1.30270e-05;-0.007286341147833433
1.30273e-05;-0.00730455644780089
1.30275e-05;-0.0073227717477682246
1.30278e-05;-0.007344978634647837
1.30280e-05;-0.0073721769243332265
1.30283e-05;-0.007399375214018432
1.30285e-05;-0.007426573503703821
1.30288e-05;-0.007453771793389212
1.30290e-05;-0.007480970083074416
1.30293e-05;-0.0075081683727598065
1.30295e-05;-0.007535366662445196
1.30298e-05;-0.007562564952130401
1.30300e-05;-0.007591012974570194
1.30303e-05;-0.007619534643752104
1.30305e-05;-0.0076480563129338215
1.30308e-05;-0.007676577982115732
1.30310e-05;-0.0077050996512976425
1.30313e-05;-0.007731610657815073
1.30315e-05;-0.007755607369269518
1.30318e-05;-0.007779604080724127
1.30320e-05;-0.007803600792178735
1.30323e-05;-0.00782759750363318
1.30325e-05;-0.00785159421508779
1.30328e-05;-0.007869380799422702
1.30330e-05;-0.00788680142101141
1.30333e-05;-0.007904222042600237
1.30335e-05;-0.007921642664189063
1.30338e-05;-0.007939063285777771
1.30340e-05;-0.007956483907366597
1.30343e-05;-0.007973904528955423
1.30345e-05;-0.007991325150544131
1.30348e-05;-0.0080084427864501
1.30350e-05;-0.008025542567411972
1.30353e-05;-0.008042642348373727
1.30355e-05;-0.008059742129335598
1.30358e-05;-0.008076841910297469
1.30360e-05;-0.008093941691259224
1.30363e-05;-0.008111041472221095
1.30365e-05;-0.008128141253182966
1.30368e-05;-0.008146841213511431
1.30370e-05;-0.008165635472398548
1.30373e-05;-0.008184429731285666
1.30375e-05;-0.008203223990172656
1.30378e-05;-0.008222018249059774
1.30380e-05;-0.008240812507946891
1.30383e-05;-0.00825960676683388
1.30385e-05;-0.008278401025721
1.30388e-05;-0.008297195284608117
1.30390e-05;-0.008315989543495106
1.30393e-05;-0.008334783802382223
1.30395e-05;-0.008352122338792093
1.30398e-05;-0.008369375089486845
1.30400e-05;-0.008386627840181479
1.30403e-05;-0.00840388059087623
1.30405e-05;-0.008421133341570982
1.30408e-05;-0.008438386092265618
1.30410e-05;-0.00845563884296037
1.30413e-05;-0.008472891593655121
1.30415e-05;-0.008490144344349757
1.30418e-05;-0.008507397095044509
1.30420e-05;-0.00852464984573926
1.30423e-05;-0.008537926404062061
1.30425e-05;-0.008550968645396976
1.30428e-05;-0.008561236083163436
1.30430e-05;-0.008571340001775405
1.30433e-05;-0.008573057505354986
1.30435e-05;-0.008574280797556746
1.30438e-05;-0.008566876693370147
1.30440e-05;-0.008548188323129298
1.30443e-05;-0.008528864931910273
1.30445e-05;-0.008509541540691381
1.30448e-05;-0.008474545566400827
1.30450e-05;-0.008438626006902199
1.30453e-05;-0.008402706447403815
1.30455e-05;-0.008343248989996013
1.30458e-05;-0.008282404444432952
1.30460e-05;-0.008221559898870303
1.30463e-05;-0.00816071535330724
1.30465e-05;-0.008088658010406938
1.30468e-05;-0.008002579279685253
1.30470e-05;-0.007916500548962984
1.30473e-05;-0.007830421818240717
1.30475e-05;-0.007744343087519031
1.30478e-05;-0.007641156439518454
1.30480e-05;-0.007536961622074766
1.30482e-05;-0.007432766804631783
1.30485e-05;-0.007320933874967143
1.30488e-05;-0.007208650831403777
1.30490e-05;-0.007093280324155182
1.30493e-05;-0.006975876537825486
1.30495e-05;-0.006856805188977273
1.30498e-05;-0.006736683791181491
1.30500e-05;-0.006616220090604093
1.30503e-05;-0.006496126083351734
1.30505e-05;-0.006377113325786524
1.30508e-05;-0.006259883673922268
1.30510e-05;-0.006144994176640132
1.30513e-05;-0.0060328390317404635
1.30515e-05;-0.0059239273497625295
1.30518e-05;-0.005818968158258338
1.30520e-05;-0.005718728008675084
1.30523e-05;-0.005623974414472045
1.30525e-05;-0.005535476104690376
1.30528e-05;-0.005453965826862125
1.30530e-05;-0.005379617923592915
1.30533e-05;-0.005311822428290502
1.30535e-05;-0.005250101865140658
1.30538e-05;-0.005194540618610248
1.30540e-05;-0.0051454042041675025
1.30543e-05;-0.0051029664565640604
1.30545e-05;-0.0050675016243840985
1.30548e-05;-0.005039260675534329
1.30550e-05;-0.005021215458266762
1.30553e-05;-0.00500374733922669
1.30555e-05;-0.0049977876190427754
1.30558e-05;-0.004992506088722114
1.30560e-05;-0.005005048188351164
1.30563e-05;-0.005018640634367125
1.30565e-05;-0.005032233080383087
1.30567e-05;-0.005045825526398956
1.30570e-05;-0.005069412860078471
1.30573e-05;-0.005105498608916579
1.30575e-05;-0.005141584357754687
1.30578e-05;-0.00517767010659255
1.30580e-05;-0.005213755855430659
1.30583e-05;-0.00526293599954023
1.30585e-05;-0.005312887796270251
1.30588e-05;-0.005362839593000611
1.30590e-05;-0.005419351901928616
1.30593e-05;-0.005476250821793719
1.30595e-05;-0.005536233027747718
1.30598e-05;-0.005596396931729165
1.30600e-05;-0.00565817712580765
1.30603e-05;-0.005720052567850597
1.30605e-05;-0.005782215824304856
1.30608e-05;-0.005844396041659925
1.30610e-05;-0.005905289559294263
1.30613e-05;-0.00596610725172309
1.30615e-05;-0.006023640253937196
1.30618e-05;-0.006080979689380478
1.30620e-05;-0.006133334152835086
1.30623e-05;-0.006185394851925094
1.30625e-05;-0.006228950624167689
1.30628e-05;-0.006272005201130876
1.30630e-05;-0.00631505977809377
1.30633e-05;-0.006346712155101724
1.30635e-05;-0.006377692600546308
1.30638e-05;-0.006408673045990682
1.30640e-05;-0.006427894949828028
1.30643e-05;-0.0064464239228908616
1.30645e-05;-0.006464952895953569
1.30648e-05;-0.0064651303472251665
1.30650e-05;-0.006464226343446071
1.30652e-05;-0.006463322339666982
1.30655e-05;-0.006462418335887886
1.30658e-05;-0.006461514332108791
1.30660e-05;-0.006460610328329695
1.30663e-05;-0.006438204601835848
1.30665e-05;-0.0064145317789729315
1.30668e-05;-0.006390858956110014
1.30670e-05;-0.006367186133247257
1.30673e-05;-0.006343513310384341
1.30675e-05;-0.006319840487521424
1.30678e-05;-0.006281389087239998
1.30680e-05;-0.0062420667854945835
1.30683e-05;-0.006202744483749169
1.30685e-05;-0.00616342218200402
1.30688e-05;-0.006124099880258606
1.30690e-05;-0.00607715298118435
1.30693e-05;-0.006029756764643142
1.30695e-05;-0.0059823605481016135
1.30698e-05;-0.005934964331560085
1.30700e-05;-0.005887568115018877
1.30703e-05;-0.0058385050814497436
1.30705e-05;-0.005789343822364804
1.30708e-05;-0.005740515012011956
1.30710e-05;-0.005692302089791789
1.30713e-05;-0.005645051733767972
1.30715e-05;-0.005599115026637156
1.30718e-05;-0.005554821089659357
1.30720e-05;-0.005512490272682163
1.30723e-05;-0.005472442045263226
1.30725e-05;-0.00543499717028608
1.30728e-05;-0.005400505071932944
1.30730e-05;-0.005369745172392339
1.30733e-05;-0.005343936815788978
1.30735e-05;-0.005323856332360842
1.30737e-05;-0.005309621028766398
1.30740e-05;-0.005301166321984154
1.30743e-05;-0.005301081771275035
1.30745e-05;-0.005301471529772513
1.30748e-05;-0.005312537685801561
1.30750e-05;-0.005324233001862978
1.30753e-05;-0.005350726317501652
1.30755e-05;-0.005378091679152313
1.30758e-05;-0.005405457040803159
1.30760e-05;-0.005454658538102751
1.30763e-05;-0.005505146838723918
1.30765e-05;-0.005555635139345427
1.30768e-05;-0.005606123439966937
1.30770e-05;-0.0056566117405881045
1.30773e-05;-0.005729601983132069
1.30775e-05;-0.005803918264957373
1.30778e-05;-0.005878234546782174
1.30780e-05;-0.005952550828607478
1.30783e-05;-0.006026867110432782
1.30785e-05;-0.006112633084887796
1.30788e-05;-0.006199073789650731
1.30790e-05;-0.0062896591098854865
1.30793e-05;-0.006380488672280682
1.30795e-05;-0.006474183626126274
1.30798e-05;-0.006568047437470182
1.30800e-05;-0.006662782167746273
1.30803e-05;-0.006757568221269695
1.30805e-05;-0.006851085824572607
1.30808e-05;-0.006944528678112156
1.30810e-05;-0.007034741370066387
1.30813e-05;-0.00712476370862065
1.30815e-05;-0.00720972785731083
1.30818e-05;-0.007294393926907836
1.30820e-05;-0.00737172589604468
1.30822e-05;-0.007448625666691446
1.30825e-05;-0.007515828576249523
1.30828e-05;-0.007582460049850388
1.30830e-05;-0.007634642023372193
1.30833e-05;-0.007685972487953493
1.30835e-05;-0.007737302952535142
1.30838e-05;-0.007770521997189469
1.30840e-05;-0.0078026737359918425
1.30843e-05;-0.007834825474794435
1.30845e-05;-0.00784773886869214
1.30848e-05;-0.007859518547056708
1.30850e-05;-0.007871298225421356
1.30853e-05;-0.007856610517976719
1.30855e-05;-0.00784036308766851
1.30858e-05;-0.007824115657360192
1.30860e-05;-0.007807868227051873
1.30863e-05;-0.007791620796743665
1.30865e-05;-0.007761437173648076
1.30868e-05;-0.007713826608982657
1.30870e-05;-0.00766621604431756
1.30873e-05;-0.007618605479652141
1.30875e-05;-0.007570994914986721
1.30878e-05;-0.007523384350321624
1.30880e-05;-0.007458291457126346
1.30883e-05;-0.007392168330430792
1.30885e-05;-0.007326045203735687
1.30888e-05;-0.00725144478096352
1.30890e-05;-0.007176344791191677
1.30893e-05;-0.007101244801420343
1.30895e-05;-0.00702181946016013
1.30898e-05;-0.006942139225966328
1.30900e-05;-0.006861060816187749
1.30903e-05;-0.006779900011930952
1.30905e-05;-0.00669877020983763
1.30907e-05;-0.006618240730368627
1.30910e-05;-0.0065388071900077055
1.30913e-05;-0.006461007810685334
1.30915e-05;-0.006385394684492356
1.30918e-05;-0.006312506479473309
1.30920e-05;-0.0062479013118037045
1.30923e-05;-0.006183775228974638
1.30925e-05;-0.0061196491461460055
1.30928e-05;-0.0060610664116121865
1.30930e-05;-0.006009415527716176
1.30933e-05;-0.005957764643820516
1.30935e-05;-0.005906113759924506
1.30938e-05;-0.005859229152410075
1.30940e-05;-0.005812625421530666
1.30943e-05;-0.005766021690650942
1.30945e-05;-0.005719417959771218
1.30948e-05;-0.0056785757940806866
1.30950e-05;-0.0056380731573872685
1.30953e-05;-0.0055975705206938505
1.30955e-05;-0.005557067884000707
1.30958e-05;-0.005518705459308787
1.30960e-05;-0.005480469157295588
1.30963e-05;-0.0054422328552826485
1.30965e-05;-0.00540399655326945
1.30968e-05;-0.005365760251256252
1.30970e-05;-0.005327523949243312
1.30973e-05;-0.0052915708869432
1.30975e-05;-0.005255752375943918
1.30978e-05;-0.005219933864944878
1.30980e-05;-0.005184115353945596
1.30983e-05;-0.0051482968429463144
1.30985e-05;-0.0051124783319472745
1.30988e-05;-0.00507867620752346
1.30990e-05;-0.005044992908746913
1.30992e-05;-0.005011309609970594
1.30995e-05;-0.004978559894074176
1.30998e-05;-0.004945865194210584
1.31000e-05;-0.004913170494346991
1.31003e-05;-0.004881930844014086
1.31005e-05;-0.00485077693973998
1.31008e-05;-0.004821589144301026
1.31010e-05;-0.00479251721164267
1.31013e-05;-0.004765215040783942
1.31015e-05;-0.004738017161976159
1.31018e-05;-0.004712658305120805
1.31020e-05;-0.004687407821816543
1.31023e-05;-0.004663952385764569
1.31025e-05;-0.0046420310300898816
1.31028e-05;-0.00462180199879904
1.31030e-05;-0.004603522149155646
1.31033e-05;-0.004587495786433657
1.31035e-05;-0.00457508033700316
1.31038e-05;-0.004562870232388664
1.31040e-05;-0.004555369158519134
1.31043e-05;-0.004548145587799748
1.31045e-05;-0.004545666007711785
1.31048e-05;-0.004543465990959906
1.31050e-05;-0.004547412684476912
1.31053e-05;-0.004551721603588808
1.31055e-05;-0.004556030522700677
1.31058e-05;-0.004570346297883542
1.31060e-05;-0.004585251777027508
1.31063e-05;-0.004600157256171373
1.31065e-05;-0.0046150627353153395
1.31068e-05;-0.004629968214459306
1.31070e-05;-0.004649884380077999
1.31073e-05;-0.0046760663129554415
1.31075e-05;-0.0047022482458328844
1.31077e-05;-0.0047284301787101505
1.31080e-05;-0.0047546121115875925
1.31083e-05;-0.0047807940444650355
1.31085e-05;-0.004813882743660161
1.31088e-05;-0.004847378458547911
1.31090e-05;-0.0048808741734358875
1.31093e-05;-0.004914369888323864
1.31095e-05;-0.0049478656032116135
1.31098e-05;-0.00498136131809959
1.31100e-05;-0.005016105034972323
1.31103e-05;-0.005050922296593443
1.31105e-05;-0.005085739558214799
1.31108e-05;-0.005120556819836155
1.31110e-05;-0.005155374081457275
1.31113e-05;-0.005190191343078631
1.31115e-05;-0.005221562820502639
1.31118e-05;-0.005252731237886654
1.31120e-05;-0.005283899655270882
1.31123e-05;-0.0053102056434987275
1.31125e-05;-0.005336225088808588
1.31128e-05;-0.005362244534118624
1.31130e-05;-0.0053852807357837205
1.31133e-05;-0.005408141134920506
1.31135e-05;-0.005431001534057447
1.31138e-05;-0.005456352953364481
1.31140e-05;-0.005481851168473419
1.31143e-05;-0.0055073493835825285
1.31145e-05;-0.00553478282751507
1.31148e-05;-0.0055623303144691485
1.31150e-05;-0.005589877801423414
1.31153e-05;-0.005617425288377679
1.31155e-05;-0.005647528790085267
1.31158e-05;-0.005680828539181501
1.31160e-05;-0.0057141282882777365
1.31162e-05;-0.005747428037373745
1.31165e-05;-0.00578072778646998
1.31168e-05;-0.005819900913757846
1.31170e-05;-0.005859420159183706
1.31173e-05;-0.005898939404609298
1.31175e-05;-0.005938458650035158
1.31178e-05;-0.0059779778954610185
1.31180e-05;-0.006017497140886611
1.31183e-05;-0.006057016386312471
1.31185e-05;-0.006098303276783282
1.31188e-05;-0.0061418005734540605
1.31190e-05;-0.006185297870125133
1.31193e-05;-0.006228795166796206
1.31195e-05;-0.006272292463466984
1.31198e-05;-0.006315789760138056
1.31200e-05;-0.0063592870568091285
1.31203e-05;-0.006402784353479907
1.31205e-05;-0.0064461141427943885
1.31208e-05;-0.006489434060901448
1.31210e-05;-0.00652428597290742
1.31213e-05;-0.006556771551484227
1.31215e-05;-0.006577946786547787
1.31218e-05;-0.006624929904304325
1.31220e-05;-0.006659863049225735
1.31223e-05;-0.006692428419216579
1.31225e-05;-0.0067218664903355594
1.31228e-05;-0.006751077422888374
1.31230e-05;-0.006780288355441188
1.31233e-05;-0.006804161611064858
1.31235e-05;-0.006827647186350081
1.31238e-05;-0.006851132761635304
1.31240e-05;-0.006874618336920367
1.31243e-05;-0.0068959531401186006
1.31245e-05;-0.006914463383249655
1.31247e-05;-0.006932973626380585
1.31250e-05;-0.006951483869511639
1.31253e-05;-0.006969994112642694
1.31255e-05;-0.006982415380654214
1.31258e-05;-0.006994394400854803
1.31260e-05;-0.007006373421055472
1.31263e-05;-0.007018352441256142
1.31265e-05;-0.007030331461456731
1.31268e-05;-0.007042310481657401
1.31270e-05;-0.007054289501858071
1.31273e-05;-0.007066268522058659
1.31275e-05;-0.007078247542259329
1.31278e-05;-0.0070902265624599985
1.31280e-05;-0.007102205582660587
1.31283e-05;-0.0071141846028612565
1.31285e-05;-0.007126163623061926
1.31288e-05;-0.007138142643262515
1.31290e-05;-0.007150121663463185
1.31293e-05;-0.007162100683663855
1.31295e-05;-0.007168166500154977
1.31298e-05;-0.007173802835272719
1.31300e-05;-0.007179439170390461
1.31303e-05;-0.007185075505508166
1.31305e-05;-0.007190711840625908
1.31308e-05;-0.0071963481757436505
1.31310e-05;-0.007201984510861355
1.31313e-05;-0.007207620845979097
1.31315e-05;-0.00721325718109684
1.31318e-05;-0.007218893516214544
1.31320e-05;-0.007224529851332286
1.31323e-05;-0.007230166186450029
1.31325e-05;-0.007235802521567733
1.31328e-05;-0.007241438856685475
1.31330e-05;-0.007247075191803218
1.31332e-05;-0.007252711526920922
1.31335e-05;-0.007254817379520326
1.31338e-05;-0.00725666680995735
1.31340e-05;-0.007258516240394374
1.31343e-05;-0.007260365670831386
1.31345e-05;-0.00726221510126841
1.31348e-05;-0.007264064531705435
1.31350e-05;-0.007265913962142446
1.31353e-05;-0.007267763392579471
1.31355e-05;-0.007269612823016494
1.31358e-05;-0.007271462253453507
1.31360e-05;-0.00727331168389053
1.31363e-05;-0.007275161114327555
1.31365e-05;-0.007277010544764566
1.31368e-05;-0.007278859975201591
1.31370e-05;-0.007280709405638615
1.31373e-05;-0.007282558836075627
1.31375e-05;-0.007284408266512651
1.31378e-05;-0.007286257696949675
1.31380e-05;-0.007287491064222873
1.31383e-05;-0.007287915369753692
1.31385e-05;-0.007288339675284511
1.31388e-05;-0.007288763980815327
1.31390e-05;-0.007289188286346146
1.31393e-05;-0.007289612591876965
1.31395e-05;-0.0072900368974077815
1.31398e-05;-0.007290461202938601
1.31400e-05;-0.00729088550846942
1.31403e-05;-0.007291309814000235
1.31405e-05;-0.0072917341195310546
1.31408e-05;-0.007292158425061874
1.31410e-05;-0.007292582730592689
1.31413e-05;-0.0072930070361235085
1.31415e-05;-0.007293431341654328
1.31418e-05;-0.007293855647185144
1.31420e-05;-0.007294279952715963
1.31423e-05;-0.007294704258246782
1.31425e-05;-0.0072951285637776015
1.31428e-05;-0.007292148058590278
1.31430e-05;-0.007288920258897703
1.31433e-05;-0.007285692459205129
1.31435e-05;-0.007282464659512575
1.31438e-05;-0.0072792368598200005
1.31440e-05;-0.007276009060127426
1.31443e-05;-0.007272781260434873
1.31445e-05;-0.007269553460742298
1.31448e-05;-0.007262675747981616
1.31450e-05;-0.007251004687395008
1.31453e-05;-0.007239333626808322
1.31455e-05;-0.007227662566221636
1.31458e-05;-0.007215991505635028
1.31460e-05;-0.007204320445048342
1.31463e-05;-0.007192649384461656
1.31465e-05;-0.007180978323875049
