Time(s);Current(A)
5.00000e-06;-0.007324237731904616
5.00025e-06;-0.007340704818875418
5.00050e-06;-0.0073571719058462765
5.00075e-06;-0.007373638992817079
5.00100e-06;-0.007390106079787881
5.00125e-06;-0.007406573166758739
5.00150e-06;-0.007423040253729541
5.00175e-06;-0.007439507340700344
5.00200e-06;-0.0074426975751641245
5.00225e-06;-0.007445434856387263
5.00250e-06;-0.0074481721376104025
5.00275e-06;-0.007450909418833551
5.00300e-06;-0.007453646700056689
5.00325e-06;-0.007456383981279828
5.00350e-06;-0.007459121262502976
5.00375e-06;-0.007454868889149982
5.00400e-06;-0.007442639334221677
5.00425e-06;-0.007430409779293414
5.00450e-06;-0.007418180224365152
5.00475e-06;-0.007405950669436848
5.00500e-06;-0.007393721114508585
5.00525e-06;-0.007381491559580322
5.00550e-06;-0.007358278799167679
5.00575e-06;-0.007334691335600782
5.00600e-06;-0.007311103872033886
5.00625e-06;-0.00728751640846691
5.00650e-06;-0.0072639289449000135
5.00675e-06;-0.007240341481333117
5.00700e-06;-0.007213724292037807
5.00725e-06;-0.007183649324966393
5.00750e-06;-0.007153574357894979
5.00775e-06;-0.007123499390823462
5.00800e-06;-0.007093424423752048
5.00825e-06;-0.007063349456680533
5.00850e-06;-0.007032973948498511
5.00875e-06;-0.007002255437528038
5.00900e-06;-0.0069715369265574605
5.00925e-06;-0.006940818415586987
5.00950e-06;-0.006910099904616514
5.00975e-06;-0.0068793813936459365
5.01000e-06;-0.006850252829238322
5.01025e-06;-0.006822938845549571
5.01050e-06;-0.006795624861860726
5.01075e-06;-0.006772599446142886
5.01100e-06;-0.006754468504826402
5.01125e-06;-0.0067363375635098545
5.01150e-06;-0.006718206622193369
5.01175e-06;-0.006700075680876883
5.01200e-06;-0.006681944739560337
5.01225e-06;-0.006663813798243851
5.01250e-06;-0.006645682856927304
5.01275e-06;-0.006627551915610819
5.01300e-06;-0.006609420974294334
5.01325e-06;-0.006596545435757567
5.01350e-06;-0.006589667804808546
5.01375e-06;-0.0065827901738595256
5.01400e-06;-0.006575912542910482
5.01425e-06;-0.006569034911961462
5.01450e-06;-0.0065621572810124415
5.01475e-06;-0.006555279650063398
5.01500e-06;-0.006548402019114378
5.01525e-06;-0.006541524388165357
5.01550e-06;-0.006534646757216313
5.01575e-06;-0.006531117912860503
5.01600e-06;-0.006531410985369641
5.01625e-06;-0.006531704057878781
5.01650e-06;-0.006531997130387919
5.01675e-06;-0.006532290202897058
5.01700e-06;-0.006532583275406197
5.01725e-06;-0.0065328763479153345
5.01750e-06;-0.006533169420424474
5.01775e-06;-0.006533462492933613
5.01800e-06;-0.00653375556544275
5.01825e-06;-0.00653664932731683
5.01850e-06;-0.006539631814336569
5.01875e-06;-0.006542614301356308
5.01900e-06;-0.006545596788376058
5.01925e-06;-0.006548579275395797
5.01950e-06;-0.006551561762415536
5.01975e-06;-0.006554544249435285
5.02000e-06;-0.006557526736455024
5.02025e-06;-0.006560509223474763
5.02050e-06;-0.006563278408486059
5.02075e-06;-0.006565804155308416
5.02100e-06;-0.006568030230893103
5.02125e-06;-0.00656991429646155
5.02150e-06;-0.006570630448835546
5.02175e-06;-0.006570013680460505
5.02200e-06;-0.006566784284868999
5.02225e-06;-0.006560573139398459
5.02250e-06;-0.006554361993927898
5.02275e-06;-0.006545274758465508
5.02300e-06;-0.006532905087249894
5.02325e-06;-0.006520535416034238
5.02350e-06;-0.00650493257197314
5.02375e-06;-0.006485639759178693
5.02400e-06;-0.006466346946384181
5.02425e-06;-0.006442804779974923
5.02450e-06;-0.006414412893886351
5.02475e-06;-0.006386021007797682
5.02500e-06;-0.00635762912170911
5.02525e-06;-0.00632923723562044
5.02550e-06;-0.006292151478976727
5.02575e-06;-0.006254769122154223
5.02600e-06;-0.006217386765331591
5.02625e-06;-0.006180004408509086
5.02650e-06;-0.006140095070712711
5.02675e-06;-0.006097301729731559
5.02700e-06;-0.006053554681774561
5.02725e-06;-0.006008719183218067
5.02750e-06;-0.005963349038988066
5.02775e-06;-0.005917043597134694
5.02800e-06;-0.005870127456675966
5.02825e-06;-0.005822826681209582
5.02850e-06;-0.005775417563897873
5.02875e-06;-0.005728177421399672
5.02900e-06;-0.0056813828872442846
5.02925e-06;-0.0056352977028856005
5.02950e-06;-0.00559013384076741
5.02975e-06;-0.005546052289612352
5.03000e-06;-0.0055032453040929795
5.03025e-06;-0.005461978921255009
5.03050e-06;-0.005422550698661313
5.03075e-06;-0.005385258411342579
5.03100e-06;-0.005350399647586088
5.03125e-06;-0.0053182262658990065
5.03150e-06;-0.005288792361976017
5.03175e-06;-0.005261908044559535
5.03200e-06;-0.0052373936095066785
5.03225e-06;-0.005215260911839086
5.03250e-06;-0.005195614571722325
5.03275e-06;-0.005178561473784368
5.03300e-06;-0.005164208036991693
5.03325e-06;-0.005152632161246291
5.03350e-06;-0.005144347146809193
5.03375e-06;-0.005138113571986627
5.03400e-06;-0.005134554965276961
5.03425e-06;-0.005134049257118945
5.03450e-06;-0.005133543548960927
5.03475e-06;-0.005136872820764288
5.03500e-06;-0.005144578894187512
5.03525e-06;-0.0051522849676107615
5.03550e-06;-0.005159991041033985
5.03575e-06;-0.005167697114457209
5.03600e-06;-0.005182965507369152
5.03625e-06;-0.005198491896451431
5.03650e-06;-0.0052140182855337095
5.03675e-06;-0.005229544674616041
5.03700e-06;-0.005247292139345133
5.03725e-06;-0.005267574482375109
5.03750e-06;-0.005287856825405154
5.03775e-06;-0.005309169967903079
5.03800e-06;-0.00533165954543497
5.03825e-06;-0.005354149122966784
5.03850e-06;-0.0053770083240208995
5.03875e-06;-0.005400289370520787
5.03900e-06;-0.005423570417020595
5.03925e-06;-0.00544671344367603
5.03950e-06;-0.005469698950478905
5.03975e-06;-0.005492151660088341
5.04000e-06;-0.005513996296737235
5.04025e-06;-0.005534685887062518
5.04050e-06;-0.005554057241394092
5.04075e-06;-0.005573428595725664
5.04100e-06;-0.005591271329538234
5.04125e-06;-0.005607369473071106
5.04150e-06;-0.005623338875404601
5.04175e-06;-0.0056391613474554405
5.04200e-06;-0.005656293739463075
5.04225e-06;-0.005674921122278022
5.04250e-06;-0.005694795178035993
5.04275e-06;-0.005716092041790583
5.04300e-06;-0.005737388905545246
5.04325e-06;-0.005760068069936648
5.04350e-06;-0.005784324832053795
5.04375e-06;-0.005808581594171025
5.04400e-06;-0.005836457861466602
5.04425e-06;-0.005868465012439484
5.04450e-06;-0.005900472163412476
5.04475e-06;-0.005932479314385359
5.04500e-06;-0.005964486465358241
5.04525e-06;-0.005996493616331233
5.04550e-06;-0.006032211790367857
5.04575e-06;-0.0060721652959882175
5.04600e-06;-0.006112118801608713
5.04625e-06;-0.0061520723072290735
5.04650e-06;-0.006192025812849569
5.04675e-06;-0.00623197931846993
5.04700e-06;-0.006273873151024707
5.04725e-06;-0.006317981447841034
5.04750e-06;-0.0063620897446572105
5.04775e-06;-0.006406198041473388
5.04800e-06;-0.006450306338289714
5.04825e-06;-0.006494414635105892
5.04850e-06;-0.006538522931922069
5.04875e-06;-0.0065802538584512705
5.04900e-06;-0.006621903678591034
5.04925e-06;-0.006663553498730799
5.04950e-06;-0.006705203318870704
5.04975e-06;-0.006746853139010468
5.05000e-06;-0.0067885029591502315
5.05025e-06;-0.006824290396808396
5.05050e-06;-0.006853387190605677
5.05075e-06;-0.0068824839844030565
5.05100e-06;-0.006911580778200338
5.05125e-06;-0.006940677571997619
5.05150e-06;-0.006969774365794998
5.05175e-06;-0.00699887115959228
5.05200e-06;-0.00702796795338956
5.05225e-06;-0.00705706474718694
5.05250e-06;-0.007081460554155365
5.05275e-06;-0.007100491199645058
5.05300e-06;-0.007119521845134815
5.05325e-06;-0.007138552490624507
5.05350e-06;-0.0071575831361142
5.05375e-06;-0.007176613781603958
5.05400e-06;-0.0071956444270936505
5.05425e-06;-0.007214675072583343
5.05450e-06;-0.0072337057180731
5.05475e-06;-0.007250510123044821
5.05500e-06;-0.007264773755131285
5.05525e-06;-0.007279037387217701
5.05550e-06;-0.007293301019304117
5.05575e-06;-0.007307564651390581
5.05600e-06;-0.007321828283476998
5.05625e-06;-0.007336091915563414
5.05650e-06;-0.007350355547649878
5.05675e-06;-0.007364619179736295
5.05700e-06;-0.00737888281182271
5.05725e-06;-0.007393146443909175
5.05750e-06;-0.007407410075995591
5.05775e-06;-0.007419762615291665
5.05800e-06;-0.007429934054790362
5.05825e-06;-0.007440105494289025
5.05850e-06;-0.007450276933787688
5.05875e-06;-0.007460448373286385
5.05900e-06;-0.007470619812785048
5.05925e-06;-0.007480791252283746
5.05950e-06;-0.007490962691782409
5.05975e-06;-0.0075011341312810715
5.06000e-06;-0.007511305570779769
5.06025e-06;-0.007521477010278432
5.06050e-06;-0.007531648449777095
5.06075e-06;-0.0075401331330996
5.06100e-06;-0.007546692748433476
5.06125e-06;-0.00755325236376735
5.06150e-06;-0.007557268470540043
5.06175e-06;-0.007558381711457567
5.06200e-06;-0.007559494952375091
5.06225e-06;-0.007556548641125337
5.06250e-06;-0.007548969227572258
5.06275e-06;-0.007541389814019178
5.06300e-06;-0.007530005866057496
5.06325e-06;-0.007514279863503398
5.06350e-06;-0.007498553860949246
5.06375e-06;-0.007476491558710358
5.06400e-06;-0.0074471977384483945
5.06425e-06;-0.007417903918186331
5.06450e-06;-0.007388610097924367
5.06475e-06;-0.007359316277662402
5.06500e-06;-0.007330022457400338
5.06525e-06;-0.007286233270383715
5.06550e-06;-0.007241949559286272
5.06575e-06;-0.007197665848188678
5.06600e-06;-0.007153382137091235
5.06625e-06;-0.007109098425993791
5.06650e-06;-0.0070606488668879
5.06675e-06;-0.007007444891726984
5.06700e-06;-0.006954240916566067
5.06725e-06;-0.006899622346733843
5.06750e-06;-0.006843389322509204
5.06775e-06;-0.006786345794145505
5.06800e-06;-0.00672837725030307
5.06825e-06;-0.006670101315100213
5.06850e-06;-0.00661147455902797
5.06875e-06;-0.006553016340843671
5.06900e-06;-0.006495075804759701
5.06925e-06;-0.006437977166747175
5.06950e-06;-0.006381990604516862
5.06975e-06;-0.006327331154225024
5.07000e-06;-0.006274251145639514
5.07025e-06;-0.006223664994368287
5.07050e-06;-0.006174865088442298
5.07075e-06;-0.00612948197104908
5.07100e-06;-0.00608799838004884
5.07125e-06;-0.006046514789048602
5.07150e-06;-0.006007844004783015
5.07175e-06;-0.0059723834320932435
5.07200e-06;-0.005936922859403352
5.07225e-06;-0.005901325515004773
5.07250e-06;-0.0058655720752309225
5.07275e-06;-0.00583769423166473
5.07300e-06;-0.005817739373547444
5.07325e-06;-0.0057836636106201045
5.07350e-06;-0.00575172097351945
5.07375e-06;-0.005728643313638176
5.07400e-06;-0.005698008838869038
5.07425e-06;-0.005667374364099796
5.07450e-06;-0.005636739889330658
5.07475e-06;-0.005606105414561521
5.07500e-06;-0.005575470939792279
5.07525e-06;-0.005548298056786494
5.07550e-06;-0.005521127051851656
5.07575e-06;-0.005493956046916725
5.07600e-06;-0.005466785041981887
5.07625e-06;-0.005439614037046956
5.07650e-06;-0.00541257664390364
5.07675e-06;-0.005385858085780926
5.07700e-06;-0.005359139527658121
5.07725e-06;-0.005332782815102403
5.07750e-06;-0.0053072895670470245
5.07775e-06;-0.00528179631899156
5.07800e-06;-0.005256425710639058
5.07825e-06;-0.005231347754841744
5.07850e-06;-0.005206557203618086
5.07875e-06;-0.005182452479911244
5.07900e-06;-0.00515864705575213
5.07925e-06;-0.005135804194392148
5.07950e-06;-0.005113773851888047
5.07975e-06;-0.005092427458042149
5.08000e-06;-0.005071655778617616
5.08025e-06;-0.005051624883952852
5.08050e-06;-0.005032542926082101
5.08075e-06;-0.005014472338380324
5.08100e-06;-0.004997528808399665
5.08125e-06;-0.004981888028471267
5.08150e-06;-0.004967799115487426
5.08175e-06;-0.004955532361472491
5.08200e-06;-0.004945249869161524
5.08225e-06;-0.004937054649476776
5.08250e-06;-0.004930985235609814
5.08275e-06;-0.004927292570577428
5.08300e-06;-0.004925771255151794
5.08325e-06;-0.00492550173103475
5.08350e-06;-0.004928219330307487
5.08375e-06;-0.004932569680922721
5.08400e-06;-0.0049408162318800835
5.08425e-06;-0.0049490627828374725
5.08450e-06;-0.004959653876713645
5.08475e-06;-0.0049758397042669175
5.08500e-06;-0.004992025531820244
5.08525e-06;-0.0050082113593735164
5.08550e-06;-0.005024397186926844
5.08575e-06;-0.005042968362431129
5.08600e-06;-0.005067231643806298
5.08625e-06;-0.0050914949251815505
5.08650e-06;-0.00511575820655672
5.08675e-06;-0.00514002148793189
5.08700e-06;-0.005165564109283895
5.08725e-06;-0.0051941595928353184
5.08750e-06;-0.0052227550763867415
5.08775e-06;-0.005251860049864516
5.08800e-06;-0.005282180808485414
5.08825e-06;-0.005312501567106311
5.08850e-06;-0.00534287948577572
5.08875e-06;-0.005373393804271709
5.08900e-06;-0.005403908122767698
5.08925e-06;-0.0054341095965722225
5.08950e-06;-0.005463564535639586
5.08975e-06;-0.005492530749417448
5.09000e-06;-0.00552033072826972
5.09025e-06;-0.0055474126769870305
5.09050e-06;-0.005572781205427711
5.09075e-06;-0.0055971823218220525
5.09100e-06;-0.005619274923106437
5.09125e-06;-0.005639869972376801
5.09150e-06;-0.00565689144463219
5.09175e-06;-0.005673912916887579
5.09200e-06;-0.005689005615673081
5.09225e-06;-0.005699495722712691
5.09250e-06;-0.0057099858297523015
5.09275e-06;-0.005718436418593062
5.09300e-06;-0.005722020147860182
5.09325e-06;-0.005725603877127302
5.09350e-06;-0.005726484875784577
5.09375e-06;-0.005720916404978693
5.09400e-06;-0.005715347934172791
5.09425e-06;-0.005709779463366908
5.09450e-06;-0.005704210992561024
5.09475e-06;-0.0056956495262770615
5.09500e-06;-0.005679945937552925
5.09525e-06;-0.005664242348828789
5.09550e-06;-0.005648538760104599
5.09575e-06;-0.005632835171380463
5.09600e-06;-0.00561491883941033
5.09625e-06;-0.00559172228456401
5.09650e-06;-0.005568525729717767
5.09675e-06;-0.005545329174871524
5.09700e-06;-0.005522132620025203
5.09725e-06;-0.005495406185500894
5.09750e-06;-0.005467771257704911
5.09775e-06;-0.005440136329908835
5.09800e-06;-0.005412501402112853
5.09825e-06;-0.005384466934593158
5.09850e-06;-0.005355438212094367
5.09875e-06;-0.00532631835554675
5.09900e-06;-0.005297267774342506
5.09925e-06;-0.0052684494812088685
5.09950e-06;-0.005240032773813086
5.09975e-06;-0.005212199491400696
5.10000e-06;-0.005185138554940384
5.10025e-06;-0.005159038282225114
5.10050e-06;-0.005134085372154538
5.10075e-06;-0.00511046491416935
5.10100e-06;-0.005088363225903222
5.10125e-06;-0.005067942400657061
5.10150e-06;-0.005049255169318931
5.10175e-06;-0.005032438088460938
5.10200e-06;-0.005017258461817229
5.10225e-06;-0.005003027476538504
5.10250e-06;-0.004991060214285299
5.10275e-06;-0.004979850448728342
5.10300e-06;-0.0049715006316295085
5.10325e-06;-0.004965662015188795
5.10350e-06;-0.004959823398748102
5.10375e-06;-0.004955958956282741
5.10400e-06;-0.004956805443837381
5.10425e-06;-0.004957651931392018
5.10450e-06;-0.0049584984189466556
5.10475e-06;-0.004959344906501295
5.10500e-06;-0.004960191394055932
5.10525e-06;-0.004966938214865849
5.10550e-06;-0.004975203618049898
5.10575e-06;-0.004983469021233919
5.10600e-06;-0.00499173442441794
5.10625e-06;-0.004999999827601989
5.10650e-06;-0.00500982035747489
5.10675e-06;-0.005023351853602383
5.10700e-06;-0.005036883349729829
5.10725e-06;-0.005050414845857275
5.10750e-06;-0.0050639463419847675
5.10775e-06;-0.0050774778381122146
5.10800e-06;-0.005091647583248699
5.10825e-06;-0.0051073403686310226
5.10850e-06;-0.005123033154013293
5.10875e-06;-0.005138725939395564
5.10900e-06;-0.005154418724777888
5.10925e-06;-0.005170111510160159
5.10950e-06;-0.005185569513050017
5.10975e-06;-0.005200467259394474
5.11000e-06;-0.005215365005738881
5.11025e-06;-0.005228598491664477
5.11050e-06;-0.005237860587801317
5.11075e-06;-0.005247122683938125
5.11100e-06;-0.005256384780074965
5.11125e-06;-0.005265646876211773
5.11150e-06;-0.005274908972348582
5.11175e-06;-0.005284171068485421
5.11200e-06;-0.00529343316462223
5.11225e-06;-0.005302695260759038
5.11250e-06;-0.005311957356895878
5.11275e-06;-0.005321219453032686
5.11300e-06;-0.005330481549169495
5.11325e-06;-0.0053397436453063345
5.11350e-06;-0.005349005741443143
5.11375e-06;-0.0053582678375799515
5.11400e-06;-0.0053661664717500005
5.11425e-06;-0.005370811505179067
5.11450e-06;-0.005375456538608134
5.11475e-06;-0.005380101572037215
5.11500e-06;-0.005384746605466281
5.11525e-06;-0.005389391638895364
5.11550e-06;-0.00539403667232443
5.11575e-06;-0.005398681705753496
5.11600e-06;-0.005403326739182579
5.11625e-06;-0.005407971772611645
5.11650e-06;-0.005412616806040711
5.11675e-06;-0.005417261839469794
5.11700e-06;-0.00542190687289886
5.11725e-06;-0.005426551906327926
5.11750e-06;-0.005431196939757008
5.11775e-06;-0.005435371033598951
5.11800e-06;-0.0054384213341655396
5.11825e-06;-0.005441471634732139
5.11850e-06;-0.005444521935298727
5.11875e-06;-0.0054475722358653155
5.11900e-06;-0.005450622536431915
5.11925e-06;-0.005453672836998503
5.11950e-06;-0.005456723137565102
5.11975e-06;-0.005459773438131691
5.12000e-06;-0.005461664777343375
5.12025e-06;-0.005463257831999102
5.12050e-06;-0.005464850886654822
5.12075e-06;-0.005466443941310542
5.12100e-06;-0.0054680369959662686
5.12125e-06;-0.005469630050621989
5.12150e-06;-0.005471223105277709
5.12175e-06;-0.0054728161599334356
5.12200e-06;-0.005473494905474028
5.12225e-06;-0.005471991854318885
5.12250e-06;-0.005470488803163737
5.12275e-06;-0.005468985752008593
5.12300e-06;-0.00546748270085345
5.12325e-06;-0.005465979649698301
5.12350e-06;-0.005464476598543158
5.12375e-06;-0.005462973547388009
5.12400e-06;-0.005461470496232866
5.12425e-06;-0.005458916393868916
5.12450e-06;-0.005453854190014576
5.12475e-06;-0.005448791986160254
5.12500e-06;-0.005443729782305931
5.12525e-06;-0.005438667578451592
5.12550e-06;-0.005433605374597269
5.12575e-06;-0.005428543170742947
5.12600e-06;-0.005423480966888608
5.12625e-06;-0.005418418763034285
5.12650e-06;-0.0054126945385579665
5.12675e-06;-0.005405390548134262
5.12700e-06;-0.0053980865577105824
5.12725e-06;-0.005390782567286903
5.12750e-06;-0.005383478576863199
5.12775e-06;-0.005376174586439519
5.12800e-06;-0.005368870596015816
5.12825e-06;-0.005361566605592136
5.12850e-06;-0.005354262615168457
5.12875e-06;-0.005346958624744753
5.12900e-06;-0.005339859159116707
5.12925e-06;-0.005333247746725641
5.12950e-06;-0.005326636334334552
5.12975e-06;-0.0053200249219434856
5.13000e-06;-0.005313413509552419
5.13025e-06;-0.0053068020971613295
5.13050e-06;-0.005300190684770264
5.13075e-06;-0.005293579272379197
5.13100e-06;-0.005286967859988108
5.13125e-06;-0.005280356447597041
5.13150e-06;-0.005274517889177242
5.13175e-06;-0.0052705235760050605
5.13200e-06;-0.0052665292628328916
5.13225e-06;-0.0052625349496607104
5.13250e-06;-0.005258540636488542
5.13275e-06;-0.005254546323316374
5.13300e-06;-0.005250552010144192
5.13325e-06;-0.005246557696972024
5.13350e-06;-0.005242563383799856
5.13375e-06;-0.005238569070627674
5.13400e-06;-0.005234574757455506
5.13425e-06;-0.005230580444283338
5.13450e-06;-0.005226586131111156
5.13475e-06;-0.005222591817938988
5.13500e-06;-0.00521859750476682
5.13525e-06;-0.005214603191594638
5.13550e-06;-0.0052106088784224696
5.13575e-06;-0.0052066145652503015
5.13600e-06;-0.0052030098296657595
5.13625e-06;-0.005200334734920534
5.13650e-06;-0.0051976596401753
5.13675e-06;-0.005194984545430075
5.13700e-06;-0.005192309450684849
5.13725e-06;-0.005189634355939615
5.13750e-06;-0.00518695926119439
5.13775e-06;-0.005184284166449164
5.13800e-06;-0.0051816090717039295
5.13825e-06;-0.005178933976958704
5.13850e-06;-0.005176258882213479
5.13875e-06;-0.005173583787468244
5.13900e-06;-0.005170908692723019
5.13925e-06;-0.0051682335979777935
5.13950e-06;-0.005165558503232559
5.13975e-06;-0.005162883408487333
5.14000e-06;-0.005160208313742108
5.14025e-06;-0.005157533218996874
5.14050e-06;-0.005155015814783614
5.14075e-06;-0.005152874704184566
5.14100e-06;-0.005150811357837494
5.14125e-06;-0.0051489335786964255
5.14150e-06;-0.005147566045809876
5.14175e-06;-0.005147416102875363
5.14200e-06;-0.005148151407283125
5.14225e-06;-0.005150999158885665
5.14250e-06;-0.005154855553861311
5.14275e-06;-0.005161118853396029
5.14300e-06;-0.005167382152930769
5.14325e-06;-0.00517488216305682
5.14350e-06;-0.005185333309768726
5.14375e-06;-0.005195784456480667
5.14400e-06;-0.0052084000988367055
5.14425e-06;-0.00522618083182105
5.14450e-06;-0.005243961564805454
5.14475e-06;-0.005261742297789799
5.14500e-06;-0.005279523030774203
5.14525e-06;-0.005297303763758547
5.14550e-06;-0.005317366635742625
5.14575e-06;-0.005342875328230785
5.14600e-06;-0.005368384020718859
5.14625e-06;-0.005393892713206934
5.14650e-06;-0.005419401405695095
