Time(s);Current(A)
1.25000e-05;-0.0037170368604867365
1.25003e-05;-0.0036928845787455498
1.25005e-05;-0.003668732297004527
1.25008e-05;-0.00364458001526334
1.25010e-05;-0.0036204277335221535
1.25012e-05;-0.0035962754517811306
1.25015e-05;-0.003572123170039944
1.25018e-05;-0.0035479708882987576
1.25020e-05;-0.0035260253132250066
1.25023e-05;-0.0035049953679512245
1.25025e-05;-0.0034839654226773
1.25028e-05;-0.003462935477403376
1.25030e-05;-0.0034419055321295937
1.25033e-05;-0.0034208755868556694
1.25035e-05;-0.0033998456415817446
1.25038e-05;-0.003378815696307963
1.25040e-05;-0.003359873264409046
1.25043e-05;-0.0033499724763366373
1.25045e-05;-0.0033400716882642954
1.25048e-05;-0.0033301709001918862
1.25050e-05;-0.003320270112119477
1.25053e-05;-0.003310369324047135
1.25055e-05;-0.003300468535974726
1.25058e-05;-0.003290567747902317
1.25060e-05;-0.003280666959829975
1.25063e-05;-0.003270766171757566
1.25065e-05;-0.003260865383685157
1.25068e-05;-0.003250964595612815
1.25070e-05;-0.003241063807540406
1.25073e-05;-0.0032311630194679967
1.25075e-05;-0.0032212622313956547
1.25078e-05;-0.0032113614433232456
1.25080e-05;-0.003201460655250837
1.25083e-05;-0.003191559867178495
1.25085e-05;-0.0031816590791060857
1.25088e-05;-0.0031717582910336765
1.25090e-05;-0.0031618575029613346
1.25093e-05;-0.003155757431845497
1.25095e-05;-0.0031513843839812055
1.25097e-05;-0.003147011336116943
1.25100e-05;-0.0031426382882526515
1.25103e-05;-0.0031382652403883597
1.25105e-05;-0.003133892192524068
1.25108e-05;-0.003129519144659806
1.25110e-05;-0.0031251460967955144
1.25113e-05;-0.0031207730489312227
1.25115e-05;-0.0031164000010669604
1.25118e-05;-0.0031120269532026686
1.25120e-05;-0.003107653905338377
1.25123e-05;-0.003103280857474115
1.25125e-05;-0.0030989078096098233
1.25128e-05;-0.0030945347617455316
1.25130e-05;-0.0030901617138812693
1.25133e-05;-0.0030857886660169776
1.25135e-05;-0.003081415618152686
1.25138e-05;-0.0030770425702884236
1.25140e-05;-0.0030726695224241323
1.25143e-05;-0.0030706945048072968
1.25145e-05;-0.0030791060723274603
1.25148e-05;-0.003087517639847681
1.25150e-05;-0.003095929207367902
1.25153e-05;-0.0031043407748880653
1.25155e-05;-0.003112752342408286
1.25158e-05;-0.003121163909928507
1.25160e-05;-0.0031295754774486708
1.25163e-05;-0.003137987044968891
1.25165e-05;-0.003146398612489112
1.25168e-05;-0.003154810180009276
1.25170e-05;-0.0031632217475294966
1.25173e-05;-0.003171633315049717
1.25175e-05;-0.003180044882569881
1.25178e-05;-0.00320049986178543
1.25180e-05;-0.00322642729587445
1.25182e-05;-0.0032523547299632945
1.25185e-05;-0.0032782821640523147
1.25188e-05;-0.003304209598141335
1.25190e-05;-0.003330137032230355
1.25193e-05;-0.0033560644663191996
1.25195e-05;-0.0033819919004082198
1.25198e-05;-0.00340791933449724
1.25200e-05;-0.0034338467685860845
1.25203e-05;-0.0034597742026751047
1.25205e-05;-0.003485701636764125
1.25208e-05;-0.0035116290708529694
1.25210e-05;-0.003538300719192819
1.25213e-05;-0.0035681957817021545
1.25215e-05;-0.003598090844211288
1.25218e-05;-0.003627985906720624
1.25220e-05;-0.00365788096922996
1.25223e-05;-0.0036877760317390934
1.25225e-05;-0.0037176710942484295
1.25228e-05;-0.0037475661567577655
1.25230e-05;-0.0037774612192668987
1.25233e-05;-0.0038073562817762347
1.25235e-05;-0.0038293775894331617
1.25238e-05;-0.0038478211095649005
1.25240e-05;-0.0038662646296967647
1.25243e-05;-0.003884708149828629
1.25245e-05;-0.0039031516699603677
1.25248e-05;-0.003921595190092232
1.25250e-05;-0.0039400387102240956
1.25253e-05;-0.003958482230355835
1.25255e-05;-0.003976925750487699
1.25258e-05;-0.003991269675580968
1.25260e-05;-0.003987857030270824
1.25263e-05;-0.0039844443849606555
1.25265e-05;-0.003981031739650487
1.25267e-05;-0.003977619094340343
1.25270e-05;-0.003974206449030174
1.25273e-05;-0.003970793803720007
1.25275e-05;-0.003967381158409838
1.25278e-05;-0.003963968513099693
1.25280e-05;-0.003960555867789525
1.25283e-05;-0.0039536537578589905
1.25285e-05;-0.0039316377345734385
1.25288e-05;-0.0039096217112877365
1.25290e-05;-0.0038876056880020344
1.25293e-05;-0.0038655896647164815
1.25295e-05;-0.00384357364143078
1.25298e-05;-0.003821557618145078
1.25300e-05;-0.0037995415948595254
1.25303e-05;-0.0037775255715738233
1.25305e-05;-0.0037555095482881213
1.25308e-05;-0.0037324091871778014
1.25310e-05;-0.003704922198047072
1.25313e-05;-0.00367877775090329
1.25315e-05;-0.0036526333037596847
1.25318e-05;-0.0036264888566159025
1.25320e-05;-0.00360034440947212
1.25323e-05;-0.003574199962328515
1.25325e-05;-0.0035480555151847326
1.25328e-05;-0.0035219110680409504
1.25330e-05;-0.0034957666208973452
1.25333e-05;-0.003469622173753563
1.25335e-05;-0.003443477726609781
1.25338e-05;-0.0034194737911771903
1.25340e-05;-0.003404741051204393
1.25343e-05;-0.0033900083112315955
1.25345e-05;-0.0033752755712588983
1.25348e-05;-0.003360542831286101
1.25350e-05;-0.0033458100913133035
1.25352e-05;-0.003331077351340606
1.25355e-05;-0.0033163446113678085
1.25358e-05;-0.0033016118713950116
1.25360e-05;-0.003286879131422214
1.25363e-05;-0.0032721463914495165
1.25365e-05;-0.0032589281369079957
1.25368e-05;-0.00325226957105412
1.25370e-05;-0.0032456110052002897
1.25373e-05;-0.003238952439346414
1.25375e-05;-0.003232293873492539
1.25378e-05;-0.0032256353076387085
1.25380e-05;-0.003218976741784833
1.25383e-05;-0.0032123181759309573
1.25385e-05;-0.003205659610077127
1.25388e-05;-0.0031990010442232513
1.25390e-05;-0.0031923424783693757
1.25393e-05;-0.0031856839125155457
1.25395e-05;-0.00317902534666167
1.25398e-05;-0.0031723667808077945
1.25400e-05;-0.003165708214953964
1.25403e-05;-0.0031590496491000885
1.25405e-05;-0.0031555232461363595
1.25408e-05;-0.0031534200794215814
1.25410e-05;-0.003151316912706789
1.25413e-05;-0.0031492137459919966
1.25415e-05;-0.003147110579277219
1.25418e-05;-0.0031450074125624265
1.25420e-05;-0.003142904245847634
1.25423e-05;-0.0031408010791328564
1.25425e-05;-0.003138697912418064
1.25428e-05;-0.0031365947457032716
1.25430e-05;-0.003134491578988494
1.25433e-05;-0.0031323884122737016
1.25435e-05;-0.003130285245558909
1.25437e-05;-0.0031281820788441315
1.25440e-05;-0.003126078912129339
1.25443e-05;-0.003126738665010039
1.25445e-05;-0.0031393654477792953
1.25448e-05;-0.0031519922305484668
1.25450e-05;-0.0031646190133177233
1.25453e-05;-0.00317724579608698
1.25455e-05;-0.0031898725788561512
1.25458e-05;-0.003202499361625408
1.25460e-05;-0.0032151261443946646
1.25463e-05;-0.003227752927163836
1.25465e-05;-0.0032403797099330926
1.25468e-05;-0.0032530064927023495
1.25470e-05;-0.0032840925798186663
1.25473e-05;-0.0033235664654002986
1.25475e-05;-0.003363040350981931
1.25478e-05;-0.003402514236563296
1.25480e-05;-0.0034419881221449283
1.25483e-05;-0.0034814620077265605
1.25485e-05;-0.0035209358933079252
1.25488e-05;-0.003560409778889558
1.25490e-05;-0.00359988366447119
1.25493e-05;-0.0036393575500525553
1.25495e-05;-0.0036817893875109226
1.25498e-05;-0.0037370329979153545
1.25500e-05;-0.003792276608319412
1.25503e-05;-0.003847520218723844
1.25505e-05;-0.0039027638291282757
1.25508e-05;-0.003958007439532333
1.25510e-05;-0.004013251049936765
1.25513e-05;-0.004068494660341196
1.25515e-05;-0.004123414843817798
1.25518e-05;-0.0041769341686829905
1.25520e-05;-0.004230453493548183
1.25522e-05;-0.0042839728184130114
1.25525e-05;-0.004337492143278204
1.25528e-05;-0.004391011468143396
1.25530e-05;-0.004444530793008588
1.25533e-05;-0.004498050117873418
1.25535e-05;-0.004547046024558305
1.25538e-05;-0.004576449656218412
1.25540e-05;-0.00460585328787832
1.25543e-05;-0.004635256919538428
1.25545e-05;-0.004664660551198536
1.25548e-05;-0.004694064182858444
1.25550e-05;-0.004723467814518551
1.25553e-05;-0.004752871446178659
1.25555e-05;-0.004782275077838567
1.25558e-05;-0.004811678709498675
1.25560e-05;-0.004841082341158782
1.25563e-05;-0.004863547221405823
1.25565e-05;-0.004855958297073715
1.25568e-05;-0.004848369372741607
1.25570e-05;-0.00484078044840955
1.25573e-05;-0.004833191524077443
1.25575e-05;-0.004825602599745335
1.25578e-05;-0.004818013675413279
1.25580e-05;-0.00481042475108117
1.25583e-05;-0.0048028358267490625
1.25585e-05;-0.004795246902417006
1.25588e-05;-0.0047876579780848985
1.25590e-05;-0.004775635454358558
1.25593e-05;-0.004744409687591295
1.25595e-05;-0.004713183920823822
1.25598e-05;-0.004681958154056348
1.25600e-05;-0.004650732387289086
1.25603e-05;-0.004619506620521612
1.25605e-05;-0.004588280853754139
1.25607e-05;-0.004557055086986876
1.25610e-05;-0.0045258293202194025
1.25613e-05;-0.004491592058434613
1.25615e-05;-0.004455986391166084
1.25618e-05;-0.004420380723897797
1.25620e-05;-0.004384775056629269
1.25623e-05;-0.00434916938936074
1.25625e-05;-0.004313563722092452
1.25628e-05;-0.004277958054823923
1.25630e-05;-0.004242352387555395
1.25633e-05;-0.00421010620510843
1.25635e-05;-0.004192410954713858
1.25638e-05;-0.004174715704319285
1.25640e-05;-0.004157020453924833
1.25643e-05;-0.0041393252035302605
1.25645e-05;-0.0041216299531356875
1.25648e-05;-0.004103934702741235
1.25650e-05;-0.004086239452346663
1.25653e-05;-0.00406854420195209
1.25655e-05;-0.0040508489515576375
1.25658e-05;-0.004033153701163065
1.25660e-05;-0.004015458450768492
1.25663e-05;-0.004019401604392759
1.25665e-05;-0.004033177120532199
1.25668e-05;-0.004046952636671639
1.25670e-05;-0.0040607281528109865
1.25673e-05;-0.004074503668950427
1.25675e-05;-0.004088279185089868
1.25678e-05;-0.004102054701229215
1.25680e-05;-0.004115830217368656
1.25683e-05;-0.004129605733508097
1.25685e-05;-0.004143381249647444
1.25688e-05;-0.004157156765786884
1.25690e-05;-0.004174748248143517
1.25692e-05;-0.004208867819805897
1.25695e-05;-0.004242987391468508
1.25698e-05;-0.004277106963131119
1.25700e-05;-0.0043112265347937315
1.25703e-05;-0.004345346106456111
1.25705e-05;-0.0043794656781187226
1.25708e-05;-0.004413585249781334
1.25710e-05;-0.0044477048214437145
1.25713e-05;-0.004482345366100497
1.25715e-05;-0.004519242400381327
1.25718e-05;-0.004556139434661906
1.25720e-05;-0.004593036468942736
1.25723e-05;-0.004629933503223566
1.25725e-05;-0.0046668305375041465
1.25728e-05;-0.0047037275717849766
1.25730e-05;-0.004740624606065807
1.25733e-05;-0.004777521640346386
1.25735e-05;-0.004811139087607521
1.25738e-05;-0.004830551664050219
1.25740e-05;-0.004849964240492785
1.25743e-05;-0.004869376816935484
1.25745e-05;-0.004888789393378182
1.25748e-05;-0.004908201969820748
1.25750e-05;-0.004927614546263446
1.25753e-05;-0.004947027122706144
1.25755e-05;-0.004966439699148711
1.25758e-05;-0.004985852275591409
1.25760e-05;-0.005005264852034107
1.25763e-05;-0.00500238867319942
1.25765e-05;-0.0049893846160900465
1.25768e-05;-0.004976380558980674
1.25770e-05;-0.004963376501871389
1.25773e-05;-0.004950372444762017
1.25775e-05;-0.004937368387652644
1.25777e-05;-0.00492436433054336
1.25780e-05;-0.004911360273433986
1.25783e-05;-0.004898356216324614
1.25785e-05;-0.004885352159215242
1.25788e-05;-0.004867976360591952
1.25790e-05;-0.004831665243864992
1.25793e-05;-0.004795354127138033
1.25795e-05;-0.0047590430104113195
1.25798e-05;-0.00472273189368436
1.25800e-05;-0.0046864207769574005
1.25803e-05;-0.004650109660230687
1.25805e-05;-0.004613798543503728
1.25808e-05;-0.004577487426776768
1.25810e-05;-0.0045375571220151525
1.25813e-05;-0.0044959822796638285
1.25815e-05;-0.004454407437312504
1.25818e-05;-0.004412832594961461
1.25820e-05;-0.004371257752610137
1.25823e-05;-0.004329682910258812
1.25825e-05;-0.00428810806790777
1.25828e-05;-0.004246533225556445
1.25830e-05;-0.004208231457278243
1.25833e-05;-0.004184106350307004
1.25835e-05;-0.004159981243335602
1.25838e-05;-0.004135856136364201
1.25840e-05;-0.004111731029392962
1.25843e-05;-0.0040876059224215595
1.25845e-05;-0.0040634808154501574
1.25848e-05;-0.004039355708478919
1.25850e-05;-0.004015230601507517
1.25853e-05;-0.003991105494536115
1.25855e-05;-0.003966980387564877
1.25858e-05;-0.003949286328359417
1.25860e-05;-0.0039594470576484846
1.25862e-05;-0.003969607786937483
1.25865e-05;-0.00397976851622655
1.25868e-05;-0.003989929245515617
1.25870e-05;-0.004000089974804685
1.25873e-05;-0.0040102507040936835
1.25875e-05;-0.0040204114333827505
1.25878e-05;-0.004030572162671818
1.25880e-05;-0.004040732891960817
1.25883e-05;-0.004050893621249884
1.25885e-05;-0.004065806102504765
1.25888e-05;-0.004101299840625981
1.25890e-05;-0.004136793578747438
1.25893e-05;-0.004172287316868894
1.25895e-05;-0.00420778105499011
1.25898e-05;-0.004243274793111567
1.25900e-05;-0.004278768531233023
1.25903e-05;-0.0043142622693542396
1.25905e-05;-0.004349756007475696
1.25908e-05;-0.004386583335917825
1.25910e-05;-0.004429186842313751
1.25913e-05;-0.004471790348709965
1.25915e-05;-0.004514393855106179
1.25918e-05;-0.004556997361502104
1.25920e-05;-0.004599600867898319
1.25923e-05;-0.004642204374294533
1.25925e-05;-0.004684807880690458
1.25928e-05;-0.0047274113870866726
1.25930e-05;-0.004767493937764941
1.25933e-05;-0.004796657476346538
1.25935e-05;-0.004825821014928333
1.25938e-05;-0.004854984553510129
1.25940e-05;-0.004884148092091726
1.25943e-05;-0.004913311630673521
1.25945e-05;-0.004942475169255316
1.25947e-05;-0.004971638707836914
1.25950e-05;-0.005000802246418709
1.25953e-05;-0.005029965785000505
1.25955e-05;-0.005059129323582102
1.25958e-05;-0.005088292862163897
1.25960e-05;-0.005117456400745692
1.25963e-05;-0.005146619939327487
1.25965e-05;-0.005166929132361593
1.25968e-05;-0.005183214963263322
1.25970e-05;-0.005199500794165051
1.25973e-05;-0.005215786625066669
1.25975e-05;-0.0052320724559683975
1.25978e-05;-0.0052483582868701265
1.25980e-05;-0.005264644117771745
1.25983e-05;-0.005280929948673473
1.25985e-05;-0.005297215779575202
1.25988e-05;-0.005313501610476821
1.25990e-05;-0.005329787441378549
1.25993e-05;-0.005346073272280278
1.25995e-05;-0.005362359103181897
1.25998e-05;-0.0053776985412793766
1.26000e-05;-0.005388938869500321
1.26003e-05;-0.00540017919772119
1.26005e-05;-0.005411419525942134
1.26008e-05;-0.0054226598541630795
1.26010e-05;-0.0054339001823839475
1.26013e-05;-0.005445140510604892
1.26015e-05;-0.005456380838825837
1.26018e-05;-0.005467621167046705
1.26020e-05;-0.0054788614952676505
1.26023e-05;-0.005488196948030972
1.26025e-05;-0.005496666836677266
1.26028e-05;-0.005505136725323618
1.26030e-05;-0.005513606613969969
1.26032e-05;-0.005522076502616264
1.26035e-05;-0.005530546391262615
1.26038e-05;-0.0055390162799089674
1.26040e-05;-0.005547486168555262
1.26043e-05;-0.005555956057201613
1.26045e-05;-0.005561602645803535
1.26048e-05;-0.005555020678727861
1.26050e-05;-0.005548438711652231
1.26053e-05;-0.005541856744576557
1.26055e-05;-0.005535274777500883
1.26058e-05;-0.005528692810425253
1.26060e-05;-0.005522110843349579
1.26063e-05;-0.005515528876273905
1.26065e-05;-0.005508946909198275
1.26068e-05;-0.0055023649421226005
1.26070e-05;-0.005495782975046926
1.26073e-05;-0.005471995724175975
1.26075e-05;-0.005440390494329886
1.26078e-05;-0.005408785264483797
1.26080e-05;-0.0053771800346379215
1.26083e-05;-0.005345574804791833
1.26085e-05;-0.005313969574945743
1.26088e-05;-0.005282364345099868
1.26090e-05;-0.0052507591152537786
1.26093e-05;-0.00521915388540769
1.26095e-05;-0.005187548655561815
1.26098e-05;-0.0051534462022622815
1.26100e-05;-0.005108527528382321
1.26103e-05;-0.0050636088545026655
1.26105e-05;-0.005018690180622705
1.26108e-05;-0.004973771506742746
1.26110e-05;-0.00492885283286309
1.26113e-05;-0.00488393415898313
1.26115e-05;-0.00483901548510317
1.26117e-05;-0.004794096811223514
1.26120e-05;-0.004752550338262761
1.26123e-05;-0.004712536173411769
1.26125e-05;-0.004672522008561048
1.26128e-05;-0.004632507843710055
1.26130e-05;-0.004592493678859063
1.26133e-05;-0.00455247951400807
1.26135e-05;-0.004512465349157349
1.26138e-05;-0.004472451184306357
1.26140e-05;-0.004437174120413926
1.26143e-05;-0.00442241485552763
1.26145e-05;-0.004407655590641235
1.26148e-05;-0.00439289632575484
1.26150e-05;-0.004378137060868544
1.26153e-05;-0.004363377795982149
1.26155e-05;-0.0043486185310957545
1.26158e-05;-0.004333859266209459
1.26160e-05;-0.004319100001323063
1.26163e-05;-0.004304340736436668
1.26165e-05;-0.004289581471550373
1.26168e-05;-0.004274822206663978
1.26170e-05;-0.004260062941777582
1.26173e-05;-0.0042641771236059285
1.26175e-05;-0.00427686728775475
1.26178e-05;-0.004289557451903571
1.26180e-05;-0.004302247616052307
1.26183e-05;-0.004314937780201128
1.26185e-05;-0.0043276279443499495
1.26188e-05;-0.004340318108498684
1.26190e-05;-0.0043530082726475055
1.26193e-05;-0.004365698436796327
1.26195e-05;-0.004378388600945062
1.26198e-05;-0.004391078765093884
1.26200e-05;-0.004403768929242705
1.26202e-05;-0.004418652135570686
1.26205e-05;-0.004443034062540164
1.26208e-05;-0.0044674159895096415
1.26210e-05;-0.004491797916478955
1.26213e-05;-0.004516179843448433
1.26215e-05;-0.00454056177041791
1.26218e-05;-0.004564943697387388
1.26220e-05;-0.004589325624356702
1.26223e-05;-0.004613707551326179
1.26225e-05;-0.004638089478295657
1.26228e-05;-0.004660022265233075
1.26230e-05;-0.004680842177456515
1.26233e-05;-0.004701662089679954
1.26235e-05;-0.004722482001903253
1.26238e-05;-0.004743301914126692
1.26240e-05;-0.004764121826350131
1.26243e-05;-0.00478494173857343
1.26245e-05;-0.004805761650796869
1.26248e-05;-0.004826581563020309
1.26250e-05;-0.0048472813724789515
1.26253e-05;-0.004867460980994575
1.26255e-05;-0.0048876405895102
1.26258e-05;-0.004907820198025687
1.26260e-05;-0.004927999806541312
1.26263e-05;-0.004948179415056936
1.26265e-05;-0.004968359023572424
1.26268e-05;-0.004988538632088048
1.26270e-05;-0.005008718240603672
1.26273e-05;-0.0050288978491191605
1.26275e-05;-0.005049077457634784
1.26278e-05;-0.005069257066150409
1.26280e-05;-0.005089436674665896
1.26283e-05;-0.005109616283181521
1.26285e-05;-0.005129795891697145
1.26288e-05;-0.005152497974951056
1.26290e-05;-0.005176346255775521
1.26293e-05;-0.005200194536599984
1.26295e-05;-0.005224042817424287
1.26298e-05;-0.0052478910982487505
1.26300e-05;-0.005271739379073215
1.26303e-05;-0.005295587659897678
1.26305e-05;-0.005319435940721981
1.26308e-05;-0.005343284221546445
1.26310e-05;-0.005367132502370909
1.26313e-05;-0.005390980783195211
1.26315e-05;-0.005414829064019675
1.26318e-05;-0.005438677344844139
1.26320e-05;-0.005462525625668442
1.26323e-05;-0.005485279324654342
1.26325e-05;-0.005503292062791876
1.26328e-05;-0.005521304800929288
1.26330e-05;-0.005539317539066822
1.26333e-05;-0.005557330277204356
1.26335e-05;-0.005575343015341768
1.26338e-05;-0.005593355753479302
1.26340e-05;-0.005611368491616836
1.26343e-05;-0.005629381229754249
1.26345e-05;-0.005647393967891783
1.26348e-05;-0.005665406706029317
1.26350e-05;-0.005683419444166729
1.26353e-05;-0.005701432182304263
1.26355e-05;-0.005719444920441797
1.26358e-05;-0.005737457658579209
1.26360e-05;-0.005755470396716743
1.26363e-05;-0.005773483134854277
1.26365e-05;-0.005789637283569534
1.26368e-05;-0.005804946900267092
1.26370e-05;-0.005820256516964648
1.26373e-05;-0.005835566133662102
1.26375e-05;-0.005850875750359659
1.26378e-05;-0.0058661853670572165
1.26380e-05;-0.00588149498375467
1.26383e-05;-0.005896804600452226
1.26385e-05;-0.005912114217149784
1.26388e-05;-0.00592742383384734
1.26390e-05;-0.005942733450544794
1.26393e-05;-0.005958043067242351
1.26395e-05;-0.005973352683939908
1.26398e-05;-0.005988662300637361
1.26400e-05;-0.006003971917334918
1.26403e-05;-0.006019281534032476
1.26405e-05;-0.00603457388946416
1.26408e-05;-0.0060497914811986535
1.26410e-05;-0.006065009072933147
1.26413e-05;-0.006080226664667537
1.26415e-05;-0.006095444256402031
1.26418e-05;-0.006110661848136524
1.26420e-05;-0.006125879439870915
1.26423e-05;-0.006141097031605408
1.26425e-05;-0.006156314623339902
1.26428e-05;-0.006169172032274843
1.26430e-05;-0.006180956988134027
1.26433e-05;-0.006192741943993212
1.26435e-05;-0.006204526899852315
1.26438e-05;-0.0062163118557114995
1.26440e-05;-0.006228096811570684
1.26443e-05;-0.006239881767429788
1.26445e-05;-0.0062516667232889725
1.26448e-05;-0.006260004275438242
1.26450e-05;-0.006253410092514842
1.26453e-05;-0.006246815909591396
1.26455e-05;-0.006240221726667951
1.26458e-05;-0.006233627543744551
