Time(s);Current(A)
6.75000e-06;-0.0019587431831826064
6.75025e-06;-0.0018790663724390319
6.75050e-06;-0.0017999678909709337
6.75075e-06;-0.001721948417340396
6.75100e-06;-0.001645570439568694
6.75125e-06;-0.0015714036984682104
6.75150e-06;-0.0014999885957041412
6.75175e-06;-0.0014318540352803806
6.75200e-06;-0.0013675283826090365
6.75225e-06;-0.001307539320515045
6.75250e-06;-0.001252368615762147
6.75275e-06;-0.0012021737852899697
6.75300e-06;-0.0011566856178588975
6.75325e-06;-0.0011156799859858894
6.75350e-06;-0.001079226141244661
6.75375e-06;-0.0010474951705494154
6.75400e-06;-0.0010206578842498928
6.75425e-06;-0.0009988845405624251
6.75450e-06;-0.000982619747099524
6.75475e-06;-0.0009730172001747989
6.75500e-06;-0.0009645584113845642
6.75525e-06;-0.0009641157130194869
6.75550e-06;-0.0009647595976015603
6.75575e-06;-0.0009730188572315549
6.75600e-06;-0.000982337912908153
6.75625e-06;-0.0009990846061989798
6.75650e-06;-0.0010168214881163399
6.75675e-06;-0.001041498160299317
6.75700e-06;-0.0010670023154908362
6.75725e-06;-0.0010983059298688117
6.75750e-06;-0.001130321223243179
6.75775e-06;-0.0011673243571549438
6.75800e-06;-0.0012049423941626173
6.75825e-06;-0.001246870012602858
6.75850e-06;-0.0012892889604360807
6.75875e-06;-0.0013351514167540717
6.75900e-06;-0.0013813233306395026
6.75925e-06;-0.00142966409453637
6.75950e-06;-0.0014781618439886396
6.75975e-06;-0.0015277598351535813
6.76000e-06;-0.0015773742814921042
6.76025e-06;-0.001627104054801186
6.76050e-06;-0.0016766929851966016
6.76075e-06;-0.0017252948104525022
6.76100e-06;-0.0017735619866072732
6.76125e-06;-0.0018194837565318905
6.76150e-06;-0.001864895554165637
6.76175e-06;-0.0019067331835621055
6.76200e-06;-0.0019477058672952555
6.76225e-06;-0.001982616532809824
6.76250e-06;-0.0020175271983243924
6.76275e-06;-0.002051518297755658
6.76300e-06;-0.0020790645688165614
6.76325e-06;-0.0021066108398774654
6.76350e-06;-0.002133359800593804
6.76375e-06;-0.0021545207688627153
6.76400e-06;-0.0021756817371316978
6.76425e-06;-0.0021959266619647577
6.76450e-06;-0.0022097514470929935
6.76475e-06;-0.002223576232221276
6.76500e-06;-0.0022366882990022684
6.76525e-06;-0.0022448052409013296
6.76550e-06;-0.0022529221828004185
6.76575e-06;-0.0022603617103557397
6.76600e-06;-0.002263053543037237
6.76625e-06;-0.0022657453757187426
6.76650e-06;-0.0022678816330859355
6.76675e-06;-0.0022661241109723142
6.76700e-06;-0.0022640464688618634
6.76725e-06;-0.0022597252485309694
6.76750e-06;-0.0022551193624159595
6.76775e-06;-0.002248518380837706
6.76800e-06;-0.00224164164427174
6.76825e-06;-0.0022328322640384223
6.76850e-06;-0.002223787961487954
6.76875e-06;-0.002213097193238621
6.76900e-06;-0.002202270393614694
6.76925e-06;-0.0021904902107837045
6.76950e-06;-0.002178620890916084
6.76975e-06;-0.00216612684933161
6.77000e-06;-0.0021535739354382466
6.77025e-06;-0.0021406084118004154
6.77050e-06;-0.0021276251683243702
6.77075e-06;-0.002114536108384168
6.77100e-06;-0.0021016170776611896
6.77125e-06;-0.0020890423594664424
6.77150e-06;-0.002076958919354662
6.77175e-06;-0.0020656081926458923
6.77200e-06;-0.002054433196145164
6.77225e-06;-0.00204448981426196
6.77250e-06;-0.002034836176202387
6.77275e-06;-0.002027213223318945
6.77300e-06;-0.0020195902704355025
6.77325e-06;-0.0020125490940173163
6.77350e-06;-0.0020095853292549804
6.77375e-06;-0.002006621564492645
6.77400e-06;-0.002003657799730299
6.77425e-06;-0.0020006940349679638
6.77450e-06;-0.001997730270205628
6.77475e-06;-0.001998664924329035
6.77500e-06;-0.002001939962495516
6.77525e-06;-0.0020052150006619964
6.77550e-06;-0.002008490038828488
6.77575e-06;-0.0020117650769949686
6.77600e-06;-0.0020158415369212366
6.77625e-06;-0.002025534804366041
6.77650e-06;-0.0020352280718108125
6.77675e-06;-0.0020449213392556174
6.77700e-06;-0.002054614606700389
6.77725e-06;-0.002064307874145161
6.77750e-06;-0.0020740011415899652
6.77775e-06;-0.002083694409034737
6.77800e-06;-0.0020962320263843296
6.77825e-06;-0.0021104772260448347
6.77850e-06;-0.0021247224257052917
6.77875e-06;-0.0021389676253657486
6.77900e-06;-0.0021532128250262537
6.77925e-06;-0.0021674580246867107
6.77950e-06;-0.0021817032243471677
6.77975e-06;-0.0021960519229804504
6.78000e-06;-0.0022111259997323186
6.78025e-06;-0.0022262000764841864
6.78050e-06;-0.0022411840955625056
6.78075e-06;-0.0022555369405905484
6.78100e-06;-0.00226988978561864
6.78125e-06;-0.002284089780688985
6.78150e-06;-0.0022972185186080174
6.78175e-06;-0.0023101656245516793
6.78200e-06;-0.0023218397530244844
6.78225e-06;-0.0023332732173128178
6.78250e-06;-0.002343019973717489
6.78275e-06;-0.002352400602505888
6.78300e-06;-0.0023592152061996715
6.78325e-06;-0.0023654847879853074
6.78350e-06;-0.0023679345544076187
6.78375e-06;-0.00237038432082993
6.78400e-06;-0.002372073008815628
6.78425e-06;-0.0023684276376356003
6.78450e-06;-0.0023647822664555726
6.78475e-06;-0.0023611368952755328
6.78500e-06;-0.002356571611561097
6.78525e-06;-0.002345559071362197
6.78550e-06;-0.0023345465311633345
6.78575e-06;-0.002323533990964472
6.78600e-06;-0.0023118887260760814
6.78625e-06;-0.002295808976164058
6.78650e-06;-0.002279355612403865
6.78675e-06;-0.002260283755890181
6.78700e-06;-0.0022409386446447083
6.78725e-06;-0.002219512465681956
6.78750e-06;-0.0021967745295430325
6.78775e-06;-0.0021728628466542916
6.78800e-06;-0.0021479150489988022
6.78825e-06;-0.002122068856026536
6.78850e-06;-0.0020954578287904445
6.78875e-06;-0.002068188200437036
6.78900e-06;-0.0020403423892838344
6.78925e-06;-0.00201203302100001
6.78950e-06;-0.001983414896901199
6.78975e-06;-0.0019546555387600457
6.79000e-06;-0.0019259216969264269
6.79025e-06;-0.0018973803547052061
6.79050e-06;-0.0018691959073055089
6.79075e-06;-0.0018415156809903446
6.79100e-06;-0.0018144717029084667
6.79125e-06;-0.001788215236317653
6.79150e-06;-0.0017629241481741207
6.79175e-06;-0.0017387835969849867
6.79200e-06;-0.0017159790615551686
6.79225e-06;-0.0016946957582885873
6.79250e-06;-0.0016751279481971222
6.79275e-06;-0.0016575211603843387
6.79300e-06;-0.0016422942186079868
6.79325e-06;-0.0016302122290551202
6.79350e-06;-0.0016188930090038625
6.79375e-06;-0.001612919700035795
6.79400e-06;-0.0016069463910677476
6.79425e-06;-0.0016019082844756678
6.79450e-06;-0.0016034245940424689
6.79475e-06;-0.0016049409036092647
6.79500e-06;-0.001607415751275517
6.79525e-06;-0.0016166085647738265
6.79550e-06;-0.001625801378272105
6.79575e-06;-0.0016358703958555174
6.79600e-06;-0.0016520803369025057
6.79625e-06;-0.001668290277949439
6.79650e-06;-0.0016852794024854061
6.79675e-06;-0.0017077294764180902
6.79700e-06;-0.001730179550350698
6.79725e-06;-0.0017532875211249232
6.79750e-06;-0.0017810063973030831
6.79775e-06;-0.001808725273481149
6.79800e-06;-0.0018369237142820114
6.79825e-06;-0.0018684832095373625
6.79850e-06;-0.0019000427047927136
6.79875e-06;-0.0019318736668063217
6.79900e-06;-0.001965607218196791
6.79925e-06;-0.0019994561738492654
6.79950e-06;-0.002034113946479836
6.79975e-06;-0.0020687850344275832
6.80000e-06;-0.00210354944349283
6.80025e-06;-0.002138225253367243
6.80050e-06;-0.0021722801110459545
6.80075e-06;-0.0022061480745822442
6.80100e-06;-0.002238706180468337
6.80125e-06;-0.002270872153167254
6.80150e-06;-0.002300289839331633
6.80175e-06;-0.0023297075254961113
6.80200e-06;-0.0023585655613156493
6.80225e-06;-0.0023835012575897756
6.80250e-06;-0.0024080180010692953
6.80275e-06;-0.0024295984913529634
6.80300e-06;-0.0024510510954760794
6.80325e-06;-0.002471607402563421
6.80350e-06;-0.0024921637096507634
6.80375e-06;-0.002512453538378502
6.80400e-06;-0.002530875739188666
6.80425e-06;-0.0025492979399988304
6.80450e-06;-0.002567720140809057
6.80475e-06;-0.0025859734725787865
6.80500e-06;-0.0026030432765952872
6.80525e-06;-0.0026201130806118456
6.80550e-06;-0.0026371828846283463
6.80575e-06;-0.0026541815435994856
6.80600e-06;-0.002670681578693438
6.80625e-06;-0.0026871816137873346
6.80650e-06;-0.0027036816488812867
6.80675e-06;-0.0027201816839751832
6.80700e-06;-0.0027364498110902433
6.80725e-06;-0.0027525787141381977
6.80750e-06;-0.002768707617186098
6.80775e-06;-0.0027848365202339975
6.80800e-06;-0.002800882545284199
6.80825e-06;-0.002816347715429234
6.80850e-06;-0.0028318128855742684
6.80875e-06;-0.0028472780557193557
6.80900e-06;-0.0028627432258643906
6.80925e-06;-0.0028780735624317623
6.80950e-06;-0.002892458910617708
6.80975e-06;-0.002906844258803605
6.81000e-06;-0.0029212296069895016
6.81025e-06;-0.0029356149551754474
6.81050e-06;-0.0029498011492422012
6.81075e-06;-0.002962591560952975
6.81100e-06;-0.0029753819726637057
6.81125e-06;-0.0029874519274665466
6.81150e-06;-0.002999089361829959
6.81175e-06;-0.0030105958118471178
6.81200e-06;-0.003021091886917072
6.81225e-06;-0.003030834216896238
6.81250e-06;-0.003039631441153198
6.81275e-06;-0.003046636573329674
6.81300e-06;-0.003050341565321693
6.81325e-06;-0.0030497680199221217
6.81350e-06;-0.003044827945504034
6.81375e-06;-0.003035453089844635
6.81400e-06;-0.003020848787721446
6.81425e-06;-0.0030055399657638255
6.81450e-06;-0.002984801015421948
6.81475e-06;-0.0029600244453495037
6.81500e-06;-0.002930184014711712
6.81525e-06;-0.002893645552557145
6.81550e-06;-0.0028562127691510596
6.81575e-06;-0.0028119723807096494
6.81600e-06;-0.0027634520250438663
6.81625e-06;-0.002710989511339487
6.81650e-06;-0.00265488487507971
6.81675e-06;-0.002595180388851653
6.81700e-06;-0.0025316596995435896
6.81725e-06;-0.002464313792071343
6.81750e-06;-0.0023934832238545873
6.81775e-06;-0.002319610867850071
6.81800e-06;-0.002243139800772402
6.81825e-06;-0.0021645124015910932
6.81850e-06;-0.0020841468257097517
6.81875e-06;-0.002002300407168418
6.81900e-06;-0.0019190674414964188
6.81925e-06;-0.0018346732041187445
6.81950e-06;-0.001749561154782988
6.81975e-06;-0.001664239388223148
6.82000e-06;-0.001579215606193798
6.82025e-06;-0.0014949972053108908
6.82050e-06;-0.0014120765480986936
6.82075e-06;-0.0013308448505577695
6.82100e-06;-0.0012515917298987409
6.82125e-06;-0.0011746882253422118
6.82150e-06;-0.0011006425855539562
6.82175e-06;-0.0010300029156741894
6.82200e-06;-0.0009633174736608032
6.82225e-06;-0.000901134124989685
6.82250e-06;-0.0008439837169559886
6.82275e-06;-0.000792266605355858
6.82300e-06;-0.0007461532976491962
6.82325e-06;-0.0007057054968731218
6.82350e-06;-0.0006710170081798091
6.82375e-06;-0.0006422063496352852
6.82400e-06;-0.0006193920757083381
6.82425e-06;-0.0006026924136751131
6.82450e-06;-0.0005922150572826533
6.82475e-06;-0.000587985827515148
6.82500e-06;-0.0005898865081006144
6.82525e-06;-0.0005977308754598876
6.82550e-06;-0.0006113527516267714
6.82575e-06;-0.0006306014879067168
6.82600e-06;-0.0006553263846654741
6.82625e-06;-0.000685376596905275
6.82650e-06;-0.0007205946570672906
6.82675e-06;-0.0007607718452863531
6.82700e-06;-0.0008058607765607857
6.82725e-06;-0.0008565284208065074
6.82750e-06;-0.0009081226606852697
6.82775e-06;-0.0009662109958940612
6.82800e-06;-0.0010250664518261054
6.82825e-06;-0.0010892983146058122
6.82850e-06;-0.001154126793726698
6.82875e-06;-0.0012231366905601476
6.82900e-06;-0.0012925357551610659
6.82925e-06;-0.0013646623229907106
6.82950e-06;-0.0014369637270416618
6.82975e-06;-0.0015104904801543355
6.83000e-06;-0.0015839800056170064
6.83025e-06;-0.0016572086190904814
6.83050e-06;-0.0017301810289967216
6.83075e-06;-0.0018013578224232382
6.83100e-06;-0.001872036352605579
6.83125e-06;-0.0019392227780455924
6.83150e-06;-0.0020056646068716388
6.83175e-06;-0.002066887890281711
6.83200e-06;-0.0021271231219093
6.83225e-06;-0.0021804335394794735
6.83250e-06;-0.0022329475528034496
6.83275e-06;-0.0022795245679720104
6.83300e-06;-0.0023231418840764045
6.83325e-06;-0.002363471023135193
6.83350e-06;-0.0024038001621941186
6.83375e-06;-0.0024432299649522074
6.83400e-06;-0.0024763567208802074
6.83425e-06;-0.0025094834768083192
6.83450e-06;-0.0025417799635873294
6.83475e-06;-0.0025682574643836474
6.83500e-06;-0.002594282709555356
6.83525e-06;-0.0026171382968589946
6.83550e-06;-0.002639993884162633
6.83575e-06;-0.0026621293686398847
6.83600e-06;-0.0026792179737308605
6.83625e-06;-0.0026963065788218944
6.83650e-06;-0.00271339518391287
6.83675e-06;-0.0027298129426759597
6.83700e-06;-0.0027415290388723233
6.83725e-06;-0.002753245135068647
6.83750e-06;-0.0027649612312649705
6.83775e-06;-0.0027761479830298885
6.83800e-06;-0.0027836247958793335
6.83825e-06;-0.002791101608728778
6.83850e-06;-0.002798578421578249
6.83875e-06;-0.0028060552344276934
6.83900e-06;-0.0028114816031214267
6.83925e-06;-0.00281567700435951
6.83950e-06;-0.002819872405597579
6.83975e-06;-0.002824067806835648
6.84000e-06;-0.0028280196236929816
6.84025e-06;-0.002830264266318234
6.84050e-06;-0.002832508908943494
6.84075e-06;-0.002834632204352885
6.84100e-06;-0.00283590503127408
6.84125e-06;-0.002837177858195279
6.84150e-06;-0.0028384506851164737
6.84175e-06;-0.0028396719951331198
6.84200e-06;-0.002840532246153763
6.84225e-06;-0.002841392497174403
6.84250e-06;-0.0028422527481950432
6.84275e-06;-0.0028428660044403785
6.84300e-06;-0.0028417481845201963
6.84325e-06;-0.002840630364600014
6.84350e-06;-0.002839512544679828
6.84375e-06;-0.0028383947247596457
6.84400e-06;-0.0028372769048394635
6.84425e-06;-0.0028361590849192778
6.84450e-06;-0.0028346223765792667
6.84475e-06;-0.0028301498662222633
6.84500e-06;-0.002825677355865275
6.84525e-06;-0.002821204845508287
6.84550e-06;-0.002816732335151283
6.84575e-06;-0.002812259824794295
6.84600e-06;-0.002807787314437307
6.84625e-06;-0.0028029035920867267
6.84650e-06;-0.002795137868365656
6.84675e-06;-0.0027873721446445847
6.84700e-06;-0.0027796064209234875
6.84725e-06;-0.0027718406972024167
6.84750e-06;-0.0027640749734813455
6.84775e-06;-0.0027563092497602483
6.84800e-06;-0.002748543526039177
6.84825e-06;-0.0027407778023181063
6.84850e-06;-0.0027319628357735746
6.84875e-06;-0.0027225179648423157
6.84900e-06;-0.0027130730939110247
6.84925e-06;-0.0027036282229797657
6.84950e-06;-0.0026941833520485073
6.84975e-06;-0.0026847384811172163
6.85000e-06;-0.0026752936101859573
6.85025e-06;-0.0026658487392546984
6.85050e-06;-0.0026564602814203053
6.85075e-06;-0.0026474671978091746
6.85100e-06;-0.002638474114198044
6.85125e-06;-0.002629569440805163
6.85150e-06;-0.002621284395181384
6.85175e-06;-0.002613073601348952
6.85200e-06;-0.0026054423972983526
6.85225e-06;-0.002598290673041619
6.85250e-06;-0.0025916021943448693
6.85275e-06;-0.0025848616181037096
6.85300e-06;-0.0025770296059352865
6.85325e-06;-0.0025674208141808355
6.85350e-06;-0.0025558974511390577
6.85375e-06;-0.002542225868574346
6.85400e-06;-0.002528207709813523
6.85425e-06;-0.0025117605531458135
6.85450e-06;-0.0024949378638277754
6.85475e-06;-0.002475483233735923
6.85500e-06;-0.002455340500218745
6.85525e-06;-0.0024303751568427448
6.85550e-06;-0.0024054098134666593
6.85575e-06;-0.0023798461917571455
6.85600e-06;-0.0023500895041756063
6.85625e-06;-0.002320051130765265
6.85650e-06;-0.0022878610288948834
6.85675e-06;-0.0022542195507687084
6.85700e-06;-0.0022189037450053486
6.85725e-06;-0.002181830279575223
6.85750e-06;-0.0021431682362315035
6.85775e-06;-0.0021031620580775484
6.85800e-06;-0.00206205604260391
6.85825e-06;-0.0020200944005802557
6.85850e-06;-0.001977503139010569
6.85875e-06;-0.001934385306468124
6.85900e-06;-0.0018907155435380924
6.85925e-06;-0.0018465554690684561
6.85950e-06;-0.0018021246932897552
6.85975e-06;-0.001757690462171637
6.86000e-06;-0.0017135197160473518
6.86025e-06;-0.0016698790754495004
6.86050e-06;-0.0016270237761954278
6.86075e-06;-0.0015851325872543853
6.86100e-06;-0.0015443033058158934
6.86125e-06;-0.0015046881595001508
6.86150e-06;-0.0014665387318779945
6.86175e-06;-0.001430136064072435
6.86200e-06;-0.0013957612409404361
6.86225e-06;-0.0013636919307936652
6.86250e-06;-0.0013340907208159293
6.86275e-06;-0.0013063310576433298
6.86300e-06;-0.0012789233965051737
6.86325e-06;-0.001250867282401501
6.86350e-06;-0.0012221338574668085
6.86375e-06;-0.00119298968371524
6.86400e-06;-0.0011637011194030368
6.86425e-06;-0.0011345326039855508
6.86450e-06;-0.0011056762856601436
6.86475e-06;-0.0010768301976872767
6.86500e-06;-0.0010471516045558057
6.86525e-06;-0.001016104383074779
6.86550e-06;-0.0009837611045704251
6.86575e-06;-0.0009503790905133218
6.86600e-06;-0.000916215909864955
6.86625e-06;-0.0008815275466252915
6.86650e-06;-0.0008465248683580756
6.86675e-06;-0.000811109209580225
6.86700e-06;-0.0007748432493474643
6.86725e-06;-0.0007374816157991654
6.86750e-06;-0.0006991603589854604
6.86775e-06;-0.0006601311396974861
6.86800e-06;-0.000620645807947513
6.86825e-06;-0.0005809553414411079
6.86850e-06;-0.0005412822272720111
6.86875e-06;-0.0005016550796574827
6.86900e-06;-0.0004618904801594011
6.86925e-06;-0.0004219252677232713
6.86950e-06;-0.0003819350656001642
6.86975e-06;-0.0003421681585986579
6.87000e-06;-0.0003028726350380211
6.87025e-06;-0.000264296159927308
6.87050e-06;-0.0002266685926141438
6.87075e-06;-0.00019009823353134865
6.87100e-06;-0.00015456061253184676
6.87125e-06;-0.00012010658764937235
6.87150e-06;-8.693658729882093e-05
6.87175e-06;-5.5296500885517335e-05
6.87200e-06;-2.5432150735736477e-05
6.87225e-06;2.41027592516231e-06
6.87250e-06;2.797111799963679e-05
6.87275e-06;5.0907015036200115e-05
6.87300e-06;7.083085153759125e-05
6.87325e-06;8.751162576884418e-05
6.87350e-06;0.00010089217464881603
6.87375e-06;0.0001109598862096782
6.87400e-06;0.00011770218577186841
6.87425e-06;0.00012110628519942899
6.87450e-06;0.0001211509558394906
6.87475e-06;0.00011776257280972259
6.87500e-06;0.00011084007496688021
6.87525e-06;0.00010038024670551313
6.87550e-06;8.64887497738915e-05
6.87575e-06;6.929914346699385e-05
6.87600e-06;4.894500344871653e-05
6.87625e-06;2.5559772769864904e-05
6.87650e-06;-7.283987926923295e-07
6.87675e-06;-2.982419494747577e-05
6.87700e-06;-6.164946368225364e-05
6.87725e-06;-9.606479243847203e-05
6.87750e-06;-0.0001328625707967876
6.87775e-06;-0.0001718177206500144
6.87800e-06;-0.0002127051475068415
6.87825e-06;-0.0002553815603907043
6.87850e-06;-0.00029995257788792347
6.87875e-06;-0.0003448015108425869
6.87900e-06;-0.00039159822922206955
6.87925e-06;-0.00043855137714158437
6.87950e-06;-0.0004866008699032399
6.87975e-06;-0.0005346569487551233
6.88000e-06;-0.0005827591865756189
6.88025e-06;-0.0006308614243962774
6.88050e-06;-0.0006730785655301005
6.88075e-06;-0.0007182070651897711
6.88100e-06;-0.0007680523146137122
6.88125e-06;-0.0008122047669746677
6.88150e-06;-0.0008558430254793466
6.88175e-06;-0.0008955353565318272
6.88200e-06;-0.0009349541283754704
6.88225e-06;-0.0009707869503650206
6.88250e-06;-0.0010037297017976227
6.88275e-06;-0.0010344734046093618
6.88300e-06;-0.0010649711390610787
6.88325e-06;-0.0010954651569746099
6.88350e-06;-0.0011268342969827656
6.88375e-06;-0.0011581949082292357
6.88400e-06;-0.0011889419240275016
6.88425e-06;-0.0012196889398257678
6.88450e-06;-0.0012504118609311722
6.88475e-06;-0.0012806013885875145
6.88500e-06;-0.0013107756681213704
6.88525e-06;-0.001340716160805319
6.88550e-06;-0.001368548153955254
6.88575e-06;-0.0013937608173814104
6.88600e-06;-0.00142727434381374
6.88625e-06;-0.0014613488179404672
6.88650e-06;-0.0015002855797980493
6.88675e-06;-0.0015381354656802443
6.88700e-06;-0.0015734824743089825
6.88725e-06;-0.0016097219938434057
6.88750e-06;-0.0016468897594583002
6.88775e-06;-0.001684735151765354
6.88800e-06;-0.001723348717031617
6.88825e-06;-0.0017622106026615584
6.88850e-06;-0.0018031800063760832
6.88875e-06;-0.0018431806680750428
6.88900e-06;-0.0018812400051344065
6.88925e-06;-0.001919390004588998
6.88950e-06;-0.001957540004043719
6.88975e-06;-0.0019953344437807275
6.89000e-06;-0.0020328935656279057
6.89025e-06;-0.0020704671337409847
6.89050e-06;-0.0021080173056404164
6.89075e-06;-0.0021439899687728317
6.89100e-06;-0.002177562061451339
6.89125e-06;-0.002209041773406131
6.89150e-06;-0.00224052148536103
6.89175e-06;-0.0022716116756409627
6.89200e-06;-0.0022992631085425835
6.89225e-06;-0.002326697918528144
6.89250e-06;-0.0023519772394977757
6.89275e-06;-0.002374843656992729
6.89300e-06;-0.002394891471127448
6.89325e-06;-0.0024108421397306297
6.89350e-06;-0.0024267928083338114
6.89375e-06;-0.0024427434769370474
