Time(s);Current(A)
6.25000e-06;-0.0014737866378496797
6.25025e-06;-0.0014831203310338122
6.25050e-06;-0.0014924540242179764
6.25075e-06;-0.0015017877174021087
6.25100e-06;-0.0015027801969985334
6.25125e-06;-0.001501244294462341
6.25150e-06;-0.0014997083919261484
6.25175e-06;-0.0014981724893899507
6.25200e-06;-0.0014966365868537583
6.25225e-06;-0.0014951006843175658
6.25250e-06;-0.0014935647817813681
6.25275e-06;-0.0014920288792451756
6.25300e-06;-0.0014904929767089832
6.25325e-06;-0.0014889570741727855
6.25350e-06;-0.001487421171636593
6.25375e-06;-0.0014858852691004005
6.25400e-06;-0.0014843493665642029
6.25425e-06;-0.0014828134640280104
6.25450e-06;-0.001481277561491818
6.25475e-06;-0.0014797416589556202
6.25500e-06;-0.0014782057564194278
6.25525e-06;-0.00147666985388323
6.25550e-06;-0.0014751339513470376
6.25575e-06;-0.0014735980488108451
6.25600e-06;-0.0014720621462746475
6.25625e-06;-0.0014693985869886515
6.25650e-06;-0.0014636454030551875
6.25675e-06;-0.001457892219121704
6.25700e-06;-0.0014521390351882398
6.25725e-06;-0.0014463858512547758
6.25750e-06;-0.0014406326673212923
6.25775e-06;-0.001434879483387828
6.25800e-06;-0.001429126299454364
6.25825e-06;-0.0014233731155208805
6.25850e-06;-0.0014176199315874163
6.25875e-06;-0.0014121315110360278
6.25900e-06;-0.0014067233453537052
6.25925e-06;-0.001401315179671401
6.25950e-06;-0.0013959070139890784
6.25975e-06;-0.0013904988483067742
6.26000e-06;-0.00138509068262447
6.26025e-06;-0.0013796825169421474
6.26050e-06;-0.0013742743512598432
6.26075e-06;-0.0013688661855775388
6.26100e-06;-0.0013616825553548636
6.26125e-06;-0.0013496343960945607
6.26150e-06;-0.0013375862368342581
6.26175e-06;-0.0013255380775739145
6.26200e-06;-0.0013134899183136117
6.26225e-06;-0.001301441759053309
6.26250e-06;-0.0012893935997929653
6.26275e-06;-0.0012773454405326625
6.26300e-06;-0.0012652972812723596
6.26325e-06;-0.001253249122012016
6.26350e-06;-0.0012389117457087305
6.26375e-06;-0.0012183022290582226
6.26400e-06;-0.0011976927124077842
6.26425e-06;-0.0011770831957573459
6.26450e-06;-0.0011564736791068377
6.26475e-06;-0.0011358641624563993
6.26500e-06;-0.0011152546458059612
6.26525e-06;-0.001094645129155453
6.26550e-06;-0.0010740356125050147
6.26575e-06;-0.0010534260958545763
6.26600e-06;-0.0010320075640568324
6.26625e-06;-0.0010083724418481976
6.26650e-06;-0.0009847373196395625
6.26675e-06;-0.0009611021974308475
6.26700e-06;-0.0009374670752222126
6.26725e-06;-0.0009138319530135776
6.26750e-06;-0.0008901968308048626
6.26775e-06;-0.0008685060425077214
6.26800e-06;-0.0008474046191833438
6.26825e-06;-0.0008263031958590376
6.26850e-06;-0.0008052017725347314
6.26875e-06;-0.0007841003492103537
6.26900e-06;-0.0007629989258860475
6.26925e-06;-0.0007431846139450634
6.26950e-06;-0.0007268968104503263
6.26975e-06;-0.0007106090069556445
6.27000e-06;-0.0006948997891400545
6.27025e-06;-0.0006807758166346757
6.27050e-06;-0.0006666518441293446
6.27075e-06;-0.0006529388090637
6.27100e-06;-0.000640351686153467
6.27125e-06;-0.0006277645632432766
6.27150e-06;-0.0006151774403330862
6.27175e-06;-0.0006025903174228533
6.27200e-06;-0.0005900031945126629
6.27225e-06;-0.0005774160716024298
6.27250e-06;-0.0005648289486922394
6.27275e-06;-0.0005525127591241645
6.27300e-06;-0.0005409388897092648
6.27325e-06;-0.0005293650202944045
6.27350e-06;-0.0005177911508795441
6.27375e-06;-0.0005062172814646444
6.27400e-06;-0.0004946434120497841
6.27425e-06;-0.0004830695426349237
6.27450e-06;-0.0004714956732200241
6.27475e-06;-0.0004599939636566777
6.27500e-06;-0.00044868996217758104
6.27525e-06;-0.00043738596069844613
6.27550e-06;-0.0004260819592193495
6.27575e-06;-0.00041477795774025284
6.27600e-06;-0.0004034739562611179
6.27625e-06;-0.00039216995478202123
6.27650e-06;-0.0003808659533028863
6.27675e-06;-0.00037054148715841794
6.27700e-06;-0.0003605139369975308
6.27725e-06;-0.00035048638683660973
6.27750e-06;-0.0003404588366757226
6.27775e-06;-0.00033043128651483547
6.27800e-06;-0.0003204037363539144
6.27825e-06;-0.00031037618619302726
6.27850e-06;-0.000300788882650003
6.27875e-06;-0.0002924077943856881
6.27900e-06;-0.0002840267061214016
6.27925e-06;-0.00027596912581425614
6.27950e-06;-0.0002687979128858622
6.27975e-06;-0.0002615731516124175
6.28000e-06;-0.0002542016752266751
6.28025e-06;-0.00024600342904654337
6.28050e-06;-0.00023480974493169342
6.28075e-06;-0.00022093948071684198
6.28100e-06;-0.0002045956249586375
6.28125e-06;-0.00018598116909241243
6.28150e-06;-0.0001652990093021407
6.28175e-06;-0.0001426678591300346
6.28200e-06;-0.00011782182155276699
6.28225e-06;-9.009074616822436e-05
6.28250e-06;-5.9023109727908895e-05
6.28275e-06;-2.469954806025672e-05
6.28300e-06;1.2589604593813411e-05
6.28325e-06;5.255404588856875e-05
6.28350e-06;9.49035534427381e-05
6.28375e-06;0.00013940064933635796
6.28400e-06;0.00018604878038216865
6.28425e-06;0.00023510459834728232
6.28450e-06;0.0002866877623737311
6.28475e-06;0.00034081400966819766
6.28500e-06;0.0003970787134124794
6.28525e-06;0.0004540766271517449
6.28550e-06;0.0005130834355938085
6.28575e-06;0.0005727496139684301
6.28600e-06;0.0006342223754131776
6.28625e-06;0.000695695136857925
6.28650e-06;0.0007571678983028808
6.28675e-06;0.0008187361028050699
6.28700e-06;0.000880565808178454
6.28725e-06;0.0009423955135520475
6.28750e-06;0.0010042252189254317
6.28775e-06;0.0010650088560935885
6.28800e-06;0.0011229264100252596
6.28825e-06;0.0011808439639567343
6.28850e-06;0.001237146875622048
6.28875e-06;0.0012890258892003209
6.28900e-06;0.0013409049027784177
6.28925e-06;0.0013907569910030324
6.28950e-06;0.0014350555820952613
6.28975e-06;0.001477137687262917
6.29000e-06;0.001513146925364581
6.29025e-06;0.0015463433539566948
6.29050e-06;0.0015718330707473113
6.29075e-06;0.0015943670060483267
6.29100e-06;0.0016088025059548667
6.29125e-06;0.00162026918164154
6.29150e-06;0.0016236016866441692
6.29175e-06;0.0016238925896150456
6.29200e-06;0.00161584992069131
6.29225e-06;0.0016046474247018237
6.29250e-06;0.001584787436459436
6.29275e-06;0.0015619332856143706
6.29300e-06;0.0015308755403959883
6.29325e-06;0.0014970707440631404
6.29350e-06;0.0014557394049011573
6.29375e-06;0.0014118706788469697
6.29400e-06;0.0013610498611417259
6.29425e-06;0.0013078728073035594
6.29450e-06;0.0012482399900202866
6.29475e-06;0.001186609907402444
6.29500e-06;0.0011195075920322232
6.29525e-06;0.0010508179935198125
6.29550e-06;0.0009777794571630505
6.29575e-06;0.000903313289189397
6.29600e-06;0.000824935606628963
6.29625e-06;0.0007465579240685291
6.29650e-06;0.0006673259961177986
6.29675e-06;0.0005857535531037879
6.29700e-06;0.0005041811100897771
6.29725e-06;0.0004226086670754899
6.29750e-06;0.0003410362240614791
6.29775e-06;0.0002599530530781263
6.29800e-06;0.00018065528165031177
6.29825e-06;0.00010314342068362898
6.29850e-06;2.7889973322423706e-05
6.29875e-06;-4.45838775088809e-05
6.29900e-06;-0.00011374025790916609
6.29925e-06;-0.00017904135218492742
6.29950e-06;-0.000239949541661475
6.29975e-06;-0.0002960790089159956
6.30000e-06;-0.0003477554321894025
6.30025e-06;-0.00039612695382584075
6.30050e-06;-0.00044210301084809874
6.30075e-06;-0.0004857361864670071
6.30100e-06;-0.0005267234962675053
6.30125e-06;-0.0005647620451708707
6.30150e-06;-0.0005995491205033816
6.30175e-06;-0.0006305195766227367
6.30200e-06;-0.0006580044774064841
6.30225e-06;-0.0006843880923881569
6.30250e-06;-0.0007077543355009892
6.30275e-06;-0.0007300982729242598
6.30300e-06;-0.0007496412331414824
6.30325e-06;-0.000767995289358957
6.30350e-06;-0.0007830919118782032
6.30375e-06;-0.0007968142747323256
6.30400e-06;-0.0008067713548183978
6.30425e-06;-0.0008167284349045039
6.30450e-06;-0.000825646496033096
6.30475e-06;-0.0008317177878970143
6.30500e-06;-0.0008377890797609532
6.30525e-06;-0.0008427830441870008
6.30550e-06;-0.0008448252793727035
6.30575e-06;-0.000846867514558413
6.30600e-06;-0.0008478434432975027
6.30625e-06;-0.0008458978387989335
6.30650e-06;-0.0008439522343003576
6.30675e-06;-0.0008420066298017883
6.30700e-06;-0.0008400610253032125
6.30725e-06;-0.0008381154208046431
6.30750e-06;-0.0008361698163060738
6.30775e-06;-0.0008326082010544991
6.30800e-06;-0.0008285567418893513
6.30825e-06;-0.0008245052827242035
6.30850e-06;-0.0008204538235590421
6.30875e-06;-0.0008164023643938943
6.30900e-06;-0.0008123509052287465
6.30925e-06;-0.0008083501592251615
6.30950e-06;-0.0008044883603203252
6.30975e-06;-0.0008006265614154891
6.31000e-06;-0.0007967647625106399
6.31025e-06;-0.0007929029636058036
6.31050e-06;-0.0007890411647009675
6.31075e-06;-0.0007851793657961182
6.31100e-06;-0.0007813175668912821
6.31125e-06;-0.0007774557679864327
6.31150e-06;-0.0007735939690815966
6.31175e-06;-0.0007689627969550098
6.31200e-06;-0.0007622236478520458
6.31225e-06;-0.0007554844987491047
6.31250e-06;-0.0007487453496461635
6.31275e-06;-0.0007420062005431995
6.31300e-06;-0.0007352670514402584
6.31325e-06;-0.0007285279023373171
6.31350e-06;-0.0007217887532343533
6.31375e-06;-0.000715049604131412
6.31400e-06;-0.0007083104550284709
6.31425e-06;-0.0007008598615696019
6.31450e-06;-0.0006914600082720926
6.31475e-06;-0.0006820601549745834
6.31500e-06;-0.0006726603016770422
6.31525e-06;-0.000663260448379533
6.31550e-06;-0.000653860595081992
6.31575e-06;-0.0006444607417844827
6.31600e-06;-0.0006350608884869735
6.31625e-06;-0.0006255587692120771
6.31650e-06;-0.0006157764552025783
6.31675e-06;-0.0006059941411930795
6.31700e-06;-0.0005962118271835475
6.31725e-06;-0.0005864295131740487
6.31750e-06;-0.0005766471991645499
6.31775e-06;-0.0005668648851550179
6.31800e-06;-0.0005570825711455191
6.31825e-06;-0.0005483396211704042
6.31850e-06;-0.000542444385922337
6.31875e-06;-0.0005365491506742897
6.31900e-06;-0.0005306539154262424
6.31925e-06;-0.0005247586801781751
6.31950e-06;-0.000518863444930128
6.31975e-06;-0.0005129682096820607
6.32000e-06;-0.0005070729744340134
6.32025e-06;-0.0005011777391859661
6.32050e-06;-0.0004952825039378989
6.32075e-06;-0.0004893872686898517
6.32100e-06;-0.0004834920334418044
6.32125e-06;-0.0004775967981937372
6.32150e-06;-0.00047170156294568994
6.32175e-06;-0.00047166477718382457
6.32200e-06;-0.0004734038000404779
6.32225e-06;-0.00047514282289712534
6.32250e-06;-0.00047688184575377275
6.32275e-06;-0.00047862086861042607
6.32300e-06;-0.00048035989146707353
6.32325e-06;-0.000482098914323721
6.32350e-06;-0.0004838379371803743
6.32375e-06;-0.0004855769600370217
6.32400e-06;-0.0004873159828936751
6.32425e-06;-0.0004890550057503225
6.32450e-06;-0.0004907940286069699
6.32475e-06;-0.0004925330514636233
6.32500e-06;-0.0004953904653182332
6.32525e-06;-0.0005013121169274765
6.32550e-06;-0.0005072337685367398
6.32575e-06;-0.0005131554201459832
6.32600e-06;-0.0005190770717552265
6.32625e-06;-0.0005249987233644898
6.32650e-06;-0.0005309203749737331
6.32675e-06;-0.0005368420265829764
6.32700e-06;-0.0005431359051333947
6.32725e-06;-0.0005495426128225593
6.32750e-06;-0.000555949320511724
6.32775e-06;-0.0005623560282009102
6.32800e-06;-0.0005687627358900749
6.32825e-06;-0.0005751694435792612
6.32850e-06;-0.0005815761512684258
6.32875e-06;-0.0005874484876737162
6.32900e-06;-0.0005918567201423112
6.32925e-06;-0.0005962649526108914
6.32950e-06;-0.0006006731850794716
6.32975e-06;-0.0006050814175480668
6.33000e-06;-0.000609489650016647
6.33025e-06;-0.0006138978824852272
6.33050e-06;-0.0006183061149538224
6.33075e-06;-0.0006227143474224026
6.33100e-06;-0.0006271225798909828
6.33125e-06;-0.0006315308123595779
6.33150e-06;-0.0006348705832668246
6.33175e-06;-0.0006378864829427668
6.33200e-06;-0.0006409023826187191
6.33225e-06;-0.0006439182822946612
6.33250e-06;-0.0006469341819706135
6.33275e-06;-0.0006499500816465557
6.33300e-06;-0.0006529659813224978
6.33325e-06;-0.0006559818809984501
6.33350e-06;-0.0006589977806743922
6.33375e-06;-0.0006620136803503344
6.33400e-06;-0.0006649085593803514
6.33425e-06;-0.0006674718584593775
6.33450e-06;-0.0006700351575384036
6.33475e-06;-0.0006725984566174383
6.33500e-06;-0.0006751617556964644
6.33525e-06;-0.0006777250547754905
6.33550e-06;-0.0006802883538545252
6.33575e-06;-0.0006828516529335514
6.33600e-06;-0.0006854149520125774
6.33625e-06;-0.0006879782510916121
6.33650e-06;-0.0006905415501706382
6.33675e-06;-0.000692682830734569
6.33700e-06;-0.0006946961893768722
6.33725e-06;-0.0006967095480191754
6.33750e-06;-0.0006987229066614853
6.33775e-06;-0.0007007362653037885
6.33800e-06;-0.0007027496239460915
6.33825e-06;-0.0007047629825884015
6.33850e-06;-0.0007067763412307047
6.33875e-06;-0.0007087896998730078
6.33900e-06;-0.0007108030585153178
6.33925e-06;-0.0007126683053128649
6.33950e-06;-0.0007141277459949483
6.33975e-06;-0.0007150979597819463
6.34000e-06;-0.0007147277590585367
6.34025e-06;-0.0007131181565564288
6.34050e-06;-0.0007070885043921084
6.34075e-06;-0.0006972822717573405
6.34100e-06;-0.0006839013925430727
6.34125e-06;-0.0006671477038380229
6.34150e-06;-0.0006472230501972721
6.34175e-06;-0.00062424019184908
6.34200e-06;-0.000597906885543288
6.34225e-06;-0.0005675134342047595
6.34250e-06;-0.0005325985935453109
6.34275e-06;-0.000493275550276341
6.34300e-06;-0.0004498816935889112
6.34325e-06;-0.000402754517258484
6.34350e-06;-0.00035223139662129076
6.34375e-06;-0.00029859389269560525
6.34400e-06;-0.00024186990066796057
6.34425e-06;-0.00018182587174688365
6.34450e-06;-0.00011838385397782118
6.34475e-06;-5.182567618627895e-05
6.34500e-06;1.742629280672217e-05
6.34525e-06;8.894973801915466e-05
6.34550e-06;0.00016232242897772607
6.34575e-06;0.00023731668910758
6.34600e-06;0.00031366264296536485
6.34625e-06;0.00039053838380739375
6.34650e-06;0.0004688656682347534
6.34675e-06;0.0005471929526623785
6.34700e-06;0.0006255202370897382
6.34725e-06;0.0007038475215170979
6.34750e-06;0.0007821748059447229
6.34775e-06;0.0008592369170091897
6.34800e-06;0.0009328326267974922
6.34825e-06;0.0010064283365860442
6.34850e-06;0.001078428713987822
6.34875e-06;0.0011460580997273869
6.34900e-06;0.001211810126089381
6.34925e-06;0.0012724184455619025
6.34950e-06;0.0013306683343590282
6.34975e-06;0.001382456446973332
6.35000e-06;0.0014322791851271847
6.35025e-06;0.00147671706715213
6.35050e-06;0.001519701136119779
6.35075e-06;0.0015587019569539686
6.35100e-06;0.0015955466858239551
6.35125e-06;0.0016264840187943557
6.35150e-06;0.0016574213517647565
6.35175e-06;0.0016856857655079115
6.35200e-06;0.0017066267476236769
6.35225e-06;0.0017275677297394424
6.35250e-06;0.001746589002514523
6.35275e-06;0.0017603505353178995
6.35300e-06;0.001774112068121276
6.35325e-06;0.001785853337010881
6.35350e-06;0.0017920593602072604
6.35375e-06;0.0017982653834036607
6.35400e-06;0.0018018450842641992
6.35425e-06;0.001798229022581696
6.35450e-06;0.0017946129608991804
6.35475e-06;0.0017909968992166772
6.35500e-06;0.001787380837534174
6.35525e-06;0.0017837647758516585
6.35550e-06;0.0017801487141691553
6.35575e-06;0.0017765326524866519
6.35600e-06;0.0017666076779688476
6.35625e-06;0.0017547703507368867
6.35650e-06;0.001742933023504926
6.35675e-06;0.001731095696272925
6.35700e-06;0.0017192583690409642
6.35725e-06;0.0017074210418090035
6.35750e-06;0.0016955837145770025
6.35775e-06;0.001683454847470997
6.35800e-06;0.001670527201145564
6.35825e-06;0.0016575995548201749
6.35850e-06;0.0016446719084947856
6.35875e-06;0.0016317442621693527
6.35900e-06;0.0016188166158439634
6.35925e-06;0.0016070679109641032
6.35950e-06;0.001595676565891185
6.35975e-06;0.001584285220818305
6.36000e-06;0.0015728938757454253
6.36025e-06;0.0015615025306725068
6.36050e-06;0.001548005855767295
6.36075e-06;0.0015287408662347647
6.36100e-06;0.0015094758767021691
6.36125e-06;0.0014883981240657648
6.36150e-06;0.0014623536494615356
6.36175e-06;0.001436309174857218
6.36200e-06;0.0014084529851329818
6.36225e-06;0.0013756329447727777
6.36250e-06;0.0013405113138924836
6.36275e-06;0.0012990836410518287
6.36300e-06;0.0012576559682110334
6.36325e-06;0.0012143939240837516
6.36350e-06;0.0011661059545354964
6.36375e-06;0.0011165819450571562
6.36400e-06;0.001063671355909797
6.36425e-06;0.0010093266189669982
6.36450e-06;0.0009510525140084007
6.36475e-06;0.0008913728162215282
6.36500e-06;0.0008278419871073097
6.36525e-06;0.0007643111579928759
6.36550e-06;0.0006998417503562453
6.36575e-06;0.000632800766458301
6.36600e-06;0.0005657597825601295
6.36625e-06;0.0004981686247591919
6.36650e-06;0.000429070066016358
6.36675e-06;0.00035997150727375816
6.36700e-06;0.00029101740467388833
6.36725e-06;0.00022210708950654267
6.36750e-06;0.00015362483542153977
6.36775e-06;8.670451479308356e-05
6.36800e-06;2.128385770047383e-05
6.36825e-06;-4.246570937837052e-05
6.36850e-06;-0.00010431174773764937
6.36875e-06;-0.00016387166959313276
6.36900e-06;-0.00022070365578385044
6.36925e-06;-0.0002743659193851457
6.36950e-06;-0.00032441685000804925
6.36975e-06;-0.0003705612471778557
6.37000e-06;-0.00041318674726558715
6.37025e-06;-0.00045345842695253345
6.37050e-06;-0.0004922856930549474
6.37075e-06;-0.0005294860700676205
6.37100e-06;-0.0005648444592086585
6.37125e-06;-0.0005990571192095636
6.37150e-06;-0.0006301306387040534
6.37175e-06;-0.0006598776596192848
6.37200e-06;-0.0006859902565893363
6.37225e-06;-0.0007121028535594763
6.37250e-06;-0.0007374247674364974
6.37275e-06;-0.0007605803182193766
6.37300e-06;-0.0007837358690023342
6.37325e-06;-0.0008058506939616053
6.37350e-06;-0.0008251140730821836
6.37375e-06;-0.0008443774522028273
6.37400e-06;-0.000862832794239697
6.37425e-06;-0.0008790742256311845
6.37450e-06;-0.0008953156570227271
6.37475e-06;-0.0009103593888338665
6.37500e-06;-0.0009221215882694686
6.37525e-06;-0.000933883787705031
6.37550e-06;-0.0009456459871405934
6.37575e-06;-0.0009574081865761957
6.37600e-06;-0.000969170386011758
6.37625e-06;-0.0009809325854473205
6.37650e-06;-0.0009926947848829227
6.37675e-06;-0.001004456984318485
6.37700e-06;-0.0010162191837540474
6.37725e-06;-0.0010279813831896496
6.37750e-06;-0.00103580266573582
6.37775e-06;-0.0010424293806437603
6.37800e-06;-0.001049056095551723
6.37825e-06;-0.0010556828104596632
6.37850e-06;-0.0010623095253676036
6.37875e-06;-0.0010689362402755663
6.37900e-06;-0.0010755629551835067
6.37925e-06;-0.0010821896700914694
6.37950e-06;-0.0010888163849994098
6.37975e-06;-0.00109544309990735
6.38000e-06;-0.0011019637283102902
6.38025e-06;-0.0011081936942578586
6.38050e-06;-0.001114423660205427
6.38075e-06;-0.0011206536261530167
6.38100e-06;-0.001126883592100585
6.38125e-06;-0.0011331135580481535
6.38150e-06;-0.001139343523995743
6.38175e-06;-0.0011455734899433114
6.38200e-06;-0.0011518034558908798
6.38225e-06;-0.0011580334218384693
6.38250e-06;-0.0011642633877860377
6.38275e-06;-0.001170493353733606
6.38300e-06;-0.0011767233196811958
6.38325e-06;-0.0011829532856287642
6.38350e-06;-0.0011891832515763536
6.38375e-06;-0.001196184874002658
6.38400e-06;-0.0012053007292121875
6.38425e-06;-0.0012144165844217478
6.38450e-06;-0.0012235324396312772
6.38475e-06;-0.0012326482948408065
6.38500e-06;-0.001241764150050367
6.38525e-06;-0.0012508800052598963
6.38550e-06;-0.0012599958604694256
6.38575e-06;-0.001269111715678986
6.38600e-06;-0.0012782275708885153
6.38625e-06;-0.0012873434260980447
6.38650e-06;-0.001296459281307605
6.38675e-06;-0.0013055751365171344
6.38700e-06;-0.0013146909917266638
6.38725e-06;-0.0013238068469362241
6.38750e-06;-0.0013327406099790811
6.38775e-06;-0.00134117546549132
6.38800e-06;-0.0013496103210035304
6.38825e-06;-0.0013580451765157406
6.38850e-06;-0.0013664800320279794
6.38875e-06;-0.0013749148875401899
6.38900e-06;-0.0013833497430524
6.38925e-06;-0.0013905809853605893
6.38950e-06;-0.0013945144927775188
6.38975e-06;-0.0013984480001944482
6.39000e-06;-0.0014023815076113911
6.39025e-06;-0.0014063150150283206
6.39050e-06;-0.0014102485224452503
6.39075e-06;-0.001414182029862193
6.39100e-06;-0.0014161564640612421
6.39125e-06;-0.0014127633066759525
6.39150e-06;-0.0014093701492906513
6.39175e-06;-0.0014059769919053616
6.39200e-06;-0.001400153847813898
6.39225e-06;-0.001387672873849341
6.39250e-06;-0.0013751918998847839
6.39275e-06;-0.0013627109259201845
6.39300e-06;-0.0013502299519556275
6.39325e-06;-0.0013377489779910702
6.39350e-06;-0.001325268004026471
6.39375e-06;-0.001312787030061914
