Time(s);Current(A)
7.05000e-06;-0.00219379273677962
7.05025e-06;-0.002178167394673741
7.05050e-06;-0.0021625420525679152
7.05075e-06;-0.0021469167104620898
7.05100e-06;-0.002131291368356211
7.05125e-06;-0.002115666026250385
7.05150e-06;-0.0020986928910155756
7.05175e-06;-0.002079768222273789
7.05200e-06;-0.002060843553532066
7.05225e-06;-0.0020419188847903428
7.05250e-06;-0.002022994216048556
7.05275e-06;-0.002004069547306833
7.05300e-06;-0.001984778488969463
7.05325e-06;-0.001964956917783211
7.05350e-06;-0.001945135346597026
7.05375e-06;-0.0019255470232154917
7.05400e-06;-0.0019062964303777606
7.05425e-06;-0.0018870458375400297
7.05450e-06;-0.0018682373439292165
7.05475e-06;-0.001850068986728296
7.05500e-06;-0.0018324216088057574
7.05525e-06;-0.0018155285814553937
7.05550e-06;-0.0017993577916496657
7.05575e-06;-0.0017842327637919448
7.05600e-06;-0.0017700247165317018
7.05625e-06;-0.001757144408909448
7.05650e-06;-0.0017455096959252234
7.05675e-06;-0.0017356785384122274
7.05700e-06;-0.0017258473808992646
7.05725e-06;-0.0017175633883816268
7.05750e-06;-0.0017115196093387467
7.05775e-06;-0.0017054758302958866
7.05800e-06;-0.0017019789899273157
7.05825e-06;-0.0017021699826953107
7.05850e-06;-0.0017023609754633047
7.05875e-06;-0.0017025519682312995
7.05900e-06;-0.0017027429609992937
7.05925e-06;-0.0017029339537672878
7.05950e-06;-0.0017031249465352827
7.05975e-06;-0.0017100847352430487
7.06000e-06;-0.0017177262011476718
7.06025e-06;-0.0017253676670523205
7.06050e-06;-0.0017330091329569436
7.06075e-06;-0.0017406505988615665
7.06100e-06;-0.0017482920647662154
7.06125e-06;-0.0017576230780123054
7.06150e-06;-0.001769400466875571
7.06175e-06;-0.0017811778557388764
7.06200e-06;-0.00179367905150471
7.06225e-06;-0.0018072282815661815
7.06250e-06;-0.001820777511627699
7.06275e-06;-0.0018347011048913428
7.06300e-06;-0.0018491667563662849
7.06325e-06;-0.0018637602391785063
7.06350e-06;-0.0018785388150384702
7.06375e-06;-0.0018933035995711681
7.06400e-06;-0.0019080484149878022
7.06425e-06;-0.0019226300885135479
7.06450e-06;-0.0019369755411687032
7.06475e-06;-0.001950987624153168
7.06500e-06;-0.001964517005402268
7.06525e-06;-0.0019767450322502214
7.06550e-06;-0.001987088766425188
7.06575e-06;-0.001997432500600155
7.06600e-06;-0.002007776234775157
7.06625e-06;-0.0020181199689501238
7.06650e-06;-0.0020284637031250906
7.06675e-06;-0.0020388074373000925
7.06700e-06;-0.0020472463106286027
7.06725e-06;-0.0020529270457185713
7.06750e-06;-0.0020586077808085203
7.06775e-06;-0.00206428851589847
7.06800e-06;-0.002069969250988438
7.06825e-06;-0.0020756499860783875
7.06850e-06;-0.0020813307211683366
7.06875e-06;-0.002085081575135962
7.06900e-06;-0.0020860380628226457
7.06925e-06;-0.0020869945505093295
7.06950e-06;-0.0020879510381960164
7.06975e-06;-0.0020889075258827003
7.07000e-06;-0.002089864013569384
7.07025e-06;-0.002090820501256071
7.07050e-06;-0.0020917769889427546
7.07075e-06;-0.0020927334766294384
7.07100e-06;-0.0020936899643161254
7.07125e-06;-0.0020946464520028092
7.07150e-06;-0.002095602939689496
7.07175e-06;-0.0020952350398730606
7.07200e-06;-0.0020929494966647395
7.07225e-06;-0.002090663953456411
7.07250e-06;-0.00208837841024809
7.07275e-06;-0.002086092867039769
7.07300e-06;-0.0020838073238314404
7.07325e-06;-0.0020815217806231193
7.07350e-06;-0.0020792362374147983
7.07375e-06;-0.00207695069420647
7.07400e-06;-0.0020746651509981487
7.07425e-06;-0.002072379607789828
7.07450e-06;-0.002070094064581499
7.07475e-06;-0.0020676887111986185
7.07500e-06;-0.0020651098789895095
7.07525e-06;-0.0020625310467803915
7.07550e-06;-0.0020599522145712825
7.07575e-06;-0.0020576998606037494
7.07600e-06;-0.0020554803858623574
7.07625e-06;-0.002053260911120966
7.07650e-06;-0.0020505560994164298
7.07675e-06;-0.0020471485453363407
7.07700e-06;-0.002043740991256252
7.07725e-06;-0.002039176252871972
7.07750e-06;-0.00203293597252689
7.07775e-06;-0.0020266956921818073
7.07800e-06;-0.002020455411836704
7.07825e-06;-0.0020142151314916216
7.07850e-06;-0.002006352591580976
7.07875e-06;-0.00199614110521157
7.07900e-06;-0.0019859296188421984
7.07925e-06;-0.001975718132472827
7.07950e-06;-0.001965506646103421
7.07975e-06;-0.001953580636188698
7.08000e-06;-0.0019391720864291124
7.08025e-06;-0.0019247635366695754
7.08050e-06;-0.0019103549869100385
7.08075e-06;-0.0018959464371504527
7.08100e-06;-0.0018815378873909157
7.08125e-06;-0.0018658029131332194
7.08150e-06;-0.0018481473460223328
7.08175e-06;-0.0018304917789115063
7.08200e-06;-0.0018128362118006798
7.08225e-06;-0.0017951806446897935
7.08250e-06;-0.0017775250775789668
7.08275e-06;-0.0017594331259231963
7.08300e-06;-0.0017407093124166687
7.08325e-06;-0.0017219854989102045
7.08350e-06;-0.0017033127053887708
7.08375e-06;-0.0016847137861200105
7.08400e-06;-0.0016663613273817678
7.08425e-06;-0.0016483657305183775
7.08450e-06;-0.0016307279472645335
7.08475e-06;-0.00161360825928263
7.08500e-06;-0.0015970598271007653
7.08525e-06;-0.0015813385432477218
7.08550e-06;-0.0015656172593946785
7.08575e-06;-0.0015519203823857056
7.08600e-06;-0.0015384273809246674
7.08625e-06;-0.0015256622762083
7.08650e-06;-0.0015139511276631144
7.08675e-06;-0.00150213522843874
7.08700e-06;-0.0014901676557447167
7.08725e-06;-0.0014782000830506528
7.08750e-06;-0.0014662187348814099
7.08775e-06;-0.0014542174405491638
7.08800e-06;-0.0014422161462168772
7.08825e-06;-0.0014300249564039062
7.08850e-06;-0.0014175588079305414
7.08875e-06;-0.001405092659457219
7.08900e-06;-0.0013926265109838968
7.08925e-06;-0.001380160362510532
7.08950e-06;-0.0013671386613277132
7.08975e-06;-0.0013533125490648086
7.09000e-06;-0.001339486436801857
7.09025e-06;-0.0013256603245389523
7.09050e-06;-0.0013118342122760479
7.09075e-06;-0.001297520439735852
7.09100e-06;-0.0012825005607838068
7.09125e-06;-0.0012674806818317615
7.09150e-06;-0.0012524608028796655
7.09175e-06;-0.0012374409239276202
7.09200e-06;-0.0012220912964451133
7.09225e-06;-0.0012067084603896426
7.09250e-06;-0.0011913256243342239
7.09275e-06;-0.001175942788278753
7.09300e-06;-0.0011605425254809934
7.09325e-06;-0.001145151032432928
7.09350e-06;-0.0011298814871690177
7.09375e-06;-0.0011148286042050321
7.09400e-06;-0.0011000865060782526
7.09425e-06;-0.001085729678025197
7.09450e-06;-0.0010717788269478876
7.09475e-06;-0.0010582262658433092
7.09500e-06;-0.0010451053570259842
7.09525e-06;-0.001032496769270713
7.09550e-06;-0.001020493634834912
7.09575e-06;-0.0010091889908634038
7.09600e-06;-0.000998679018167859
7.09625e-06;-0.0009891609027857038
7.09650e-06;-0.000981094324675884
7.09675e-06;-0.0009750379634481192
7.09700e-06;-0.0009712792980501543
7.09725e-06;-0.0009698313933591336
7.09750e-06;-0.000970637999471879
7.09775e-06;-0.0009736429566469832
7.09800e-06;-0.0009787919860923277
7.09825e-06;-0.0009866035945044595
7.09850e-06;-0.0009964602469729358
7.09875e-06;-0.0010084398602791898
7.09900e-06;-0.0010234934091293089
7.09925e-06;-0.0010405340980213387
7.09950e-06;-0.0010604520610939963
7.09975e-06;-0.0010821129626023165
7.10000e-06;-0.0011062975472200132
7.10025e-06;-0.001131676793677809
7.10050e-06;-0.0011596009625960617
7.10075e-06;-0.0011895155918315188
7.10100e-06;-0.001221347200308493
7.10125e-06;-0.0012549144874989906
7.10150e-06;-0.001290009048673993
7.10175e-06;-0.0013264225217102606
7.10200e-06;-0.0013639472627799507
7.10225e-06;-0.001402400502998861
7.10250e-06;-0.0014416639422239724
7.10275e-06;-0.0014816436716785992
7.10300e-06;-0.0015221791199449936
7.10325e-06;-0.0015630422196462417
7.10350e-06;-0.001603987985389057
7.10375e-06;-0.001644771362920716
7.10400e-06;-0.0016851478686645245
7.10425e-06;-0.001724888635361678
7.10450e-06;-0.0017638051383162539
7.10475e-06;-0.001801724131866196
7.10500e-06;-0.001838430605141885
7.10525e-06;-0.0018736673645866216
7.10550e-06;-0.001906724661747033
7.10575e-06;-0.0019380204762984461
7.10600e-06;-0.0019678859399812824
7.10625e-06;-0.00199474661048214
7.10650e-06;-0.002019608251937265
7.10675e-06;-0.002042896979585471
7.10700e-06;-0.0020652647866907306
7.10725e-06;-0.0020866642523926344
7.10750e-06;-0.002106661610714778
7.10775e-06;-0.002125109584746688
7.10800e-06;-0.00214131413188371
7.10825e-06;-0.002157518679020732
7.10850e-06;-0.0021723136890969726
7.10875e-06;-0.002185067763705259
7.10900e-06;-0.002197821838313545
7.10925e-06;-0.002209536237066898
7.10950e-06;-0.002219745239909404
7.10975e-06;-0.0022299542427519446
7.11000e-06;-0.0022389570592771598
7.11025e-06;-0.002246213381507062
7.11050e-06;-0.0022534697037369885
7.11075e-06;-0.002259969880779149
7.11100e-06;-0.002265375199392003
7.11125e-06;-0.0022707805180048747
7.11150e-06;-0.002274961802700352
7.11175e-06;-0.002277370750715116
7.11200e-06;-0.0022797796987298878
7.11225e-06;-0.0022821886467446514
7.11250e-06;-0.002284597594759415
7.11275e-06;-0.002287006542774187
7.11300e-06;-0.0022894154907889507
7.11325e-06;-0.0022918244388037147
7.11350e-06;-0.0022942333868184867
7.11375e-06;-0.002294556569959454
7.11400e-06;-0.0022946696982604296
7.11425e-06;-0.0022947828265614052
7.11450e-06;-0.0022948959548623805
7.11475e-06;-0.002295009083163356
7.11500e-06;-0.0022951222114643314
7.11525e-06;-0.002295235339765307
7.11550e-06;-0.002295348468066283
7.11575e-06;-0.00229532147498968
7.11600e-06;-0.0022950915935341792
7.11625e-06;-0.0022948617120786773
7.11650e-06;-0.002293920559073364
7.11675e-06;-0.002291949522304488
7.11700e-06;-0.0022899784855356054
7.11725e-06;-0.0022880074487667294
7.11750e-06;-0.0022860364119978533
7.11775e-06;-0.0022840653752289703
7.11800e-06;-0.0022820943384600943
7.11825e-06;-0.0022771938026566723
7.11850e-06;-0.0022719982405736837
7.11875e-06;-0.0022668026784906947
7.11900e-06;-0.002261607116407688
7.11925e-06;-0.0022564115543246993
7.11950e-06;-0.0022512159922417102
7.11975e-06;-0.0022445788648254874
7.12000e-06;-0.0022358544266893707
7.12025e-06;-0.002227129988553254
7.12050e-06;-0.002218405550417108
7.12075e-06;-0.0022096811122809916
7.12100e-06;-0.002200956674144875
7.12125e-06;-0.0021922322360087287
7.12150e-06;-0.0021835077978726125
7.12175e-06;-0.002174783359736496
7.12200e-06;-0.002164163556743758
7.12225e-06;-0.0021533528738649855
7.12250e-06;-0.002142542190986176
7.12275e-06;-0.0021317315081074034
7.12300e-06;-0.0021209208252286308
7.12325e-06;-0.0021101101423498217
7.12350e-06;-0.002099299459471049
7.12375e-06;-0.0020884887765922765
7.12400e-06;-0.002077882435368757
7.12425e-06;-0.0020675719701057655
7.12450e-06;-0.0020572615048427734
7.12475e-06;-0.0020469510395797466
7.12500e-06;-0.0020366405743167545
7.12525e-06;-0.002027923901452345
7.12550e-06;-0.002019367737479034
7.12575e-06;-0.002010811573505753
7.12600e-06;-0.002002255409532471
7.12625e-06;-0.001994701594445782
7.12650e-06;-0.001988599127784104
7.12675e-06;-0.0019824966611224053
7.12700e-06;-0.0019763941944607273
7.12725e-06;-0.001970291727799049
7.12750e-06;-0.0019641892611373503
7.12775e-06;-0.0019580867944756723
7.12800e-06;-0.0019519843278139944
7.12825e-06;-0.0019458818611522957
7.12850e-06;-0.0019397793944906177
7.12875e-06;-0.0019350360058741868
7.12900e-06;-0.0019304294883522118
7.12925e-06;-0.0019258229708302523
7.12950e-06;-0.001921216453308293
7.12975e-06;-0.001916609935786318
7.13000e-06;-0.0019120034182643585
7.13025e-06;-0.001907396900742399
7.13050e-06;-0.0019027903832204238
7.13075e-06;-0.0018981838656984644
7.13100e-06;-0.0018938586339639115
7.13125e-06;-0.001889940689242862
7.13150e-06;-0.001886022744521812
7.13175e-06;-0.0018821047998007492
7.13200e-06;-0.0018781868550796993
7.13225e-06;-0.0018742689103586497
7.13250e-06;-0.0018703509656375866
7.13275e-06;-0.001866433020916537
7.13300e-06;-0.0018625150761954871
7.13325e-06;-0.00185890770054096
7.13350e-06;-0.0018557500125466189
7.13375e-06;-0.001852592324552278
7.13400e-06;-0.0018494346365579262
7.13425e-06;-0.001846276948563585
7.13450e-06;-0.001843119260569244
7.13475e-06;-0.0018399615725748922
7.13500e-06;-0.0018368038845805513
7.13525e-06;-0.0018336461965861995
7.13550e-06;-0.001830737981021534
7.13575e-06;-0.0018281909884029434
7.13600e-06;-0.0018258302975940211
7.13625e-06;-0.0018237393619986875
7.13650e-06;-0.0018223854777364172
7.13675e-06;-0.0018220988050064173
7.13700e-06;-0.0018231549716253871
7.13725e-06;-0.0018261554989352617
7.13750e-06;-0.0018291560262451466
7.13775e-06;-0.0018336132189107576
7.13800e-06;-0.0018401795863332985
7.13825e-06;-0.0018467459537558617
7.13850e-06;-0.0018553406013846726
7.13875e-06;-0.0018668720919844091
7.13900e-06;-0.001878403582584185
7.13925e-06;-0.0018899350731839213
7.13950e-06;-0.0019036597890574516
7.13975e-06;-0.0019205601796768636
7.14000e-06;-0.0019374605702962757
7.14025e-06;-0.001954360960915745
7.14050e-06;-0.0019726811805726896
7.14075e-06;-0.001993057237936736
7.14100e-06;-0.002014330635146926
7.14125e-06;-0.002036903333218525
7.14150e-06;-0.0020600095178762313
7.14175e-06;-0.0020841658918267832
7.14200e-06;-0.0021089445881323525
7.14225e-06;-0.0021342262397017215
7.14250e-06;-0.002159951137501714
7.14275e-06;-0.002186085955232749
7.14300e-06;-0.0022125420750018104
7.14325e-06;-0.0022391719496807887
7.14350e-06;-0.0022658132963108766
7.14375e-06;-0.002292303736821024
7.14400e-06;-0.0023184814212099977
7.14425e-06;-0.0023441985890422347
7.14450e-06;-0.002369344746591515
7.14475e-06;-0.002393826330735081
7.14500e-06;-0.0024175148915485923
7.14525e-06;-0.0024399926994243316
7.14550e-06;-0.0024614771470674924
7.14575e-06;-0.0024814949266794453
7.14600e-06;-0.0024993890481873095
7.14625e-06;-0.002517283169695113
7.14650e-06;-0.002533721941571367
7.14675e-06;-0.0025480534437904564
7.14700e-06;-0.0025623849460094977
7.14725e-06;-0.002575528872276573
7.14750e-06;-0.002586953251078991
7.14775e-06;-0.0025983776298813695
7.14800e-06;-0.0026084196738265465
7.14825e-06;-0.0026164601696642745
7.14850e-06;-0.002624500665502003
7.14875e-06;-0.002631531002095205
7.14900e-06;-0.0026370986812769
7.14925e-06;-0.002642666360458595
7.14950e-06;-0.002646166180012926
7.14975e-06;-0.0026466718476786566
7.15000e-06;-0.002647177515344387
7.15025e-06;-0.0026476831830101193
7.15050e-06;-0.0026481888506758497
7.15075e-06;-0.00264869451834158
7.15100e-06;-0.0026492001860073124
7.15125e-06;-0.002649705853673043
7.15150e-06;-0.0026502115213387733
7.15175e-06;-0.002650717189004505
7.15200e-06;-0.0026512228566702356
7.15225e-06;-0.0026517285243359678
7.15250e-06;-0.0026485469108036225
7.15275e-06;-0.0026449939556737506
7.15300e-06;-0.002641441000543867
7.15325e-06;-0.002637888045413995
7.15350e-06;-0.0026343350902841237
7.15375e-06;-0.00263078213515424
7.15400e-06;-0.0026272291800243683
7.15425e-06;-0.0026236762248944964
7.15450e-06;-0.002620123269764613
7.15475e-06;-0.0026165703146347414
7.15500e-06;-0.0026130173595048695
7.15525e-06;-0.00260968441986451
7.15550e-06;-0.00260667005107137
7.15575e-06;-0.0026036556822782303
7.15600e-06;-0.0026006413134850802
7.15625e-06;-0.00259762694469194
7.15650e-06;-0.00259461257589879
7.15675e-06;-0.00259159820710565
7.15700e-06;-0.0025907679454858427
7.15725e-06;-0.0025901576426386754
7.15750e-06;-0.0025895473397915102
7.15775e-06;-0.002588937036944345
7.15800e-06;-0.002588326734097178
7.15825e-06;-0.002587716431250013
7.15850e-06;-0.0025883451686343545
7.15875e-06;-0.0025907679710507046
7.15900e-06;-0.002593190773467046
7.15925e-06;-0.0025956135758833875
7.15950e-06;-0.0025980363782997376
7.15975e-06;-0.002600459180716079
7.16000e-06;-0.002602881983132421
7.16025e-06;-0.0026064827264433398
7.16050e-06;-0.002611789066162569
7.16075e-06;-0.0026170954058818163
7.16100e-06;-0.0026224017456010456
7.16125e-06;-0.002627708085320275
7.16150e-06;-0.002633014425039522
7.16175e-06;-0.0026383207647587515
7.16200e-06;-0.0026436271044779805
7.16225e-06;-0.002648933444197228
7.16250e-06;-0.002654729159391369
7.16275e-06;-0.0026612334645123403
7.16300e-06;-0.002667737769633334
7.16325e-06;-0.0026742420747543055
7.16350e-06;-0.0026807463798752765
7.16375e-06;-0.00268725068499627
7.16400e-06;-0.0026937549901172417
7.16425e-06;-0.002700259295238213
7.16450e-06;-0.002706763600359207
7.16475e-06;-0.0027129435926424965
7.16500e-06;-0.002718653997008768
7.16525e-06;-0.00272436440137502
7.16550e-06;-0.002730074805741272
7.16575e-06;-0.0027346932425266926
7.16600e-06;-0.0027392017085873673
7.16625e-06;-0.002743710174648042
7.16650e-06;-0.002747905760103894
7.16675e-06;-0.002751648310914073
7.16700e-06;-0.0027553908617242518
7.16725e-06;-0.0027591334125344437
7.16750e-06;-0.0027628759633446225
7.16775e-06;-0.0027666185141548014
7.16800e-06;-0.002770361064964993
7.16825e-06;-0.002774103615775172
7.16850e-06;-0.0027777142577718665
7.16875e-06;-0.0027813116153926733
7.16900e-06;-0.0027849089730134684
7.16925e-06;-0.0027885063306342752
7.16950e-06;-0.00279210368825507
7.16975e-06;-0.0027957010458758646
7.17000e-06;-0.0027992984034966714
7.17025e-06;-0.002802968423975202
7.17050e-06;-0.0028067436564467277
7.17075e-06;-0.0028105188889182664
7.17100e-06;-0.002814294121389792
7.17125e-06;-0.0028180693538613177
7.17150e-06;-0.002821844586332856
7.17175e-06;-0.0028256198188043816
7.17200e-06;-0.0028293950512759073
7.17225e-06;-0.002833170283747446
7.17250e-06;-0.0028369455162189717
7.17275e-06;-0.0028405769574583396
7.17300e-06;-0.002844000196562801
7.17325e-06;-0.002847423435667251
7.17350e-06;-0.0028508466747717122
7.17375e-06;-0.002854269913876162
7.17400e-06;-0.002857693152980612
7.17425e-06;-0.002861116392085073
7.17450e-06;-0.0028645396311895227
7.17475e-06;-0.0028679628702939727
7.17500e-06;-0.002871386109398434
7.17525e-06;-0.002874547532042523
7.17550e-06;-0.002877254909503572
7.17575e-06;-0.0028797681638059714
7.17600e-06;-0.0028820570329631144
7.17625e-06;-0.002883942906941552
7.17650e-06;-0.002884853016790611
7.17675e-06;-0.0028840414848306265
7.17700e-06;-0.002880706712333779
7.17725e-06;-0.002875497941589259
7.17750e-06;-0.0028683351933950878
7.17775e-06;-0.0028583431887124334
7.17800e-06;-0.002848351184029813
7.17825e-06;-0.002835892021851763
7.17850e-06;-0.002819860545493136
7.17875e-06;-0.0028038290691345634
7.17900e-06;-0.0027848630836570026
7.17925e-06;-0.0027616480834496988
7.17950e-06;-0.002738433083242473
7.17975e-06;-0.0027128167117563733
7.18000e-06;-0.002683723281068291
7.18025e-06;-0.002654629850380307
7.18050e-06;-0.002623296771541555
7.18075e-06;-0.002588720800077122
7.18100e-06;-0.0025541448286128055
7.18125e-06;-0.002517702367440764
7.18150e-06;-0.002478557327425252
7.18175e-06;-0.0024394122874098726
7.18200e-06;-0.002399164163136955
7.18225e-06;-0.002357318830926692
7.18250e-06;-0.00231547349871643
7.18275e-06;-0.002273024375854448
7.18300e-06;-0.0022297009959131634
7.18325e-06;-0.0021862793170973893
7.18350e-06;-0.0021427153066857405
7.18375e-06;-0.0020993419019292745
7.18400e-06;-0.002056511655427553
7.18425e-06;-0.0020144186537307375
7.18450e-06;-0.0019732374240834013
7.18475e-06;-0.0019331157176451722
7.18500e-06;-0.0018942571656961464
7.18525e-06;-0.001856924460019801
7.18550e-06;-0.001821395574150944
7.18575e-06;-0.0017879483701599475
7.18600e-06;-0.0017568600393784413
7.18625e-06;-0.00172837787852837
7.18650e-06;-0.0017026500028028914
7.18675e-06;-0.0016802982611889073
7.18700e-06;-0.0016604432788052909
7.18725e-06;-0.0016429632581015919
7.18750e-06;-0.0016289220568900798
7.18775e-06;-0.0016173601321049817
7.18800e-06;-0.001609388069073934
7.18825e-06;-0.0016045519240236485
7.18850e-06;-0.0016042564231317433
7.18875e-06;-0.0016039609222398394
7.18900e-06;-0.0016066181603827082
7.18925e-06;-0.0016135508092128474
7.18950e-06;-0.0016227039568567061
7.18975e-06;-0.0016350722698935652
7.19000e-06;-0.0016490340519134334
7.19025e-06;-0.0016663155667904432
7.19050e-06;-0.0016860127895516888
7.19075e-06;-0.0017079627784934968
7.19100e-06;-0.0017319949662721046
7.19125e-06;-0.00175795051528538
7.19150e-06;-0.0017856754556186693
7.19175e-06;-0.0018150158386603021
7.19200e-06;-0.0018458174567144035
7.19225e-06;-0.0018779188358724285
7.19250e-06;-0.0019111341606160594
7.19275e-06;-0.0019452512247110725
7.19300e-06;-0.001980053130513864
7.19325e-06;-0.002015330491418341
7.19350e-06;-0.0020508768292491425
7.19375e-06;-0.002086485580619667
7.19400e-06;-0.0021219503624671544
