Time(s);Current(A)
2.30000e-06;0.00583102108015645
2.30025e-06;0.00587748440861446
2.30050e-06;0.00592394773707247
2.30075e-06;0.0059704110655304015
2.30100e-06;0.006003264352419135
2.30125e-06;0.006030700450236899
2.30150e-06;0.006058136548054662
2.30175e-06;0.00608557264587238
2.30200e-06;0.006113008743690144
2.30225e-06;0.006140444841507907
2.30250e-06;0.006167880939325625
2.30275e-06;0.006195317037143388
2.30300e-06;0.006222753134961152
2.30325e-06;0.006250189232778916
2.30350e-06;0.006271285958280509
2.30375e-06;0.00626927670743599
2.30400e-06;0.006267267456591471
2.30425e-06;0.006265258205746955
2.30450e-06;0.0062632489549024365
2.30475e-06;0.006261239704057918
2.30500e-06;0.006259230453213402
2.30525e-06;0.006257221202368883
2.30550e-06;0.006255211951524365
2.30575e-06;0.006253202700679845
2.30600e-06;0.00625119344983533
2.30625e-06;0.006249184198990811
2.30650e-06;0.006242750024483043
2.30675e-06;0.0062201877261802265
2.30700e-06;0.006197625427877371
2.30725e-06;0.006175063129574516
2.30750e-06;0.00615250083127166
2.30775e-06;0.006129938532968842
2.30800e-06;0.0061073762346659875
2.30825e-06;0.006084813936363132
2.30850e-06;0.006062251638060314
2.30875e-06;0.006039689339757459
2.30900e-06;0.006017127041454603
2.30925e-06;0.005994564743151786
2.30950e-06;0.005972099114319422
2.30975e-06;0.005949985829912857
2.31000e-06;0.005927872545506291
2.31025e-06;0.0059057592610997625
2.31050e-06;0.005883645976693197
2.31075e-06;0.005861532692286631
2.31100e-06;0.005839419407880102
2.31125e-06;0.0058173061234735365
2.31150e-06;0.005795192839066971
2.31175e-06;0.005773079554660405
2.31200e-06;0.005750966270253877
2.31225e-06;0.005728852985847311
2.31250e-06;0.005710354843889127
2.31275e-06;0.005705033305502889
2.31300e-06;0.005699711767116642
2.31325e-06;0.0056943902287303946
2.31350e-06;0.005689068690344156
2.31375e-06;0.005683747151957909
2.31400e-06;0.005678425613571662
2.31425e-06;0.005673104075185415
2.31450e-06;0.005667782536799177
2.31475e-06;0.00566246099841293
2.31500e-06;0.005657139460026683
2.31525e-06;0.005651817921640445
2.31550e-06;0.00564990569684206
2.31575e-06;0.005660419863048183
2.31600e-06;0.005670934029254288
2.31625e-06;0.00568144819546041
2.31650e-06;0.005691962361666534
2.31675e-06;0.005702476527872657
2.31700e-06;0.005712990694078762
2.31725e-06;0.005723504860284884
2.31750e-06;0.005734019026491007
2.31775e-06;0.005744533192697112
2.31800e-06;0.0057550473589032345
2.31825e-06;0.005765561525109358
2.31850e-06;0.005776075691315481
2.31875e-06;0.005787264579231303
2.31900e-06;0.005800912717541203
2.31925e-06;0.005814560855851103
2.31950e-06;0.0058282089941609815
2.31975e-06;0.005841857132470882
2.32000e-06;0.005855505270780782
2.32025e-06;0.00586915340909066
2.32050e-06;0.005882801547400561
2.32075e-06;0.005896449685710461
2.32100e-06;0.005910097824020362
2.32125e-06;0.005923745962330239
2.32150e-06;0.00593739410064014
2.32175e-06;0.0059510422389500404
2.32200e-06;0.005961316583113868
2.32225e-06;0.005959293998834489
2.32250e-06;0.005957271414555111
2.32275e-06;0.005955248830275732
2.32300e-06;0.005953226245996357
2.32325e-06;0.005951203661716978
2.32350e-06;0.005949181077437599
2.32375e-06;0.005947158493158224
2.32400e-06;0.005945135908878845
2.32425e-06;0.005943113324599467
2.32450e-06;0.005941090740320091
2.32475e-06;0.005939068156040713
2.32500e-06;0.005937045571761334
2.32525e-06;0.0059350229874819554
2.32550e-06;0.00593300040320258
2.32575e-06;0.005927133022362249
2.32600e-06;0.005907251986229671
2.32625e-06;0.005887370950097126
2.32650e-06;0.005867489913964548
2.32675e-06;0.005847608877831969
2.32700e-06;0.00582772784169939
2.32725e-06;0.005807846805566846
2.32750e-06;0.005787965769434267
2.32775e-06;0.005768084733301688
2.32800e-06;0.005748203697169144
2.32825e-06;0.005728322661036565
2.32850e-06;0.005708441624903987
2.32875e-06;0.005688560588771442
2.32900e-06;0.005668679552638863
2.32925e-06;0.005648798516506285
2.32950e-06;0.005629300633627796
2.32975e-06;0.005611199281759993
2.33000e-06;0.00559309792989216
2.33025e-06;0.005574996578024326
2.33050e-06;0.005556895226156523
2.33075e-06;0.00553879387428869
2.33100e-06;0.005520692522420856
2.33125e-06;0.005502591170553023
2.33150e-06;0.005484489818685221
2.33175e-06;0.005466388466817387
2.33200e-06;0.005448287114949554
2.33225e-06;0.005430185763081751
2.33250e-06;0.005412084411213917
2.33275e-06;0.005393983059346084
2.33300e-06;0.005379083390028699
2.33325e-06;0.005375853330509288
2.33350e-06;0.005372623270989877
2.33375e-06;0.005369393211470466
2.33400e-06;0.005366163151951061
2.33425e-06;0.00536293309243165
2.33450e-06;0.005359703032912239
2.33475e-06;0.0053564729733928335
2.33500e-06;0.0053532429138734225
2.33525e-06;0.0053500128543540115
2.33550e-06;0.0053467827948346005
2.33575e-06;0.0053435527353151956
2.33600e-06;0.0053403226757957846
2.33625e-06;0.0053370926162763736
2.33650e-06;0.0053359486214021425
2.33675e-06;0.005342407991333674
2.33700e-06;0.0053488673612652055
2.33725e-06;0.005355326731196726
2.33750e-06;0.005361786101128258
2.33775e-06;0.005368245471059789
2.33800e-06;0.005374704840991321
2.33825e-06;0.005381164210922842
2.33850e-06;0.005387623580854373
2.33875e-06;0.0053940829507859046
2.33900e-06;0.005400542320717425
2.33925e-06;0.005407001690648956
2.33950e-06;0.00541391886306024
2.33975e-06;0.005421018254061963
2.34000e-06;0.005428117645063673
2.34025e-06;0.0054352170360653955
2.34050e-06;0.005442316427067119
2.34075e-06;0.005449415818068829
2.34100e-06;0.005456515209070551
2.34125e-06;0.005463614600072274
2.34150e-06;0.0054707139910739845
2.34175e-06;0.005477813382075708
2.34200e-06;0.00548491277307743
2.34225e-06;0.005493863009959035
2.34250e-06;0.005509559277677864
2.34275e-06;0.005525255545396719
2.34300e-06;0.0055409518131155746
2.34325e-06;0.005556648080834403
2.34350e-06;0.005572344348553258
2.34375e-06;0.005588040616272114
2.34400e-06;0.005603736883990969
2.34425e-06;0.005619433151709798
2.34450e-06;0.005635129419428653
2.34475e-06;0.005650825687147508
2.34500e-06;0.005666521954866337
2.34525e-06;0.005695504921480747
2.34550e-06;0.005729776377458019
2.34575e-06;0.005764047833435233
2.34600e-06;0.005798319289412504
2.34625e-06;0.005832590745389775
2.34650e-06;0.005866862201367047
2.34675e-06;0.00590113365734426
2.34700e-06;0.005935405113321532
2.34725e-06;0.0059696765692988036
2.34750e-06;0.006003948025276017
2.34775e-06;0.006038219481253288
2.34800e-06;0.00607402170681149
2.34825e-06;0.0061154033373923625
2.34850e-06;0.0061567849679731645
2.34875e-06;0.006198166598554037
2.34900e-06;0.006239548229134909
2.34925e-06;0.006280929859715711
2.34950e-06;0.0063223114902965834
2.34975e-06;0.006363693120877456
2.35000e-06;0.006403435530982051
2.35025e-06;0.006437203250269476
2.35050e-06;0.006470970969556901
2.35075e-06;0.0065047386888443266
2.35100e-06;0.006538506408131695
2.35125e-06;0.00657227412741912
2.35150e-06;0.006606041846706545
2.35175e-06;0.006639809565993913
2.35200e-06;0.006666495266173967
2.35225e-06;0.006667368163779068
2.35250e-06;0.00666824106138417
2.35275e-06;0.006669113958989271
2.35300e-06;0.006669986856594372
2.35325e-06;0.006670859754199473
2.35350e-06;0.0066717326518045735
2.35375e-06;0.006672605549409676
2.35400e-06;0.006636680195257402
2.35425e-06;0.006586108075604234
2.35450e-06;0.006535535955950981
2.35475e-06;0.006484963836297727
2.35500e-06;0.006434391716644474
2.35525e-06;0.006383819596991306
2.35550e-06;0.006333247477338052
2.35575e-06;0.006273132031839562
2.35600e-06;0.006178232722838925
2.35625e-06;0.006083333413838126
2.35650e-06;0.005988434104837327
2.35675e-06;0.005893534795836528
2.35700e-06;0.005798635486835891
2.35725e-06;0.005703736177835092
2.35750e-06;0.0056036700881145094
2.35775e-06;0.0054847719268268915
2.35800e-06;0.005365873765539073
2.35825e-06;0.005246975604251254
2.35850e-06;0.005128077442963637
2.35875e-06;0.005009179281675819
2.35900e-06;0.004890281120388
2.35925e-06;0.004771601953180924
2.35950e-06;0.004653720983618792
2.35975e-06;0.00453584001405646
2.36000e-06;0.004417959044494129
2.36025e-06;0.004300078074931996
2.36050e-06;0.004182197105369665
2.36075e-06;0.004080485434703169
2.36100e-06;0.0039852096113376255
2.36125e-06;0.0038899337879722434
2.36150e-06;0.0037946579646067
2.36175e-06;0.003699382141241156
2.36200e-06;0.0036105499072103466
2.36225e-06;0.0035452035035420226
2.36250e-06;0.0034798570998736985
2.36275e-06;0.0034194976411803498
2.36300e-06;0.0033773147821470036
2.36325e-06;0.0033351319231136574
2.36350e-06;0.0032973795183951576
2.36375e-06;0.0032757753958011773
2.36400e-06;0.0032585773157864104
2.36425e-06;0.003257438541108299
2.36450e-06;0.003256299766430189
2.36475e-06;0.0032600130623054602
2.36500e-06;0.003281411362610493
2.36525e-06;0.003302809662915526
2.36550e-06;0.0033287234993681853
2.36575e-06;0.0033710957273250367
2.36600e-06;0.003413467955281888
2.36625e-06;0.0034596933944119022
2.36650e-06;0.0035199631587259977
2.36675e-06;0.0035802329230400927
2.36700e-06;0.003644808851707097
2.36725e-06;0.003725080045894602
2.36750e-06;0.0038053512400821068
2.36775e-06;0.0038856224342696116
2.36800e-06;0.003965893628456981
2.36825e-06;0.004046164822644485
2.36850e-06;0.0041264360168319905
2.36875e-06;0.004214036856464622
2.36900e-06;0.004304555106379807
2.36925e-06;0.004395073356294991
2.36950e-06;0.0044855916062101755
2.36975e-06;0.004576109856125207
2.37000e-06;0.004666628106040392
2.37025e-06;0.004753336612722722
2.37050e-06;0.004826159227761202
2.37075e-06;0.004898981842799806
2.37100e-06;0.004971804457838409
2.37125e-06;0.005044627072876889
2.37150e-06;0.005117449687915492
2.37175e-06;0.005190272302954096
2.37200e-06;0.0052630949179926995
2.37225e-06;0.005326857270249011
2.37250e-06;0.005357596444939114
2.37275e-06;0.005388335619629219
2.37300e-06;0.00541907479431927
2.37325e-06;0.005449813969009375
2.37350e-06;0.0054805531436994785
2.37375e-06;0.005511292318389583
2.37400e-06;0.005542031493079635
2.37425e-06;0.005562886405872709
2.37450e-06;0.005547714798951216
2.37475e-06;0.005532543192029749
2.37500e-06;0.005517371585108256
2.37525e-06;0.005502199978186763
2.37550e-06;0.005487028371265295
2.37575e-06;0.005471856764343802
2.37600e-06;0.005456685157422309
2.37625e-06;0.005441513550500816
2.37650e-06;0.0054190885558156425
2.37675e-06;0.0053702261477968595
2.37700e-06;0.0053213637397780756
2.37725e-06;0.005272501331759375
2.37750e-06;0.005223638923740591
2.37775e-06;0.005174776515721807
2.37800e-06;0.005125914107703024
2.37825e-06;0.005077051699684323
2.37850e-06;0.0050281892916655396
2.37875e-06;0.004977384781927192
2.37900e-06;0.004919501628723415
2.37925e-06;0.00486161847551954
2.37950e-06;0.004803735322315665
2.37975e-06;0.004745852169111889
2.38000e-06;0.004687969015908014
2.38025e-06;0.004630085862704139
2.38050e-06;0.004572202709500264
2.38075e-06;0.004517631845347801
2.38100e-06;0.004475133733622947
2.38125e-06;0.004432635621898094
2.38150e-06;0.004390137510173312
2.38175e-06;0.004347639398448459
2.38200e-06;0.004305141286723605
2.38225e-06;0.004262643174998752
2.38250e-06;0.00422014506327397
2.38275e-06;0.004183235894296686
2.38300e-06;0.004166697508508944
2.38325e-06;0.00415015912272123
2.38350e-06;0.004133620736933488
2.38375e-06;0.004117082351145746
2.38400e-06;0.004100543965358032
2.38425e-06;0.00408400557957029
2.38450e-06;0.004067467193782549
2.38475e-06;0.004050928807994807
2.38500e-06;0.004034390422207093
2.38525e-06;0.004017852036419351
2.38550e-06;0.004001313650631609
2.38575e-06;0.004000550392186072
2.38600e-06;0.004006066089395805
2.38625e-06;0.004011581786605538
2.38650e-06;0.00401709748381527
2.38675e-06;0.004022613181024993
2.38700e-06;0.004028128878234726
2.38725e-06;0.004033644575444459
2.38750e-06;0.004039160272654182
2.38775e-06;0.004044675969863914
2.38800e-06;0.004050191667073647
2.38825e-06;0.00405570736428337
2.38850e-06;0.00406285275956728
2.38875e-06;0.00407593813807054
2.38900e-06;0.004089023516573799
2.38925e-06;0.004102108895077036
2.38950e-06;0.004115194273580296
2.38975e-06;0.004128279652083556
2.39000e-06;0.004141365030586793
2.39025e-06;0.004154450409090052
2.39050e-06;0.004167535787593313
2.39075e-06;0.0041806211660965495
2.39100e-06;0.004193706544599809
2.39125e-06;0.0042051965977258545
2.39150e-06;0.004210871950497029
2.39175e-06;0.004216547303268194
2.39200e-06;0.004222222656039369
2.39225e-06;0.004227898008810543
2.39250e-06;0.004233573361581708
2.39275e-06;0.004239248714352883
2.39300e-06;0.004244924067124058
2.39325e-06;0.004250599419895233
2.39350e-06;0.004256274772666398
2.39375e-06;0.004261950125437572
2.39400e-06;0.004264440563050204
2.39425e-06;0.004255322505262801
2.39450e-06;0.004246204447475382
2.39475e-06;0.004237086389687963
2.39500e-06;0.0042279683319005595
2.39525e-06;0.004218850274113141
2.39550e-06;0.004209732216325721
2.39575e-06;0.004200614158538302
2.39600e-06;0.004191496100750899
2.39625e-06;0.00418237804296348
2.39650e-06;0.004173259985176061
2.39675e-06;0.004164141927388658
2.39700e-06;0.004155023869601238
2.39725e-06;0.004139546035753893
2.39750e-06;0.004121536827611132
2.39775e-06;0.004103527619468401
2.39800e-06;0.00408551841132564
2.39825e-06;0.004067509203182879
2.39850e-06;0.004049499995040148
2.39875e-06;0.004031490786897387
2.39900e-06;0.004013481578754626
2.39925e-06;0.003995472370611895
2.39950e-06;0.003977463162469135
2.39975e-06;0.003959453954326374
2.40000e-06;0.003941444746183613
2.40025e-06;0.0039247316513221185
2.40050e-06;0.003912742677611429
2.40075e-06;0.00390075370390074
2.40100e-06;0.003888764730190071
2.40125e-06;0.0038767757564793816
2.40150e-06;0.003864786782768692
2.40175e-06;0.0038527978090580027
2.40200e-06;0.0038408088353473336
2.40225e-06;0.003828819861636644
2.40250e-06;0.003816830887925955
2.40275e-06;0.003804841914215286
2.40300e-06;0.0037928529405045967
2.40325e-06;0.003785566300338265
2.40350e-06;0.0037954188976729833
2.40375e-06;0.0038052714950077187
2.40400e-06;0.003815124092342454
2.40425e-06;0.0038249766896771894
2.40450e-06;0.0038348292870119083
2.40475e-06;0.0038446818843466436
2.40500e-06;0.003854534481681379
2.40525e-06;0.003864387079016098
2.40550e-06;0.0038742396763508332
2.40575e-06;0.0038840922736855686
2.40600e-06;0.003893944871020304
2.40625e-06;0.0039076572529492945
2.40650e-06;0.00393543791911239
2.40675e-06;0.003963218585275485
2.40700e-06;0.003990999251438534
2.40725e-06;0.00401877991760163
2.40750e-06;0.004046560583764725
2.40775e-06;0.004074341249927774
2.40800e-06;0.00410212191609087
2.40825e-06;0.004129902582253965
2.40850e-06;0.004157683248417061
2.40875e-06;0.004187597125901566
2.40900e-06;0.004218360083016486
2.40925e-06;0.004249123040131406
2.40950e-06;0.004279885997246273
2.40975e-06;0.004310648954361193
2.41000e-06;0.004341411911476112
2.41025e-06;0.004372174868591032
2.41050e-06;0.0044029378257058995
2.41075e-06;0.004433700782820819
2.41100e-06;0.004461050504270244
2.41125e-06;0.004475959539373111
2.41150e-06;0.004490868574476003
2.41175e-06;0.004505777609578895
2.41200e-06;0.004520686644681762
2.41225e-06;0.004535595679784655
2.41250e-06;0.004550504714887546
2.41275e-06;0.004565413749990439
2.41300e-06;0.004580322785093306
2.41325e-06;0.004595231820196197
2.41350e-06;0.00461014085529909
2.41375e-06;0.004618536345368332
2.41400e-06;0.004603191027972077
2.41425e-06;0.004587845710575821
2.41450e-06;0.004572500393179566
2.41475e-06;0.004557155075783337
2.41500e-06;0.004541809758387081
2.41525e-06;0.004526464440990826
2.41550e-06;0.004511119123594596
2.41575e-06;0.004495773806198341
2.41600e-06;0.004480428488802086
2.41625e-06;0.004465083171405856
2.41650e-06;0.004445194251252032
2.41675e-06;0.0044087446413798555
2.41700e-06;0.004372295031507678
2.41725e-06;0.004335845421635564
2.41750e-06;0.0042993958117633875
2.41775e-06;0.004262946201891211
2.41800e-06;0.004226496592019097
2.41825e-06;0.00419004698214692
2.41850e-06;0.004153597372274743
2.41875e-06;0.004114154550420583
2.41900e-06;0.004073520343869694
2.41925e-06;0.004032886137318735
2.41950e-06;0.003992251930767777
2.41975e-06;0.003951617724216886
2.42000e-06;0.003910983517665927
2.42025e-06;0.003870349311114969
2.42050e-06;0.003829715104564079
2.42075e-06;0.0037915190617939373
2.42100e-06;0.0037622097276585656
2.42125e-06;0.0037329003935231936
2.42150e-06;0.0037035910593878714
2.42175e-06;0.0036742817252524997
2.42200e-06;0.0036449723911171276
2.42225e-06;0.0036156630569818054
2.42250e-06;0.0035863537228464338
2.42275e-06;0.0035570443887110617
2.42300e-06;0.00352773505457569
2.42325e-06;0.003503868140600186
2.42350e-06;0.003482167466814539
2.42375e-06;0.003460466793028892
2.42400e-06;0.0034387661192432817
2.42425e-06;0.003417065445457635
2.42450e-06;0.003395364771671988
2.42475e-06;0.003373664097886378
2.42500e-06;0.003351963424100731
2.42525e-06;0.003330262750315084
2.42550e-06;0.0033089632293945358
2.42575e-06;0.0032891258451271696
2.42600e-06;0.00326928846085977
2.42625e-06;0.00324945107659237
2.42650e-06;0.003229613692325004
2.42675e-06;0.0032097763080576043
2.42700e-06;0.0031899389237902047
2.42725e-06;0.0031701015395228047
2.42750e-06;0.0031502641552554386
2.42775e-06;0.003130426770988039
2.42800e-06;0.0031105893867206394
2.42825e-06;0.0030907520024532733
2.42850e-06;0.0030716522126780746
2.42875e-06;0.0030552408343192737
2.42900e-06;0.0030388294559605
2.42925e-06;0.003022418077601699
2.42950e-06;0.003006006699242898
2.42975e-06;0.0029895953208840965
2.43000e-06;0.0029731839425253233
2.43025e-06;0.002956772564166522
2.43050e-06;0.0029403611858077206
2.43075e-06;0.0029239498074489475
2.43100e-06;0.002907538429090146
2.43125e-06;0.0028911270507313448
2.43150e-06;0.0028774503587182176
2.43175e-06;0.0028737411516442215
2.43200e-06;0.002870031944570219
2.43225e-06;0.002866322737496216
2.43250e-06;0.0028626135304222196
2.43275e-06;0.002858904323348217
2.43300e-06;0.0028551951162742143
2.43325e-06;0.0028727600212655837
2.43350e-06;0.002898792636432038
2.43375e-06;0.0029248252515984923
2.43400e-06;0.0029508578667649466
2.43425e-06;0.0029768904819313566
2.43450e-06;0.003002923097097811
2.43475e-06;0.003034447271833925
2.43500e-06;0.003085987283994775
2.43525e-06;0.0031375272961557117
2.43550e-06;0.003192003416865651
2.43575e-06;0.0032571811735377554
2.43600e-06;0.003322358930209749
2.43625e-06;0.0033917066228379487
2.43650e-06;0.003476253050745637
2.43675e-06;0.003560799478653182
2.43700e-06;0.0036453459065608706
2.43725e-06;0.003729892334468559
2.43750e-06;0.003814438762376104
2.43775e-06;0.003898985190283792
2.43800e-06;0.003986147497856077
2.43825e-06;0.004082844259425884
2.43850e-06;0.004179541020995527
2.43875e-06;0.004276237782565333
2.43900e-06;0.00437293454413514
2.43925e-06;0.004469631305704783
2.43950e-06;0.004566328067274588
2.43975e-06;0.004660713512255948
2.44000e-06;0.004746674585892957
2.44025e-06;0.00483263565952982
2.44050e-06;0.004918596733166828
2.44075e-06;0.005004557806803837
2.44100e-06;0.0050905188804407
2.44125e-06;0.005176479954077709
2.44150e-06;0.005254769698883097
2.44175e-06;0.005305098703430437
2.44200e-06;0.005355427707977862
2.44225e-06;0.005405756712525288
2.44250e-06;0.005456085717072714
2.44275e-06;0.005506414721620055
2.44300e-06;0.00555674372616748
2.44325e-06;0.005599685611105064
2.44350e-06;0.0056157026519637115
2.44375e-06;0.0056317196928223874
2.44400e-06;0.005639231945267188
2.44425e-06;0.005615745633445805
2.44450e-06;0.00559225932162446
2.44475e-06;0.005568773009803077
2.44500e-06;0.005545286697981693
2.44525e-06;0.00552180038616035
2.44550e-06;0.005498314074338966
2.44575e-06;0.005474827762517582
2.44600e-06;0.005451341450696238
2.44625e-06;0.005395828115509706
2.44650e-06;0.005327567101321648
2.44675e-06;0.00525930608713359
2.44700e-06;0.005191045072945649
2.44725e-06;0.005122784058757591
2.44750e-06;0.005054523044569534
2.44775e-06;0.004986262030381591
2.44800e-06;0.004918001016193534
2.44825e-06;0.004845957978706652
2.44850e-06;0.0047601300841978245
2.44875e-06;0.004674302189689143
2.44900e-06;0.0045884742951803155
2.44925e-06;0.004502646400671488
2.44950e-06;0.0044168185061628056
2.44975e-06;0.004330990611653978
2.45000e-06;0.004250818998923159
2.45025e-06;0.004172898749474908
2.45050e-06;0.004094978500026525
