Time(s);Current(A)
1.35000e-05;0.0012832954380790566
1.35003e-05;0.001375041261167837
1.35005e-05;0.0014605228200942405
1.35008e-05;0.0015413281325689985
1.35010e-05;0.0016141895139097705
1.35013e-05;0.0016824392237173172
1.35015e-05;0.0017428547012092325
1.35018e-05;0.0017990415783552278
1.35020e-05;0.0018480449782634384
1.35023e-05;0.0018924886857824114
1.35025e-05;0.0019291864623048988
1.35028e-05;0.0019609877819812215
1.35030e-05;0.001984471080700151
1.35033e-05;0.0020033806893267627
1.35035e-05;0.002014520587887666
1.35038e-05;0.002021609391641256
1.35040e-05;0.0020218162616681434
1.35043e-05;0.0020180470076350816
1.35045e-05;0.002007523178957213
1.35048e-05;0.0019930946597968647
1.35050e-05;0.001972032916187329
1.35053e-05;0.0019468339491209787
1.35055e-05;0.0019146067343847357
1.35058e-05;0.001882379519648711
1.35060e-05;0.0018461854120032546
1.35063e-05;0.001803252411441163
1.35065e-05;0.0017603194108793622
1.35068e-05;0.001714200469883334
1.35070e-05;0.001662669305286856
1.35073e-05;0.0016111381406907269
1.35075e-05;0.0015575535003857302
1.35078e-05;0.0015004804490688596
1.35080e-05;0.0014434073977523756
1.35083e-05;0.0013863343464355052
1.35085e-05;0.0013292612951186346
1.35088e-05;0.0012721259510977167
1.35090e-05;0.0012149813431630299
1.35093e-05;0.0011578367352283428
1.35095e-05;0.0011006921272940433
1.35098e-05;0.001045370485901132
1.35100e-05;0.0009931456703108248
1.35103e-05;0.0009429255888986823
1.35105e-05;0.0008961111171829383
1.35108e-05;0.0008517466209064083
1.35110e-05;0.0008115441029126601
1.35113e-05;0.0007725003962880048
1.35115e-05;0.0007354252594998154
1.35118e-05;0.0006982744617847011
1.35120e-05;0.0006624230491890337
1.35123e-05;0.0006375176234187847
1.35125e-05;0.000603951155448557
1.35128e-05;0.0005661151245396334
1.35130e-05;0.0005314041588688084
1.35133e-05;0.0004929090419995887
1.35135e-05;0.00045928398454857374
1.35138e-05;0.00042382970976630977
1.35140e-05;0.00038843454963748234
1.35143e-05;0.0003511254838018057
1.35145e-05;0.0003150732003949752
1.35148e-05;0.0002774793031865749
1.35150e-05;0.00024110881453227946
1.35153e-05;0.0002012086813777072
1.35155e-05;0.0001630447034562913
1.35158e-05;0.00013271434390164013
1.35160e-05;8.924477038881997e-05
1.35163e-05;4.804411864459739e-05
1.35165e-05;9.068789071696027e-06
1.35168e-05;-2.979742179630663e-05
1.35170e-05;-6.861074965217418e-05
1.35173e-05;-0.00010746439969143846
1.35175e-05;-0.00014582401804967083
1.35178e-05;-0.00018382514413554452
1.35180e-05;-0.00022164023569148716
1.35183e-05;-0.00025932033197550785
1.35185e-05;-0.0002962278676131943
1.35188e-05;-0.0003325747974595258
1.35190e-05;-0.00036790780918269866
1.35193e-05;-0.0004025050749496322
1.35195e-05;-0.0004356069388195431
1.35198e-05;-0.00046762366980306774
1.35200e-05;-0.0004981539460198517
1.35203e-05;-0.0005276055818024586
1.35205e-05;-0.0005550194222810434
1.35208e-05;-0.0005809545440929697
1.35210e-05;-0.0006045434658673583
1.35213e-05;-0.0006264298762140856
1.35215e-05;-0.0006483162865609612
1.35218e-05;-0.0006690457146533578
1.35220e-05;-0.0006889355828282131
1.35223e-05;-0.0007088254510032032
1.35225e-05;-0.0007263864976725882
1.35228e-05;-0.0007422576435820347
1.35230e-05;-0.0007581287894915888
1.35233e-05;-0.0007739999354011429
1.35235e-05;-0.0007898710813105895
1.35238e-05;-0.0008057422272201436
1.35240e-05;-0.0008216133731296976
1.35243e-05;-0.0008374845190391441
1.35245e-05;-0.0008533556649486982
1.35248e-05;-0.0008689888336034388
1.35250e-05;-0.0008818662921137818
1.35253e-05;-0.000894743750624212
1.35255e-05;-0.0009076212091346423
1.35258e-05;-0.0009204986676449851
1.35260e-05;-0.0009333761261554154
1.35263e-05;-0.0009462535846658457
1.35265e-05;-0.0009591310431761886
1.35268e-05;-0.0009720085016866189
1.35270e-05;-0.000984885960197049
1.35273e-05;-0.0009966190275595324
1.35275e-05;-0.0010075216716945166
1.35278e-05;-0.0010184243158295745
1.35280e-05;-0.0010293269599646324
1.35283e-05;-0.0010402296040996164
1.35285e-05;-0.0010511322482346743
1.35288e-05;-0.0010620348923697323
1.35290e-05;-0.0010715997195047146
1.35293e-05;-0.001080193764654143
1.35295e-05;-0.0010887878098035716
1.35298e-05;-0.001097381854952942
1.35300e-05;-0.0011059759001023704
1.35303e-05;-0.0011145699452517989
1.35305e-05;-0.001123163990401169
1.35308e-05;-0.0011300039627719094
1.35310e-05;-0.0011355710986821151
1.35313e-05;-0.001141138234592283
1.35315e-05;-0.0011430254718516554
1.35318e-05;-0.001142242404189384
1.35320e-05;-0.0011376588385462465
1.35323e-05;-0.0011303174555211714
1.35325e-05;-0.0011194915321669921
1.35328e-05;-0.0011061370649389822
1.35330e-05;-0.0010893081429308594
1.35333e-05;-0.0010699579955904127
1.35335e-05;-0.0010462242098951136
1.35338e-05;-0.0010193094531500135
1.35340e-05;-0.0009881284416976598
1.35343e-05;-0.0009538516382081176
1.35345e-05;-0.0009159194134814606
1.35348e-05;-0.0008753346457784937
1.35350e-05;-0.0008315138335321208
1.35353e-05;-0.0007853447974640985
1.35355e-05;-0.0007357831715911591
1.35358e-05;-0.0006837597254037821
1.35360e-05;-0.0006288301737967441
1.35363e-05;-0.0005717918174795369
1.35365e-05;-0.0005126429672649915
1.35368e-05;-0.00045196264491633115
1.35370e-05;-0.0003898472906083609
1.35373e-05;-0.0003266906106372173
1.35375e-05;-0.00026241362518034404
1.35378e-05;-0.00019732369416728144
1.35380e-05;-0.0001318309061856357
1.35383e-05;-6.60457865268141e-05
1.35385e-05;-5.27884477555707e-07
1.35388e-05;6.431432483674856e-05
1.35390e-05;0.00012811836548671124
1.35393e-05;0.00019059426508032958
1.35395e-05;0.0002515111812450631
1.35398e-05;0.00031057069821566966
1.35400e-05;0.0003673795033624771
1.35403e-05;0.00042151413355466017
1.35405e-05;0.0004725503068814367
1.35408e-05;0.0005200639854625838
1.35410e-05;0.0005629957964471911
1.35413e-05;0.0006037320204835789
1.35415e-05;0.0006423005092293488
1.35418e-05;0.0006792959888335782
1.35420e-05;0.0007144835578771478
1.35423e-05;0.0007483592232717371
1.35425e-05;0.000779819062361394
1.35428e-05;0.000809525865977329
1.35430e-05;0.0008362530026301593
1.35433e-05;0.0008608179549092899
1.35435e-05;0.0008853829071882541
1.35438e-05;0.0009080923995347791
1.35440e-05;0.0009294554842049353
1.35443e-05;0.0009508185688750915
1.35445e-05;0.0009699110220424309
1.35448e-05;0.000987355799810536
1.35450e-05;0.0010048005775786413
1.35453e-05;0.0010190994098740313
1.35455e-05;0.0010311153984068988
1.35458e-05;0.0010431313869397666
1.35460e-05;0.0010551473754725528
1.35463e-05;0.0010671633640054205
1.35465e-05;0.0010791793525382883
1.35468e-05;0.0010911953410710745
1.35470e-05;0.0011032113296039422
1.35473e-05;0.00111522731813681
1.35475e-05;0.001124144318404073
1.35478e-05;0.0011308125492332124
1.35480e-05;0.0011374807800623521
1.35483e-05;0.0011441490108914463
1.35485e-05;0.001150817241720586
1.35488e-05;0.0011574854725497255
1.35490e-05;0.0011641537033788198
1.35493e-05;0.0011708219342079593
1.35495e-05;0.001177490165037099
1.35498e-05;0.0011826817230704857
1.35500e-05;0.0011868017389201557
1.35503e-05;0.0011909217547698254
1.35505e-05;0.0011950417706194673
1.35508e-05;0.001199161786469137
1.35510e-05;0.0012032818023188067
1.35513e-05;0.0012074018181684487
1.35515e-05;0.0012115218340181184
1.35518e-05;0.0012156418498677883
1.35520e-05;0.0012219484217443558
1.35523e-05;0.0012298416599609945
1.35525e-05;0.001237734898177633
1.35528e-05;0.0012456281363942717
1.35530e-05;0.0012535213746108567
1.35533e-05;0.0012614146128274953
1.35535e-05;0.0012693078510441337
1.35538e-05;0.0012772010892607188
1.35540e-05;0.0012850943274773574
1.35543e-05;0.001292987565693996
1.35545e-05;0.001300880803910581
1.35548e-05;0.0013087740421272196
1.35550e-05;0.0013171072719181719
1.35553e-05;0.001330535481267594
1.35555e-05;0.001343963690617107
1.35558e-05;0.0013573918999666202
1.35560e-05;0.0013708201093160421
1.35563e-05;0.0013842483186655551
1.35565e-05;0.0013976765280150683
1.35568e-05;0.0014111047373644903
1.35570e-05;0.0014245329467140035
1.35573e-05;0.0014379611560635165
1.35575e-05;0.0014513893654129386
1.35578e-05;0.0014648175747624516
1.35580e-05;0.0014782457841119646
1.35583e-05;0.0014920049991570135
1.35585e-05;0.0015060044072679898
1.35588e-05;0.001520003815378966
1.35590e-05;0.0015340032234898472
1.35593e-05;0.0015480026316008234
1.35595e-05;0.0015618040064428902
1.35598e-05;0.0015733122113323807
1.35600e-05;0.0015848204162219493
1.35603e-05;0.0015963286211115176
1.35605e-05;0.0016078368260010081
1.35608e-05;0.0016193450308905765
1.35610e-05;0.0016273809919109246
1.35613e-05;0.0016328973319357188
1.35615e-05;0.0016384136719604758
1.35618e-05;0.0016378408364544725
1.35620e-05;0.001632849413115804
1.35623e-05;0.001622896473075604
1.35625e-05;0.0016093432266854836
1.35628e-05;0.001591186281333622
1.35630e-05;0.0015696886787592405
1.35633e-05;0.0015428690095377375
1.35635e-05;0.0015121874022242833
1.35638e-05;0.0014754332487304234
1.35640e-05;0.0014342725744303786
1.35643e-05;0.0013877348857931691
1.35645e-05;0.0013372953864749112
1.35648e-05;0.001282261093161081
1.35650e-05;0.0012238926044805098
1.35653e-05;0.001161037395715262
1.35655e-05;0.0010949264150182858
1.35658e-05;0.001024416751971997
1.35660e-05;0.0009507152012540995
1.35663e-05;0.000873608647748781
1.35665e-05;0.0007940312664918133
1.35668e-05;0.0007120968519478811
1.35670e-05;0.0006284520648654325
1.35673e-05;0.0005430757340560231
1.35675e-05;0.00045644291490882957
1.35678e-05;0.00036865555899993354
1.35680e-05;0.0002800304177356837
1.35683e-05;0.00019140527647203435
1.35685e-05;0.00010304654261587034
1.35688e-05;1.5526555260962223e-05
1.35690e-05;-7.060338224262647e-05
1.35693e-05;-0.0001549486042837869
1.35695e-05;-0.00023718857879926513
1.35698e-05;-0.00031692019037097413
1.35700e-05;-0.00039361462211233694
1.35703e-05;-0.00046669995986608483
1.35705e-05;-0.0005356036869602487
1.35708e-05;-0.000599753343287688
1.35710e-05;-0.0006587743558895069
1.35713e-05;-0.0007130036170278149
1.35715e-05;-0.0007634097742434354
1.35718e-05;-0.0008106426885650352
1.35720e-05;-0.0008536263107666895
1.35723e-05;-0.0008944558707873514
1.35725e-05;-0.0009307775108321503
1.35728e-05;-0.0009638279953217998
1.35730e-05;-0.0009921366189476718
1.35733e-05;-0.001017004328673767
1.35735e-05;-0.0010383364969016708
1.35738e-05;-0.001057103112441333
1.35740e-05;-0.001072674160559066
1.35743e-05;-0.001085926356926896
1.35745e-05;-0.0010957426192423892
1.35748e-05;-0.0011030656086466154
1.35750e-05;-0.001106325437294988
1.35753e-05;-0.0011066368482808744
1.35755e-05;-0.0011069482592667627
1.35758e-05;-0.0011038509795507126
1.35760e-05;-0.0010982801959604608
1.35763e-05;-0.001092709412370171
1.35765e-05;-0.001084035203023755
1.35768e-05;-0.0010731090041886549
1.35770e-05;-0.0010621828053534806
1.35773e-05;-0.0010484715639745826
1.35775e-05;-0.0010327393667143745
1.35778e-05;-0.0010170071694540596
1.35780e-05;-0.001001274972193745
1.35783e-05;-0.0009855427749334302
1.35785e-05;-0.0009696635325533531
1.35788e-05;-0.0009520815487452638
1.35790e-05;-0.0009344995649371744
1.35793e-05;-0.0009169175811292042
1.35795e-05;-0.0008993355973211147
1.35798e-05;-0.0008817536135130253
1.35800e-05;-0.0008657624625439256
1.35803e-05;-0.0008509256935749635
1.35805e-05;-0.0008360889246060014
1.35808e-05;-0.0008212521556371397
1.35810e-05;-0.0008074574954177348
1.35813e-05;-0.000794419037580779
1.35815e-05;-0.0007813805797439115
1.35818e-05;-0.0007683421219069558
1.35820e-05;-0.0007528388158073436
1.35823e-05;-0.0007355469016288544
1.35825e-05;-0.0007182549874502481
1.35828e-05;-0.0007009630732716417
1.35830e-05;-0.0006836711590931526
1.35833e-05;-0.0006663792449145461
1.35835e-05;-0.0006490873307359398
1.35838e-05;-0.0006317954165574507
1.35840e-05;-0.0006139091107441865
1.35843e-05;-0.0005891399157721974
1.35845e-05;-0.000564370720800376
1.35848e-05;-0.0005396015258283868
1.35850e-05;-0.0005148323308563976
1.35853e-05;-0.0004900631358845763
1.35855e-05;-0.00046529394091258713
1.35858e-05;-0.00044052474594059795
1.35860e-05;-0.00041575555096877664
1.35863e-05;-0.0003884438091909947
1.35865e-05;-0.0003592870776717675
1.35868e-05;-0.0003301303461525402
1.35870e-05;-0.0003005311406841106
1.35873e-05;-0.00027061085562093577
1.35875e-05;-0.00024069057055776087
1.35878e-05;-0.0002105554981556163
1.35880e-05;-0.00018026456611029812
1.35883e-05;-0.00014997363406497993
1.35885e-05;-0.0001199479620787948
1.35888e-05;-9.04314115655052e-05
1.35890e-05;-6.154840329080333e-05
1.35893e-05;-3.3392730046761957e-05
1.35895e-05;-6.001932188365611e-06
1.35898e-05;2.0540314502425452e-05
1.35900e-05;4.607170649223379e-05
1.35903e-05;7.040232588502015e-05
1.35905e-05;9.334180832702367e-05
1.35908e-05;0.00011469982071844753
1.35910e-05;0.00013440574695577353
1.35913e-05;0.00015280846763388105
1.35915e-05;0.0001706015385211594
1.35918e-05;0.0001882371129421275
1.35920e-05;0.00020549505568245082
1.35923e-05;0.00022249846901092608
1.35925e-05;0.00023950188233951656
1.35928e-05;0.0002555444927779073
1.35930e-05;0.0002708899001313481
1.35933e-05;0.0002862353074848929
1.35935e-05;0.00030158071483843765
1.35938e-05;0.00031692612219187845
1.35940e-05;0.00033224852695560946
1.35943e-05;0.0003473045681519368
1.35945e-05;0.00036236060934816204
1.35948e-05;0.00037741665054448936
1.35950e-05;0.0003924726917408167
1.35953e-05;0.000407528732937144
1.35955e-05;0.00042254352733492925
1.35958e-05;0.00043752839114517047
1.35960e-05;0.0004525132549554117
1.35963e-05;0.0004674981187655513
1.35965e-05;0.00048248298257579255
1.35968e-05;0.0004974678463860338
1.35970e-05;0.0005124527101961735
1.35973e-05;0.0005274375740064147
1.35975e-05;0.0005416923612815336
1.35978e-05;0.0005554173712029131
1.35980e-05;0.0005691423811243857
1.35983e-05;0.0005828673910458582
1.35985e-05;0.0005965924009672377
1.35988e-05;0.0006103174108887102
1.35990e-05;0.0006240424208101827
1.35993e-05;0.0006377674307315622
1.35995e-05;0.0006503104455073177
1.35998e-05;0.0006619957498510182
1.36000e-05;0.0006736810541946394
1.36003e-05;0.0006845676100395723
1.36005e-05;0.0006948745569728418
1.36008e-05;0.0007042168329467684
1.36010e-05;0.000712859098985603
1.36013e-05;0.0007197647953891987
1.36015e-05;0.0007231931547184463
1.36018e-05;0.0007225382434456329
1.36020e-05;0.0007177047269041271
1.36023e-05;0.0007088561865924235
1.36025e-05;0.0006961606435507185
1.36028e-05;0.0006797861432961419
1.36030e-05;0.0006597838536623218
1.36033e-05;0.0006358119985459324
1.36035e-05;0.0006072498882061534
1.36038e-05;0.0005737872903885747
1.36040e-05;0.0005355864881608851
1.36043e-05;0.0004929719776304072
1.36045e-05;0.00044627108495142603
1.36048e-05;0.0003958110612052105
1.36050e-05;0.00034184595836274004
1.36053e-05;0.0002843836625118709
1.36055e-05;0.000223257372311975
1.36058e-05;0.0001584947715986663
1.36060e-05;9.041955089554883e-05
1.36063e-05;1.9456973420357833e-05
1.36065e-05;-5.396598018257533e-05
1.36068e-05;-0.00012942238019919067
1.36070e-05;-0.00020653118686089807
1.36073e-05;-0.00028543221327065007
1.36075e-05;-0.00036517416213693545
1.36078e-05;-0.0004459558103994868
1.36080e-05;-0.0005274919127077134
1.36083e-05;-0.0006090280150159398
1.36085e-05;-0.0006903550178886267
1.36088e-05;-0.0007692607076847935
1.36090e-05;-0.0008481663974809603
1.36093e-05;-0.0009270720872765923
1.36095e-05;-0.001002886221394065
1.36098e-05;-0.0010764569794983892
1.36100e-05;-0.0011465245103397036
1.36103e-05;-0.001214049937196877
1.36105e-05;-0.0012768487495745308
1.36108e-05;-0.0013362177115304806
1.36110e-05;-0.0013898040784119505
1.36113e-05;-0.001439194326434924
1.36115e-05;-0.001488584574457563
1.36118e-05;-0.001534591002721708
1.36120e-05;-0.0015781419746171642
1.36123e-05;-0.0016216929465126205
1.36125e-05;-0.0016610046596952385
1.36128e-05;-0.0016972401703773047
1.36130e-05;-0.0017334756810593712
1.36133e-05;-0.0017641916549552225
1.36135e-05;-0.0017909023972728008
1.36138e-05;-0.0018176131395903792
1.36140e-05;-0.0018443238819077766
1.36143e-05;-0.001871034624225355
1.36145e-05;-0.0018977453665429333
1.36148e-05;-0.0019244561088603306
1.36150e-05;-0.001951166851177909
1.36153e-05;-0.001977129999578923
1.36155e-05;-0.0019944362191460763
1.36158e-05;-0.0020117424387133473
1.36160e-05;-0.0020290486582806183
1.36163e-05;-0.0020463548778477717
1.36165e-05;-0.0020636610974150427
1.36168e-05;-0.002080967316982313
1.36170e-05;-0.002098273536549467
1.36173e-05;-0.002115579756116738
1.36175e-05;-0.0021288120323263464
1.36178e-05;-0.0021390880665140993
1.36180e-05;-0.002149364100701922
1.36183e-05;-0.0021596401348897448
1.36185e-05;-0.002169916169077498
1.36188e-05;-0.002180192203265321
1.36190e-05;-0.0021904682374531436
1.36193e-05;-0.0022007442716408965
1.36195e-05;-0.0022110203058287197
1.36198e-05;-0.0022212963400165425
1.36200e-05;-0.0022315723742042954
1.36203e-05;-0.002241848408392118
1.36205e-05;-0.002252124442579941
1.36208e-05;-0.002257043091243
1.36210e-05;-0.0022580741727933904
1.36213e-05;-0.0022591052543437878
1.36215e-05;-0.002260136335894185
1.36218e-05;-0.002261167417444576
1.36220e-05;-0.0022621984989949734
1.36223e-05;-0.0022632295805453707
1.36225e-05;-0.002264260662095761
1.36228e-05;-0.0022652917436461585
1.36230e-05;-0.0022663228251965564
1.36233e-05;-0.002267353906746947
1.36235e-05;-0.002268384988297344
1.36238e-05;-0.0022694160698477415
1.36240e-05;-0.002263888677768966
1.36243e-05;-0.002253602153409297
1.36245e-05;-0.0022433156290496276
1.36248e-05;-0.0022330291046900284
1.36250e-05;-0.0022227425803303595
1.36253e-05;-0.0022124560559706906
1.36255e-05;-0.002202169531611091
1.36258e-05;-0.002191883007251422
1.36260e-05;-0.002181596482891753
1.36263e-05;-0.002171309958532154
1.36265e-05;-0.0021606053855738588
1.36268e-05;-0.002145059926553153
1.36270e-05;-0.002129514467532553
1.36273e-05;-0.0021139690085118477
1.36275e-05;-0.002098423549491142
1.36278e-05;-0.002082878090470542
1.36280e-05;-0.0020673326314498367
1.36283e-05;-0.002051787172429131
1.36285e-05;-0.002036241713408531
1.36288e-05;-0.0020206962543878257
1.36290e-05;-0.00200515079536712
1.36293e-05;-0.001992472019032626
1.36295e-05;-0.0019818734404522436
1.36298e-05;-0.0019712748618717895
1.36300e-05;-0.0019606762832913354
1.36303e-05;-0.0019500777047109532
1.36305e-05;-0.001939479126130499
1.36308e-05;-0.0019288805475500448
1.36310e-05;-0.0019182819689696625
1.36313e-05;-0.0019076833903892085
1.36315e-05;-0.0018970848118087544
1.36318e-05;-0.001886486233228372
1.36320e-05;-0.0018758876546479178
1.36323e-05;-0.0018652890760674638
1.36325e-05;-0.0018546904974870815
1.36328e-05;-0.0018440919189066274
1.36330e-05;-0.001834219270655798
1.36333e-05;-0.0018327526929634286
1.36335e-05;-0.0018312861152710493
1.36338e-05;-0.00182981953757867
1.36340e-05;-0.0018283529598863008
1.36343e-05;-0.0018268863821939215
1.36345e-05;-0.0018254198045015424
1.36348e-05;-0.0018239532268091731
1.36350e-05;-0.0018224866491167939
1.36353e-05;-0.0018210200714244146
1.36355e-05;-0.0018195534937320453
1.36358e-05;-0.001818086916039666
1.36360e-05;-0.0018166203383472867
1.36363e-05;-0.0018151537606549174
1.36365e-05;-0.0018136871829625382
1.36368e-05;-0.001812220605270159
1.36370e-05;-0.0018129502400794667
1.36373e-05;-0.0018152735484181883
1.36375e-05;-0.00181759685675691
1.36378e-05;-0.0018199201650956317
1.36380e-05;-0.0018222434734343374
1.36383e-05;-0.001824566781773059
1.36385e-05;-0.0018268900901117807
1.36388e-05;-0.0018292133984504865
1.36390e-05;-0.001831536706789208
1.36393e-05;-0.0018338600151279296
1.36395e-05;-0.0018361833234666356
1.36398e-05;-0.0018385066318053571
1.36400e-05;-0.0018408299401440787
1.36403e-05;-0.0018431532484827846
1.36405e-05;-0.0018454765568215062
1.36408e-05;-0.0018451722344581445
1.36410e-05;-0.001842961181533762
1.36413e-05;-0.0018407501286093642
1.36415e-05;-0.0018385390756849667
1.36418e-05;-0.0018363280227605841
1.36420e-05;-0.0018243703087464863
1.36423e-05;-0.001805339965936579
1.36425e-05;-0.0017863096231268004
1.36428e-05;-0.0017672792803168928
1.36430e-05;-0.0017482489375069852
1.36433e-05;-0.0017215637574305091
1.36435e-05;-0.0016893238728267405
1.36438e-05;-0.0016516284820095118
1.36440e-05;-0.001609974323160525
1.36443e-05;-0.0015635499694678548
1.36445e-05;-0.001513664141419864
