Time(s);Current(A)
5.30000e-06;0.011263906961962394
5.30025e-06;0.011285388699456932
5.30050e-06;0.011306870436951399
5.30075e-06;0.011328352174445864
5.30100e-06;0.011349833911940402
5.30125e-06;0.011371315649434869
5.30150e-06;0.011392797386929334
5.30175e-06;0.011412801492976746
5.30200e-06;0.01140970818015182
5.30225e-06;0.011406614867326893
5.30250e-06;0.011403521554501956
5.30275e-06;0.01140042824167703
5.30300e-06;0.011397334928852093
5.30325e-06;0.011394241616027166
5.30350e-06;0.01139114830320224
5.30375e-06;0.011388054990377303
5.30400e-06;0.011384961677552376
5.30425e-06;0.011381868364727451
5.30450e-06;0.011378775051902514
5.30475e-06;0.011375681739077588
5.30500e-06;0.011372588426252661
5.30525e-06;0.011369495113427724
5.30550e-06;0.011366401800602798
5.30575e-06;0.01135477229221583
5.30600e-06;0.011336439237377129
5.30625e-06;0.011318106182538487
5.30650e-06;0.011299773127699848
5.30675e-06;0.011281440072861146
5.30700e-06;0.011263107018022507
5.30725e-06;0.011244773963183805
5.30750e-06;0.011226440908345164
5.30775e-06;0.011208107853506524
5.30800e-06;0.011189774798667822
5.30825e-06;0.011171441743829181
5.30850e-06;0.011153108688990542
5.30875e-06;0.01113477563415184
5.30900e-06;0.0111164425793132
5.30925e-06;0.01109810952447456
5.30950e-06;0.011080232724304886
5.30975e-06;0.011069487814307546
5.31000e-06;0.011058742904310208
5.31025e-06;0.011047997994312834
5.31050e-06;0.011037253084315496
5.31075e-06;0.011026508174318158
5.31100e-06;0.011015763264320784
5.31125e-06;0.011005018354323444
5.31150e-06;0.01099427344432607
5.31175e-06;0.010983528534328732
5.31200e-06;0.010972783624331394
5.31225e-06;0.01096203871433402
5.31250e-06;0.010951293804336681
5.31275e-06;0.010940548894339342
5.31300e-06;0.010938183840449674
5.31325e-06;0.010942399558317243
5.31350e-06;0.010946615276184813
5.31375e-06;0.010950830994052396
5.31400e-06;0.010955046711919965
5.31425e-06;0.010959262429787535
5.31450e-06;0.010963478147655118
5.31475e-06;0.010967693865522687
5.31500e-06;0.010971909583390256
5.31525e-06;0.01097612530125784
5.31550e-06;0.010980341019125409
5.31575e-06;0.010984556736992992
5.31600e-06;0.010988772454860561
5.31625e-06;0.010993416830092112
5.31650e-06;0.011004761711526343
5.31675e-06;0.011016106592960534
5.31700e-06;0.011027451474394726
5.31725e-06;0.011038796355828957
5.31750e-06;0.011050141237263148
5.31775e-06;0.011061486118697339
5.31800e-06;0.01107283100013157
5.31825e-06;0.011084175881565761
5.31850e-06;0.011095520762999952
5.31875e-06;0.011105701960037411
5.31900e-06;0.01111496930589252
5.31925e-06;0.011124236651747629
5.31950e-06;0.011133503997602769
5.31975e-06;0.011142771343457878
5.32000e-06;0.01115203868931302
5.32025e-06;0.011161306035168128
5.32050e-06;0.011170573381023237
5.32075e-06;0.011179840726878377
5.32100e-06;0.011189184352319533
5.32125e-06;0.011199720332965958
5.32150e-06;0.01121025631361242
5.32175e-06;0.011220792294258848
5.32200e-06;0.011231328274905274
5.32225e-06;0.011241864255551737
5.32250e-06;0.011252400236198164
5.32275e-06;0.01126293621684459
5.32300e-06;0.011273472197491054
5.32325e-06;0.01128400817813748
5.32350e-06;0.011294544158783908
5.32375e-06;0.01130508013943037
5.32400e-06;0.011315616120076796
5.32425e-06;0.011326537922035288
5.32450e-06;0.011343490643580617
5.32475e-06;0.011360443365125946
5.32500e-06;0.011377396086671333
5.32525e-06;0.011394348808216662
5.32550e-06;0.011411301529761992
5.32575e-06;0.011428254251307378
5.32600e-06;0.011445206972852708
5.32625e-06;0.011462159694398039
5.32650e-06;0.011479112415943425
5.32675e-06;0.011496065137488755
5.32700e-06;0.011513017859034084
5.32725e-06;0.01152997058057947
5.32750e-06;0.011546858452983306
5.32775e-06;0.011562732643806195
5.32800e-06;0.011578606834629138
5.32825e-06;0.011594481025452026
5.32850e-06;0.01161035521627497
5.32875e-06;0.011626229407097859
5.32900e-06;0.011642103597920749
5.32925e-06;0.011657977788743692
5.32950e-06;0.01167385197956658
5.32975e-06;0.01168972617038947
5.33000e-06;0.011705600361212412
5.33025e-06;0.011721474552035302
5.33050e-06;0.011732924029522225
5.33075e-06;0.011740898742267258
5.33100e-06;0.011748873455012262
5.33125e-06;0.011756848167757265
5.33150e-06;0.011764822880502297
5.33175e-06;0.011772797593247302
5.33200e-06;0.011780772305992306
5.33225e-06;0.011788747018737337
5.33250e-06;0.011796721731482341
5.33275e-06;0.011804696444227372
5.33300e-06;0.011812671156972376
5.33325e-06;0.01182025472713631
5.33350e-06;0.011821724198938628
5.33375e-06;0.011823193670740943
5.33400e-06;0.011824663142543258
5.33425e-06;0.011826132614345576
5.33450e-06;0.01182760208614789
5.33475e-06;0.011829071557950203
5.33500e-06;0.011830541029752523
5.33525e-06;0.011832010501554838
5.33550e-06;0.011833479973357151
5.33575e-06;0.011834949445159471
5.33600e-06;0.011836418916961784
5.33625e-06;0.011837888388764099
5.33650e-06;0.011839357860566418
5.33675e-06;0.011840827332368731
5.33700e-06;0.011842296804171051
5.33725e-06;0.011843766275973366
5.33750e-06;0.011845235747775679
5.33775e-06;0.011846705219577999
5.33800e-06;0.011848174691380312
5.33825e-06;0.011849644163182627
5.33850e-06;0.011851113634984946
5.33875e-06;0.01185258310678726
5.33900e-06;0.011854052578589574
5.33925e-06;0.011855522050391892
5.33950e-06;0.011856991522194207
5.33975e-06;0.011858460993996522
5.34000e-06;0.01185993046579884
5.34025e-06;0.011861399937601155
5.34050e-06;0.01186286940940347
5.34075e-06;0.011863719935425765
5.34100e-06;0.011854895484699906
5.34125e-06;0.011846071033974016
5.34150e-06;0.011837246583248157
5.34175e-06;0.011828422132522299
5.34200e-06;0.01181959768179641
5.34225e-06;0.011810773231070552
5.34250e-06;0.011801948780344693
5.34275e-06;0.011793124329618803
5.34300e-06;0.011784299878892944
5.34325e-06;0.011775475428167086
5.34350e-06;0.011765765553713971
5.34375e-06;0.011742215284435358
5.34400e-06;0.011718665015156745
5.34425e-06;0.011695114745878052
5.34450e-06;0.01167156447659944
5.34475e-06;0.011648014207320825
5.34500e-06;0.011624463938042133
5.34525e-06;0.011600913668763521
5.34550e-06;0.011577363399484827
5.34575e-06;0.011553813130206215
5.34600e-06;0.011530262860927601
5.34625e-06;0.011506319187780209
5.34650e-06;0.011476226069231819
5.34675e-06;0.01144613295068343
5.34700e-06;0.011416039832134938
5.34725e-06;0.01138594671358655
5.34750e-06;0.01135585359503816
5.34775e-06;0.01132576047648967
5.34800e-06;0.01129566735794128
5.34825e-06;0.011265574239392891
5.34850e-06;0.0112354811208444
5.34875e-06;0.01120538800229601
5.34900e-06;0.011175294883747623
5.34925e-06;0.01114520176519913
5.34950e-06;0.011122074716680199
5.34975e-06;0.011104418181769934
5.35000e-06;0.01108676164685973
5.35025e-06;0.011069105111949525
5.35050e-06;0.011051448577039262
5.35075e-06;0.011033792042129058
5.35100e-06;0.011016135507218852
5.35125e-06;0.010998478972308589
5.35150e-06;0.010980822437398384
5.35175e-06;0.01096316590248818
5.35200e-06;0.010945509367577915
5.35225e-06;0.010927852832667711
5.35250e-06;0.01091168145349958
5.35275e-06;0.010918725108219592
5.35300e-06;0.01092576876293958
5.35325e-06;0.010932812417659568
5.35350e-06;0.010939856072379581
5.35375e-06;0.01094689972709957
5.35400e-06;0.010953943381819582
5.35425e-06;0.01096098703653957
5.35450e-06;0.010968030691259558
5.35475e-06;0.010975074345979571
5.35500e-06;0.01098211800069956
5.35525e-06;0.01098916165541955
5.35550e-06;0.010996205310139562
5.35575e-06;0.01100324896485955
5.35600e-06;0.011010292619579538
5.35625e-06;0.011018043427144438
5.35650e-06;0.011036848009601186
5.35675e-06;0.011055652592057933
5.35700e-06;0.011074457174514746
5.35725e-06;0.011093261756971493
5.35750e-06;0.011112066339428241
5.35775e-06;0.011130870921885052
5.35800e-06;0.011149675504341799
5.35825e-06;0.011168480086798611
5.35850e-06;0.011187284669255358
5.35875e-06;0.011206089251712107
5.35900e-06;0.011224893834168918
5.35925e-06;0.011243698416625666
5.35950e-06;0.011262502999082413
5.35975e-06;0.011281307581539224
5.36000e-06;0.011299613760637657
5.36025e-06;0.011310129207412319
5.36050e-06;0.011320644654187017
5.36075e-06;0.011331160100961678
5.36100e-06;0.01134167554773634
5.36125e-06;0.011352190994511036
5.36150e-06;0.011362706441285697
5.36175e-06;0.011373221888060359
5.36200e-06;0.011383177684692589
5.36225e-06;0.011384385377241221
5.36250e-06;0.011385593069789859
5.36275e-06;0.011386800762338492
5.36300e-06;0.011388008454887124
5.36325e-06;0.01138921614743576
5.36350e-06;0.011390423839984393
5.36375e-06;0.011391631532533026
5.36400e-06;0.011392555945639121
5.36425e-06;0.011388721057355333
5.36450e-06;0.01137970823131135
5.36475e-06;0.011370695405267337
5.36500e-06;0.011361682579223353
5.36525e-06;0.01135266975317937
5.36550e-06;0.011343656927135357
5.36575e-06;0.011334644101091374
5.36600e-06;0.011325631275047392
5.36625e-06;0.011316618449003378
5.36650e-06;0.011307605622959394
5.36675e-06;0.011298592796915382
5.36700e-06;0.011289579970871398
5.36725e-06;0.011280567144827416
5.36750e-06;0.011271554318783402
5.36775e-06;0.01126254149273942
5.36800e-06;0.011252767224145404
5.36825e-06;0.01124239498828816
5.36850e-06;0.011232022752430952
5.36875e-06;0.011221650516573744
5.36900e-06;0.0112112782807165
5.36925e-06;0.011200906044859292
5.36950e-06;0.011190533809002083
5.36975e-06;0.01118016157314484
5.37000e-06;0.011169789337287631
5.37025e-06;0.011159417101430423
5.37050e-06;0.01114904486557318
5.37075e-06;0.01113867262971597
5.37100e-06;0.011128300393858728
5.37125e-06;0.011117928158001519
5.37150e-06;0.011107742296360013
5.37175e-06;0.011100469720917262
5.37200e-06;0.011093197145474533
5.37225e-06;0.011085924570031803
5.37250e-06;0.011078651994589052
5.37275e-06;0.011071379419146323
5.37300e-06;0.011064106843703595
5.37325e-06;0.011056834268260842
5.37350e-06;0.011049561692818113
5.37375e-06;0.011042289117375386
5.37400e-06;0.011035016541932632
5.37425e-06;0.011027743966489905
5.37450e-06;0.011020471391047176
5.37475e-06;0.011013198815604423
5.37500e-06;0.011005926240161695
5.37525e-06;0.010998653664718942
5.37550e-06;0.010991381089276215
5.37575e-06;0.010984108513833486
5.37600e-06;0.010976835938390732
5.37625e-06;0.010969563362948005
5.37650e-06;0.010962290787505276
5.37675e-06;0.010955018212062524
5.37700e-06;0.010947745636619795
5.37725e-06;0.010940473061177066
5.37750e-06;0.010933200485734314
5.37775e-06;0.010925927910291585
5.37800e-06;0.010918655334848858
5.37825e-06;0.010911382759406105
5.37850e-06;0.010904110183963376
5.37875e-06;0.010896837608520648
5.37900e-06;0.010889565033077895
5.37925e-06;0.010882292457635168
5.37950e-06;0.010875019882192414
5.37975e-06;0.010867747306749685
5.38000e-06;0.010860474731306958
5.38025e-06;0.010853202155864205
5.38050e-06;0.010845929580421477
5.38075e-06;0.010838657004978748
5.38100e-06;0.01083107507849627
5.38125e-06;0.010818657568344405
5.38150e-06;0.010806240058192541
5.38175e-06;0.010793822548040633
5.38200e-06;0.01078140503788877
5.38225e-06;0.010768987527736903
5.38250e-06;0.010756570017584998
5.38275e-06;0.010744152507433132
5.38300e-06;0.010731734997281268
5.38325e-06;0.01071931748712936
5.38350e-06;0.010706899976977496
5.38375e-06;0.010694482466825589
5.38400e-06;0.010682064956673724
5.38425e-06;0.010663526213998572
5.38450e-06;0.010640180415744481
5.38475e-06;0.010616834617490472
5.38500e-06;0.010593488819236462
5.38525e-06;0.010570143020982373
5.38550e-06;0.010546797222728364
5.38575e-06;0.010523451424474353
5.38600e-06;0.010500105626220264
5.38625e-06;0.010476759827966255
5.38650e-06;0.010453414029712244
5.38675e-06;0.010430068231458155
5.38700e-06;0.010406722433204146
5.38725e-06;0.010383321301172255
5.38750e-06;0.010359055225829278
5.38775e-06;0.010334789150486384
5.38800e-06;0.01031052307514349
5.38825e-06;0.010286256999800516
5.38850e-06;0.010261990924457622
5.38875e-06;0.010237724849114647
5.38900e-06;0.010213458773771753
5.38925e-06;0.01018919269842886
5.38950e-06;0.010164926623085883
5.38975e-06;0.010140660547742989
5.39000e-06;0.010116394472400096
5.39025e-06;0.010093142631260035
5.39050e-06;0.010085744670388577
5.39075e-06;0.010078346709517119
5.39100e-06;0.010070948748645637
5.39125e-06;0.010063550787774178
5.39150e-06;0.01005615282690272
5.39175e-06;0.010048754866031236
5.39200e-06;0.010041356905159778
5.39225e-06;0.01003395894428832
5.39250e-06;0.010026560983416838
5.39275e-06;0.01001916302254538
5.39300e-06;0.010011765061673896
5.39325e-06;0.01000593013633151
5.39350e-06;0.010024527613343723
5.39375e-06;0.010043125090355999
5.39400e-06;0.010061722567368212
5.39425e-06;0.010080320044380425
5.39450e-06;0.0100989175213927
5.39475e-06;0.010117514998404914
5.39500e-06;0.010136112475417127
5.39525e-06;0.010154709952429402
5.39550e-06;0.010173307429441615
5.39575e-06;0.010191904906453827
5.39600e-06;0.010210502383466102
5.39625e-06;0.010229099860478316
5.39650e-06;0.010247697337490529
5.39675e-06;0.010271633899816205
5.39700e-06;0.010299763290912457
5.39725e-06;0.010327892682008805
5.39750e-06;0.010356022073105058
5.39775e-06;0.010384151464201312
5.39800e-06;0.01041228085529766
5.39825e-06;0.010440410246393913
5.39850e-06;0.010468539637490165
5.39875e-06;0.010496669028586514
5.39900e-06;0.010524798419682766
5.39925e-06;0.010552927810779019
5.39950e-06;0.010581057201875367
5.39975e-06;0.010609186592971621
5.40000e-06;0.010636202299711293
5.40025e-06;0.010645809583049748
5.40050e-06;0.010655416866388172
5.40075e-06;0.010665024149726594
5.40100e-06;0.01067463143306505
5.40125e-06;0.010684238716403472
5.40150e-06;0.010693845999741927
5.40175e-06;0.010703453283080349
5.40200e-06;0.010713060566418773
5.40225e-06;0.010722667849757228
5.40250e-06;0.01073227513309565
5.40275e-06;0.010741882416434072
5.40300e-06;0.010751489699772528
5.40325e-06;0.010761096983110952
5.40350e-06;0.010770704266449374
5.40375e-06;0.010780311549787829
5.40400e-06;0.01077853508508636
5.40425e-06;0.010767818866945543
5.40450e-06;0.010757102648804688
5.40475e-06;0.01074638643066387
5.40500e-06;0.01073567021252305
5.40525e-06;0.010724953994382195
5.40550e-06;0.010714237776241376
5.40575e-06;0.010703521558100521
5.40600e-06;0.010692805339959702
5.40625e-06;0.010682089121818885
5.40650e-06;0.01067137290367803
5.40675e-06;0.010660656685537211
5.40700e-06;0.010649940467396393
5.40725e-06;0.010639224249255537
5.40750e-06;0.010628508031114718
5.40775e-06;0.010617553719136854
5.40800e-06;0.010602877671913853
5.40825e-06;0.0105882016246909
5.40850e-06;0.010573525577467947
5.40875e-06;0.010558849530244946
5.40900e-06;0.010544173483021993
5.40925e-06;0.01052949743579904
5.40950e-06;0.010514821388576038
5.40975e-06;0.010500145341353085
5.41000e-06;0.010485469294130084
5.41025e-06;0.010470793246907131
5.41050e-06;0.010458213673488408
5.41075e-06;0.010447280478646712
5.41100e-06;0.010436347283805053
5.41125e-06;0.010425414088963393
5.41150e-06;0.010414480894121697
5.41175e-06;0.01040354769928004
5.41200e-06;0.01039261450443838
5.41225e-06;0.010381681309596684
5.41250e-06;0.010370748114755024
5.41275e-06;0.010359814919913364
5.41300e-06;0.010348879332017988
5.41325e-06;0.010337906337391203
5.41350e-06;0.010326933342764417
5.41375e-06;0.010315960348137594
5.41400e-06;0.010304987353510809
5.41425e-06;0.010294014358883986
5.41450e-06;0.0102830413642572
5.41475e-06;0.010272068369630415
5.41500e-06;0.010261095375003592
5.41525e-06;0.010250122380376807
5.41550e-06;0.010239149385750022
5.41575e-06;0.010228176391123198
5.41600e-06;0.010217203396496413
5.41625e-06;0.010206230401869628
5.41650e-06;0.010195257407242805
5.41675e-06;0.01018428441261602
5.41700e-06;0.010173311417989234
5.41725e-06;0.010162338423362411
5.41750e-06;0.010151365428735626
5.41775e-06;0.010140392434108839
5.41800e-06;0.010129419439482017
5.41825e-06;0.01011844644485523
5.41850e-06;0.010107473450228409
5.41875e-06;0.010096500455601624
5.41900e-06;0.010085527460974837
5.41925e-06;0.010079023062936867
5.41950e-06;0.010076027891523738
5.41975e-06;0.01007303272011061
5.42000e-06;0.010070037548697468
5.42025e-06;0.01006704237728434
5.42050e-06;0.01006404720587121
5.42075e-06;0.010061052034458071
5.42100e-06;0.01005805686304494
5.42125e-06;0.010055061691631811
5.42150e-06;0.010052066520218672
5.42175e-06;0.010049071348805541
5.42200e-06;0.010046076177392413
5.42225e-06;0.010043081005979273
5.42250e-06;0.010040085834566144
5.42275e-06;0.010037090663153003
5.42300e-06;0.010034095491739874
5.42325e-06;0.010031100320326745
5.42350e-06;0.010028105148913606
5.42375e-06;0.010025109977500475
5.42400e-06;0.010022114806087347
5.42425e-06;0.010019119634674207
5.42450e-06;0.010016124463261077
5.42475e-06;0.010013129291847948
5.42500e-06;0.010010134120434808
5.42525e-06;0.010007717904399945
5.42550e-06;0.010014351559878502
5.42575e-06;0.010020985215357082
5.42600e-06;0.010027618870835638
5.42625e-06;0.010034252526314196
5.42650e-06;0.010040886181792776
5.42675e-06;0.010047519837271332
5.42700e-06;0.010054153492749912
5.42725e-06;0.01006078714822847
5.42750e-06;0.010067420803707025
5.42775e-06;0.010074054459185605
5.42800e-06;0.010080688114664163
5.42825e-06;0.010087321770142718
5.42850e-06;0.010093955425621299
5.42875e-06;0.010100589081099856
5.42900e-06;0.010107222736578412
5.42925e-06;0.010113856392056992
5.42950e-06;0.01012049004753555
5.42975e-06;0.010126630604055378
5.43000e-06;0.010125063343382723
5.43025e-06;0.010123496082710074
5.43050e-06;0.010121928822037426
5.43075e-06;0.010120361561364772
5.43100e-06;0.010118794300692123
5.43125e-06;0.01011722704001947
5.43150e-06;0.01011565977934682
5.43175e-06;0.010114092518674171
5.43200e-06;0.010112525258001518
5.43225e-06;0.010110957997328869
5.43250e-06;0.01010939073665622
5.43275e-06;0.010107823475983567
5.43300e-06;0.010106256215310918
5.43325e-06;0.010104688954638268
5.43350e-06;0.010103121693965614
5.43375e-06;0.010101554433292966
5.43400e-06;0.010099987172620317
5.43425e-06;0.010097612144714265
5.43450e-06;0.010082610600251483
5.43475e-06;0.0100676090557887
5.43500e-06;0.010052607511325865
5.43525e-06;0.010037605966863082
5.43550e-06;0.01002260442240025
5.43575e-06;0.010007602877937467
5.43600e-06;0.009992601333474682
5.43625e-06;0.009977599789011849
5.43650e-06;0.009962598244549066
5.43675e-06;0.009947596700086284
5.43700e-06;0.009932595155623449
5.43725e-06;0.009917593611160666
5.43750e-06;0.009902592066697883
5.43775e-06;0.00988759459008347
5.43800e-06;0.00987266069955343
5.43825e-06;0.009857726809023387
5.43850e-06;0.009842792918493295
5.43875e-06;0.009827859027963255
5.43900e-06;0.009812925137433212
5.43925e-06;0.00979799124690312
5.43950e-06;0.00978305735637308
5.43975e-06;0.009768123465842988
5.44000e-06;0.009753189575312947
5.44025e-06;0.009738255684782905
5.44050e-06;0.009723321794252813
5.44075e-06;0.009708387903722773
5.44100e-06;0.00969345401319273
5.44125e-06;0.009678753715776542
5.44150e-06;0.009667704801081214
5.44175e-06;0.009656655886385885
5.44200e-06;0.00964560697169052
5.44225e-06;0.009634558056995193
5.44250e-06;0.009623509142299865
5.44275e-06;0.0096124602276045
5.44300e-06;0.009601411312909171
5.44325e-06;0.009590362398213844
5.44350e-06;0.009579313483518478
5.44375e-06;0.00956826456882315
5.44400e-06;0.009557215654127784
5.44425e-06;0.009546166739432456
5.44450e-06;0.009535117824737128
5.44475e-06;0.009524068910041763
5.44500e-06;0.009513019995346435
5.44525e-06;0.009501971080651107
5.44550e-06;0.009490922165955743
5.44575e-06;0.009479873251260415
5.44600e-06;0.009468824336565086
5.44625e-06;0.009457775421869721
5.44650e-06;0.009446726507174394
5.44675e-06;0.009435791301332935
5.44700e-06;0.009426633521791022
5.44725e-06;0.009417475742249139
5.44750e-06;0.009408317962707257
5.44775e-06;0.009399160183165342
5.44800e-06;0.00939000240362346
5.44825e-06;0.009380844624081546
5.44850e-06;0.009371686844539664
5.44875e-06;0.009362529064997781
5.44900e-06;0.009353371285455868
5.44925e-06;0.009344213505913985
5.44950e-06;0.009335055726372103
5.44975e-06;0.009325897946830189
5.45000e-06;0.009316740167288307
5.45025e-06;0.009307582387746424
5.45050e-06;0.00929842460820451
5.45075e-06;0.009289266828662627
5.45100e-06;0.009280109049120746
5.45125e-06;0.009270951269578831
5.45150e-06;0.00926179349003695
5.45175e-06;0.009252635710495066
