Time(s);Current(A)
8.00000e-06;2.3416351480799415e-05
8.00025e-06;7.728700163514983e-05
8.00050e-06;0.0001313829875101366
8.00075e-06;0.00018586430660842953
8.00100e-06;0.00024076055817386565
8.00125e-06;0.0002958321030716649
8.00150e-06;0.00035074834462678567
8.00175e-06;0.0004051698928566526
8.00200e-06;0.0004587574399836665
8.00225e-06;0.0005111863312369423
8.00250e-06;0.0005622680624568741
8.00275e-06;0.0006119709218420315
8.00300e-06;0.000660181649039936
8.00325e-06;0.0007066182923069548
8.00350e-06;0.0007509419153726121
8.00375e-06;0.0007928081412841164
8.00400e-06;0.0008318726135192425
8.00425e-06;0.0008678333528543141
8.00450e-06;0.0009007942973596916
8.00475e-06;0.0009313652865829102
8.00500e-06;0.0009599938520500422
8.00525e-06;0.0009866822669393183
8.00550e-06;0.0010112763075465767
8.00575e-06;0.001033606278110096
8.00600e-06;0.0010535025512905447
8.00625e-06;0.001069817520639558
8.00650e-06;0.0010854622264939143
8.00675e-06;0.0010978082220616987
8.00700e-06;0.00110945208255075
8.00725e-06;0.0011176004958686108
8.00750e-06;0.0011250048983878767
8.00775e-06;0.0011324093009070922
8.00800e-06;0.0011353231816329488
8.00825e-06;0.0011372812485409796
8.00850e-06;0.0011392393154490102
8.00875e-06;0.0011376379133112415
8.00900e-06;0.001135278873229735
8.00925e-06;0.0011329198331482288
8.00950e-06;0.0011267709110078072
8.00975e-06;0.0011198153071928694
8.01000e-06;0.0011128597033779315
8.01025e-06;0.0011059040995630408
8.01050e-06;0.001098948495748103
8.01075e-06;0.0010908254609717893
8.01100e-06;0.001080272263883294
8.01125e-06;0.0010697190667947273
8.01150e-06;0.0010591658697061605
8.01175e-06;0.0010486126726176655
8.01200e-06;0.0010380594755290988
8.01225e-06;0.0010267676054485234
8.01250e-06;0.0010153185077928875
8.01275e-06;0.0010041041410128826
8.01300e-06;0.0009929397370266968
8.01325e-06;0.0009824464588974427
8.01350e-06;0.0009720960308414709
8.01375e-06;0.0009624136091357263
8.01400e-06;0.0009534042175554535
8.01425e-06;0.0009450012748253456
8.01450e-06;0.0009362476773786706
8.01475e-06;0.0009251435545329852
8.01500e-06;0.0009103220044238456
8.01525e-06;0.0008916245006179109
8.01550e-06;0.0008692956627396652
8.01575e-06;0.0008436190682975387
8.01600e-06;0.0008148783050156334
8.01625e-06;0.0007832932266980938
8.01650e-06;0.0007484990596121094
8.01675e-06;0.0007094779628138443
8.01700e-06;0.0006656086888348616
8.01725e-06;0.000617026911837569
8.01750e-06;0.0005641208341324153
8.01775e-06;0.0005073030796126677
8.01800e-06;0.0004469861864021353
8.01825e-06;0.00038354274250806145
8.01850e-06;0.00031697914942058013
8.01875e-06;0.0002468927510165166
8.01900e-06;0.00017312935746924702
8.01925e-06;9.600890244547938e-05
8.01950e-06;1.60095126597887e-05
8.01975e-06;-6.637548086810422e-05
8.02000e-06;-0.0001506527962476599
8.02025e-06;-0.00023635420665275947
8.02050e-06;-0.000323741146875749
8.02075e-06;-0.00041143669239265715
8.02100e-06;-0.0005007825449014986
8.02125e-06;-0.0005904796675529612
8.02150e-06;-0.000680176790204424
8.02175e-06;-0.0007685331889000625
8.02200e-06;-0.0008566042126349699
8.02225e-06;-0.0009446752363698772
8.02250e-06;-0.0010290476930582245
8.02275e-06;-0.0011126329045997281
8.02300e-06;-0.0011919986234832677
8.02325e-06;-0.0012704662174767276
8.02350e-06;-0.0013429531893476472
8.02375e-06;-0.0014141671774692461
8.02400e-06;-0.001477542373349865
8.02425e-06;-0.0015392490713838237
8.02450e-06;-0.001593294021176545
8.02475e-06;-0.001645708157183618
8.02500e-06;-0.0016930658129086062
8.02525e-06;-0.0017393471897621914
8.02550e-06;-0.001778647558710779
8.02575e-06;-0.0018164620104025278
8.02600e-06;-0.0018542764620945327
8.02625e-06;-0.0018826560539753803
8.02650e-06;-0.0019090274228031208
8.02675e-06;-0.00193539879163104
8.02700e-06;-0.0019550310342987902
8.02725e-06;-0.00197322884457601
8.02750e-06;-0.0019914266548533527
8.02775e-06;-0.0020029309957496433
8.02800e-06;-0.002013010622364424
8.02825e-06;-0.0020230902489792725
8.02850e-06;-0.0020269787907575038
8.02875e-06;-0.002029549551504295
8.02900e-06;-0.0020321203122511036
8.02925e-06;-0.0020304813707917135
8.02950e-06;-0.002027946388353836
8.02975e-06;-0.002025411405915942
8.03000e-06;-0.002018781199166375
8.03025e-06;-0.0020112793182176666
8.03050e-06;-0.0020037774372689077
8.03075e-06;-0.0019935923326907263
8.03100e-06;-0.0019828361002254924
8.03125e-06;-0.001972079867760185
8.03150e-06;-0.0019598728247507144
8.03175e-06;-0.001947356974696078
8.03200e-06;-0.001934841124641357
8.03225e-06;-0.0019214808641360621
8.03250e-06;-0.001907940869690214
8.03275e-06;-0.0018944008752442743
8.03300e-06;-0.0018815945887572763
8.03325e-06;-0.0018689444730314673
8.03350e-06;-0.0018562943573055726
8.03375e-06;-0.0018446477308708023
8.03400e-06;-0.0018338433031112739
8.03425e-06;-0.0018237776670289025
8.03450e-06;-0.0018135285657864526
8.03475e-06;-0.0018011484666404793
8.03500e-06;-0.001785304638128999
8.03525e-06;-0.0017644746841259217
8.03550e-06;-0.001742720443974427
8.03575e-06;-0.0017148644008661998
8.03600e-06;-0.001685709580498506
8.03625e-06;-0.001656554760130812
8.03650e-06;-0.0016210264037829802
8.03675e-06;-0.001584141431422995
8.03700e-06;-0.0015399095410299107
8.03725e-06;-0.0014941138488992977
8.03750e-06;-0.0014417442044853447
8.03775e-06;-0.0013879752851701556
8.03800e-06;-0.0013289270568153744
8.03825e-06;-0.001268755120176721
8.03850e-06;-0.0012050110125021683
8.03875e-06;-0.0011377159006098869
8.03900e-06;-0.0010669582859619022
8.03925e-06;-0.0009930410368998218
8.03950e-06;-0.0009164213645788544
8.03975e-06;-0.0008375716690748459
8.04000e-06;-0.0007569643259871164
8.04025e-06;-0.00067504697439356
8.04050e-06;-0.0005920424752342264
8.04075e-06;-0.0005079217973402918
8.04100e-06;-0.0004228069445498436
8.04125e-06;-0.00033711020461766136
8.04150e-06;-0.00025134074443283635
8.04175e-06;-0.00016601700585074878
8.04200e-06;-8.165737940785494e-05
8.04225e-06;1.2351695806868792e-06
8.04250e-06;8.229859550005869e-05
8.04275e-06;0.00016132865319979582
8.04300e-06;0.00023802641763298593
8.04325e-06;0.0003119112557221379
8.04350e-06;0.00038244181263336736
8.04375e-06;0.0004490709955746129
8.04400e-06;0.0005112517878366917
8.04425e-06;0.0005684721693924288
8.04450e-06;0.0006205710008175094
8.04475e-06;0.0006678665707607555
8.04500e-06;0.0007106276448069042
8.04525e-06;0.000748802436638437
8.04550e-06;0.0007822193092090645
8.04575e-06;0.0008106942783177035
8.04600e-06;0.0008340434455334348
8.04625e-06;0.000852104913378835
8.04650e-06;0.0008649365169494368
8.04675e-06;0.00087289646561494
8.04700e-06;0.0008763118781409279
8.04725e-06;0.0008753091096727536
8.04750e-06;0.0008699393640630791
8.04775e-06;0.0008584848969849737
8.04800e-06;0.0008458981305967491
8.04825e-06;0.0008264332360335749
8.04850e-06;0.0008055043223061722
8.04875e-06;0.0007786597441835389
8.04900e-06;0.00075055600865279
8.04925e-06;0.0007174848667528806
8.04950e-06;0.0006833564054871755
8.04975e-06;0.0006448851350675982
8.05000e-06;0.0006054894916694325
8.05025e-06;0.0005624238207126972
8.05050e-06;0.0005185769792768177
8.05075e-06;0.0004721860961993584
8.05100e-06;0.00042525371031451977
8.05125e-06;0.00037672828438007814
8.05150e-06;0.0003278637776517519
8.05175e-06;0.00027899927092342556
8.05200e-06;0.0002298741994056238
8.05225e-06;0.0001806936663089639
8.05250e-06;0.00013210167013096222
8.05275e-06;8.446976682327192e-05
8.05300e-06;3.817685286661632e-05
8.05325e-06;-6.426035562832575e-06
8.05350e-06;-4.900636598839994e-05
8.05375e-06;-8.923353079841795e-05
8.05400e-06;-0.0001267769514841606
8.05425e-06;-0.00016131863519706108
8.05450e-06;-0.0001926746796166667
8.05475e-06;-0.0002208648599058929
8.05500e-06;-0.0002459342804484777
8.05525e-06;-0.0002678370024857895
8.05550e-06;-0.0002864886025512062
8.05575e-06;-0.00030180060601192913
8.05600e-06;-0.0003136844703426038
8.05625e-06;-0.0003220595993270736
8.05650e-06;-0.0003269294234596014
8.05675e-06;-0.00032842489610117716
8.05700e-06;-0.0003266928731563586
8.05725e-06;-0.00032182318060983676
8.05750e-06;-0.00031388148778556206
8.05775e-06;-0.00030293097755748795
8.05800e-06;-0.0002890347914569379
8.05825e-06;-0.0002722609989101745
8.05850e-06;-0.00025273031335497484
8.05875e-06;-0.0002306433467245714
8.05900e-06;-0.00020621067679641697
8.05925e-06;-0.00017960708575676712
8.05950e-06;-0.00015099227094923025
8.05975e-06;-0.00012052429527663668
8.06000e-06;-8.836123963953339e-05
8.06025e-06;-5.466427228132396e-05
8.06050e-06;-1.9627495670561857e-05
8.06075e-06;1.6504939158923657e-05
8.06100e-06;5.348267334772008e-05
8.06125e-06;9.12264866081012e-05
8.06150e-06;0.0001291034193734584
8.06175e-06;0.00016724721757066703
8.06200e-06;0.0002053867076986852
8.06225e-06;0.0002432709015781651
8.06250e-06;0.00028065980993821355
8.06275e-06;0.00031728213949530024
8.06300e-06;0.00035286274658799055
8.06325e-06;0.00038714054489706606
8.06350e-06;0.0004198603538679286
8.06375e-06;0.0004507677033884702
8.06400e-06;0.000479608138668777
8.06425e-06;0.0005061076960044658
8.06450e-06;0.0005298289963806369
8.06475e-06;0.0005501973138315092
8.06500e-06;0.0005668463149760233
8.06525e-06;0.0005796906091782158
8.06550e-06;0.0005887316479678309
8.06575e-06;0.000593979052955435
8.06600e-06;0.0005954422946432458
8.06625e-06;0.0005931188045698384
8.06650e-06;0.0005869036362490149
8.06675e-06;0.000576605709734043
8.06700e-06;0.000562164687196316
8.06725e-06;0.0005436959842138911
8.06750e-06;0.0005213696328811669
8.06775e-06;0.0004953606258574364
8.06800e-06;0.0004658439593678146
8.06825e-06;0.00043298700395131743
8.06850e-06;0.00039689299580900674
8.06875e-06;0.00035761131219083924
8.06900e-06;0.00031527304417091186
8.06925e-06;0.0002701196026264882
8.06950e-06;0.00022242638867319689
8.06975e-06;0.0001724720074017542
8.07000e-06;0.00012053501234375396
8.07025e-06;6.688916946367399e-05
8.07050e-06;1.1768046144040174e-05
8.07075e-06;-4.4628541191983596e-05
8.07100e-06;-0.0001020495585997574
8.07125e-06;-0.00016033023476633615
8.07150e-06;-0.00021875734826272414
8.07175e-06;-0.00027718446175911216
8.07200e-06;-0.00033467434820732514
8.07225e-06;-0.0003919647533975645
8.07250e-06;-0.0004492551585878039
8.07275e-06;-0.0005040040937297979
8.07300e-06;-0.0005582120734312573
8.07325e-06;-0.0006090630320702388
8.07350e-06;-0.0006591994440981223
8.07375e-06;-0.0007047162507508823
8.07400e-06;-0.0007492497679625579
8.07425e-06;-0.0007882566712485812
8.07450e-06;-0.0008260872270601056
8.07475e-06;-0.0008599755663621722
8.07500e-06;-0.0008930247993868882
8.07525e-06;-0.0009229530380200767
8.07550e-06;-0.0009522169686481529
8.07575e-06;-0.0009777247493388376
8.07600e-06;-0.0010024330282816908
8.07625e-06;-0.0010220923617524965
8.07650e-06;-0.0010406770201441442
8.07675e-06;-0.001059261678535918
8.07700e-06;-0.0010737138065178792
8.07725e-06;-0.001087286319643716
8.07750e-06;-0.001100858832769461
8.07775e-06;-0.001110280034455878
8.07800e-06;-0.0011188176237178073
8.07825e-06;-0.0011273552129796786
8.07850e-06;-0.0011320351723543192
8.07875e-06;-0.0011358940298320326
8.07900e-06;-0.0011397528873097198
8.07925e-06;-0.0011392627238172642
8.07950e-06;-0.0011378468651511609
8.07975e-06;-0.001136431006485067
8.08000e-06;-0.0011350151478189637
8.08025e-06;-0.0011335992891528602
8.08050e-06;-0.0011321834304867664
8.08075e-06;-0.001130767571820663
8.08100e-06;-0.0011279322036883556
8.08125e-06;-0.0011221419384113563
8.08150e-06;-0.0011163516731343178
8.08175e-06;-0.0011105614078572791
8.08200e-06;-0.0011047711425802799
8.08225e-06;-0.0010989808773032414
8.08250e-06;-0.001093190612026203
8.08275e-06;-0.0010874003467492034
8.08300e-06;-0.0010813995867634725
8.08325e-06;-0.001075354022685678
8.08350e-06;-0.0010693084586079244
8.08375e-06;-0.001064025621899135
8.08400e-06;-0.0010589051327736846
8.08425e-06;-0.001053784643648269
8.08450e-06;-0.001047957386303464
8.08475e-06;-0.0010419796923582946
8.08500e-06;-0.0010323611982327972
8.08525e-06;-0.0010219677547154103
8.08550e-06;-0.0010079629783571761
8.08575e-06;-0.0009931895247713726
8.08600e-06;-0.000975346884600384
8.08625e-06;-0.0009568509637876729
8.08650e-06;-0.0009348661387711436
8.08675e-06;-0.0009121386956331602
8.08700e-06;-0.0008846475739063058
8.08725e-06;-0.0008561424965535585
8.08750e-06;-0.0008233630712210387
8.08775e-06;-0.0007896738449643553
8.08800e-06;-0.0007525205985683105
8.08825e-06;-0.000714630030658641
8.08850e-06;-0.0006734832257469263
8.08875e-06;-0.0006316433262516822
8.08900e-06;-0.0005862194495895185
8.08925e-06;-0.0005400327183925786
8.08950e-06;-0.0004910392710987833
8.08975e-06;-0.0004414484103728075
8.09000e-06;-0.0003900291108277864
8.09025e-06;-0.00033822062553216293
8.09050e-06;-0.00028549006207046466
8.09075e-06;-0.00023195185767929845
8.09100e-06;-0.00017776396737350056
8.09125e-06;-0.00012319088874174477
8.09150e-06;-6.855676940552792e-05
8.09175e-06;-1.4191461843899469e-05
8.09200e-06;3.957521695245809e-05
8.09225e-06;9.242291560533549e-05
8.09250e-06;0.00014411775105969274
8.09275e-06;0.00019452236212637335
8.09300e-06;0.00024344055410199135
8.09325e-06;0.000290564120094986
8.09350e-06;0.00033554754087525973
8.09375e-06;0.0003780417134432929
8.09400e-06;0.00041769760934105436
8.09425e-06;0.00045423110117153896
8.09450e-06;0.00048734364102227416
8.09475e-06;0.0005198464350784736
8.09500e-06;0.000550623002150482
8.09525e-06;0.0005810321394029941
8.09550e-06;0.0006088482307654861
8.09575e-06;0.0006361123886964961
8.09600e-06;0.0006633765466273212
8.09625e-06;0.0006867704846628428
8.09650e-06;0.0007093406409999153
8.09675e-06;0.0007319107973368348
8.09700e-06;0.0007528280470935824
8.09725e-06;0.000773393473381134
8.09750e-06;0.0007939588996685465
8.09775e-06;0.0008119084356789486
8.09800e-06;0.0008293011757981972
8.09825e-06;0.000846693915917328
8.09850e-06;0.0008640866560365766
8.09875e-06;0.0008814793961558253
8.09900e-06;0.0008966371873490846
8.09925e-06;0.0009113192665487863
8.09950e-06;0.0009260013457484878
8.09975e-06;0.0009406834249480898
8.10000e-06;0.0009553655041477913
8.10025e-06;0.0009677927352919153
8.10050e-06;0.0009797400188847692
8.10075e-06;0.000991687302477704
8.10100e-06;0.0010036345860706388
8.10125e-06;0.0010155818696634925
8.10150e-06;0.0010275291532564274
8.10175e-06;0.0010386284413519864
8.10200e-06;0.0010479625143957098
8.10225e-06;0.0010572965874394962
8.10250e-06;0.001066630660483283
8.10275e-06;0.0010759647335270694
8.10300e-06;0.0010852988065707927
8.10325e-06;0.0010946328796145792
8.10350e-06;0.0011027555208709282
8.10375e-06;0.0011102396313896427
8.10400e-06;0.0011172103029244592
8.10425e-06;0.001123583670956621
8.10450e-06;0.0011290878532823855
8.10475e-06;0.001133253529625464
8.10500e-06;0.0011357680072767568
8.10525e-06;0.001136582175933832
8.10550e-06;0.001135733471603633
8.10575e-06;0.0011326226275221456
8.10600e-06;0.001129092100057112
8.10625e-06;0.001122974061826632
8.10650e-06;0.0011163052683234142
8.10675e-06;0.0011058199744289404
8.10700e-06;0.0010945223331069237
8.10725e-06;0.001083224691784907
8.10750e-06;0.0010675752267371558
8.10775e-06;0.0010509994699439348
8.10800e-06;0.001034423713150714
8.10825e-06;0.0010141853676240418
8.10850e-06;0.0009931674349805486
8.10875e-06;0.0009721495023370557
8.10900e-06;0.0009477054395624321
8.10925e-06;0.0009225321202139875
8.10950e-06;0.000897358800865543
8.10975e-06;0.0008691759031051752
8.11000e-06;0.000840352412384933
8.11025e-06;0.0008115289216646907
8.11050e-06;0.0007827054309446438
8.11075e-06;0.0007538819402244015
8.11100e-06;0.0007235588306803891
8.11125e-06;0.0006929165251795837
8.11150e-06;0.000662274219678986
8.11175e-06;0.0006316319141781805
8.11200e-06;0.0006009896086773751
8.11225e-06;0.0005713846495124735
8.11250e-06;0.0005420004909607805
8.11275e-06;0.0005126163324090876
8.11300e-06;0.00048493568843364335
8.11325e-06;0.00045761763990990437
8.11350e-06;0.0004323679322621258
8.11375e-06;0.00040755847385285786
8.11400e-06;0.00038544386123278286
8.11425e-06;0.0003639028502951294
8.11450e-06;0.0003441505164645319
8.11475e-06;0.00032477890504912333
8.11500e-06;0.0003047413629557913
8.11525e-06;0.0002845620765895995
8.11550e-06;0.0002638438174659768
8.11575e-06;0.00024301083723971714
8.11600e-06;0.00022225294113846353
8.11625e-06;0.00020151102679770298
8.11650e-06;0.00018049818930553432
8.11675e-06;0.0001594276854431024
8.11700e-06;0.00013716911748206398
8.11725e-06;0.00011386046650531692
8.11750e-06;8.973952962186865e-05
8.11775e-06;6.499377954076234e-05
8.11800e-06;3.981065731388168e-05
8.11825e-06;1.4354157592920598e-05
8.11850e-06;-1.1430093235238981e-05
8.11875e-06;-3.785049775464447e-05
8.11900e-06;-6.508910769892293e-05
8.11925e-06;-9.306068110292607e-05
8.11950e-06;-0.00012172945319653862
8.11975e-06;-0.00015052012643755787
8.12000e-06;-0.0001795977017311629
8.12025e-06;-0.00020873634452681292
8.12050e-06;-0.00023787498732246294
8.12075e-06;-0.00026706651948877605
8.12100e-06;-0.00029636814789267383
8.12125e-06;-0.0003256697762965716
8.12150e-06;-0.0003549714047002709
8.12175e-06;-0.0003834238805471195
8.12200e-06;-0.0004116956130885416
8.12225e-06;-0.0004399673456297721
8.12250e-06;-0.00046642256546684796
8.12275e-06;-0.0004924911380426953
8.12300e-06;-0.0005185597106183659
8.12325e-06;-0.0005427103305334032
8.12350e-06;-0.0005664527115510584
8.12375e-06;-0.0005880027992968705
8.12400e-06;-0.0006090862543639984
8.12425e-06;-0.0006272216316926656
8.12450e-06;-0.0006447295065650824
8.12475e-06;-0.0006576436439731445
8.12500e-06;-0.0006695799979583647
8.12525e-06;-0.0006761912821450211
8.12550e-06;-0.0006816691178021147
8.12575e-06;-0.0006832105440331506
8.12600e-06;-0.0006813299007419469
8.12625e-06;-0.0006763294054640571
8.12650e-06;-0.000668093149591437
8.12675e-06;-0.000656373892614054
8.12700e-06;-0.0006410624890014841
8.12725e-06;-0.0006222591671435541
8.12750e-06;-0.0006001308430978325
8.12775e-06;-0.0005748506366628404
8.12800e-06;-0.0005465916574222663
8.12825e-06;-0.0005155173204929224
8.12850e-06;-0.0004817053027449123
8.12875e-06;-0.0004451510169509132
8.12900e-06;-0.00040593648493410163
8.12925e-06;-0.00036427477015274186
8.12950e-06;-0.00032042068811016913
8.12975e-06;-0.0002746329958556175
8.13000e-06;-0.00022717040755359163
8.13025e-06;-0.00017828549612205428
8.13050e-06;-0.00012817719375887146
8.13075e-06;-7.699282933004942e-05
8.13100e-06;-2.4933998021995877e-05
8.13125e-06;2.77156289475018e-05
8.13150e-06;8.06462469645176e-05
8.13175e-06;0.00013354562502900451
8.13200e-06;0.00018610155224509328
8.13225e-06;0.00023800570529484112
8.13250e-06;0.000288983390470243
8.13275e-06;0.00033879223617876755
8.13300e-06;0.0003871558747103974
8.13325e-06;0.0004337465769857911
8.13350e-06;0.00047822029130183743
8.13375e-06;0.0005202314387754114
8.13400e-06;0.0005594344405242525
8.13425e-06;0.0005943376109310427
8.13450e-06;0.0006284327192070448
8.13475e-06;0.0006589667906893758
8.13500e-06;0.0006887428905258296
8.13525e-06;0.0007156934852380593
8.13550e-06;0.0007420426672458936
8.13575e-06;0.0007649956903831079
8.13600e-06;0.0007872258363700804
8.13625e-06;0.0008048924321187969
8.13650e-06;0.0008215876698373194
8.13675e-06;0.000838282907555842
8.13700e-06;0.0008512308499387015
8.13725e-06;0.0008633811752854396
8.13750e-06;0.0008755315006321777
8.13775e-06;0.000883921060773681
8.13800e-06;0.0008915101367984716
8.13825e-06;0.0008990992128232622
8.13850e-06;0.0009031948893568754
8.13875e-06;0.000906546990938675
8.13900e-06;0.0009098990925204747
8.13925e-06;0.000909612510512023
8.13950e-06;0.0009085514296286933
8.13975e-06;0.0009074903487453634
8.14000e-06;0.0009064292678620408
8.14025e-06;0.0009053681869787109
8.14050e-06;0.000904307106095381
8.14075e-06;0.0009019830912202405
8.14100e-06;0.0008970301118028557
8.14125e-06;0.0008920771323854709
8.14150e-06;0.0008871241529681196
8.14175e-06;0.0008821711735507347
8.14200e-06;0.0008772181941333499
8.14225e-06;0.0008722652147159987
8.14250e-06;0.0008665096360822216
8.14275e-06;0.0008605832230863169
8.14300e-06;0.0008546568100904525
8.14325e-06;0.0008491032501248744
8.14350e-06;0.0008436290524466064
8.14375e-06;0.0008385038075787092
8.14400e-06;0.0008337303299153553
8.14425e-06;0.0008292533352853719
8.14450e-06;0.0008243643726520899
8.14475e-06;0.00081760297421293
