Time(s);Current(A)
3.25000e-06;0.0054126891427746
3.25025e-06;0.005434524000536469
3.25050e-06;0.005456358858298301
3.25075e-06;0.00547819371606017
3.25100e-06;0.005500028573822038
3.25125e-06;0.00552186343158387
3.25150e-06;0.005543698289345739
3.25175e-06;0.005544742689306856
3.25200e-06;0.005535016710265368
3.25225e-06;0.005525290731223896
3.25250e-06;0.005515564752182408
3.25275e-06;0.00550583877314092
3.25300e-06;0.005496112794099449
3.25325e-06;0.005486386815057961
3.25350e-06;0.0054766608360164734
3.25375e-06;0.0054669348569749854
3.25400e-06;0.005457208877933514
3.25425e-06;0.005445635721952159
3.25450e-06;0.005424273417264657
3.25475e-06;0.0054029111125771905
3.25500e-06;0.005381548807889688
3.25525e-06;0.005360186503202186
3.25550e-06;0.005338824198514719
3.25575e-06;0.005317461893827217
3.25600e-06;0.005296099589139715
3.25625e-06;0.005276510058566631
3.25650e-06;0.005257838903590773
3.25675e-06;0.005239167748614884
3.25700e-06;0.005220496593638995
3.25725e-06;0.005201825438663138
3.25750e-06;0.005183154283687249
3.25775e-06;0.00516448312871136
3.25800e-06;0.0051447013102296135
3.25825e-06;0.0051190335097462784
3.25850e-06;0.0050933657092629
3.25875e-06;0.005067697908779522
3.25900e-06;0.0050420301082961866
3.25925e-06;0.005016362307812808
3.25950e-06;0.004990694507329429
3.25975e-06;0.004965026706846095
3.26000e-06;0.004939358906362715
3.26025e-06;0.004913691105879337
3.26050e-06;0.0048880233053959585
3.26075e-06;0.00485939746293073
3.26100e-06;0.004815095421711691
3.26125e-06;0.004770793380492651
3.26150e-06;0.0047264913392736875
3.26175e-06;0.004682189298054648
3.26200e-06;0.004637887256835609
3.26225e-06;0.004593585215616569
3.26250e-06;0.004549283174397604
3.26275e-06;0.004504981133178565
3.26300e-06;0.0044606790919595254
3.26325e-06;0.004416377050740561
3.26350e-06;0.0043708166141009745
3.26375e-06;0.004318587287416947
3.26400e-06;0.004266357960733007
3.26425e-06;0.004214128634048979
3.26450e-06;0.004161899307364951
3.26475e-06;0.0041096699806809234
3.26500e-06;0.004057440653996984
3.26525e-06;0.004005211327312956
3.26550e-06;0.003954227314705118
3.26575e-06;0.003909842867313117
3.26600e-06;0.003865458419921041
3.26625e-06;0.003821073972528965
3.26650e-06;0.0037766895251368886
3.26675e-06;0.0037323050777448878
3.26700e-06;0.0036879206303528115
3.26725e-06;0.0036435361829607353
3.26750e-06;0.0036038743102002157
3.26775e-06;0.00358923980994254
3.26800e-06;0.0035746053096848644
3.26825e-06;0.003559970809427213
3.26850e-06;0.0035453363091695373
3.26875e-06;0.0035307018089118613
3.26900e-06;0.0035160673086541854
3.26925e-06;0.0035014328083965347
3.26950e-06;0.0034867983081388588
3.26975e-06;0.003472163807881183
3.27000e-06;0.0034641320982399465
3.27025e-06;0.0034910920008468602
3.27050e-06;0.003518051903453774
3.27075e-06;0.003545011806060687
3.27100e-06;0.0035719717086675554
3.27125e-06;0.003598931611274469
3.27150e-06;0.0036258915138813828
3.27175e-06;0.0036528514164882505
3.27200e-06;0.003679811319095164
3.27225e-06;0.003706771221702078
3.27250e-06;0.0037378754654408854
3.27275e-06;0.0037909427224478423
3.27300e-06;0.0038440099794547996
3.27325e-06;0.0038970772364617565
3.27350e-06;0.003950144493468624
3.27375e-06;0.0040032117504755806
3.27400e-06;0.004056279007482538
3.27425e-06;0.004109346264489405
3.27450e-06;0.004165818618767373
3.27475e-06;0.004224054964416145
3.27500e-06;0.004282291310064917
3.27525e-06;0.0043405276557135905
3.27550e-06;0.004398764001362363
3.27575e-06;0.004457000347011135
3.27600e-06;0.004515236692659809
3.27625e-06;0.004570977321727606
3.27650e-06;0.0046134918541399636
3.27675e-06;0.004656006386552248
3.27700e-06;0.004698520918964605
3.27725e-06;0.004741035451376963
3.27750e-06;0.00478354998378932
3.27775e-06;0.004826064516201605
3.27800e-06;0.004868579048613961
3.27825e-06;0.004911093581026319
3.27850e-06;0.004953608113438604
3.27875e-06;0.004985731220968486
3.27900e-06;0.005012471109645955
3.27925e-06;0.005039210998323424
3.27950e-06;0.005065950887000847
3.27975e-06;0.005092690775678317
3.28000e-06;0.005119430664355786
3.28025e-06;0.00514617055303321
3.28050e-06;0.0051729104417106795
3.28075e-06;0.005199650330388148
3.28100e-06;0.00522517662578153
3.28125e-06;0.005244271460888673
3.28150e-06;0.005263366295995817
3.28175e-06;0.00528246113110296
3.28200e-06;0.00530155596621007
3.28225e-06;0.005320650801317213
3.28250e-06;0.005339745636424357
3.28275e-06;0.005358840471531467
3.28300e-06;0.00537793530663861
3.28325e-06;0.005397030141745753
3.28350e-06;0.005416124976852897
3.28375e-06;0.005435219811960007
3.28400e-06;0.00545431464706715
3.28425e-06;0.005472395695919691
3.28450e-06;0.005485104165571882
3.28475e-06;0.005497812635224095
3.28500e-06;0.005510521104876307
3.28525e-06;0.005523229574528499
3.28550e-06;0.005535938044180711
3.28575e-06;0.005548646513832923
3.28600e-06;0.005561354983485136
3.28625e-06;0.005574063453137327
3.28650e-06;0.00558677192278954
3.28675e-06;0.005599480392441752
3.28700e-06;0.005612188862093944
3.28725e-06;0.005624897331746156
3.28750e-06;0.005634448276971419
3.28775e-06;0.0056272658624923
3.28800e-06;0.005620083448013193
3.28825e-06;0.005612901033534074
3.28850e-06;0.005605718619054955
3.28875e-06;0.005598536204575849
3.28900e-06;0.00559135379009673
3.28925e-06;0.0055841713756176106
3.28950e-06;0.005576988961138504
3.28975e-06;0.005544346123561268
3.29000e-06;0.005498513657884555
3.29025e-06;0.005452681192207841
3.29050e-06;0.005406848726531204
3.29075e-06;0.0053610162608544905
3.29100e-06;0.005315183795177776
3.29125e-06;0.005269351329501139
3.29150e-06;0.005223518863824425
3.29175e-06;0.005172626106723075
3.29200e-06;0.005094916240656292
3.29225e-06;0.005017206374589641
3.29250e-06;0.004939496508522859
3.29275e-06;0.004861786642456077
3.29300e-06;0.004784076776389426
3.29325e-06;0.004706366910322643
3.29350e-06;0.004628657044255861
3.29375e-06;0.0045425741497678845
3.29400e-06;0.004452153655290941
3.29425e-06;0.004361733160813996
3.29450e-06;0.004271312666337053
3.29475e-06;0.0041808921718602616
3.29500e-06;0.004090471677383318
3.29525e-06;0.004000051182906374
3.29550e-06;0.003910982548527536
3.29575e-06;0.0038290781220000156
3.29600e-06;0.003747173695472496
3.29625e-06;0.0036652692689449757
3.29650e-06;0.0035833648424175944
3.29675e-06;0.0035014604158900746
3.29700e-06;0.003423832047554378
3.29725e-06;0.0033688647295138418
3.29750e-06;0.003313897411473213
3.29775e-06;0.0032589300934325834
3.29800e-06;0.0032039627753920473
3.29825e-06;0.003148995457351418
3.29850e-06;0.0030987137335440895
3.29875e-06;0.0030732634039373433
3.29900e-06;0.0030478130743306405
3.29925e-06;0.0030257269980200415
3.29950e-06;0.0030214698449212572
3.29975e-06;0.00301721269182248
3.30000e-06;0.00301632739347398
3.30025e-06;0.0030333113023855453
3.30050e-06;0.0030502952112970816
3.30075e-06;0.0030703927103186905
3.30100e-06;0.003106990738312926
3.30125e-06;0.0031435887663071615
3.30150e-06;0.003182983784462601
3.30175e-06;0.0032372015042459864
3.30200e-06;0.003291419224029372
3.30225e-06;0.00334900818161407
3.30250e-06;0.0034244630769270294
3.30275e-06;0.003499917972239989
3.30300e-06;0.0035753728675529486
3.30325e-06;0.0036508277628657807
3.30350e-06;0.0037262826581787403
3.30375e-06;0.0038017375534917
3.30400e-06;0.00388639435873636
3.30425e-06;0.003975818161345999
3.30450e-06;0.004065241963955637
3.30475e-06;0.004154665766565125
3.30500e-06;0.004244089569174763
3.30525e-06;0.0043335133717844025
3.30550e-06;0.004421871875280753
3.30575e-06;0.004504584806218221
3.30600e-06;0.004587297737155829
3.30625e-06;0.004670010668093437
3.30650e-06;0.004752723599030905
3.30675e-06;0.004835436529968513
3.30700e-06;0.004913555287403118
3.30725e-06;0.004967327136503907
3.30750e-06;0.005021098985604604
3.30775e-06;0.005074870834705392
3.30800e-06;0.005128642683806181
3.30825e-06;0.005182414532906878
3.30850e-06;0.005230547224161605
3.30875e-06;0.005248795093027344
3.30900e-06;0.005267042961893052
3.30925e-06;0.0052812388737841385
3.30950e-06;0.005273961363965656
3.30975e-06;0.005266683854147173
3.31000e-06;0.005255172888776509
3.31025e-06;0.005221226646593043
3.31050e-06;0.005187280404409577
3.31075e-06;0.005149412156853127
3.31100e-06;0.005090759168528564
3.31125e-06;0.005032106180204001
3.31150e-06;0.004969984144468678
3.31175e-06;0.004889477827151328
3.31200e-06;0.004808971509833842
3.31225e-06;0.004724359360081526
3.31250e-06;0.004617988274611785
3.31275e-06;0.0045116171891418635
3.31300e-06;0.0044052461036719415
3.31325e-06;0.004298875018202201
3.31350e-06;0.004192503932732279
3.31375e-06;0.0040833476104032455
3.31400e-06;0.003959430873288855
3.31425e-06;0.0038355141361746756
3.31450e-06;0.0037115973990602858
3.31475e-06;0.0035876806619458963
3.31500e-06;0.0034637639248317163
3.31525e-06;0.0033403982993021036
3.31550e-06;0.003219953299915259
3.31575e-06;0.003099508300528415
3.31600e-06;0.002979063301141775
3.31625e-06;0.0028586183017549303
3.31650e-06;0.0027510236038398353
3.31675e-06;0.002650085931880587
3.31700e-06;0.0025491482599211677
3.31725e-06;0.0024482105879617484
3.31750e-06;0.0023509024871514513
3.31775e-06;0.0022728293664754703
3.31800e-06;0.002197038474603143
3.31825e-06;0.002133342296926823
3.31850e-06;0.002071943704962795
3.31875e-06;0.002022721211418574
3.31900e-06;0.0019759633076570685
3.31925e-06;0.0019422665435083538
3.31950e-06;0.001911119977901451
3.31975e-06;0.0018934882371264767
3.32000e-06;0.0018776237697576124
3.32025e-06;0.0018727638564792742
3.32050e-06;0.0018765890893315278
3.32075e-06;0.0018825534046412655
3.32100e-06;0.0018998538274102908
3.32125e-06;0.001919231960442708
3.32150e-06;0.0019496209578447501
3.32175e-06;0.0019818806614051755
3.32200e-06;0.0020240542072127755
3.32225e-06;0.002068130050797552
3.32250e-06;0.002122287157003373
3.32275e-06;0.0021764442632091026
3.32300e-06;0.0022324808505096543
3.32325e-06;0.002298477782996347
3.32350e-06;0.0023644747154829286
3.32375e-06;0.0024320043573795463
3.32400e-06;0.002507656621438148
3.32425e-06;0.0025833088854967496
3.32450e-06;0.002658961149555223
3.32475e-06;0.0027346134136138245
3.32500e-06;0.002810265677672426
3.32525e-06;0.0028857973607874774
3.32550e-06;0.0029612665776272994
3.32575e-06;0.0030367357944671215
3.32600e-06;0.0031122050113068156
3.32625e-06;0.0031876742281466376
3.32650e-06;0.0032586499339113647
3.32675e-06;0.0033058121937555958
3.32700e-06;0.0033529744535997466
3.32725e-06;0.0034001367134439777
3.32750e-06;0.003447298973288209
3.32775e-06;0.0034944612331323597
3.32800e-06;0.003541623492976591
3.32825e-06;0.0035887857528208215
3.32850e-06;0.0036359480126650526
3.32875e-06;0.0036831102725092034
3.32900e-06;0.0037302725323534345
3.32925e-06;0.0037700069574266503
3.32950e-06;0.003770377433313547
3.32975e-06;0.003770747909200445
3.33000e-06;0.0037711183850873426
3.33025e-06;0.0037714888609742397
3.33050e-06;0.0037718593368611373
3.33075e-06;0.0037722298127480353
3.33100e-06;0.003772600288634933
3.33125e-06;0.00377297076452183
3.33150e-06;0.0037733412404087276
3.33175e-06;0.0037737117162956256
3.33200e-06;0.0037693337997696573
3.33225e-06;0.003739791688909313
3.33250e-06;0.0037102495780489686
3.33275e-06;0.003680707467188624
3.33300e-06;0.0036511653563283297
3.33325e-06;0.0036216232454679854
3.33350e-06;0.0035920811346076406
3.33375e-06;0.0035625390237473465
3.33400e-06;0.003526197659123727
3.33425e-06;0.0034863339795656837
3.33450e-06;0.003446470300007708
3.33475e-06;0.0034066066204496647
3.33500e-06;0.0033667429408916214
3.33525e-06;0.003326879261333578
3.33550e-06;0.0032870155817756024
3.33575e-06;0.0032476527924608627
3.33600e-06;0.00321094448035175
3.33625e-06;0.0031742361682426997
3.33650e-06;0.003137527856133587
3.33675e-06;0.0031008195440244742
3.33700e-06;0.0030641112319153615
3.33725e-06;0.003029989009654559
3.33750e-06;0.0030095718188767944
3.33775e-06;0.00298915462809903
3.33800e-06;0.0029687374373213
3.33825e-06;0.0029483202465435355
3.33850e-06;0.0029279030557657713
3.33875e-06;0.0029107207518825483
3.33900e-06;0.0029106817915548434
3.33925e-06;0.0029106428312271385
3.33950e-06;0.0029128860565826448
3.33975e-06;0.002927223767618842
3.34000e-06;0.002941561478655063
3.34025e-06;0.002958341055191405
3.34050e-06;0.002988061343582269
3.34075e-06;0.0030177816319731836
3.34100e-06;0.0030496498793977423
3.34125e-06;0.003092901275865031
3.34150e-06;0.003136152672332246
3.34175e-06;0.003182354921965947
3.34200e-06;0.003244195273104743
3.34225e-06;0.0033060356242434344
3.34250e-06;0.0033678759753822305
3.34275e-06;0.0034297163265210266
3.34300e-06;0.003491556677659718
3.34325e-06;0.003553397028798514
3.34350e-06;0.0036174405801935924
3.34375e-06;0.0036931600325236366
3.34400e-06;0.003768879484853553
3.34425e-06;0.003844598937183597
3.34450e-06;0.003920318389513642
3.34475e-06;0.0039960378418435576
3.34500e-06;0.004071757294173602
3.34525e-06;0.004146484884691558
3.34550e-06;0.004215956084998776
3.34575e-06;0.004285427285305876
3.34600e-06;0.004354898485613094
3.34625e-06;0.004424369685920313
3.34650e-06;0.004493840886227413
3.34675e-06;0.004563312086534631
3.34700e-06;0.0046327832868418494
3.34725e-06;0.0046862631599299005
3.34750e-06;0.004731458816448037
3.34775e-06;0.004776654472966173
3.34800e-06;0.0048218501294843095
3.34825e-06;0.0048670457860023695
3.34850e-06;0.004912241442520506
3.34875e-06;0.004957437099038642
3.34900e-06;0.004998200255144814
3.34925e-06;0.005015473292474781
3.34950e-06;0.005032746329804749
3.34975e-06;0.005050019367134717
3.35000e-06;0.0050672924044646555
3.35025e-06;0.0050845654417946235
3.35050e-06;0.005101838479124592
3.35075e-06;0.00511911151645453
3.35100e-06;0.005136384553784497
3.35125e-06;0.005153657591114465
3.35150e-06;0.005170930628444404
3.35175e-06;0.005188203665774372
3.35200e-06;0.005191329063667017
3.35225e-06;0.005187125357011203
3.35250e-06;0.005182921650355395
3.35275e-06;0.00517871794369958
3.35300e-06;0.005174514237043765
3.35325e-06;0.005170310530387957
3.35350e-06;0.0051661068237321426
3.35375e-06;0.005161903117076328
3.35400e-06;0.005157699410420513
3.35425e-06;0.005153495703764705
3.35450e-06;0.00514929199710889
3.35475e-06;0.005144154099623034
3.35500e-06;0.005134065440373232
3.35525e-06;0.005123976781123413
3.35550e-06;0.005113888121873593
3.35575e-06;0.005103799462623792
3.35600e-06;0.005093710803373972
3.35625e-06;0.005083622144124153
3.35650e-06;0.005073533484874334
3.35675e-06;0.005063444825624532
3.35700e-06;0.005053356166374713
3.35725e-06;0.005043267507124893
3.35750e-06;0.005033178847875091
3.35775e-06;0.005023090188625272
3.35800e-06;0.005012405744440135
3.35825e-06;0.004998563926854813
3.35850e-06;0.004984722109269515
3.35875e-06;0.004970880291684193
3.35900e-06;0.004957038474098872
3.35925e-06;0.004943196656513574
3.35950e-06;0.004929354838928252
3.35975e-06;0.004915513021342931
3.36000e-06;0.004901671203757632
3.36025e-06;0.004887829386172311
3.36050e-06;0.004873987568586989
3.36075e-06;0.004860145751001668
3.36100e-06;0.004846303933416369
3.36125e-06;0.004830904421744832
3.36150e-06;0.004807249881149029
3.36175e-06;0.004783595340553267
3.36200e-06;0.004759940799957464
3.36225e-06;0.004736286259361662
3.36250e-06;0.004712631718765859
3.36275e-06;0.004688977178170096
3.36300e-06;0.004665322637574293
3.36325e-06;0.004641668096978491
3.36350e-06;0.004618013556382728
3.36375e-06;0.004594359015786926
3.36400e-06;0.004570704475191123
3.36425e-06;0.004546445875622477
3.36450e-06;0.0045218743467212545
3.36475e-06;0.004497302817820031
3.36500e-06;0.004472731288918809
3.36525e-06;0.004448159760017628
3.36550e-06;0.004423588231116405
3.36575e-06;0.004399016702215182
3.36600e-06;0.004374445173314001
3.36625e-06;0.004349873644412778
3.36650e-06;0.004325302115511556
3.36675e-06;0.004300730586610332
3.36700e-06;0.004277308518084452
3.36725e-06;0.004259978036302175
3.36750e-06;0.0042426475545198974
3.36775e-06;0.00422531707273765
3.36800e-06;0.004207986590955373
3.36825e-06;0.004190656109173096
3.36850e-06;0.004172768610419169
3.36875e-06;0.004151310575548246
3.36900e-06;0.004129852540677323
3.36925e-06;0.0041083945058064
3.36950e-06;0.004086936470935513
3.36975e-06;0.00406547843606459
3.37000e-06;0.004042798635147463
3.37025e-06;0.00401034949228341
3.37050e-06;0.003977900349419303
3.37075e-06;0.003945451206555196
3.37100e-06;0.003913002063691088
3.37125e-06;0.003880552920827035
3.37150e-06;0.003848103777962928
3.37175e-06;0.0038156546350988202
3.37200e-06;0.0037832054922347677
3.37225e-06;0.00375075634937066
3.37250e-06;0.003718307206506553
3.37275e-06;0.003681069206287442
3.37300e-06;0.0036409421271700005
3.37325e-06;0.0036008150480525596
3.37350e-06;0.0035606879689351182
3.37375e-06;0.003520560889817745
3.37400e-06;0.003480433810700304
3.37425e-06;0.0034403067315828626
3.37450e-06;0.0034001796524654893
3.37475e-06;0.0033600525733480484
3.37500e-06;0.003319925494230607
3.37525e-06;0.003280830865213555
3.37550e-06;0.003248280068185222
3.37575e-06;0.0032157292711568336
3.37600e-06;0.003183178474128445
3.37625e-06;0.0031506276771001117
3.37650e-06;0.003118076880071723
3.37675e-06;0.0030855260830433347
3.37700e-06;0.0030529752860150015
3.37725e-06;0.0030204244889866128
3.37750e-06;0.0029878736919582245
3.37775e-06;0.0029553228949298358
3.37800e-06;0.0029227720979015026
3.37825e-06;0.0028998081680380304
3.37850e-06;0.002882324570821633
3.37875e-06;0.002864840973605265
3.37900e-06;0.002847357376388867
3.37925e-06;0.0028298737791724697
3.37950e-06;0.0028123901819561018
3.37975e-06;0.0027949065847397044
3.38000e-06;0.002777422987523307
3.38025e-06;0.002759939390306909
3.38050e-06;0.0027424557930905416
3.38075e-06;0.0027249721958741437
3.38100e-06;0.002708649454378099
3.38125e-06;0.0026996843999944693
3.38150e-06;0.0026907193456108245
3.38175e-06;0.00268175429122718
3.38200e-06;0.0026727892368435353
3.38225e-06;0.0026638241824599057
3.38250e-06;0.002654859128076261
3.38275e-06;0.0026458940736926164
3.38300e-06;0.002636929019308987
3.38325e-06;0.002627963964925342
3.38350e-06;0.0026189989105416976
3.38375e-06;0.002610033856158068
3.38400e-06;0.002601068801774423
3.38425e-06;0.0025927025862076667
3.38450e-06;0.0025881319057521465
3.38475e-06;0.002583561225296634
3.38500e-06;0.002578990544841114
3.38525e-06;0.0025744198643855936
3.38550e-06;0.002569849183930081
3.38575e-06;0.002565278503474561
3.38600e-06;0.002560707823019041
3.38625e-06;0.002556137142563521
3.38650e-06;0.0025515664621080084
3.38675e-06;0.002546995781652488
3.38700e-06;0.002542425101196968
3.38725e-06;0.0025378544207414555
3.38750e-06;0.0025339122422373527
3.38775e-06;0.0025339536084817084
3.38800e-06;0.002533994974726064
3.38825e-06;0.002535614709192454
3.38850e-06;0.002547238391025814
3.38875e-06;0.002558862072859174
3.38900e-06;0.00257199609645729
3.38925e-06;0.0025947029049796337
3.38950e-06;0.0026174097135019773
3.38975e-06;0.002641843296223998
3.39000e-06;0.0026772214468659163
3.39025e-06;0.0027125995975078344
3.39050e-06;0.0027498777084871942
3.39075e-06;0.0027991980685118808
3.39100e-06;0.002848518428536651
3.39125e-06;0.002900319454672357
3.39150e-06;0.0029678433348687117
3.39175e-06;0.003035367215065181
3.39200e-06;0.00310289109526165
3.39225e-06;0.003170414975458005
3.39250e-06;0.003237938855654474
3.39275e-06;0.0033054627358509434
3.39300e-06;0.0033752215172419627
3.39325e-06;0.0034591454557929397
3.39350e-06;0.003543069394344059
3.39375e-06;0.0036269933328951787
3.39400e-06;0.0037109172714461557
3.39425e-06;0.003794841209997275
3.39450e-06;0.0038787651485483942
3.39475e-06;0.003962499584825693
3.39500e-06;0.004045032925726689
3.39525e-06;0.004127566266627826
3.39550e-06;0.004210099607528962
3.39575e-06;0.004292632948429959
3.39600e-06;0.004375166289331095
3.39625e-06;0.004457699630232232
3.39650e-06;0.004537132944556372
3.39675e-06;0.00459691780024995
3.39700e-06;0.004656702655943529
3.39725e-06;0.004716487511637108
3.39750e-06;0.004776272367330585
3.39775e-06;0.004836057223024164
3.39800e-06;0.0048958420787177425
3.39825e-06;0.004950214990368039
3.39850e-06;0.004970286144917052
3.39875e-06;0.004990357299466066
3.39900e-06;0.005010428454015079
3.39925e-06;0.005030499608564058
3.39950e-06;0.005050570763113071
3.39975e-06;0.005070641917662084
