Time(s);Current(A)
1.47500e-05;0.0026552975840015256
1.47503e-05;0.002675851507264067
1.47505e-05;0.002695400718337187
1.47508e-05;0.00271494992941044
1.47510e-05;0.002734499140483693
1.47513e-05;0.0027540483515568134
1.47515e-05;0.0027735975626300663
1.47518e-05;0.002793146773703319
1.47520e-05;0.0028126959847764397
1.47523e-05;0.0028322451958496925
1.47525e-05;0.0028560036254736696
1.47528e-05;0.0028806830590279134
1.47530e-05;0.002905362492582324
1.47533e-05;0.002930041926136735
1.47535e-05;0.002954721359690979
1.47538e-05;0.0029794007932453896
1.47540e-05;0.003004080226799801
1.47543e-05;0.0030287596603540442
1.47545e-05;0.0030534390939084555
1.47548e-05;0.0030781185274628663
1.47550e-05;0.00310279796101711
1.47553e-05;0.003127477394571521
1.47555e-05;0.00315471240287835
1.47558e-05;0.003187366174218976
1.47560e-05;0.003220019945559823
1.47563e-05;0.00325267371690067
1.47565e-05;0.0032853274882412957
1.47568e-05;0.003317981259582143
1.47570e-05;0.0033506350309229897
1.47573e-05;0.003383288802263837
1.47575e-05;0.0034159425736044625
1.47578e-05;0.0034485963449453097
1.47580e-05;0.003481250116286157
1.47583e-05;0.0035139038876267825
1.47585e-05;0.0035465576589676293
1.47588e-05;0.0035767493549566137
1.47590e-05;0.003606402333116993
1.47593e-05;0.0036360553112775736
1.47595e-05;0.0036657082894381537
1.47598e-05;0.003695361267598533
1.47600e-05;0.0037250142457591136
1.47603e-05;0.0037546672239196937
1.47605e-05;0.003772581686868253
1.47608e-05;0.0037879276876375766
1.47610e-05;0.0038032736884069003
1.47613e-05;0.0038186196891761195
1.47615e-05;0.003833965689945443
1.47618e-05;0.0038493116907147664
1.47620e-05;0.003864657691483986
1.47623e-05;0.003852125734428895
1.47625e-05;0.0038334939019616958
1.47628e-05;0.0038148620694946228
1.47630e-05;0.0037962302370274236
1.47633e-05;0.0037775984045602244
1.47635e-05;0.0037589665720931514
1.47638e-05;0.003740334739625952
1.47640e-05;0.003721702907158753
1.47643e-05;0.0037030710746916804
1.47645e-05;0.0036537887384049464
1.47648e-05;0.0035977998759152436
1.47650e-05;0.0035418110134259203
1.47653e-05;0.0034858221509362175
1.47655e-05;0.0034298332884465147
1.47658e-05;0.003373844425956812
1.47660e-05;0.0033178555634674886
1.47663e-05;0.003261866700977786
1.47665e-05;0.0032058778384880834
1.47668e-05;0.0031347476451540875
1.47670e-05;0.003060304431822885
1.47673e-05;0.0029858612184916825
1.47675e-05;0.002911418005160984
1.47678e-05;0.0028369747918297814
1.47680e-05;0.002762531578498579
1.47683e-05;0.002687860145977038
1.47685e-05;0.0026131387776368834
1.47688e-05;0.0025384174092967287
1.47690e-05;0.0024636960409570806
1.47693e-05;0.002388974672616926
1.47695e-05;0.002314253304276772
1.47698e-05;0.0022469141326789577
1.47700e-05;0.002181190232927056
1.47703e-05;0.0021154663331751544
1.47705e-05;0.0020590912058853967
1.47708e-05;0.002004761649782843
1.47710e-05;0.0019504320936802888
1.47713e-05;0.0019029101110000339
1.47715e-05;0.0018568776689096218
1.47718e-05;0.0018108452268192098
1.47720e-05;0.0017702182947164843
1.47723e-05;0.0017307741227598772
1.47725e-05;0.00169132995080327
1.47728e-05;0.00165188577884693
1.47730e-05;0.0016124416068903228
1.47733e-05;0.0015729974349337154
1.47735e-05;0.0015335532629773753
1.47738e-05;0.0014993254432492003
1.47740e-05;0.0014662389947404865
1.47743e-05;0.0014331525462317725
1.47745e-05;0.0014000660977232827
1.47748e-05;0.0013669796492145688
1.47750e-05;0.001333893200705855
1.47753e-05;0.0013008067521973652
1.47755e-05;0.0012704940292288065
1.47758e-05;0.0012407882151429057
1.47760e-05;0.0012110824010572062
1.47763e-05;0.0011813765869713054
1.47765e-05;0.0011516707728854046
1.47768e-05;0.001121964958799705
1.47770e-05;0.0010922591447138042
1.47773e-05;0.0010625533306279035
1.47775e-05;0.001032847516542204
1.47778e-05;0.0010073040600837404
1.47780e-05;0.0009826713540873066
1.47783e-05;0.0009580386480910396
1.47785e-05;0.0009334059420946057
1.47788e-05;0.0009087732360981718
1.47790e-05;0.0008841405301019048
1.47793e-05;0.000859507824105471
1.47795e-05;0.0008348751181090371
1.47798e-05;0.0008102424121127701
1.47800e-05;0.0007893106903767491
1.47803e-05;0.0007691887676602508
1.47805e-05;0.0007510470555503869
1.47808e-05;0.0007333386261821741
1.47810e-05;0.0007190308951789171
1.47813e-05;0.0007054672587214155
1.47815e-05;0.0006970323216482948
1.47818e-05;0.0006938946698656173
1.47820e-05;0.0006957219074389616
1.47823e-05;0.0007023569142731771
1.47825e-05;0.0007136412864234103
1.47828e-05;0.0007294164020547878
1.47830e-05;0.0007497001003637877
1.47833e-05;0.0007749850636430095
1.47835e-05;0.0008059069889887271
1.47838e-05;0.0008425987270471028
1.47840e-05;0.0008847765116427514
1.47843e-05;0.0009320861702306434
1.47845e-05;0.000985960273313861
1.47848e-05;0.0010410716359126975
1.47850e-05;0.0011031089001445988
1.47853e-05;0.0011666615959363366
1.47855e-05;0.001237271861952973
1.47858e-05;0.001309426369459612
1.47860e-05;0.0013888024956528716
1.47863e-05;0.0014697587581892185
1.47865e-05;0.0015507150207255654
1.47868e-05;0.0016386247412153564
1.47870e-05;0.0017280559227653824
1.47873e-05;0.0018174871043154083
1.47875e-05;0.0019069182858648284
1.47878e-05;0.0019963494674148543
1.47880e-05;0.002087548838275767
1.47883e-05;0.0021791351002628328
1.47885e-05;0.002270721362250519
1.47888e-05;0.002362307624238205
1.47890e-05;0.0024538938862252706
1.47893e-05;0.0025327634488742064
1.47895e-05;0.0026088505163987985
1.47898e-05;0.002684937583922875
1.47900e-05;0.002761024651447467
1.47903e-05;0.002837111718972059
1.47905e-05;0.0029131987864961357
1.47908e-05;0.0029892858540207278
1.47910e-05;0.0030572107068124028
1.47913e-05;0.003107828647536299
1.47915e-05;0.003158446588259852
1.47918e-05;0.003209064528983748
1.47920e-05;0.003259682469707644
1.47923e-05;0.0033103004104311972
1.47925e-05;0.003360918351155093
1.47928e-05;0.003411536291878989
1.47930e-05;0.0034469263936981226
1.47933e-05;0.0034789845469995998
1.47935e-05;0.0035110427003010774
1.47938e-05;0.0035431008536023377
1.47940e-05;0.003575159006903815
1.47943e-05;0.0036072171602052924
1.47945e-05;0.0036392753135065527
1.47948e-05;0.00367133346680803
1.47950e-05;0.0037033916201095075
1.47953e-05;0.0037354497734107678
1.47955e-05;0.003767507926712245
1.47958e-05;0.0037995660800137225
1.47960e-05;0.003827844395002297
1.47963e-05;0.0038481080557014264
1.47965e-05;0.0038683717164005554
1.47968e-05;0.003888635377099547
1.47970e-05;0.003908899037798676
1.47973e-05;0.0039291626984978055
1.47975e-05;0.003949426359196797
1.47978e-05;0.003969690019895927
1.47980e-05;0.003989953680595055
1.47983e-05;0.004010217341294047
1.47985e-05;0.004030481001993176
1.47988e-05;0.004050744662692306
1.47990e-05;0.004071008323391297
1.47993e-05;0.004085639433306299
1.47995e-05;0.004099038105095153
1.47998e-05;0.004112436776884008
1.48000e-05;0.004125835448672772
1.48003e-05;0.004139234120461627
1.48005e-05;0.004152632792250481
1.48008e-05;0.004166031464039245
1.48010e-05;0.004167367903778803
1.48013e-05;0.004166065050019954
1.48015e-05;0.004164762196261115
1.48018e-05;0.004163459342502266
1.48020e-05;0.0041621564887434175
1.48023e-05;0.004160853634984578
1.48025e-05;0.004159550781225729
1.48028e-05;0.004132747075235279
1.48030e-05;0.004100363619724097
1.48033e-05;0.004067980164212695
1.48035e-05;0.004035596708701294
1.48038e-05;0.0040032132531901115
1.48040e-05;0.00397082979767871
1.48043e-05;0.003938446342167308
1.48045e-05;0.0039060628866561258
1.48048e-05;0.0038635856362777537
1.48050e-05;0.0037997058100072718
1.48053e-05;0.0037358259837372227
1.48055e-05;0.0036719461574667403
1.48058e-05;0.0036080663311962584
1.48060e-05;0.003544186504926209
1.48063e-05;0.003480306678655727
1.48065e-05;0.0034164268523852446
1.48068e-05;0.0033525470261151955
1.48070e-05;0.0032771987584968403
1.48073e-05;0.003199341122581561
1.48075e-05;0.003121483486666809
1.48078e-05;0.0030436258507515294
1.48080e-05;0.00296576821483625
1.48083e-05;0.0028879105789209707
1.48085e-05;0.0028123270797442757
1.48088e-05;0.002737241176226374
1.48090e-05;0.002662155272708472
1.48093e-05;0.0025870693691910788
1.48095e-05;0.002511983465673177
1.48098e-05;0.002436897562155275
1.48100e-05;0.002371123148078351
1.48103e-05;0.002307386147429177
1.48105e-05;0.002243649146780003
1.48108e-05;0.00219037463333462
1.48110e-05;0.0021393893789872958
1.48113e-05;0.0020884041246399714
1.48115e-05;0.0020466073671644076
1.48118e-05;0.0020068211115564054
1.48120e-05;0.001967034855948403
1.48123e-05;0.001936410161743905
1.48125e-05;0.0019077900757544695
1.48128e-05;0.0018791699897650338
1.48130e-05;0.0018603505935320599
1.48133e-05;0.0018436756508846425
1.48135e-05;0.0018270007082372252
1.48138e-05;0.0018181910177922035
1.48140e-05;0.001811102294820609
1.48143e-05;0.0018040135718490147
1.48145e-05;0.0018046850018123958
1.48148e-05;0.00180705440285755
1.48150e-05;0.0018094238039027045
1.48153e-05;0.0018185445832121102
1.48155e-05;0.0018291426072550782
1.48158e-05;0.0018397406312980463
1.48160e-05;0.0018581628584720844
1.48163e-05;0.0018782970713204156
1.48165e-05;0.001898431284168747
1.48168e-05;0.0019185654970170782
1.48170e-05;0.001938699709865273
1.48173e-05;0.0019588339227136044
1.48175e-05;0.0019789681355619356
1.48178e-05;0.0020042716522607256
1.48180e-05;0.0020307062456955704
1.48183e-05;0.002057140839130415
1.48185e-05;0.002083575432565081
1.48188e-05;0.0021100100259999256
1.48190e-05;0.0021364446194347703
1.48193e-05;0.0021628792128694356
1.48195e-05;0.002181224503748489
1.48198e-05;0.0021977998035037963
1.48200e-05;0.0022143751032589914
1.48203e-05;0.002230950403014299
1.48205e-05;0.0022475257027696057
1.48208e-05;0.002264101002524801
1.48210e-05;0.002280676302280108
1.48213e-05;0.0022972516020354156
1.48215e-05;0.0023138269017906107
1.48218e-05;0.002330402201545918
1.48220e-05;0.0023469775013012254
1.48223e-05;0.0023635528010564205
1.48225e-05;0.002380128100811728
1.48228e-05;0.002388645977065063
1.48230e-05;0.002380079137375659
1.48233e-05;0.0023715122976861965
1.48235e-05;0.0023629454579967347
1.48238e-05;0.0023543786183073305
1.48240e-05;0.0023458117786178683
1.48243e-05;0.002337244938928406
1.48245e-05;0.002328678099239002
1.48248e-05;0.00232011125954954
1.48250e-05;0.0023115444198600777
1.48253e-05;0.0023029775801706154
1.48255e-05;0.0022944107404812113
1.48258e-05;0.0022858439007917494
1.48260e-05;0.002277277061102287
1.48263e-05;0.0022570847989887644
1.48265e-05;0.002234348820112923
1.48268e-05;0.0022116128412370817
1.48270e-05;0.0021888768623613943
1.48273e-05;0.002166140883485553
1.48275e-05;0.0021434049046097116
1.48278e-05;0.002120668925734024
1.48280e-05;0.002096319111152336
1.48283e-05;0.002071616178998907
1.48285e-05;0.002046913246845645
1.48288e-05;0.002022210314692216
1.48290e-05;0.0019975073825387866
1.48293e-05;0.0019728044503855248
1.48295e-05;0.0019481015182320953
1.48298e-05;0.001924889834020847
1.48300e-05;0.0019051344667750682
1.48303e-05;0.0018860639684402034
1.48305e-05;0.0018669934701053387
1.48308e-05;0.0018479229717706031
1.48310e-05;0.0018288524734357383
1.48313e-05;0.0018097819751008736
1.48315e-05;0.001791801439904389
1.48318e-05;0.0017740593956119986
1.48320e-05;0.0017563173513196082
1.48323e-05;0.001738575307027338
1.48325e-05;0.0017208332627349477
1.48328e-05;0.0017030912184425573
1.48330e-05;0.001681971718813427
1.48333e-05;0.0016601132103598695
1.48335e-05;0.0016382547019063122
1.48338e-05;0.0016163961934527549
1.48340e-05;0.0015945376849993455
1.48343e-05;0.0015726791765457882
1.48345e-05;0.001550820668092231
1.48348e-05;0.0015289621596388215
1.48350e-05;0.0015071036511852642
1.48353e-05;0.0014835101551159517
1.48355e-05;0.0014562378440278504
1.48358e-05;0.0014289655329395646
1.48360e-05;0.0014016932218512785
1.48363e-05;0.0013744209107631774
1.48365e-05;0.0013471485996748916
1.48368e-05;0.0013198762885866056
1.48370e-05;0.0012926039774985045
1.48373e-05;0.0012653316664102184
1.48375e-05;0.0012380593553219326
1.48378e-05;0.0012103762816967555
1.48380e-05;0.0011826033306017011
1.48383e-05;0.0011548303795066465
1.48385e-05;0.0011270574284117801
1.48388e-05;0.0010992844773167255
1.48390e-05;0.001071511526221671
1.48393e-05;0.0010472153041021645
1.48395e-05;0.0010236798125139493
1.48398e-05;0.0010001443209257345
1.48400e-05;0.0009766088293376787
1.48403e-05;0.0009530733377494637
1.48405e-05;0.0009295378461612487
1.48408e-05;0.0009112132532986503
1.48410e-05;0.000894028838397811
1.48413e-05;0.0008768444234969716
1.48415e-05;0.0008650289542053953
1.48418e-05;0.0008543882445444479
1.48420e-05;0.0008486746958336998
1.48423e-05;0.0008440392414453487
1.48425e-05;0.0008442370798112535
1.48428e-05;0.0008454924735380089
1.48430e-05;0.0008516594352534487
1.48433e-05;0.0008589010794514991
1.48435e-05;0.0008715216506645391
1.48438e-05;0.0008853191655036836
1.48440e-05;0.000904275586610229
1.48443e-05;0.0009243608093965214
1.48445e-05;0.0009490910632079083
1.48448e-05;0.000974837679509792
1.48450e-05;0.0010048234083775134
1.48453e-05;0.0010357366821814032
1.48455e-05;0.0010716302794622713
1.48458e-05;0.0011086136033666466
1.48460e-05;0.0011455969272710217
1.48463e-05;0.0011885389839675054
1.48465e-05;0.0012327848495021579
1.48468e-05;0.00127703071503681
1.48470e-05;0.0013212765805711627
1.48473e-05;0.0013655224461058151
1.48475e-05;0.0014109858811640807
1.48478e-05;0.001459031013642285
1.48480e-05;0.0015070761461208147
1.48483e-05;0.0015551212785993444
1.48485e-05;0.0016031664110775486
1.48488e-05;0.0016512115435560783
1.48490e-05;0.001692499471153462
1.48493e-05;0.0017323088791136197
1.48495e-05;0.001772118287074047
1.48498e-05;0.0018119276950344745
1.48500e-05;0.0018517371029946321
1.48503e-05;0.0018915465109550595
1.48505e-05;0.0019313559189154872
1.48508e-05;0.0019711653268759143
1.48510e-05;0.002010974734836072
1.48513e-05;0.0020453572787306035
1.48515e-05;0.0020682328649611072
1.48518e-05;0.002091108451191456
1.48520e-05;0.00211398403742196
1.48523e-05;0.002136859623652464
1.48525e-05;0.002159735209882813
1.48528e-05;0.0021826107961133165
1.48530e-05;0.0022054863823438207
1.48533e-05;0.0022283619685741695
1.48535e-05;0.0022512375548046732
1.48538e-05;0.0022648198056289177
1.48540e-05;0.0022763686152393794
1.48543e-05;0.002287917424849919
1.48545e-05;0.0022994662344604593
1.48548e-05;0.0023110150440709206
1.48550e-05;0.0023225638536814607
1.48553e-05;0.0023341126632920005
1.48555e-05;0.002345661472902462
1.48558e-05;0.002357210282513002
1.48560e-05;0.002368759092123542
1.48563e-05;0.0023803079017340038
1.48565e-05;0.0023918567113445435
1.48568e-05;0.0024007769874625647
1.48570e-05;0.0024056441417066054
1.48573e-05;0.0024105112959506786
1.48575e-05;0.0024153784501947523
1.48578e-05;0.0024202456044387925
1.48580e-05;0.002425112758682866
1.48583e-05;0.0024299799129269394
1.48585e-05;0.0024348470671709797
1.48588e-05;0.0024397142214150533
1.48590e-05;0.0024445813756591266
1.48593e-05;0.0024494485299032
1.48595e-05;0.0024543156841472405
1.48598e-05;0.002459182838391314
1.48600e-05;0.002461503579827652
1.48603e-05;0.002463735558664598
1.48605e-05;0.0024659675375015592
1.48608e-05;0.00246819951633852
1.48610e-05;0.002470431495175466
1.48613e-05;0.002467915552363635
1.48615e-05;0.002461162712787772
1.48618e-05;0.0024544098732119553
1.48620e-05;0.0024476570336360924
1.48623e-05;0.0024409041940602295
1.48625e-05;0.002433072429622154
1.48628e-05;0.0024144056984284922
1.48630e-05;0.0023957389672348305
1.48633e-05;0.002376157004885179
1.48635e-05;0.0023473839491628627
1.48638e-05;0.002318610893440547
1.48640e-05;0.00228896389840951
1.48643e-05;0.0022505404781690288
1.48645e-05;0.002212117057928547
1.48648e-05;0.002172980726040682
1.48650e-05;0.0021266850689076197
1.48653e-05;0.002080389411774557
1.48655e-05;0.0020331779644086633
1.48658e-05;0.001976769809207152
1.48660e-05;0.0019203616540056413
1.48663e-05;0.0018639534988045125
1.48665e-05;0.0018075453436030015
1.48668e-05;0.0017511371884014906
1.48670e-05;0.001690916518772295
1.48673e-05;0.001628052604814927
1.48675e-05;0.0015651886908575586
1.48678e-05;0.0015023247769006165
1.48680e-05;0.0014394608629432482
1.48683e-05;0.0013766787058847542
1.48685e-05;0.0013147175821649427
1.48688e-05;0.001252756458445551
1.48690e-05;0.0011907953347257397
1.48693e-05;0.0011294200566578602
1.48695e-05;0.0010739280596127714
1.48698e-05;0.0010184360625673065
1.48700e-05;0.0009629440655218417
1.48703e-05;0.0009082075129229189
1.48705e-05;0.0008610574158340307
1.48708e-05;0.000814421125498407
1.48710e-05;0.0007733744964100522
1.48713e-05;0.0007371521035990329
1.48715e-05;0.0007065698961633514
1.48718e-05;0.000681963280227847
1.48720e-05;0.0006633927316760903
1.48723e-05;0.0006508648260086416
1.48725e-05;0.0006443515272353377
1.48728e-05;0.0006438453219216016
1.48730e-05;0.0006493969802351419
1.48733e-05;0.0006612471095951097
1.48735e-05;0.0006796404660258345
1.48738e-05;0.0007045202717751016
1.48740e-05;0.0007356579734568993
1.48743e-05;0.0007727909096945649
1.48745e-05;0.0008156349596031031
1.48748e-05;0.0008639188871861674
1.48750e-05;0.0009174077849075948
1.48753e-05;0.0009761991546017104
1.48755e-05;0.0010416818127025125
1.48758e-05;0.00110794282300012
1.48760e-05;0.001182020337000357
1.48763e-05;0.0012568417719457676
1.48765e-05;0.001339133939105186
1.48768e-05;0.0014214261062646043
1.48770e-05;0.001504404642320346
1.48773e-05;0.0015942759513964831
1.48775e-05;0.0016841472604732296
1.48778e-05;0.0017740185695499758
1.48780e-05;0.0018638898786261131
1.48783e-05;0.001954077438899643
1.48785e-05;0.0020444842584567934
1.48788e-05;0.002134891078013331
1.48790e-05;0.0022252978975704813
1.48793e-05;0.0023150410042772633
1.48795e-05;0.0023981188584431285
1.48798e-05;0.0024811967126095566
1.48800e-05;0.0025632112261582945
1.48803e-05;0.002634547275744346
1.48805e-05;0.0027058833253308804
1.48808e-05;0.002775922199448338
1.48810e-05;0.0028329343526164712
1.48813e-05;0.0028899465057849907
1.48815e-05;0.002945552939225414
1.48818e-05;0.0029870426096921783
1.48820e-05;0.003028532280159224
1.48823e-05;0.0030700219506262696
1.48825e-05;0.003111511621093034
1.48828e-05;0.0031530012915600794
1.48830e-05;0.003194490962027125
1.48833e-05;0.0032359806324938896
1.48835e-05;0.003277470302960935
1.48838e-05;0.0033173272387391206
1.48840e-05;0.0033407876424445984
1.48843e-05;0.003364248046150235
1.48845e-05;0.0033877084498558714
1.48848e-05;0.0034111688535613492
1.48850e-05;0.0034346292572669857
1.48853e-05;0.0034580896609726227
1.48855e-05;0.003481550064678259
1.48858e-05;0.003505010468383737
1.48860e-05;0.0035271736630763427
1.48863e-05;0.0035363097999515794
1.48865e-05;0.003545445936826754
1.48868e-05;0.003554582073701991
1.48870e-05;0.0035637182105772275
1.48873e-05;0.0035728543474524022
1.48875e-05;0.003581990484327639
1.48878e-05;0.0035911266212028756
1.48880e-05;0.0036002627580780508
1.48883e-05;0.0036093988949532875
1.48885e-05;0.0036185350318285237
1.48888e-05;0.003627671168703699
1.48890e-05;0.0036368073055789356
1.48893e-05;0.003645943442454172
1.48895e-05;0.003655079579329347
1.48898e-05;0.0036642157162045837
1.48900e-05;0.0036733518530798204
1.48903e-05;0.003682487989954995
1.48905e-05;0.0036916241268302318
1.48908e-05;0.0037007602637054685
1.48910e-05;0.003709896400580643
1.48913e-05;0.00371903253745588
1.48915e-05;0.003727177683420008
1.48918e-05;0.003725370928208476
1.48920e-05;0.003723564172996932
1.48923e-05;0.003721757417785388
1.48925e-05;0.003719950662573856
1.48928e-05;0.003718143907362312
1.48930e-05;0.003716337152150768
1.48933e-05;0.003714530396939236
1.48935e-05;0.003712723641727692
1.48938e-05;0.003710916886516148
1.48940e-05;0.0037091101313046037
1.48943e-05;0.003707303376093072
1.48945e-05;0.003705496620881528
1.48948e-05;0.003703689865669984
1.48950e-05;0.0037018831104584523
1.48953e-05;0.003700076355246908
1.48955e-05;0.003698269600035364
1.48958e-05;0.003696462844823832
1.48960e-05;0.0036946560896122882
1.48963e-05;0.003692849334400744
1.48965e-05;0.003691042579189212
1.48968e-05;0.003689235823977668
1.48970e-05;0.0036870772458085775
1.48973e-05;0.003681385529982025
1.48975e-05;0.0036756938141554343
1.48978e-05;0.0036700020983288432
1.48980e-05;0.003664310382502291
1.48983e-05;0.0036586186666757
