Time(s);Current(A)
5.50000e-06;-0.0007740863227582853
5.50025e-06;-0.0007499733544198937
5.50050e-06;-0.0007265133183740911
5.50075e-06;-0.0007038596133926296
5.50100e-06;-0.0006821768435418844
5.50125e-06;-0.0006629527759366261
5.50150e-06;-0.0006437979735061402
5.50175e-06;-0.000624643171075719
5.50200e-06;-0.0006094538880538846
5.50225e-06;-0.0005943775606057437
5.50250e-06;-0.0005793012331576537
5.50275e-06;-0.00056724082694425
5.50300e-06;-0.0005552663275385373
5.50325e-06;-0.0005432918281328651
5.50350e-06;-0.0005347711676035321
5.50375e-06;-0.0005263488877178726
5.50400e-06;-0.0005179266078322129
5.50425e-06;-0.0005126480797046554
5.50450e-06;-0.0005074590995648634
5.50475e-06;-0.0005022701194250715
5.50500e-06;-0.000499655766009411
5.50525e-06;-0.0004971147493773408
5.50550e-06;-0.0004945737327452707
5.50575e-06;-0.0004946884820169843
5.50600e-06;-0.0004948788792758323
5.50625e-06;-0.0004950692765346802
5.50650e-06;-0.0004972430843469051
5.50675e-06;-0.0004994733884850191
5.50700e-06;-0.0005017036926231332
5.50725e-06;-0.0005063221715626886
5.50750e-06;-0.0005110086763084
5.50775e-06;-0.0005156951810541272
5.50800e-06;-0.0005203816857998387
5.50825e-06;-0.0005250681905455501
5.50850e-06;-0.0005297546952912775
5.50875e-06;-0.0005351779828384935
5.50900e-06;-0.0005414244618517135
5.50925e-06;-0.0005476709408649546
5.50950e-06;-0.0005539174198781746
5.50975e-06;-0.0005601638988913945
5.51000e-06;-0.0005664103779046357
5.51025e-06;-0.0005726568569178556
5.51050e-06;-0.0005786164515446054
5.51075e-06;-0.0005845678744321694
5.51100e-06;-0.0005905192973197133
5.51125e-06;-0.0005957574085306166
5.51150e-06;-0.0006009752014625784
5.51175e-06;-0.00060503223815554
5.51200e-06;-0.0006090562113647162
5.51225e-06;-0.0006130801845738788
5.51250e-06;-0.0006143563863504306
5.51275e-06;-0.0006155543194145875
5.51300e-06;-0.0006167522524787402
5.51325e-06;-0.0006149213793836846
5.51350e-06;-0.0006130042324612785
5.51375e-06;-0.0006110870855388789
5.51400e-06;-0.0006060778020164226
5.51425e-06;-0.0006009804407348911
5.51450e-06;-0.0005958830794533769
5.51475e-06;-0.000587359554528162
5.51500e-06;-0.0005787384372727927
5.51525e-06;-0.0005701173200174527
5.51550e-06;-0.0005585602321999428
5.51575e-06;-0.0005469195149244626
5.51600e-06;-0.000535278797649022
5.51625e-06;-0.0005209790319266538
5.51650e-06;-0.0005066035247159621
5.51675e-06;-0.0004922280175052703
5.51700e-06;-0.00047592726111999126
5.51725e-06;-0.0004595716651028988
5.51750e-06;-0.00044210362659686246
5.51775e-06;-0.00042460390079679557
5.51800e-06;-0.00040630716790731876
5.51825e-06;-0.00038798773272249727
5.51850e-06;-0.0003690836370201069
5.51875e-06;-0.0003501628875942188
5.51900e-06;-0.00033103460221966445
5.51925e-06;-0.0003119086965518862
5.51950e-06;-0.0002929012551977664
5.51975e-06;-0.0002741254031341326
5.52000e-06;-0.0002556814763514898
5.52025e-06;-0.00023764779870273853
5.52050e-06;-0.00022010826048090356
5.52075e-06;-0.00020352981126829084
5.52100e-06;-0.00018697834647222455
5.52125e-06;-0.00017161492169532155
5.52150e-06;-0.00015723778438283973
5.52175e-06;-0.0001439602064005008
5.52200e-06;-0.00013167242839721814
5.52225e-06;-0.00011982370691484659
5.52250e-06;-0.00010787889884934284
5.52275e-06;-9.573181749597133e-05
5.52300e-06;-8.353777433329769e-05
5.52325e-06;-7.134255511542046e-05
5.52350e-06;-5.914733589750194e-05
5.52375e-06;-4.7362642655857504e-05
5.52400e-06;-3.5589643014022745e-05
5.52425e-06;-2.379030874680954e-05
5.52450e-06;-1.1575286869886256e-05
5.52475e-06;1.0919579861133327e-06
5.52500e-06;1.4113230547494656e-05
5.52525e-06;2.7386815505549556e-05
5.52550e-06;4.081101311373966e-05
5.52575e-06;5.428427804874824e-05
5.52600e-06;6.789700389171677e-05
5.52625e-06;8.151366570941322e-05
5.52650e-06;9.575241363269186e-05
5.52675e-06;0.00011000888132617718
5.52700e-06;0.00012479580041547885
5.52725e-06;0.00013959782911215245
5.52750e-06;0.00015439985780882606
5.52775e-06;0.00016921442006576266
5.52800e-06;0.0001840293393340094
5.52825e-06;0.00019883371060322848
5.52850e-06;0.00021363778141872262
5.52875e-06;0.0002284900858071853
5.52900e-06;0.00024327149156107115
5.52925e-06;0.0002578880839672222
5.52950e-06;0.00027224677523001914
5.52975e-06;0.0002862546040878221
5.53000e-06;0.00029985452279409415
5.53025e-06;0.0003130572892457592
5.53050e-06;0.0003258713189414924
5.53075e-06;0.0003382389160403364
5.53100e-06;0.000350069999990118
5.53125e-06;0.0003612735930229137
5.53150e-06;0.00037175880145798985
5.53175e-06;0.0003814343378638925
5.53200e-06;0.00038997292830279557
5.53225e-06;0.00039663144785361833
5.53250e-06;0.0004007583763915545
5.53275e-06;0.0004021963562892871
5.53300e-06;0.0004010167173660285
5.53325e-06;0.0003972968766168409
5.53350e-06;0.00039111427852854075
5.53375e-06;0.0003825461986072644
5.53400e-06;0.0003715220233030647
5.53425e-06;0.000357710718530548
5.53450e-06;0.00034083869759067516
5.53475e-06;0.00032094178663392455
5.53500e-06;0.00029819924188327374
5.53525e-06;0.0002727940140471481
5.53550e-06;0.00024490907810148803
5.53575e-06;0.0002147272966374202
5.53600e-06;0.00018233891037421656
5.53625e-06;0.0001476710168099461
5.53650e-06;0.00011068666397501012
5.53675e-06;7.154283281210637e-05
5.53700e-06;3.0486216734586494e-05
5.53725e-06;-1.2234120146139116e-05
5.53750e-06;-5.6369124227286513e-05
5.53775e-06;-0.00010166985903747514
5.53800e-06;-0.00014794541047840796
5.53825e-06;-0.00019548221371379733
5.53850e-06;-0.0002430541781011136
5.53875e-06;-0.0002916412901212626
5.53900e-06;-0.00034025731804659086
5.53925e-06;-0.00038878556624543476
5.53950e-06;-0.0004373113140885215
5.53975e-06;-0.0004846384809878633
5.54000e-06;-0.0005319315069881247
5.54025e-06;-0.0005771424952244548
5.54050e-06;-0.0006222941777951844
5.54075e-06;-0.0006644091119613998
5.54100e-06;-0.0007064375460703426
5.54125e-06;-0.000744216388747945
5.54150e-06;-0.0007818741842218782
5.54175e-06;-0.0008141469679745527
5.54200e-06;-0.0008462663627203393
5.54225e-06;-0.0008732054802128024
5.54250e-06;-0.0008999970404436698
5.54275e-06;-0.0009221802216381548
5.54300e-06;-0.000944232135767561
5.54325e-06;-0.000961272597223815
5.54350e-06;-0.0009781703102908251
5.54375e-06;-0.0009896399141113145
5.54400e-06;-0.0010009549013163218
5.54425e-06;-0.0010072648594450404
5.54450e-06;-0.0010134322521571269
5.54475e-06;-0.0010141699981097388
5.54500e-06;-0.0010147530836516628
5.54525e-06;-0.0010153361691935866
5.54550e-06;-0.001010530319054744
5.54575e-06;-0.0010055709681372556
5.54600e-06;-0.0009965174938141193
5.54625e-06;-0.0009873474007061197
5.54650e-06;-0.0009748768238457595
5.54675e-06;-0.0009623122345762577
5.54700e-06;-0.0009475819026973843
5.54725e-06;-0.0009314435854907209
5.54750e-06;-0.0009139936893247724
5.54775e-06;-0.0008953074734810284
5.54800e-06;-0.0008755060428752611
5.54825e-06;-0.0008548043985679239
5.54850e-06;-0.0008334332525795714
5.54875e-06;-0.0008115539635839043
5.54900e-06;-0.0007892901923528758
5.54925e-06;-0.0007667646956193169
5.54950e-06;-0.0007441001767444517
5.54975e-06;-0.0007214195072641137
5.55000e-06;-0.0006988740311214647
5.55025e-06;-0.0006766740267906277
5.55050e-06;-0.0006550396347223086
5.55075e-06;-0.0006341474241510652
5.55100e-06;-0.0006141504744931115
5.55125e-06;-0.0005952011750169506
5.55150e-06;-0.0005781115347265046
5.55175e-06;-0.0005610740359617531
5.55200e-06;-0.0005468757387706823
5.55225e-06;-0.000532758314627204
5.55250e-06;-0.0005216183833282817
5.55275e-06;-0.0005105632642254611
5.55300e-06;-0.0005025825295800547
5.55325e-06;-0.0004946893670333486
5.55350e-06;-0.0004900084274505201
5.55375e-06;-0.0004854189862181368
5.55400e-06;-0.0004841197283448381
5.55425e-06;-0.00048291418947965926
5.55450e-06;-0.0004848518835806691
5.55475e-06;-0.00048687911089113976
5.55500e-06;-0.0004918767283024256
5.55525e-06;-0.0004969589555921195
5.55550e-06;-0.0005048643679096591
5.55575e-06;-0.0005128501970525127
5.55600e-06;-0.0005240675859784347
5.55625e-06;-0.0005353770240530632
5.55650e-06;-0.0005466864621276917
5.55675e-06;-0.0005612076232387461
5.55700e-06;-0.0005758202684599992
5.55725e-06;-0.0005904329136812525
5.55750e-06;-0.0006075113900800372
5.55775e-06;-0.0006246601042821829
5.55800e-06;-0.0006418088184843287
5.55825e-06;-0.0006605765621069461
5.55850e-06;-0.0006793904228648434
5.55875e-06;-0.0006982042836227408
5.55900e-06;-0.0007176371112452681
5.55925e-06;-0.0007370875697880224
5.55950e-06;-0.0007565380283308426
5.55975e-06;-0.0007756126545701548
5.56000e-06;-0.0007946765754393363
5.56025e-06;-0.0008137404963085824
5.56050e-06;-0.0008313280840500373
5.56075e-06;-0.0008488736192791838
5.56100e-06;-0.0008664191545083897
5.56125e-06;-0.0008805640632711082
5.56150e-06;-0.0008946121071165313
5.56175e-06;-0.000908660150962002
5.56200e-06;-0.000922708194807425
5.56225e-06;-0.000935177333168891
5.56250e-06;-0.0009458823946327774
5.56275e-06;-0.0009565874560966275
5.56300e-06;-0.0009672925175604777
5.56325e-06;-0.000977997579024364
5.56350e-06;-0.0009860999486498811
5.56375e-06;-0.0009941281820737404
5.56400e-06;-0.0010021564154975725
5.56425e-06;-0.0010101846489214046
5.56450e-06;-0.0010173156497726157
5.56475e-06;-0.0010234441921047992
5.56500e-06;-0.0010295727344369825
5.56525e-06;-0.0010357012767691865
5.56550e-06;-0.0010418298191013698
5.56575e-06;-0.0010455425996120215
5.56600e-06;-0.001049186568516594
5.56625e-06;-0.0010528305374211543
5.56650e-06;-0.0010564745063257146
5.56675e-06;-0.001060118475230287
5.56700e-06;-0.0010637624441348474
5.56725e-06;-0.0010674064130394077
5.56750e-06;-0.0010710503819439804
5.56775e-06;-0.0010746943508485405
5.56800e-06;-0.0010783383197531132
5.56825e-06;-0.0010819822886576735
5.56850e-06;-0.0010836817161585129
5.56875e-06;-0.0010853257544997806
5.56900e-06;-0.0010869697928410427
5.56925e-06;-0.0010886138311823048
5.56950e-06;-0.0010902578695235726
5.56975e-06;-0.0010919019078648347
5.57000e-06;-0.0010935459462060968
5.57025e-06;-0.0010951899845473645
5.57050e-06;-0.0010968340228886266
5.57075e-06;-0.0010984780612298887
5.57100e-06;-0.0011001220995711565
5.57125e-06;-0.0011011654119709596
5.57150e-06;-0.001102191613032864
5.57175e-06;-0.0011029565123562273
5.57200e-06;-0.0011037139686476943
5.57225e-06;-0.0011030543285061032
5.57250e-06;-0.0011023543231759578
5.57275e-06;-0.0010987438341537095
5.57300e-06;-0.0010950504416534156
5.57325e-06;-0.0010913570491531343
5.57350e-06;-0.001084527469834614
5.57375e-06;-0.0010776085580124503
5.57400e-06;-0.0010706896461903101
5.57425e-06;-0.001060106435437517
5.57450e-06;-0.0010494188492069447
5.57475e-06;-0.0010387312629764082
5.57500e-06;-0.001024140129483081
5.57525e-06;-0.0010094378056588638
5.57550e-06;-0.0009947354818346966
5.57575e-06;-0.0009774111419296886
5.57600e-06;-0.0009600121153830023
5.57625e-06;-0.000940552812068061
5.57650e-06;-0.0009210348229373042
5.57675e-06;-0.000899517595358636
5.57700e-06;-0.0008779434206061771
5.57725e-06;-0.0008551749378749164
5.57750e-06;-0.0008317502242808296
5.57775e-06;-0.000807815971851879
5.57800e-06;-0.000783466560949824
5.57825e-06;-0.0007587245523828834
5.57850e-06;-0.0007336233972448366
5.57875e-06;-0.000708276374364394
5.57900e-06;-0.0006828342283920839
5.57925e-06;-0.0006574486501042546
5.57950e-06;-0.0006322714418562978
5.57975e-06;-0.000607454296036911
5.58000e-06;-0.0005831238865691876
5.58025e-06;-0.0005593621434791747
5.58050e-06;-0.0005362575527734784
5.58075e-06;-0.0005139487402183591
5.58100e-06;-0.0004925977691221733
5.58125e-06;-0.0004723672167059595
5.58150e-06;-0.00045412483774683716
5.58175e-06;-0.00043593820334038975
5.58200e-06;-0.0004207179124520286
5.58225e-06;-0.0004055821161769875
5.58250e-06;-0.0003933562234896682
5.58275e-06;-0.00038121321775629
5.58300e-06;-0.0003720541143160237
5.58325e-06;-0.0003629800056409014
5.58350e-06;-0.0003570722633709346
5.58375e-06;-0.0003512547132528336
5.58400e-06;-0.0003486793534524671
5.58425e-06;-0.00034619634560513566
5.58450e-06;-0.00034670633778856417
5.58475e-06;-0.0003473015838809805
5.58500e-06;-0.000350722377866649
5.58525e-06;-0.0003542236559820854
5.58550e-06;-0.0003604509445351307
5.58575e-06;-0.00036675588194997705
5.58600e-06;-0.00037562052372514795
5.58625e-06;-0.0003845580772277672
5.58650e-06;-0.0003956854830523238
5.58675e-06;-0.00040687526557866785
5.58700e-06;-0.0004203465380844941
5.58725e-06;-0.0004338827975389045
5.58750e-06;-0.0004474190569932691
5.58775e-06;-0.00046311315454311384
5.58800e-06;-0.00047886871688773323
5.58825e-06;-0.0004946242792322992
5.58850e-06;-0.0005116370083667819
5.58875e-06;-0.0005286855471845533
5.58900e-06;-0.0005457340860022669
5.58925e-06;-0.000563121122913686
5.58950e-06;-0.0005805178017513231
5.58975e-06;-0.0005979144805889603
5.59000e-06;-0.0006147253198346053
5.59025e-06;-0.0006315194717715735
5.59050e-06;-0.0006483136237085416
5.59075e-06;-0.0006630018033231637
5.59100e-06;-0.0006776299955101852
5.59125e-06;-0.0006922581876972066
5.59150e-06;-0.0007017141992599267
5.59175e-06;-0.0007151973710019132
5.59200e-06;-0.0007262973343982645
5.59225e-06;-0.0007372984259806578
5.59250e-06;-0.0007460956543176603
5.59275e-06;-0.0007533877416288166
5.59300e-06;-0.0007599654806356434
5.59325e-06;-0.000766543219642448
5.59350e-06;-0.0007709863955843654
5.59375e-06;-0.0007741041061706694
5.59400e-06;-0.0007772218167569734
5.59425e-06;-0.0007789498808923716
5.59450e-06;-0.000778168841056651
5.59475e-06;-0.000777223747295604
5.59500e-06;-0.0007747571582605208
5.59525e-06;-0.0007712721773794401
5.59550e-06;-0.0007661329065820682
5.59575e-06;-0.000760993635784679
5.59600e-06;-0.0007558471248050237
5.59625e-06;-0.000747939187213749
5.59650e-06;-0.0007400312496224476
5.59675e-06;-0.0007321173709576669
5.59700e-06;-0.0007219375495558325
5.59725e-06;-0.0007117577281539635
5.59750e-06;-0.000701574661669299
5.59775e-06;-0.0006901539111444116
5.59800e-06;-0.0006787309350002254
5.59825e-06;-0.0006664591011613304
5.59850e-06;-0.0006541857915928512
5.59875e-06;-0.0006413496344814002
5.59900e-06;-0.0006285130666163472
5.59925e-06;-0.0006155198361318772
5.59950e-06;-0.0006025271369557519
5.59975e-06;-0.0005897370803117444
5.60000e-06;-0.0005769481602610428
5.60025e-06;-0.0005645927402210761
5.60050e-06;-0.0005522393473114069
5.60075e-06;-0.000540659107795616
5.60100e-06;-0.0005290829855576935
5.60125e-06;-0.0005190772050619902
5.60150e-06;-0.0005090714245662531
5.60175e-06;-0.0004990718226257038
5.60200e-06;-0.0004914287395928364
5.60225e-06;-0.000483785656559995
5.60250e-06;-0.0004761485552422674
5.60275e-06;-0.0004707928974654316
5.60300e-06;-0.0004654372396886139
5.60325e-06;-0.0004600882793443354
5.60350e-06;-0.0004572937392451472
5.60375e-06;-0.00045449919914596846
5.60400e-06;-0.0004517111212048679
5.60425e-06;-0.0004513877291421084
5.60450e-06;-0.00045106433707935
5.60475e-06;-0.0004507467441999397
5.60500e-06;-0.00045264097670649945
5.60525e-06;-0.0004545352092130528
5.60550e-06;-0.0004564350121737592
5.60575e-06;-0.0004604594025378386
5.60600e-06;-0.00046448379290190436
5.60625e-06;-0.0004685150552100474
5.60650e-06;-0.0004751672969490927
5.60675e-06;-0.00048181953868813796
5.60700e-06;-0.0004884717804272058
5.60725e-06;-0.000495124022166251
5.60750e-06;-0.0005017762639052964
5.60775e-06;-0.0005084285056443643
5.60800e-06;-0.0005150857184925647
5.60825e-06;-0.0005236389268101723
5.60850e-06;-0.0005321921351278089
5.60875e-06;-0.0005407453434454166
5.60900e-06;-0.0005492985517630242
5.60925e-06;-0.0005578517600806608
5.60950e-06;-0.0005664049683982684
5.60975e-06;-0.0005749578648262534
5.61000e-06;-0.000583391805646678
5.61025e-06;-0.000591825746467074
5.61050e-06;-0.0006002574249587967
5.61075e-06;-0.0006078262447175893
5.61100e-06;-0.000615395064476382
5.61125e-06;-0.0006229602314683548
5.61150e-06;-0.0006291322225856534
5.61175e-06;-0.000635304213702952
5.61200e-06;-0.0006414706859417422
5.61225e-06;-0.0006455322418973012
5.61250e-06;-0.0006495937978528602
5.61275e-06;-0.0006536488431949683
5.61300e-06;-0.0006552207216753828
5.61325e-06;-0.0006567926001557975
5.61350e-06;-0.0006583578815135835
5.61375e-06;-0.0006574070011649011
5.61400e-06;-0.0006564561208162187
5.61425e-06;-0.0006554983269902763
5.61450e-06;-0.0006519037128905652
5.61475e-06;-0.0006483090987908418
5.61500e-06;-0.0006447044106540405
5.61525e-06;-0.0006372574555628536
5.61550e-06;-0.0006298105004716414
5.61575e-06;-0.0006223635453804545
5.61600e-06;-0.0006149165902892675
5.61625e-06;-0.0006074696351980554
5.61650e-06;-0.0006000226801068685
5.61675e-06;-0.0005925657255424312
5.61700e-06;-0.0005812949428981979
5.61725e-06;-0.0005700241602540027
5.61750e-06;-0.0005587533776098074
5.61775e-06;-0.0005474825949655741
5.61800e-06;-0.0005362118123213789
5.61825e-06;-0.0005249410296771836
5.61850e-06;-0.0005136670315667879
5.61875e-06;-0.0005011666453473162
5.61900e-06;-0.0004886662591278021
5.61925e-06;-0.0004761660158387165
5.61950e-06;-0.00046372028661284255
5.61975e-06;-0.0004512755339637372
5.62000e-06;-0.00043920325053836885
5.62025e-06;-0.0004271326568956948
5.62050e-06;-0.00041570655126600334
5.62075e-06;-0.00040428295627936787
5.62100e-06;-0.00039381692780882186
5.62125e-06;-0.000383353319793557
5.62150e-06;-0.00037381597913270937
5.62175e-06;-0.00036546048768730955
5.62200e-06;-0.0003571117934646223
5.62225e-06;-0.0003513555796692286
5.62250e-06;-0.0003456083132551603
5.62275e-06;-0.00034327360397591323
5.62300e-06;-0.0003409455126475779
5.62325e-06;-0.00034114582977444127
5.62350e-06;-0.00034299147696092286
5.62375e-06;-0.00034645047842684246
5.62400e-06;-0.00035156134642226014
5.62425e-06;-0.0003584876187350959
5.62450e-06;-0.0003673627662172816
5.62475e-06;-0.0003790545607152135
5.62500e-06;-0.00039075530636181207
5.62525e-06;-0.00040587004601546646
5.62550e-06;-0.0004209927188764973
5.62575e-06;-0.00043914113995355503
5.62600e-06;-0.00045729720403901985
5.62625e-06;-0.00047836833363402076
5.62650e-06;-0.0004994480019243169
5.62675e-06;-0.0005237843533164868
5.62700e-06;-0.000548120704708739
5.62725e-06;-0.0005724643171371334
5.62750e-06;-0.0005995773097728429
5.62775e-06;-0.0006266903024084605
5.62800e-06;-0.0006538078259424596
5.62825e-06;-0.0006826534472154788
5.62850e-06;-0.0007114990684884004
5.62875e-06;-0.0007403460758867326
5.62900e-06;-0.0007697217555225853
5.62925e-06;-0.0007990974351583385
5.62950e-06;-0.0008284704919174467
5.62975e-06;-0.0008568431759455425
5.63000e-06;-0.0008852158599735421
5.63025e-06;-0.0009135823794752661
5.63050e-06;-0.0009395977308465731
5.63075e-06;-0.0009656130822177919
5.63100e-06;-0.0009916180408702862
5.63125e-06;-0.0010136591865824982
5.63150e-06;-0.0010357003322946355
5.63175e-06;-0.0010577313713518288
5.63200e-06;-0.0010759077030022945
5.63225e-06;-0.0010940797736832297
5.63250e-06;-0.0011106266982818006
5.63275e-06;-0.0011271736228803157
5.63300e-06;-0.0011437131961787173
5.63325e-06;-0.0011574489623909145
5.63350e-06;-0.001171184728603065
5.63375e-06;-0.0011849204948152158
5.63400e-06;-0.001198656261027413
5.63425e-06;-0.0012111394003742563
5.63450e-06;-0.0012223829473767265
5.63475e-06;-0.0012336264943792349
5.63500e-06;-0.001244870041381705
5.63525e-06;-0.0012561084984386553
5.63550e-06;-0.0012654056355873651
5.63575e-06;-0.0012747027727360435
5.63600e-06;-0.0012839999098847533
5.63625e-06;-0.0012932970470334315
5.63650e-06;-0.0013025905768565106
5.63675e-06;-0.0013105082622907596
5.63700e-06;-0.0013184259477249818
5.63725e-06;-0.0013263436331592041
5.63750e-06;-0.001334261318593453
5.63775e-06;-0.001342172812323665
5.63800e-06;-0.001347722772290513
5.63825e-06;-0.0013532727322573797
5.63850e-06;-0.0013588226922242278
5.63875e-06;-0.0013643726521910756
5.63900e-06;-0.0013699226121579426
5.63925e-06;-0.0013754725721247904
5.63950e-06;-0.0013810225320916385
5.63975e-06;-0.0013865724920585052
5.64000e-06;-0.0013921224520253533
5.64025e-06;-0.00139767241199222
5.64050e-06;-0.0014032223719590681
5.64075e-06;-0.001408772331925916
5.64100e-06;-0.0014143222918927827
5.64125e-06;-0.0014198722518596308
5.64150e-06;-0.0014234406736015896
5.64175e-06;-0.001425048176508596
5.64200e-06;-0.0014266556794155971
5.64225e-06;-0.001428263182322598
5.64250e-06;-0.0014298706852296044
