Time(s);Current(A)
9.25000e-06;-0.008807003051756863
9.25025e-06;-0.008798936334753838
9.25050e-06;-0.008784800704061091
9.25075e-06;-0.008765703668576418
9.25100e-06;-0.008746606633091875
9.25125e-06;-0.008727509597607201
9.25150e-06;-0.008708412562122528
9.25175e-06;-0.008689315526637984
9.25200e-06;-0.008670218491153311
9.25225e-06;-0.008649082184716432
9.25250e-06;-0.008626278751477126
9.25275e-06;-0.008603475318237666
9.25300e-06;-0.00858046298990378
9.25325e-06;-0.008557279887494891
9.25350e-06;-0.008534096785085845
9.25375e-06;-0.008511646096548342
9.25400e-06;-0.008489794164539429
9.25425e-06;-0.008467942232530369
9.25450e-06;-0.008447358189553113
9.25475e-06;-0.008427810660034642
9.25500e-06;-0.008410111758158645
9.25525e-06;-0.008393924130048394
9.25550e-06;-0.008377736501938255
9.25575e-06;-0.008364697672736907
9.25600e-06;-0.00835423302184767
9.25625e-06;-0.008343768370958432
9.25650e-06;-0.008336776195350904
9.25675e-06;-0.008332622807108957
9.25700e-06;-0.008328469418867012
9.25725e-06;-0.008329993512600959
9.25750e-06;-0.008336159011325317
9.25775e-06;-0.008342324510049673
9.25800e-06;-0.008348490008773989
9.25825e-06;-0.008354655507498346
9.25850e-06;-0.008360821006222702
9.25875e-06;-0.00836762315881689
9.25900e-06;-0.008386470262119205
9.25925e-06;-0.00840531736542152
9.25950e-06;-0.008424164468723707
9.25975e-06;-0.008443011572026022
9.26000e-06;-0.008461858675328338
9.26025e-06;-0.008480705778630524
9.26050e-06;-0.00850440758868587
9.26075e-06;-0.008532078175788441
9.26100e-06;-0.008559748762890826
9.26125e-06;-0.008587419349993398
9.26150e-06;-0.00861508993709597
9.26175e-06;-0.008642760524198354
9.26200e-06;-0.008670431111300926
9.26225e-06;-0.008698168433564718
9.26250e-06;-0.008727168328421927
9.26275e-06;-0.008756168223279334
9.26300e-06;-0.008785168118136741
9.26325e-06;-0.00881416801299395
9.26350e-06;-0.008843167907851357
9.26375e-06;-0.008872167802708764
9.26400e-06;-0.008901167697565973
9.26425e-06;-0.008927598814742518
9.26450e-06;-0.008951929927445207
9.26475e-06;-0.008976261040147895
9.26500e-06;-0.008997558306025659
9.26525e-06;-0.009016375368204908
9.26550e-06;-0.009035192430384155
9.26575e-06;-0.00904942746492451
9.26600e-06;-0.00905991664064157
9.26625e-06;-0.00907040581635863
9.26650e-06;-0.009075130547179497
9.26675e-06;-0.009075142779849265
9.26700e-06;-0.009075155012519032
9.26725e-06;-0.0090751672451888
9.26750e-06;-0.009067378269139432
9.26775e-06;-0.009054195685515463
9.26800e-06;-0.009041013101891584
9.26825e-06;-0.009027830518267617
9.26850e-06;-0.00900493298904135
9.26875e-06;-0.008976385043818964
9.26900e-06;-0.008947837098596381
9.26925e-06;-0.0089192891533738
9.26950e-06;-0.008890741208151413
9.26975e-06;-0.00886219326292883
9.27000e-06;-0.00883364531770625
9.27025e-06;-0.008793603851993619
9.27050e-06;-0.008752120695610582
9.27075e-06;-0.008710637539227545
9.27100e-06;-0.008669154382844787
9.27125e-06;-0.00862767122646175
9.27150e-06;-0.008580427522164803
9.27175e-06;-0.008532461243075678
9.27200e-06;-0.008484494963986226
9.27225e-06;-0.008436528684896775
9.27250e-06;-0.008388562405807648
9.27275e-06;-0.008340272896525827
9.27300e-06;-0.008291942842838731
9.27325e-06;-0.008244556992043331
9.27350e-06;-0.008197289577414191
9.27375e-06;-0.008150228215825952
9.27400e-06;-0.008104656587384702
9.27425e-06;-0.008061653500846817
9.27450e-06;-0.008020554132483253
9.27475e-06;-0.007982762137721542
9.27500e-06;-0.00794535975746395
9.27525e-06;-0.007912909270373306
9.27550e-06;-0.00788107992440196
9.27575e-06;-0.007853799882021485
9.27600e-06;-0.007827090481904088
9.27625e-06;-0.007806165876102375
9.27650e-06;-0.007785966886442964
9.27675e-06;-0.007772583921747723
9.27700e-06;-0.007760055925694396
9.27725e-06;-0.007747527929641155
9.27750e-06;-0.0077470043162033535
9.27775e-06;-0.0077479864734685015
9.27800e-06;-0.007748968630733643
9.27825e-06;-0.00774995078799879
9.27850e-06;-0.007750932945263938
9.27875e-06;-0.007751915102529079
9.27900e-06;-0.007766823562844252
9.27925e-06;-0.007783478870107426
9.27950e-06;-0.007800134177370487
9.27975e-06;-0.00781678948463366
9.28000e-06;-0.007833444791896833
9.28025e-06;-0.007850100099159894
9.28050e-06;-0.007876712567942585
9.28075e-06;-0.007904574014084781
9.28100e-06;-0.007932435460226789
9.28125e-06;-0.007960296906368985
9.28150e-06;-0.007988158352511182
9.28175e-06;-0.008016019798653379
9.28200e-06;-0.008045519584239116
9.28225e-06;-0.008077597629157983
9.28250e-06;-0.008109675674076852
9.28275e-06;-0.008141753718995502
9.28300e-06;-0.008173831763914369
9.28325e-06;-0.008205909808833236
9.28350e-06;-0.008237987853751886
9.28375e-06;-0.008268083813124667
9.28400e-06;-0.008297931149436803
9.28425e-06;-0.008327778485748736
9.28450e-06;-0.008348532483438408
9.28475e-06;-0.00836814585746305
9.28500e-06;-0.00838775923148756
9.28525e-06;-0.008407372605512203
9.28550e-06;-0.008426985979536845
9.28575e-06;-0.008446599353561356
9.28600e-06;-0.008466212727585999
9.28625e-06;-0.008485826101610642
9.28650e-06;-0.008505439475635151
9.28675e-06;-0.008525052849659794
9.28700e-06;-0.008531686619885579
9.28725e-06;-0.008536692292459592
9.28750e-06;-0.008541697965033639
9.28775e-06;-0.008546703637607685
9.28800e-06;-0.008551709310181697
9.28825e-06;-0.008556714982755745
9.28850e-06;-0.00856172065532979
9.28875e-06;-0.008566726327903803
9.28900e-06;-0.00857173200047785
9.28925e-06;-0.008576737673051898
9.28950e-06;-0.008572673287963182
9.28975e-06;-0.008567471199458148
9.29000e-06;-0.008562269110953116
9.29025e-06;-0.008557067022448081
9.29050e-06;-0.008551864933943084
9.29075e-06;-0.008546662845438051
9.29100e-06;-0.008541460756933017
9.29125e-06;-0.00853625866842802
9.29150e-06;-0.008531056579922987
9.29175e-06;-0.008525854491417953
9.29200e-06;-0.008517171596056868
9.29225e-06;-0.008508052085406226
9.29250e-06;-0.008498932574755586
9.29275e-06;-0.008489813064105007
9.29300e-06;-0.008480693553454365
9.29325e-06;-0.008471574042803725
9.29350e-06;-0.008462454532153146
9.29375e-06;-0.008453335021502504
9.29400e-06;-0.008444215510851864
9.29425e-06;-0.008435096000201285
9.29450e-06;-0.008428914384518201
9.29475e-06;-0.00842310128392804
9.29500e-06;-0.008417288183337916
9.29525e-06;-0.008411475082747755
9.29550e-06;-0.008405661982157593
9.29575e-06;-0.008399848881567471
9.29600e-06;-0.00839403578097731
9.29625e-06;-0.008388222680387147
9.29650e-06;-0.008382409579797025
9.29675e-06;-0.008376596479206863
9.29700e-06;-0.008370783378616702
9.29725e-06;-0.008364970278026579
9.29750e-06;-0.008359157177436417
9.29775e-06;-0.008358247337166447
9.29800e-06;-0.008357952537751484
9.29825e-06;-0.008357657738336518
9.29850e-06;-0.008357362938921553
9.29875e-06;-0.008357068139506589
9.29900e-06;-0.008356773340091625
9.29925e-06;-0.00835647854067666
9.29950e-06;-0.008356183741261696
9.29975e-06;-0.008355888941846731
9.30000e-06;-0.008355594142431767
9.30025e-06;-0.008355299343016803
9.30050e-06;-0.008355004543601838
9.30075e-06;-0.008354709744186874
9.30100e-06;-0.008356832047408426
9.30125e-06;-0.008359257540094794
9.30150e-06;-0.008361683032781179
9.30175e-06;-0.008364108525467562
9.30200e-06;-0.00836653401815393
9.30225e-06;-0.008368959510840313
9.30250e-06;-0.008371385003526697
9.30275e-06;-0.008373810496213064
9.30300e-06;-0.008376190479561436
9.30325e-06;-0.008378498844738142
9.30350e-06;-0.008380807209914833
9.30375e-06;-0.008383115575091539
9.30400e-06;-0.008385423940268245
9.30425e-06;-0.008387732305444933
9.30450e-06;-0.00839004067062164
9.30475e-06;-0.008392349035798346
9.30500e-06;-0.008394657400975036
9.30525e-06;-0.008398049138815183
9.30550e-06;-0.008401576769593102
9.30575e-06;-0.008405104400370999
9.30600e-06;-0.008408632031148918
9.30625e-06;-0.008412159661926839
9.30650e-06;-0.008415687292704735
9.30675e-06;-0.008419214923482654
9.30700e-06;-0.008422742554260575
9.30725e-06;-0.008428932800601046
9.30750e-06;-0.008439313212450276
9.30775e-06;-0.008449693624299578
9.30800e-06;-0.008460074036148882
9.30825e-06;-0.008470454447998113
9.30850e-06;-0.008480834859847417
9.30875e-06;-0.008491215271696719
9.30900e-06;-0.008501595683545951
9.30925e-06;-0.008511976095395253
9.30950e-06;-0.008528191372063862
9.30975e-06;-0.00854513854547374
9.31000e-06;-0.00856208571888373
9.31025e-06;-0.008579032892293722
9.31050e-06;-0.0085959800657036
9.31075e-06;-0.008612927239113591
9.31100e-06;-0.008629874412523584
9.31125e-06;-0.00864682158593346
9.31150e-06;-0.008663768759343451
9.31175e-06;-0.008682354059028015
9.31200e-06;-0.008701144837214474
9.31225e-06;-0.00871993561540106
9.31250e-06;-0.008738726393587646
9.31275e-06;-0.008757517171774105
9.31300e-06;-0.00877630794996069
9.31325e-06;-0.008795098728147278
9.31350e-06;-0.008813889506333735
9.31375e-06;-0.008832680284520323
9.31400e-06;-0.008846690409180843
9.31425e-06;-0.008860100872178627
9.31450e-06;-0.008873511335176503
9.31475e-06;-0.008886921798174382
9.31500e-06;-0.008900332261172166
9.31525e-06;-0.008913742724170042
9.31550e-06;-0.008927153187167918
9.31575e-06;-0.008940563650165797
9.31600e-06;-0.008942208608641998
9.31625e-06;-0.008942377760104613
9.31650e-06;-0.008942546911567227
9.31675e-06;-0.008942716063029842
9.31700e-06;-0.008942885214492456
9.31725e-06;-0.00894305436595507
9.31750e-06;-0.008943223517417683
9.31775e-06;-0.0089433926688803
9.31800e-06;-0.008930336315353832
9.31825e-06;-0.008915621019536761
9.31850e-06;-0.00890090572371959
9.31875e-06;-0.008886190427902419
9.31900e-06;-0.008871475132085348
9.31925e-06;-0.008856759836268177
9.31950e-06;-0.008842044540451007
9.31975e-06;-0.008817742399325838
9.32000e-06;-0.008792237731481746
9.32025e-06;-0.008766733063637656
9.32050e-06;-0.008741228395793738
9.32075e-06;-0.008715723727949647
9.32100e-06;-0.008690219060105555
9.32125e-06;-0.008664714392261637
9.32150e-06;-0.008634628529696962
9.32175e-06;-0.008603968024600844
9.32200e-06;-0.008573307519504934
9.32225e-06;-0.008542647014408817
9.32250e-06;-0.008511986509312699
9.32275e-06;-0.00848132600421679
9.32300e-06;-0.008450665499120671
9.32325e-06;-0.008421265958871714
9.32350e-06;-0.00839385080250746
9.32375e-06;-0.008366435646143018
9.32400e-06;-0.008339020489778578
9.32425e-06;-0.008311605333414136
9.32450e-06;-0.00828419017704988
9.32475e-06;-0.00825677502068544
9.32500e-06;-0.008229359864320999
9.32525e-06;-0.00821199165029846
9.32550e-06;-0.008195883675303894
9.32575e-06;-0.008179775700309326
9.32600e-06;-0.008163667725314868
9.32625e-06;-0.008147559750320301
9.32650e-06;-0.008131451775325734
9.32675e-06;-0.008115343800331276
9.32700e-06;-0.008099235825336708
9.32725e-06;-0.008083127850342141
9.32750e-06;-0.008067019875347683
9.32775e-06;-0.008050911900353116
9.32800e-06;-0.008034803925358549
9.32825e-06;-0.00801869595036409
9.32850e-06;-0.008002587975369523
9.32875e-06;-0.007986480000374956
9.32900e-06;-0.007972927720982693
9.32925e-06;-0.007963397346863335
9.32950e-06;-0.007953866972743976
9.32975e-06;-0.007944336598624683
9.33000e-06;-0.007934806224505323
9.33025e-06;-0.007925275850385965
9.33050e-06;-0.00791574547626667
9.33075e-06;-0.007906215102147313
9.33100e-06;-0.007896684728027953
9.33125e-06;-0.00788715435390866
9.33150e-06;-0.0078776239797893
9.33175e-06;-0.007868093605669943
9.33200e-06;-0.007858563231550647
9.33225e-06;-0.00784903285743129
9.33250e-06;-0.00783950248331193
9.33275e-06;-0.007829972109192573
9.33300e-06;-0.007823648455978991
9.33325e-06;-0.007817727038062721
9.33350e-06;-0.007811805620146454
9.33375e-06;-0.0078058842022302255
9.33400e-06;-0.007799962784313956
9.33425e-06;-0.007794041366397688
9.33450e-06;-0.00778811994848146
9.33475e-06;-0.007782198530565191
9.33500e-06;-0.007776277112648922
9.33525e-06;-0.007770355694732694
9.33550e-06;-0.007764434276816425
9.33575e-06;-0.007758512858900157
9.33600e-06;-0.007752591440983929
9.33625e-06;-0.007748640262212731
9.33650e-06;-0.007747789654261248
9.33675e-06;-0.007746939046309771
9.33700e-06;-0.007746088438358288
9.33725e-06;-0.007745237830406804
9.33750e-06;-0.007744387222455328
9.33775e-06;-0.007743536614503844
9.33800e-06;-0.0077426860065523614
9.33825e-06;-0.007741835398600884
9.33850e-06;-0.007740984790649401
9.33875e-06;-0.0077401341826979185
9.33900e-06;-0.007739283574746441
9.33925e-06;-0.007738432966794958
9.33950e-06;-0.007737582358843475
9.33975e-06;-0.0077404433261192025
9.34000e-06;-0.0077437698551352995
9.34025e-06;-0.007747096384151397
9.34050e-06;-0.007750422913167472
9.34075e-06;-0.007753749442183569
9.34100e-06;-0.007757075971199666
9.34125e-06;-0.007760402500215764
9.34150e-06;-0.007763729029231839
9.34175e-06;-0.007767055558247936
9.34200e-06;-0.007770382087264034
9.34225e-06;-0.007773708616280108
9.34250e-06;-0.0077770351452962055
9.34275e-06;-0.0077803873275021605
9.34300e-06;-0.007783742727518048
9.34325e-06;-0.007787098127533958
9.34350e-06;-0.0077904535275498685
9.34375e-06;-0.007793808927565757
9.34400e-06;-0.007797164327581667
9.34425e-06;-0.007800519727597577
9.34450e-06;-0.007803875127613465
9.34475e-06;-0.007807230527629376
9.34500e-06;-0.007810585927645286
9.34525e-06;-0.007813941327661174
9.34550e-06;-0.007817296727677085
9.34575e-06;-0.007820163133759814
9.34600e-06;-0.00782296820284873
9.34625e-06;-0.007825773271937666
9.34650e-06;-0.007828578341026602
9.34675e-06;-0.007831383410115519
9.34700e-06;-0.007834188479204455
9.34725e-06;-0.00783699354829339
9.34750e-06;-0.007839798617382307
9.34775e-06;-0.007842603686471243
9.34800e-06;-0.007845408755560179
9.34825e-06;-0.007848213824649095
9.34850e-06;-0.007851018893738031
9.34875e-06;-0.007854480204926203
9.34900e-06;-0.007858974246130624
9.34925e-06;-0.007863468287335078
9.34950e-06;-0.00786796232853953
9.34975e-06;-0.007872456369743982
9.35000e-06;-0.007876950410948404
9.35025e-06;-0.007881444452152856
9.35050e-06;-0.007885938493357308
9.35075e-06;-0.007890432534561731
9.35100e-06;-0.007894926575766183
9.35125e-06;-0.007899420616970637
9.35150e-06;-0.007903914658175058
9.35175e-06;-0.007908408699379511
9.35200e-06;-0.007913250763342844
9.35225e-06;-0.007918136481569244
9.35250e-06;-0.007923022199795677
9.35275e-06;-0.00792790791802211
9.35300e-06;-0.00793279363624851
9.35325e-06;-0.007937679354474942
9.35350e-06;-0.007942146705753694
9.35375e-06;-0.007945955671803449
9.35400e-06;-0.00794976463785323
9.35425e-06;-0.007953573603903011
9.35450e-06;-0.007957382569952766
9.35475e-06;-0.007961191536002547
9.35500e-06;-0.007965000502052328
9.35525e-06;-0.007969782140941446
9.35550e-06;-0.00797468578712744
9.35575e-06;-0.007979589433313434
9.35600e-06;-0.007984493079499395
9.35625e-06;-0.00798939672568539
9.35650e-06;-0.007994300371871384
9.35675e-06;-0.007999204018057345
9.35700e-06;-0.008004107664243339
9.35725e-06;-0.008015646176976006
9.35750e-06;-0.00802801693473454
9.35775e-06;-0.008040387692493158
9.35800e-06;-0.008052758450251775
9.35825e-06;-0.008065129208010393
9.35850e-06;-0.008077499965768925
9.35875e-06;-0.008089870723527542
9.35900e-06;-0.00810224148128616
9.35925e-06;-0.00812137450750989
9.35950e-06;-0.008141355759429862
9.35975e-06;-0.008161337011349832
9.36000e-06;-0.008181318263269668
9.36025e-06;-0.008201299515189638
9.36050e-06;-0.00822128076710961
9.36075e-06;-0.008241262019029444
9.36100e-06;-0.008261243270949415
9.36125e-06;-0.008282496230019528
9.36150e-06;-0.008305750478168625
9.36175e-06;-0.00832900472631788
9.36200e-06;-0.008352258974467135
9.36225e-06;-0.008375513222616232
9.36250e-06;-0.008398767470765487
9.36275e-06;-0.008422021718914742
9.36300e-06;-0.008445275967063839
9.36325e-06;-0.008468530215213094
9.36350e-06;-0.008487392478245651
9.36375e-06;-0.008505703832266773
9.36400e-06;-0.008524015186288017
9.36425e-06;-0.008542326540309264
9.36450e-06;-0.008560637894330383
9.36475e-06;-0.00857894924835163
9.36500e-06;-0.008597260602372874
9.36525e-06;-0.008615571956393996
9.36550e-06;-0.00863388331041524
9.36575e-06;-0.008639318326228655
9.36600e-06;-0.008643138197508561
9.36625e-06;-0.008646958068788492
9.36650e-06;-0.008650777940068424
9.36675e-06;-0.008654597811348355
9.36700e-06;-0.008658417682628261
9.36725e-06;-0.008662237553908192
9.36750e-06;-0.008666057425188124
9.36775e-06;-0.008669877296468028
9.36800e-06;-0.008659528478842719
9.36825e-06;-0.008647402410568527
9.36850e-06;-0.008635276342294418
9.36875e-06;-0.008623150274020228
9.36900e-06;-0.008611024205746037
9.36925e-06;-0.008598898137471927
9.36950e-06;-0.008586772069197736
9.36975e-06;-0.008570442527446877
9.37000e-06;-0.008547497967793433
9.37025e-06;-0.008524553408139833
9.37050e-06;-0.008501608848486233
9.37075e-06;-0.008478664288832788
9.37100e-06;-0.008455719729179188
9.37125e-06;-0.008432775169525588
9.37150e-06;-0.008409830609872144
9.37175e-06;-0.008382914826093426
9.37200e-06;-0.008355500911492418
9.37225e-06;-0.008328086996891595
9.37250e-06;-0.008300673082290587
9.37275e-06;-0.008273259167689579
9.37300e-06;-0.008245845253088758
9.37325e-06;-0.00821843133848775
9.37350e-06;-0.008192521655797978
9.37375e-06;-0.008168979187051634
9.37400e-06;-0.008145436718305131
9.37425e-06;-0.008121894249558628
9.37450e-06;-0.008098351780812285
9.37475e-06;-0.008074809312065782
9.37500e-06;-0.008051266843319279
9.37525e-06;-0.008027724374572774
9.37550e-06;-0.00801471311952513
9.37575e-06;-0.008003022848127699
9.37600e-06;-0.007991332576730266
9.37625e-06;-0.007979642305332914
9.37650e-06;-0.007967952033935483
9.37675e-06;-0.007956261762538051
9.37700e-06;-0.007944571491140699
9.37725e-06;-0.007932881219743266
9.37750e-06;-0.007921190948345834
9.37775e-06;-0.007909500676948483
9.37800e-06;-0.007897810405551051
9.37825e-06;-0.007886120134153619
9.37850e-06;-0.007874429862756266
9.37875e-06;-0.007862739591358834
9.37900e-06;-0.007851049319961403
9.37925e-06;-0.007839359048564051
9.37950e-06;-0.007827668777166619
9.37975e-06;-0.007815978505769186
9.38000e-06;-0.007811501033264059
9.38025e-06;-0.007807928298777334
9.38050e-06;-0.007804355564290608
9.38075e-06;-0.007800782829803907
9.38100e-06;-0.007797210095317181
9.38125e-06;-0.007793637360830456
9.38150e-06;-0.007790064626343754
9.38175e-06;-0.007786491891857029
9.38200e-06;-0.0077829191573703035
9.38225e-06;-0.007779346422883602
9.38250e-06;-0.0077757736883968765
9.38275e-06;-0.0077722009539101505
9.38300e-06;-0.0077686282194234495
9.38325e-06;-0.0077650554849367235
9.38350e-06;-0.007761482750449998
9.38375e-06;-0.007757910015963272
9.38400e-06;-0.007754337281476571
9.38425e-06;-0.007750764546989845
9.38450e-06;-0.0077479767748270395
9.38475e-06;-0.007745287464477534
9.38500e-06;-0.00774259815412801
9.38525e-06;-0.007739908843778486
9.38550e-06;-0.00773721953342898
9.38575e-06;-0.007734530223079456
9.38600e-06;-0.007731840912729932
9.38625e-06;-0.007729151602380426
9.38650e-06;-0.007726462292030902
9.38675e-06;-0.007723772981681378
9.38700e-06;-0.007721083671331872
9.38725e-06;-0.007718394360982348
9.38750e-06;-0.007713095355767368
9.38775e-06;-0.007707469003263511
9.38800e-06;-0.007701842650759615
9.38825e-06;-0.007696216298255719
9.38850e-06;-0.007690589945751862
9.38875e-06;-0.007684963593247966
9.38900e-06;-0.00767933724074407
9.38925e-06;-0.0076737108882402125
9.38950e-06;-0.007668084535736317
9.38975e-06;-0.007662458183232421
9.39000e-06;-0.007656831830728563
9.39025e-06;-0.007651205478224668
9.39050e-06;-0.007643719549354202
9.39075e-06;-0.007636000364370075
9.39100e-06;-0.0076282811793858965
9.39125e-06;-0.007620561994401718
9.39150e-06;-0.00761284280941759
9.39175e-06;-0.007605123624433411
9.39200e-06;-0.0075974044394492325
9.39225e-06;-0.007589685254465053
9.39250e-06;-0.007582054171983118
9.39275e-06;-0.007574561736654018
9.39300e-06;-0.007567069301324917
9.39325e-06;-0.007559576865995867
9.39350e-06;-0.007552084430666767
9.39375e-06;-0.007544591995337665
9.39400e-06;-0.007537099560008616
9.39425e-06;-0.007529607124679515
9.39450e-06;-0.007522114689350414
9.39475e-06;-0.007515663021457351
9.39500e-06;-0.007509341902312792
9.39525e-06;-0.0075045121851487736
9.39550e-06;-0.007499869542114336
9.39575e-06;-0.007495226899079868
9.39600e-06;-0.007495278927707306
9.39625e-06;-0.007495919832859069
9.39650e-06;-0.007496560738010837
9.39675e-06;-0.007505211793340648
9.39700e-06;-0.007514867602513809
