Time(s);Current(A)
1.30000e-05;0.0006241904480779327
1.30003e-05;0.0006379296136174755
1.30005e-05;0.0006516687791569253
1.30008e-05;0.0006654079446964681
1.30010e-05;0.0006791471102360109
1.30013e-05;0.000692869551520389
1.30015e-05;0.0007064026820276479
1.30018e-05;0.0007199358125349067
1.30020e-05;0.0007334689430420737
1.30023e-05;0.0007470020735493325
1.30025e-05;0.0007605352040565914
1.30028e-05;0.0007740683345637585
1.30030e-05;0.0007876014650710173
1.30033e-05;0.000801134595578276
1.30035e-05;0.0008125524957867204
1.30038e-05;0.0008224460313683022
1.30040e-05;0.0008323395669498839
1.30043e-05;0.0008422331025313986
1.30045e-05;0.0008521266381129803
1.30048e-05;0.000862020173694562
1.30050e-05;0.0008719137092760768
1.30053e-05;0.0008818072448576584
1.30055e-05;0.0008917369837269992
1.30058e-05;0.0009020765269503803
1.30060e-05;0.0009124160701736913
1.30063e-05;0.0009227556133970723
1.30065e-05;0.0009330951566204534
1.30068e-05;0.0009434346998437644
1.30070e-05;0.0009537742430671454
1.30073e-05;0.0009641137862905265
1.30075e-05;0.0009744533295138375
1.30078e-05;0.0009847928727372184
1.30080e-05;0.0009951324159605994
1.30083e-05;0.0010054719591839104
1.30085e-05;0.0010158115024072915
1.30088e-05;0.001026336614279335
1.30090e-05;0.001038962276817544
1.30093e-05;0.0010515879393558387
1.30095e-05;0.0010642136018941333
1.30098e-05;0.0010768392644323424
1.30100e-05;0.0010894649269706368
1.30103e-05;0.0011020905895089315
1.30105e-05;0.0011147162520471405
1.30108e-05;0.0011273419145854352
1.30110e-05;0.0011399675771237299
1.30113e-05;0.0011525932396619389
1.30115e-05;0.0011652189022002333
1.30118e-05;0.001177844564738528
1.30120e-05;0.0011901797889005054
1.30123e-05;0.001199227385926341
1.30125e-05;0.0012082749829521768
1.30128e-05;0.001217322579977951
1.30130e-05;0.0012263701770037867
1.30133e-05;0.0012354177740296222
1.30135e-05;0.0012444653710553966
1.30138e-05;0.0012535129680812322
1.30140e-05;0.001262560565107068
1.30143e-05;0.0012716081621329035
1.30145e-05;0.0012806557591586779
1.30148e-05;0.0012897033561845134
1.30150e-05;0.001298750953210349
1.30153e-05;0.0013077985502361234
1.30155e-05;0.001316846147261959
1.30158e-05;0.001325358804478756
1.30160e-05;0.0013278161922241198
1.30163e-05;0.0013302735799695
1.30165e-05;0.0013327309677148805
1.30168e-05;0.0013351883554602443
1.30170e-05;0.0013376457432056246
1.30173e-05;0.001340103130951005
1.30175e-05;0.0013425605186963689
1.30178e-05;0.0013450179064417491
1.30180e-05;0.0013474752941871296
1.30183e-05;0.0013499326819324934
1.30185e-05;0.0013523900696778737
1.30188e-05;0.0013548474574232542
1.30190e-05;0.001357304845168618
1.30193e-05;0.0013597622329139982
1.30195e-05;0.0013619719290359096
1.30198e-05;0.0013613778713499074
1.30200e-05;0.001360783813663901
1.30203e-05;0.0013601897559778946
1.30205e-05;0.0013595956982918923
1.30208e-05;0.001359001640605886
1.30210e-05;0.0013584075829198795
1.30213e-05;0.0013578135252338773
1.30215e-05;0.0013572194675478709
1.30218e-05;0.0013566254098618645
1.30220e-05;0.001356031352175862
1.30223e-05;0.0013554372944898558
1.30225e-05;0.001354747970128525
1.30228e-05;0.0013529802713755197
1.30230e-05;0.0013512125726225263
1.30233e-05;0.001349444873869521
1.30235e-05;0.0013476771751165157
1.30238e-05;0.0013459094763635226
1.30240e-05;0.0013441417776105173
1.30243e-05;0.001342374078857512
1.30245e-05;0.0013406063801045187
1.30248e-05;0.0013388386813515134
1.30250e-05;0.001337070982598508
1.30253e-05;0.001335303283845515
1.30255e-05;0.001332948191048412
1.30258e-05;0.001323944071264772
1.30260e-05;0.001314939951481193
1.30263e-05;0.001305935831697553
1.30265e-05;0.0012969317119139133
1.30268e-05;0.0012879275921303345
1.30270e-05;0.0012789234723466945
1.30273e-05;0.0012699193525630545
1.30275e-05;0.0012609152327794756
1.30278e-05;0.0012519111129958359
1.30280e-05;0.001242227149276991
1.30283e-05;0.0012248476688630162
1.30285e-05;0.0012074681884489237
1.30288e-05;0.0011900887080348312
1.30290e-05;0.0011727092276208563
1.30293e-05;0.0011553297472067638
1.30295e-05;0.0011379502667926713
1.30298e-05;0.0011205707863786965
1.30300e-05;0.001103191305964604
1.30303e-05;0.0010858118255505115
1.30305e-05;0.001068178744657522
1.30308e-05;0.001047675024460555
1.30310e-05;0.001027171304263588
1.30313e-05;0.0010066675840666212
1.30315e-05;0.0009861638638697932
1.30318e-05;0.0009656601436728262
1.30320e-05;0.0009451564234758593
1.30323e-05;0.000925809731819372
1.30325e-05;0.0009072968658610665
1.30328e-05;0.000888783999902761
1.30330e-05;0.000870271133944581
1.30333e-05;0.0008517582679862754
1.30335e-05;0.00083324540202797
1.30338e-05;0.0008150695891952495
1.30340e-05;0.0008007090607559662
1.30343e-05;0.0007863485323166828
1.30345e-05;0.0007722334696348647
1.30348e-05;0.0007608969649979115
1.30350e-05;0.0007495604603609583
1.30353e-05;0.0007384270114394431
1.30355e-05;0.0007295920586404606
1.30358e-05;0.0007207571058414782
1.30360e-05;0.0007121583061670008
1.30363e-05;0.000706232649870688
1.30365e-05;0.0007003069935743752
1.30368e-05;0.0006947314585891996
1.30370e-05;0.0006931191337737343
1.30373e-05;0.0006915068089582691
1.30375e-05;0.0006898944841428148
1.30378e-05;0.0006882821593273497
1.30380e-05;0.0006866698345118845
1.30383e-05;0.0006850575096964302
1.30385e-05;0.0006834451848809651
1.30388e-05;0.0006818328600654999
1.30390e-05;0.0006829599082470404
1.30393e-05;0.0006860611165490734
1.30395e-05;0.0006891623248511064
1.30398e-05;0.0006922635331531394
1.30400e-05;0.0006953647414551514
1.30403e-05;0.0006984659497571844
1.30405e-05;0.0007015671580592174
1.30408e-05;0.0007046683663612293
1.30410e-05;0.0007079179344352986
1.30413e-05;0.0007128468660291936
1.30415e-05;0.0007177757976230552
1.30418e-05;0.0007227047292169502
1.30420e-05;0.000727633660810845
1.30423e-05;0.0007325625924047066
1.30425e-05;0.0007374915239986016
1.30428e-05;0.0007424204555924966
1.30430e-05;0.0007468343752035468
1.30433e-05;0.0007508771456066736
1.30435e-05;0.0007549199160098005
1.30438e-05;0.0007589626864129
1.30440e-05;0.0007630054568160268
1.30443e-05;0.0007670482272191537
1.30445e-05;0.0007710909976222532
1.30448e-05;0.0007750136758522751
1.30450e-05;0.000777349274560123
1.30453e-05;0.0007771075052443684
1.30455e-05;0.0007768657359286123
1.30458e-05;0.0007766239666128561
1.30460e-05;0.0007763821972971016
1.30463e-05;0.0007761404279813454
1.30465e-05;0.0007758986586655892
1.30468e-05;0.0007756568893498348
1.30470e-05;0.0007754151200340786
1.30473e-05;0.0007751733507183224
1.30475e-05;0.0007749315814025679
1.30478e-05;0.0007746898120868117
1.30480e-05;0.0007719000948096564
1.30482e-05;0.0007672741700277457
1.30485e-05;0.0007626482452458035
1.30488e-05;0.0007580223204638614
1.30490e-05;0.0007533963956819192
1.30493e-05;0.0007487704709000085
1.30495e-05;0.0007441445461180663
1.30498e-05;0.0007395186213361243
1.30500e-05;0.0007348926965542135
1.30503e-05;0.0007302667717722713
1.30505e-05;0.0007256408469903293
1.30508e-05;0.000720899918381245
1.30510e-05;0.0007148572000113174
1.30513e-05;0.0007088144816413896
1.30515e-05;0.0007027717632715029
1.30518e-05;0.0006967290449015753
1.30520e-05;0.0006906863265316476
1.30523e-05;0.0006846436081617608
1.30525e-05;0.0006786008897918332
1.30528e-05;0.0006725581714219055
1.30530e-05;0.0006666074763962506
1.30533e-05;0.000661698442767863
1.30535e-05;0.0006567894091394754
1.30538e-05;0.0006518803755111211
1.30540e-05;0.0006469713418827336
1.30543e-05;0.000642062308254346
1.30545e-05;0.0006371532746259917
1.30548e-05;0.000632244240997604
1.30550e-05;0.0006273352073692164
1.30553e-05;0.0006222025356844684
1.30555e-05;0.000614538385358887
1.30558e-05;0.0006068742350333056
1.30560e-05;0.0005992100847077761
1.30563e-05;0.0005915459343821946
1.30565e-05;0.0005838817840566132
1.30567e-05;0.0005762176337310837
1.30570e-05;0.0005685534834055023
1.30573e-05;0.0005608893330799209
1.30575e-05;0.0005532251827543394
1.30578e-05;0.0005451701718722526
1.30580e-05;0.0005326908015287538
1.30583e-05;0.0005202114311852548
1.30585e-05;0.0005077320608418406
1.30588e-05;0.0004952526904983417
1.30590e-05;0.0004827733201548428
1.30593e-05;0.0004702939498114285
1.30595e-05;0.0004578145794679296
1.30598e-05;0.0004453352091244307
1.30600e-05;0.0004328558387810164
1.30603e-05;0.00042021251530722673
1.30605e-05;0.0004057133187573492
1.30608e-05;0.00039121412220756994
1.30610e-05;0.0003767149256576924
1.30613e-05;0.00036221572910781485
1.30615e-05;0.0003477469840642754
1.30618e-05;0.0003336229358889852
1.30620e-05;0.0003194988877136949
1.30623e-05;0.0003053748395385004
1.30625e-05;0.00029125079136321016
1.30628e-05;0.0002772440234591413
1.30630e-05;0.00026456481360415254
1.30633e-05;0.00025188560374907784
1.30635e-05;0.00023932700178171064
1.30638e-05;0.000228133624932381
1.30640e-05;0.00021703507180546581
1.30643e-05;0.00020708677796713366
1.30645e-05;0.0001981050044475703
1.30648e-05;0.0001903243878803303
1.30650e-05;0.00018395144585269573
1.30652e-05;0.0001790505618917314
1.30655e-05;0.00017561398015509156
1.30658e-05;0.00017363329199825345
1.30660e-05;0.00017310010961199679
1.30663e-05;0.00017400830176694646
1.30665e-05;0.00017638302919675236
1.30668e-05;0.00018030506425744495
1.30670e-05;0.00018583755739417487
1.30673e-05;0.00019295461785862658
1.30675e-05;0.00020158515675615867
1.30678e-05;0.00021165772300171644
1.30680e-05;0.00022310084859613835
1.30683e-05;0.00023589465655915242
1.30685e-05;0.0002504061392909589
1.30688e-05;0.0002651124035823128
1.30690e-05;0.00028202350441133297
1.30693e-05;0.00029910078447238376
1.30695e-05;0.0003180591360472219
1.30698e-05;0.0003371729918963988
1.30700e-05;0.00035804708370835634
1.30703e-05;0.0003789211755204554
1.30705e-05;0.00039993824168222525
1.30708e-05;0.0004225737108952
1.30710e-05;0.00044520918010832806
1.30713e-05;0.00046784464932145617
1.30715e-05;0.0004904801185344309
1.30718e-05;0.0005130821973993146
1.30720e-05;0.0005353063130727672
1.30723e-05;0.0005575304287460692
1.30725e-05;0.0005797545444195219
1.30728e-05;0.0006019786600929745
1.30730e-05;0.0006239939822223502
1.30733e-05;0.0006436458586744187
1.30735e-05;0.0006632977351264872
1.30737e-05;0.0006826680701972748
1.30740e-05;0.0006988514879533853
1.30743e-05;0.0007150349057094957
1.30745e-05;0.0007310005782655819
1.30748e-05;0.00074450147656585
1.30750e-05;0.0007580023748662097
1.30753e-05;0.000771249517743532
1.30755e-05;0.000781624267411012
1.30758e-05;0.0007919990170785625
1.30760e-05;0.0008023737667461129
1.30763e-05;0.000812748516413593
1.30765e-05;0.0008231232660811433
1.30768e-05;0.0008334980157486937
1.30770e-05;0.0008438727654161738
1.30773e-05;0.0008542475150837242
1.30775e-05;0.0008646222647512745
1.30778e-05;0.0008731689743373007
1.30780e-05;0.0008803982861701648
1.30783e-05;0.0008876275980030288
1.30785e-05;0.0008948569098358439
1.30788e-05;0.0009020862216687079
1.30790e-05;0.000909315533501572
1.30793e-05;0.000916544845334387
1.30795e-05;0.000923774157167251
1.30798e-05;0.000931003469000115
1.30800e-05;0.000937997852628907
1.30803e-05;0.000942332958397312
1.30805e-05;0.0009466680641657169
1.30808e-05;0.0009510031699340924
1.30810e-05;0.0009553382757024973
1.30813e-05;0.0009596733814709023
1.30815e-05;0.0009640084872392777
1.30818e-05;0.0009683435930076827
1.30820e-05;0.0009726786987760875
1.30822e-05;0.000977013804544463
1.30825e-05;0.000981348910312868
1.30828e-05;0.000985684016081273
1.30830e-05;0.0009900191218496777
1.30833e-05;0.0009943542276180533
1.30835e-05;0.0009986893333864583
1.30838e-05;0.001003024439154863
1.30840e-05;0.0010073595449232387
1.30843e-05;0.0010116946506916434
1.30845e-05;0.0010160297564600484
1.30848e-05;0.001020364862228424
1.30850e-05;0.0010244455859418928
1.30853e-05;0.00102564682326093
1.30855e-05;0.0010268480605799594
1.30858e-05;0.0010280492978989965
1.30860e-05;0.001029250535218034
1.30863e-05;0.0010304517725370631
1.30865e-05;0.0010316530098561003
1.30868e-05;0.0010328542471751377
1.30870e-05;0.0010340554844941669
1.30873e-05;0.0010352567218132043
1.30875e-05;0.0010364579591322415
1.30878e-05;0.0010376591964512706
1.30880e-05;0.001038860433770308
1.30883e-05;0.0010400616710893454
1.30885e-05;0.0010412629084083746
1.30888e-05;0.0010424641457274118
1.30890e-05;0.0010436653830464492
1.30893e-05;0.0010448666203654784
1.30895e-05;0.0010460678576845156
1.30898e-05;0.001047269095003553
1.30900e-05;0.0010483811657600484
1.30903e-05;0.001048483912553501
1.30905e-05;0.0010485866593469536
1.30907e-05;0.0010486894061404054
1.30910e-05;0.0010487921529338578
1.30913e-05;0.0010488948997273103
1.30915e-05;0.0010489976465207628
1.30918e-05;0.0010491003933142146
1.30920e-05;0.0010492031401076673
1.30923e-05;0.0010491859026250088
1.30925e-05;0.001049082197117142
1.30928e-05;0.0010489784916092744
1.30930e-05;0.0010488747861014068
1.30933e-05;0.00104877108059354
1.30935e-05;0.0010486673750856725
1.30938e-05;0.0010485636695778048
1.30940e-05;0.001048459964069938
1.30943e-05;0.0010482424547258132
1.30945e-05;0.0010467367389533036
1.30948e-05;0.0010452310231808043
1.30950e-05;0.0010433153972192826
1.30953e-05;0.0010367597788114571
1.30955e-05;0.0010302041604036759
1.30958e-05;0.0010232612133271766
1.30960e-05;0.001011933886098094
1.30963e-05;0.0010006065588690882
1.30965e-05;0.000988830313284313
1.30968e-05;0.0009719725209714128
1.30970e-05;0.0009551147286586268
1.30973e-05;0.0009377597208146263
1.30975e-05;0.000914776464708051
1.30978e-05;0.0008917932086016314
1.30980e-05;0.0008684169225359591
1.30983e-05;0.0008405917203639578
1.30985e-05;0.0008127665181921453
1.30988e-05;0.0007845530187621882
1.30990e-05;0.0007519441751984427
1.30992e-05;0.0007193353316349183
1.30995e-05;0.0006864352733961765
1.30998e-05;0.0006502388006520295
1.31000e-05;0.0006140423279078825
1.31003e-05;0.0005776608205282872
1.31005e-05;0.0005391848072408509
1.31008e-05;0.0005007087939534147
1.31010e-05;0.0004622327806662392
1.31013e-05;0.00042371574348301215
1.31015e-05;0.00038473433490373714
1.31018e-05;0.0003457529263247263
1.31020e-05;0.0003067715177454513
1.31023e-05;0.00026793353776806606
1.31025e-05;0.0002307191027716053
1.31028e-05;0.00019362154521483953
1.31030e-05;0.00015794457832059525
1.31033e-05;0.00012349031882710092
1.31035e-05;9.051028600665755e-05
1.31038e-05;5.9256367901371094e-05
1.31040e-05;2.9980387861225275e-05
1.31043e-05;2.920597361391378e-06
1.31045e-05;-2.1873415172746207e-05
1.31048e-05;-4.476134133814098e-05
1.31050e-05;-6.619571942849002e-05
1.31053e-05;-8.627168454888084e-05
1.31055e-05;-0.00010486626868570069
1.31058e-05;-0.00012185447993514922
1.31060e-05;-0.00013711135117394472
1.31063e-05;-0.0001505204604559245
1.31065e-05;-0.000162083555080676
1.31068e-05;-0.0001720587385620422
1.31070e-05;-0.0001807622785887697
1.31073e-05;-0.000188286511662655
1.31075e-05;-0.0001945871652311199
1.31077e-05;-0.00019961874410110372
1.31080e-05;-0.0002033356968569573
1.31083e-05;-0.00020569790666775275
1.31085e-05;-0.0002067392245507423
1.31088e-05;-0.000206654109752425
1.31090e-05;-0.00020567341804295157
1.31093e-05;-0.00020385542240654463
1.31095e-05;-0.00020093631548770175
1.31098e-05;-0.00019788865253930277
1.31100e-05;-0.0001933857952025283
1.31103e-05;-0.0001887667508411524
1.31105e-05;-0.00018283252346677008
1.31108e-05;-0.00017682874782908446
1.31110e-05;-0.00017003771823801716
1.31113e-05;-0.00016319310517825254
1.31115e-05;-0.00015574195220599638
1.31118e-05;-0.00014829079923379073
1.31120e-05;-0.0001408046066677678
1.31123e-05;-0.00013292178221743566
1.31125e-05;-0.00012503895776715693
1.31128e-05;-0.0001171561333168248
1.31130e-05;-0.00010963971067332189
1.31133e-05;-0.00010238733963492776
1.31135e-05;-9.513496859648449e-05
1.31138e-05;-8.79523739629385e-05
1.31140e-05;-8.159847743682263e-05
1.31143e-05;-7.57210368484514e-05
1.31145e-05;-7.02574341771293e-05
1.31148e-05;-6.479383150584423e-05
1.31150e-05;-5.9287460493502125e-05
1.31153e-05;-5.3296971776868135e-05
1.31155e-05;-4.728127197725793e-05
1.31158e-05;-4.0969915302832944e-05
1.31160e-05;-3.453681988250666e-05
1.31162e-05;-2.8037134303335335e-05
1.31165e-05;-2.1454776517903036e-05
1.31168e-05;-1.4626541767011953e-05
1.31170e-05;-7.374315147152696e-06
1.31173e-05;3.2679479182331014e-07
1.31175e-05;8.413787687457263e-06
1.31178e-05;1.6822859859775676e-05
1.31180e-05;2.5490214131115923e-05
1.31183e-05;3.435529912716654e-05
1.31185e-05;4.340217893705296e-05
1.31188e-05;5.270707319621733e-05
1.31190e-05;6.236661325643667e-05
1.31193e-05;7.246254650495843e-05
1.31195e-05;8.259602824402366e-05
1.31198e-05;9.315454141180356e-05
1.31200e-05;0.00010371305457958345
1.31203e-05;0.00011429156905297708
1.31205e-05;0.00012509648899287917
1.31208e-05;0.00013590140893278129
1.31210e-05;0.00014670632887261016
1.31213e-05;0.00015751124881251225
1.31215e-05;0.00016817352834145948
1.31218e-05;0.00017873301244528944
1.31220e-05;0.00018929249654919096
1.31223e-05;0.0001998519806530925
1.31225e-05;0.00021033485104083094
1.31228e-05;0.00021995048983862323
1.31230e-05;0.00022956612863641554
1.31233e-05;0.0002390852636426668
1.31235e-05;0.00024751202066757835
1.31238e-05;0.0002559387776924899
1.31240e-05;0.00026425837604864
1.31243e-05;0.00027136498817467253
1.31245e-05;0.00027847160030070506
1.31247e-05;0.0002857131739425167
1.31250e-05;0.0002944824490974351
1.31253e-05;0.00030343378244385947
1.31255e-05;0.00031444592974101085
1.31258e-05;0.0003256003958960569
1.31260e-05;0.00033836584525141327
1.31263e-05;0.00035126989502637357
1.31265e-05;0.000365742837010698
1.31268e-05;0.00038044996973972205
1.31270e-05;0.0003978080326449815
1.31273e-05;0.0004153982959615907
1.31275e-05;0.0004356169598105273
1.31278e-05;0.0004560169057981904
1.31280e-05;0.0004784688811809028
1.31283e-05;0.0005011203623578428
1.31285e-05;0.0005260301562227785
1.31288e-05;0.0005509399500875453
1.31290e-05;0.0005761120143402232
1.31293e-05;0.0006042528572548045
1.31295e-05;0.0006323937001691951
1.31298e-05;0.0006607266201621547
1.31300e-05;0.0006912337632410347
1.31303e-05;0.0007217409063197078
1.31305e-05;0.0007522480493985877
1.31308e-05;0.0007827551924774676
1.31310e-05;0.0008132623355561407
1.31313e-05;0.0008439337997979519
1.31315e-05;0.0008747236839439161
1.31318e-05;0.0009055135680896718
1.31320e-05;0.0009363034522356361
1.31323e-05;0.0009670933363816003
1.31325e-05;0.0009975564154542915
1.31328e-05;0.0010243202132766153
1.31330e-05;0.001051084011098939
1.31332e-05;0.0010778478089210814
1.31335e-05;0.001104611606743405
1.31338e-05;0.0011313754045657288
1.31340e-05;0.0011527300739675968
1.31343e-05;0.0011701865938082718
1.31345e-05;0.001187643113649065
1.31348e-05;0.001205099633489858
1.31350e-05;0.001222556153330533
1.31353e-05;0.0012391444419391385
1.31355e-05;0.0012459047572878584
1.31358e-05;0.0012526650726365325
1.31360e-05;0.0012587728989117268
1.31363e-05;0.0012574948527035977
1.31365e-05;0.0012562168064954773
1.31368e-05;0.0012542664489921574
1.31370e-05;0.001244705840687099
1.31373e-05;0.001235145232382105
1.31375e-05;0.0012249635456492514
1.31378e-05;0.001207751540317139
1.31380e-05;0.0011905395349851434
1.31383e-05;0.0011727754903883612
1.31385e-05;0.0011487626183704412
1.31388e-05;0.0011247497463526838
1.31390e-05;0.001100264838980296
1.31393e-05;0.0010704367111962624
1.31395e-05;0.0010406085834124307
1.31398e-05;0.001010350292000336
1.31400e-05;0.0009752227486217146
1.31403e-05;0.0009400952052433313
1.31405e-05;0.00090496766186471
1.31408e-05;0.0008698401184860885
1.31410e-05;0.0008344953899585008
1.31413e-05;0.0007966922266722023
1.31415e-05;0.0007588890633859037
1.31418e-05;0.0007210859000998614
1.31420e-05;0.000683282736813563
1.31423e-05;0.0006456018917224878
1.31425e-05;0.0006093056316449815
1.31428e-05;0.0005730093715677211
1.31430e-05;0.0005369389475602405
1.31433e-05;0.0005034248827071609
1.31435e-05;0.000470184373489526
1.31438e-05;0.00044004038668418385
1.31440e-05;0.0004101520968515572
1.31443e-05;0.00038334967962570663
1.31445e-05;0.00035890399657030863
1.31448e-05;0.0003367759721640211
1.31450e-05;0.00031683984231922166
1.31453e-05;0.0002990872523444982
1.31455e-05;0.00028359422938504836
1.31458e-05;0.00027043755643293076
1.31460e-05;0.00025969408016732415
1.31463e-05;0.0002514367676259253
