Time(s);Current(A)
7.25000e-06;0.00020842871971580052
7.25025e-06;0.0002135177261191458
7.25050e-06;0.00021860673252247387
7.25075e-06;0.00022369573892581915
7.25100e-06;0.00022931085406429396
7.25125e-06;0.00023534985107063046
7.25150e-06;0.0002413888480769874
7.25175e-06;0.0002474278450833239
7.25200e-06;0.0002534668420896604
7.25225e-06;0.0002595058390960173
7.25250e-06;0.00026554483610235385
7.25275e-06;0.0002715785648834462
7.25300e-06;0.00027760804909493384
7.25325e-06;0.00028363753330640104
7.25350e-06;0.00028966701751786825
7.25375e-06;0.00029537142137767294
7.25400e-06;0.0003008139104326583
7.25425e-06;0.0003062563994876436
7.25450e-06;0.0003116988885426474
7.25475e-06;0.00031682002852173813
7.25500e-06;0.000321510315032035
7.25525e-06;0.0003258681855232766
7.25550e-06;0.0003297515364522026
7.25575e-06;0.00033272110968356173
7.25600e-06;0.0003341709858306226
7.25625e-06;0.00033374668348634163
7.25650e-06;0.00033142067501490445
7.25675e-06;0.00032726911795949584
7.25700e-06;0.00032136835166739946
7.25725e-06;0.00031379473160369716
7.25750e-06;0.0003045604128167549
7.25775e-06;0.00029349142369738593
7.25800e-06;0.0002803094158106941
7.25825e-06;0.0002648935598349782
7.25850e-06;0.0002473278504870603
7.25875e-06;0.00022776120847675034
7.25900e-06;0.00020634268571067418
7.25925e-06;0.00018322131820673696
7.25950e-06;0.00015850591323598862
7.25975e-06;0.00013218870198451754
7.26000e-06;0.00010419652585614417
7.26025e-06;7.455492194624528e-05
7.26050e-06;4.341771613005937e-05
7.26075e-06;1.0979401939476261e-05
7.26100e-06;-2.256547692274636e-05
7.26125e-06;-5.702238610220816e-05
7.26150e-06;-9.222200094562548e-05
7.26175e-06;-0.00012822472597344564
7.26200e-06;-0.0001646314132596624
7.26225e-06;-0.0002014731031005261
7.26250e-06;-0.00023866527124162047
7.26275e-06;-0.0002758574393827148
7.26300e-06;-0.000312608030241189
7.26325e-06;-0.0003490028455898986
7.26350e-06;-0.00038539766093873153
7.26375e-06;-0.000420728404542716
7.26400e-06;-0.0004552018335110562
7.26425e-06;-0.0004883776972202222
7.26450e-06;-0.000520508122317643
7.26475e-06;-0.0005508177654183392
7.26500e-06;-0.0005796604181006518
7.26525e-06;-0.0006061434538791859
7.26550e-06;-0.000630725363990196
7.26575e-06;-0.0006523849840319222
7.26600e-06;-0.0006716901368504828
7.26625e-06;-0.0006877707420838975
7.26650e-06;-0.0007012533534774991
7.26675e-06;-0.0007114347286888604
7.26700e-06;-0.0007189563226320986
7.26725e-06;-0.0007231087276556367
7.26750e-06;-0.0007245466023993516
7.26775e-06;-0.0007225324103826509
7.26800e-06;-0.000717736914030634
7.26825e-06;-0.0007095696660251743
7.26850e-06;-0.0006986858229645546
7.26875e-06;-0.0006846517677137666
7.26900e-06;-0.0006680796100942455
7.26925e-06;-0.0006485842920428244
7.26950e-06;-0.0006267338055240092
7.26975e-06;-0.0006021778458771541
7.27000e-06;-0.0005754421067931028
7.27025e-06;-0.0005468666633893114
7.27050e-06;-0.0005157170660246126
7.27075e-06;-0.00048269906744717107
7.27100e-06;-0.00044799911978112505
7.27125e-06;-0.0004118036943999158
7.27150e-06;-0.0003742964841479547
7.27175e-06;-0.0003356573105223643
7.27200e-06;-0.0002960759950121215
7.27225e-06;-0.0002557673302944168
7.27250e-06;-0.0002149648734833328
7.27275e-06;-0.00017390699950208595
7.27300e-06;-0.00013283207924485565
7.27325e-06;-9.19784481232573e-05
7.27350e-06;-5.1582672837389504e-05
7.27375e-06;-1.1878916670632745e-05
7.27400e-06;2.6892437521395323e-05
7.27425e-06;6.447538884339778e-05
7.27450e-06;0.00010060217841235795
7.27475e-06;0.00013500205465790863
7.27500e-06;0.00016740430091051695
7.27525e-06;0.00019753822568938562
7.27550e-06;0.00022520620441354795
7.27575e-06;0.00025044452411820896
7.27600e-06;0.000273483011754303
7.27625e-06;0.00029446555317908814
7.27650e-06;0.0003133539126073576
7.27675e-06;0.00033004621097352003
7.27700e-06;0.00034444050382315784
7.27725e-06;0.00035643486641009925
7.27750e-06;0.0003659731226307636
7.27775e-06;0.0003731456261885878
7.27800e-06;0.0003781639710772125
7.27825e-06;0.00038118592450882613
7.27850e-06;0.00038225513030499495
7.27875e-06;0.0003813753818178654
7.27900e-06;0.0003785504173237517
7.27925e-06;0.0003737840104663991
7.27950e-06;0.0003666365645057211
7.27975e-06;0.0003582680636481071
7.28000e-06;0.00034822631527709874
7.28025e-06;0.0003368364439163647
7.28050e-06;0.00032401540666962596
7.28075e-06;0.00031004128978731664
7.28100e-06;0.0002947908992883854
7.28125e-06;0.0002785122246951349
7.28150e-06;0.000261169580436591
7.28175e-06;0.00024296970378728577
7.28200e-06;0.00022398900731041336
7.28225e-06;0.0002043792101465469
7.28250e-06;0.00018476941298268043
7.28275e-06;0.0001647813171050678
7.28300e-06;0.00014448842878718977
7.28325e-06;0.00012419554046931173
7.28350e-06;0.00010403426961417966
7.28375e-06;8.397904196315171e-05
7.28400e-06;6.428649552787096e-05
7.28425e-06;4.5252031176239846e-05
7.28450e-06;2.6954197536208826e-05
7.28475e-06;9.530159227624159e-06
7.28500e-06;-6.882948322235739e-06
7.28525e-06;-2.2147998487611606e-05
7.28550e-06;-3.627358040847092e-05
7.28575e-06;-4.970505433683585e-05
7.28600e-06;-6.317308528886205e-05
7.28625e-06;-7.711123096810357e-05
7.28650e-06;-9.15961034421536e-05
7.28675e-06;-0.00010632423144999955
7.28700e-06;-0.00012119996848643488
7.28725e-06;-0.00013619500775094375
7.28750e-06;-0.0001511903489401494
7.28775e-06;-0.00016664213878933888
7.28800e-06;-0.000182461685905164
7.28825e-06;-0.0001992005694107414
7.28850e-06;-0.00021668015536013214
7.28875e-06;-0.00023482227244140424
7.28900e-06;-0.0002534981858936383
7.28925e-06;-0.0002726656579946564
7.28950e-06;-0.00029222917521745824
7.28975e-06;-0.0003117926924403264
7.29000e-06;-0.0003322939391740955
7.29025e-06;-0.00035355070755159327
7.29050e-06;-0.0003748074759291631
7.29075e-06;-0.000396746708349073
7.29100e-06;-0.00041923579693653587
7.29125e-06;-0.00044172488552407497
7.29150e-06;-0.00046421397411153785
7.29175e-06;-0.0004867030626990008
7.29200e-06;-0.0005092813988904832
7.29225e-06;-0.0005319316412079511
7.29250e-06;-0.0005545818835254191
7.29275e-06;-0.0005772321258429638
7.29300e-06;-0.0005998823681604317
7.29325e-06;-0.0006217502556964798
7.29350e-06;-0.0006429878058445994
7.29375e-06;-0.0006642253559927189
7.29400e-06;-0.0006844009565758011
7.29425e-06;-0.0007037209523478947
7.29450e-06;-0.0007230409481199882
7.29475e-06;-0.0007407428542517337
7.29500e-06;-0.0007571410776791685
7.29525e-06;-0.0007735393011066031
7.29550e-06;-0.0007875255999248134
7.29575e-06;-0.0007995686291499344
7.29600e-06;-0.0008116116583750553
7.29625e-06;-0.0008205807395703298
7.29650e-06;-0.000827073163860957
7.29675e-06;-0.0008335655881515843
7.29700e-06;-0.0008368795027284428
7.29725e-06;-0.0008376325158351266
7.29750e-06;-0.0008383855289418131
7.29775e-06;-0.0008358363011878426
7.29800e-06;-0.0008306264827054436
7.29825e-06;-0.000825416664223027
7.29850e-06;-0.0008170324192083703
7.29875e-06;-0.0008060905625124103
7.29900e-06;-0.0007951487058164133
7.29925e-06;-0.000781389109988918
7.29950e-06;-0.0007653592828474045
7.29975e-06;-0.0007493294557058367
7.30000e-06;-0.0007311848037677841
7.30025e-06;-0.0007113362533307658
7.30050e-06;-0.0006900677550115775
7.30075e-06;-0.0006676552153189819
7.30100e-06;-0.0006441056599915813
7.30125e-06;-0.000619640019683163
7.30150e-06;-0.0005943085138594367
7.30175e-06;-0.0005682793866750469
7.30200e-06;-0.000541648532842204
7.30225e-06;-0.0005145328723554611
7.30250e-06;-0.00048717220485647815
7.30275e-06;-0.0004595693617334599
7.30300e-06;-0.0004319745418399142
7.30325e-06;-0.0004045482559325308
7.30350e-06;-0.0003774483329462003
7.30375e-06;-0.00035082637459279113
7.30400e-06;-0.00032483486537630715
7.30425e-06;-0.0002999313044794774
7.30450e-06;-0.0002756526562818265
7.30475e-06;-0.00025235010338413755
7.30500e-06;-0.00023061837308417687
7.30525e-06;-0.00021040320623765823
7.30550e-06;-0.0001918136171437228
7.30575e-06;-0.00017473458081037382
7.30600e-06;-0.00015888186631589257
7.30625e-06;-0.0001440826169684022
7.30650e-06;-0.00013035790091423994
7.30675e-06;-0.00011779441867380613
7.30700e-06;-0.00010647897499976114
7.30725e-06;-9.649834374552029e-05
7.30750e-06;-8.789423176830978e-05
7.30775e-06;-8.05679940412529e-05
7.30800e-06;-7.431501821184715e-05
7.30825e-06;-6.900046160289372e-05
7.30850e-06;-6.461097837351207e-05
7.30875e-06;-6.117431353541595e-05
7.30900e-06;-5.871828021953215e-05
7.30925e-06;-5.7270679917265846e-05
7.30950e-06;-5.6831065116053864e-05
7.30975e-06;-5.731108376760613e-05
7.31000e-06;-5.855601648386842e-05
7.31025e-06;-6.045485502134605e-05
7.31050e-06;-6.297270247590512e-05
7.31075e-06;-6.610040109990717e-05
7.31100e-06;-6.982883652467963e-05
7.31125e-06;-7.414889119235344e-05
7.31150e-06;-7.903374771299547e-05
7.31175e-06;-8.44849528567068e-05
7.31200e-06;-9.019600478318927e-05
7.31225e-06;-9.617504773600643e-05
7.31250e-06;-0.000102370009051514
7.31275e-06;-0.0001087989291878295
7.31300e-06;-0.0001154163481937365
7.31325e-06;-0.00012203376719966595
7.31350e-06;-0.00012864804130552945
7.31375e-06;-0.0001352070094256478
7.31400e-06;-0.00014176597754578837
7.31425e-06;-0.00014832494566590672
7.31450e-06;-0.00015442293448299815
7.31475e-06;-0.00016014951572834848
7.31500e-06;-0.00016587609697369884
7.31525e-06;-0.00017105941359714385
7.31550e-06;-0.00017580502598375794
7.31575e-06;-0.00018055063837037205
7.31600e-06;-0.00018567533118515753
7.31625e-06;-0.00019110544626156037
7.31650e-06;-0.0001965355613379632
7.31675e-06;-0.0002025069209359588
7.31700e-06;-0.00020891435719101395
7.31725e-06;-0.00021532179344606914
7.31750e-06;-0.00022222766797380273
7.31775e-06;-0.00022953513048445557
7.31800e-06;-0.00023684259299510844
7.31825e-06;-0.0002450633665166568
7.31850e-06;-0.00025401998787886364
7.31875e-06;-0.00026297660924110087
7.31900e-06;-0.00027259870592424076
7.31925e-06;-0.00028275697108898364
7.31950e-06;-0.0002929152362537609
7.31975e-06;-0.0003037101553874057
7.32000e-06;-0.00031501802185518956
7.32025e-06;-0.00032632588832301175
7.32050e-06;-0.0003383791073512533
7.32075e-06;-0.00035103285135467836
7.32100e-06;-0.00036368659535814625
7.32125e-06;-0.0003763403393615713
7.32150e-06;-0.00038899408336499637
7.32175e-06;-0.00040164782736846425
7.32200e-06;-0.00041451202983262575
7.32225e-06;-0.0004275457971022396
7.32250e-06;-0.0004405795643718976
7.32275e-06;-0.00045361333164151146
7.32300e-06;-0.00046664709891116945
7.32325e-06;-0.0004796808661807833
7.32350e-06;-0.0004923125133166016
7.32375e-06;-0.0005046201752726071
7.32400e-06;-0.0005164405710099025
7.32425e-06;-0.0005273249494774707
7.32450e-06;-0.0005377470930957947
7.32475e-06;-0.000545100347765074
7.32500e-06;-0.0005568184044445402
7.32525e-06;-0.0005657323584472878
7.32550e-06;-0.0005755883016822464
7.32575e-06;-0.000582586079918163
7.32600e-06;-0.0005907909795484645
7.32625e-06;-0.0005983473066990107
7.32650e-06;-0.0006058458034868007
7.32675e-06;-0.0006144213203424613
7.32700e-06;-0.0006216555479847558
7.32725e-06;-0.0006292087247200338
7.32750e-06;-0.0006367619014552862
7.32775e-06;-0.0006443150781905386
7.32800e-06;-0.0006518682549258166
7.32825e-06;-0.000659421431661069
7.32850e-06;-0.0006669746083963214
7.32875e-06;-0.0006745277851315993
7.32900e-06;-0.0006820809618668517
7.32925e-06;-0.000689933012279448
7.32950e-06;-0.0006979872611037541
7.32975e-06;-0.0007060415099280331
7.33000e-06;-0.000714095758752312
7.33025e-06;-0.0007221500075766183
7.33050e-06;-0.0007302042564008973
7.33075e-06;-0.0007382585052251762
7.33100e-06;-0.0007463127540494824
7.33125e-06;-0.0007543598861018361
7.33150e-06;-0.0007623403618519044
7.33175e-06;-0.0007703208376019455
7.33200e-06;-0.0007783013133519867
7.33225e-06;-0.000786281789102055
7.33250e-06;-0.0007942622648520962
7.33275e-06;-0.0008022427406021373
7.33300e-06;-0.0008102232163522056
7.33325e-06;-0.0008182036921022468
7.33350e-06;-0.0008251936093746277
7.33375e-06;-0.0008315133794710656
7.33400e-06;-0.0008378331495674821
7.33425e-06;-0.0008441529196638986
7.33450e-06;-0.0008504726897603364
7.33475e-06;-0.0008567924598567529
7.33500e-06;-0.0008631122299531693
7.33525e-06;-0.0008694320000496073
7.33550e-06;-0.0008755584611010653
7.33575e-06;-0.0008798743728932986
7.33600e-06;-0.0008841902846855173
7.33625e-06;-0.0008885061964777359
7.33650e-06;-0.0008928221082699693
7.33675e-06;-0.0008971380200621879
7.33700e-06;-0.0009014539318544067
7.33725e-06;-0.00090576984364664
7.33750e-06;-0.0009100857554388586
7.33775e-06;-0.0009144016672310774
7.33800e-06;-0.0009186959391613345
7.33825e-06;-0.0009227875302699249
7.33850e-06;-0.0009268791213785152
7.33875e-06;-0.0009309707124871194
7.33900e-06;-0.0009350623035957097
7.33925e-06;-0.0009391538947043001
7.33950e-06;-0.0009432454858129043
7.33975e-06;-0.0009473370769214947
7.34000e-06;-0.0009514286680300989
7.34025e-06;-0.0009555202591386893
7.34050e-06;-0.0009596187209412778
7.34075e-06;-0.0009637815342589791
7.34100e-06;-0.0009679443475766664
7.34125e-06;-0.0009721071608943537
7.34150e-06;-0.000976269974212055
7.34175e-06;-0.0009804327875297422
7.34200e-06;-0.0009845956008474295
7.34225e-06;-0.0009887584141651307
7.34250e-06;-0.000992921227482818
7.34275e-06;-0.0009967341260621587
7.34300e-06;-0.0010003102951813333
7.34325e-06;-0.001003886464300496
7.34350e-06;-0.0010074626334196583
7.34375e-06;-0.0010110388025388328
7.34400e-06;-0.0010146149716579952
7.34425e-06;-0.0010181911407771698
7.34450e-06;-0.0010217673098963322
7.34475e-06;-0.0010252680998953725
7.34500e-06;-0.001028062882526481
7.34525e-06;-0.0010307802539952708
7.34550e-06;-0.001032772585813017
7.34575e-06;-0.0010344401287841643
7.34600e-06;-0.0010330656712870146
7.34625e-06;-0.0010312491402379627
7.34650e-06;-0.0010252921100123973
7.34675e-06;-0.0010189309762247483
7.34700e-06;-0.0010087849734739046
7.34725e-06;-0.0009982579540602171
7.34750e-06;-0.0009841622995819205
7.34775e-06;-0.0009695796808265239
7.34800e-06;-0.0009504361124745941
7.34825e-06;-0.0009307811368752379
7.34850e-06;-0.0009063362767017658
7.34875e-06;-0.0008814528215934918
7.34900e-06;-0.0008524614483376429
7.34925e-06;-0.0008230949487647973
7.34950e-06;-0.0007902149836177938
7.34975e-06;-0.0007570428848261082
7.35000e-06;-0.0007209339721897131
7.35025e-06;-0.0006827652832262096
7.35050e-06;-0.0006427513893667868
7.35075e-06;-0.0006011424615227042
7.35100e-06;-0.0005581886180131938
7.35125e-06;-0.0005141388513092401
7.35150e-06;-0.00046922059487666763
7.35175e-06;-0.0004235478855602324
7.35200e-06;-0.0003771491711983984
7.35225e-06;-0.00033016219766973545
7.35250e-06;-0.00028284836429569315
7.35275e-06;-0.00023549131279618313
7.35300e-06;-0.00018837463562081035
7.35325e-06;-0.00014178114040645787
7.35350e-06;-9.598023212798515e-05
7.35375e-06;-5.11701493083323e-05
7.35400e-06;-7.495554458983256e-06
7.35425e-06;3.483040681810751e-05
7.35450e-06;7.551717426038716e-05
7.35475e-06;0.00011426031130267486
7.35500e-06;0.0001507553812810385
7.35525e-06;0.0001847022858758365
7.35550e-06;0.00021588327008999057
7.35575e-06;0.0002445266675692307
7.35600e-06;0.00027126648867946976
7.35625e-06;0.00029644008819105106
7.35650e-06;0.00031997114509376985
7.35675e-06;0.00034170418672517115
7.35700e-06;0.00036148374042309594
7.35725e-06;0.0003791569979380372
7.35750e-06;0.0003945445515777727
7.35775e-06;0.00040732624087056726
7.35800e-06;0.0004198339967890773
7.35825e-06;0.00042977606899991075
7.35850e-06;0.0004394443411975532
7.35875e-06;0.0004465481787584155
7.35900e-06;0.00045335505079391607
7.35925e-06;0.0004573805179997224
7.35950e-06;0.0004611334289593244
7.35975e-06;0.0004623335545120383
7.36000e-06;0.00046334450955489326
7.36025e-06;0.00046258367721909333
7.36050e-06;0.0004616031370381141
7.36075e-06;0.00045856479415118894
7.36100e-06;0.00045552645126427415
7.36125e-06;0.0004522427830488857
7.36150e-06;0.000446661376560473
7.36175e-06;0.0004410799700720793
7.36200e-06;0.0004353667149183538
7.36225e-06;0.0004284185537466046
7.36250e-06;0.00042147039257485534
7.36275e-06;0.00041444233364248414
7.36300e-06;0.000406665945364874
7.36325e-06;0.00039888955708726383
7.36350e-06;0.00039109539108294115
7.36375e-06;0.000383134717350879
7.36400e-06;0.0003751740436188168
7.36425e-06;0.0003672937945403684
7.36450e-06;0.00036016680973301613
7.36475e-06;0.0003530398249256639
7.36500e-06;0.00034604376601890454
7.36525e-06;0.0003402739704359644
7.36550e-06;0.00033450417485302416
7.36575e-06;0.00032887743026159837
7.36600e-06;0.0003245905136455361
7.36625e-06;0.0003203035970294592
7.36650e-06;0.0003161611192954749
7.36675e-06;0.00031337146863981283
7.36700e-06;0.0003105818179841414
7.36725e-06;0.00030794713190502833
7.36750e-06;0.0003067638574701489
7.36775e-06;0.0003055805830352655
7.36800e-06;0.0003045372422194565
7.36825e-06;0.0003048045317983711
7.36850e-06;0.00030507182137728663
7.36875e-06;0.00030546978978799276
7.36900e-06;0.0003070917074542393
7.36925e-06;0.00030871362512049124
7.36950e-06;0.000310520974695793
7.36975e-06;0.0003140650955899179
7.37000e-06;0.0003176092164840548
7.37025e-06;0.0003211533373781797
7.37050e-06;0.00032469745827231667
7.37075e-06;0.0003282415791664416
7.37100e-06;0.0003317857000605665
7.37125e-06;0.0003353298209547034
7.37150e-06;0.000339772146341309
7.37175e-06;0.00034482213822837064
7.37200e-06;0.0003498721301154494
7.37225e-06;0.00035492212200251104
7.37250e-06;0.00035997211388957265
7.37275e-06;0.00036502210577665144
7.37300e-06;0.0003700720976637131
7.37325e-06;0.00037512960531027877
7.37350e-06;0.00038025750621123623
7.37375e-06;0.00038538540711217635
7.37400e-06;0.0003904702684325219
7.37425e-06;0.00039515201731385295
7.37450e-06;0.0003998337661951682
7.37475e-06;0.000404455910652644
7.37500e-06;0.0004085197949146396
7.37525e-06;0.0004125126356522636
7.37550e-06;0.00041584007658839324
7.37575e-06;0.0004190295422067724
7.37600e-06;0.00042092671905084026
7.37625e-06;0.00042265481938205186
7.37650e-06;0.00042279933445218477
7.37675e-06;0.000422742764959358
7.37700e-06;0.0004208028200364274
7.37725e-06;0.00041886287511350335
7.37750e-06;0.0004166673281080187
7.37775e-06;0.0004120777898628517
7.37800e-06;0.00040748825161770027
7.37825e-06;0.00040262284509332415
7.37850e-06;0.0003951736323764065
7.37875e-06;0.00038772441965951416
7.37900e-06;0.0003800421208805751
7.37925e-06;0.00037017671786044156
7.37950e-06;0.000360311314840308
7.37975e-06;0.00035023140645857004
7.38000e-06;0.0003381424222851579
7.38025e-06;0.00032605343811174575
7.38050e-06;0.00031379218050423143
7.38075e-06;0.00029991739499527094
7.38100e-06;0.00028604260948631046
7.38125e-06;0.0002720458333823236
7.38150e-06;0.00025690648280203923
7.38175e-06;0.00024176713222175486
7.38200e-06;0.0002266277816414192
7.38225e-06;0.000211439262605498
7.38250e-06;0.00019579022755636128
7.38275e-06;0.00018014119250717154
7.38300e-06;0.0001644921574580348
7.38325e-06;0.00014888982438739922
7.38350e-06;0.0001337249060920586
7.38375e-06;0.00011863070458660504
7.38400e-06;0.00010419884265882331
7.38425e-06;8.984006467919664e-05
7.38450e-06;7.62274865873855e-05
7.38475e-06;6.326419804916997e-05
7.38500e-06;5.105191813341083e-05
7.38525e-06;3.969230078562904e-05
7.38550e-06;2.9285526687396416e-05
7.38575e-06;1.991869025904404e-05
7.38600e-06;1.1648030813168765e-05
7.38625e-06;4.501369130642941e-06
7.38650e-06;-1.502993595382928e-06
7.38675e-06;-6.347059176575037e-06
7.38700e-06;-1.0012841283853758e-05
7.38725e-06;-1.2482392746087363e-05
7.38750e-06;-1.3738698440871205e-05
7.38775e-06;-1.3772945664973107e-05
7.38800e-06;-1.2595646092266231e-05
7.38825e-06;-1.0235116267489554e-05
7.38850e-06;-6.725633485465813e-06
7.38875e-06;-2.1016656206992566e-06
7.38900e-06;3.602314817109758e-06
7.38925e-06;1.035181109283848e-05
7.38950e-06;1.8111743541534908e-05
7.38975e-06;2.6841895637044475e-05
7.39000e-06;3.6489951194088984e-05
7.39025e-06;4.699243724547281e-05
7.39050e-06;5.828215989496768e-05
7.39075e-06;7.02918023335985e-05
7.39100e-06;8.295405139048574e-05
7.39125e-06;9.622349400946104e-05
7.39150e-06;0.00011017190857149826
7.39175e-06;0.0001242038196532903
7.39200e-06;0.00013901776636853595
7.39225e-06;0.00015383171308378158
7.39250e-06;0.0001686806029616134
7.39275e-06;0.00018385677352540436
7.39300e-06;0.0001990213508046052
