Time(s);Current(A)
8.80000e-06;-0.00865411677401304
8.80025e-06;-0.008643663578692628
8.80050e-06;-0.008640873336259089
8.80075e-06;-0.008638921266013231
8.80100e-06;-0.008647498746925468
8.80125e-06;-0.008657157625151417
8.80150e-06;-0.008680401573968722
8.80175e-06;-0.00870364552278603
8.80200e-06;-0.008728422174443074
8.80225e-06;-0.008772453429390259
8.80250e-06;-0.008816484684337444
8.80275e-06;-0.008860515939284332
8.80300e-06;-0.008904547194231517
8.80325e-06;-0.008950133744075625
8.80350e-06;-0.009015258710279792
8.80375e-06;-0.009080383676483516
8.80400e-06;-0.009145508642687683
8.80425e-06;-0.00921063360889185
8.80450e-06;-0.009276579850163896
8.80475e-06;-0.009352843372272292
8.80500e-06;-0.009429106894380689
8.80525e-06;-0.009505689017140604
8.80550e-06;-0.009586273565554358
8.80575e-06;-0.009666858113968111
8.80600e-06;-0.009747455617907509
8.80625e-06;-0.009828215875847006
8.80650e-06;-0.009908976133786503
8.80675e-06;-0.00998951392748689
8.80700e-06;-0.010067257010725491
8.80725e-06;-0.01014466437187468
8.80750e-06;-0.01021785421904549
8.80775e-06;-0.010290395374322536
8.80800e-06;-0.010354787327572309
8.80825e-06;-0.010419179280821644
8.80850e-06;-0.010482530168272827
8.80875e-06;-0.010532802650409711
8.80900e-06;-0.010583075132546256
8.80925e-06;-0.0106316804948269
8.80950e-06;-0.010659342637938182
8.80975e-06;-0.010687004781049277
8.81000e-06;-0.010714666924160558
8.81025e-06;-0.010742329067271841
8.81050e-06;-0.010769991210382936
8.81075e-06;-0.010797653353494219
8.81100e-06;-0.010823035749089913
8.81125e-06;-0.010819778781000417
8.81150e-06;-0.0108165218129109
8.81175e-06;-0.010813264844821379
8.81200e-06;-0.01081000787673186
8.81225e-06;-0.010806750908642365
8.81250e-06;-0.010803493940552846
8.81275e-06;-0.010798476719261825
8.81300e-06;-0.010771346289700686
8.81325e-06;-0.010744215860139366
8.81350e-06;-0.010717085430578043
8.81375e-06;-0.010689955001016906
8.81400e-06;-0.010662824571455584
8.81425e-06;-0.010635694141894263
8.81450e-06;-0.010600781892379636
8.81475e-06;-0.010560087967402406
8.81500e-06;-0.010519394042425176
8.81525e-06;-0.010478700117448224
8.81550e-06;-0.010438006192470994
8.81575e-06;-0.010397312267493766
8.81600e-06;-0.010356368623781302
8.81625e-06;-0.010312287884561318
8.81650e-06;-0.010268207145341336
8.81675e-06;-0.010224181776117806
8.81700e-06;-0.010180851993333821
8.81725e-06;-0.010137688045862838
8.81750e-06;-0.010096607407096827
8.81775e-06;-0.010056580782270792
8.81800e-06;-0.010029795224000921
8.81825e-06;-0.010003009665731234
8.81850e-06;-0.009976224107461363
8.81875e-06;-0.009949438549191494
8.81900e-06;-0.009922652990921805
8.81925e-06;-0.009895867432651936
8.81950e-06;-0.009869081874382065
8.81975e-06;-0.009842296316112376
8.82000e-06;-0.009815510757842507
8.82025e-06;-0.009788725199572638
8.82050e-06;-0.009761939641302767
8.82075e-06;-0.00973515408303308
8.82100e-06;-0.009708368524763209
8.82125e-06;-0.00968158296649334
8.82150e-06;-0.00965479740822365
8.82175e-06;-0.009635555316229586
8.82200e-06;-0.009621917809556174
8.82225e-06;-0.009608280302882855
8.82250e-06;-0.00959464279620944
8.82275e-06;-0.009581005289536027
8.82300e-06;-0.009567367782862707
8.82325e-06;-0.009553730276189294
8.82350e-06;-0.009540092769515882
8.82375e-06;-0.009526455262842562
8.82400e-06;-0.009512817756169148
8.82425e-06;-0.009499180249495734
8.82450e-06;-0.009485542742822414
8.82475e-06;-0.009471905236149002
8.82500e-06;-0.009458267729475589
8.82525e-06;-0.009444630222802269
8.82550e-06;-0.009431302175528471
8.82575e-06;-0.009421861716790585
8.82600e-06;-0.009412421258052762
8.82625e-06;-0.009402980799314875
8.82650e-06;-0.009393540340576987
8.82675e-06;-0.009384099881839166
8.82700e-06;-0.009374659423101278
8.82725e-06;-0.009366408218876679
8.82750e-06;-0.009359040597629143
8.82775e-06;-0.009351672976381559
8.82800e-06;-0.009344305355133973
8.82825e-06;-0.00933693773388644
8.82850e-06;-0.009329570112638854
8.82875e-06;-0.009322601270453305
8.82900e-06;-0.009320642096458397
8.82925e-06;-0.009318682922463501
8.82950e-06;-0.009316723748468593
8.82975e-06;-0.009314764574473684
8.83000e-06;-0.009312805400478788
8.83025e-06;-0.00931084622648388
8.83050e-06;-0.00930888705248897
8.83075e-06;-0.009306927878494074
8.83100e-06;-0.009310387126571312
8.83125e-06;-0.009317872111319828
8.83150e-06;-0.009325357096068293
8.83175e-06;-0.009332842080816809
8.83200e-06;-0.009340327065565325
8.83225e-06;-0.00934781205031379
8.83250e-06;-0.009355297035062306
8.83275e-06;-0.009362782019810821
8.83300e-06;-0.009370849099320712
8.83325e-06;-0.009386228753357338
8.83350e-06;-0.009401608407393966
8.83375e-06;-0.00941698806143049
8.83400e-06;-0.009432367715467118
8.83425e-06;-0.009447747369503746
8.83450e-06;-0.00946312702354027
8.83475e-06;-0.009478506677576898
8.83500e-06;-0.009493886331613527
8.83525e-06;-0.009509422947419214
8.83550e-06;-0.009526931397900841
8.83575e-06;-0.009544439848382468
8.83600e-06;-0.009561948298863976
8.83625e-06;-0.009579456749345603
8.83650e-06;-0.009596965199827228
8.83675e-06;-0.009614473650308738
8.83700e-06;-0.009631982100790365
8.83725e-06;-0.00964949055127199
8.83750e-06;-0.009666655051849918
8.83775e-06;-0.009679498676391465
8.83800e-06;-0.0096923423009331
8.83825e-06;-0.009705185925474733
8.83850e-06;-0.00971802955001628
8.83875e-06;-0.009730873174557914
8.83900e-06;-0.009743716799099548
8.83925e-06;-0.009756560423641095
8.83950e-06;-0.00976940404818273
8.83975e-06;-0.009782247672724363
8.84000e-06;-0.009796392306822522
8.84025e-06;-0.00981150355478241
8.84050e-06;-0.0098266148027423
8.84075e-06;-0.009841726050702089
8.84100e-06;-0.009856837298661977
8.84125e-06;-0.009871948546621868
8.84150e-06;-0.009887059794581656
8.84175e-06;-0.009902171042541544
8.84200e-06;-0.009917282290501435
8.84225e-06;-0.009932871525574783
8.84250e-06;-0.009954465481230674
8.84275e-06;-0.009976059436886568
8.84300e-06;-0.009997653392542313
8.84325e-06;-0.010019247348198207
8.84350e-06;-0.0100408413038541
8.84375e-06;-0.010062435259509846
8.84400e-06;-0.010084029215165739
8.84425e-06;-0.01010562317082163
8.84450e-06;-0.01012740646180197
8.84475e-06;-0.01015156828075665
8.84500e-06;-0.01017573009971133
8.84525e-06;-0.010199891918665846
8.84550e-06;-0.010224053737620526
8.84575e-06;-0.010248215556575206
8.84600e-06;-0.010272377375529884
8.84625e-06;-0.010296539194484401
8.84650e-06;-0.010320701013439081
8.84675e-06;-0.010344671894795652
8.84700e-06;-0.010366244119591323
8.84725e-06;-0.010387816344387141
8.84750e-06;-0.01040938856918296
8.84775e-06;-0.010430656024382154
8.84800e-06;-0.010448094806761185
8.84825e-06;-0.010465533589140217
8.84850e-06;-0.01048297237151913
8.84875e-06;-0.0104999340597814
8.84900e-06;-0.010510902245742682
8.84925e-06;-0.010521161494326827
8.84950e-06;-0.010522514706027747
8.84975e-06;-0.010522954370019167
8.85000e-06;-0.010511917576628282
8.85025e-06;-0.010500880783237323
8.85050e-06;-0.010488785367711606
8.85075e-06;-0.010463390995069738
8.85100e-06;-0.010437996622427698
8.85125e-06;-0.010411068545913464
8.85150e-06;-0.010364873290528273
8.85175e-06;-0.010318678035142768
8.85200e-06;-0.010272482779757263
8.85225e-06;-0.010226287524372072
8.85250e-06;-0.010167877006712043
8.85275e-06;-0.01010039088942854
8.85300e-06;-0.010032904772145494
8.85325e-06;-0.009965418654861991
8.85350e-06;-0.009896815226452948
8.85375e-06;-0.009814175559558437
8.85400e-06;-0.009731535892663365
8.85425e-06;-0.009648383933135217
8.85450e-06;-0.009558796289392655
8.85475e-06;-0.009468996321515766
8.85500e-06;-0.009376405287075226
8.85525e-06;-0.00928215523663782
8.85550e-06;-0.009186524451086036
8.85575e-06;-0.009090016269492096
8.85600e-06;-0.008993197729966857
8.85625e-06;-0.00889663400797603
8.85650e-06;-0.008800888553675945
8.85675e-06;-0.00870651740098733
8.85700e-06;-0.008613974764953219
8.85725e-06;-0.008523611934432324
8.85750e-06;-0.00843586357954648
8.85775e-06;-0.008351304828462637
8.85800e-06;-0.008270552079386331
8.85825e-06;-0.008194219936548515
8.85850e-06;-0.008122922416201772
8.85875e-06;-0.008057275749172543
8.85900e-06;-0.007997871848907044
8.85925e-06;-0.007945175522642131
8.85950e-06;-0.007899431858439223
8.85975e-06;-0.007860757760888324
8.86000e-06;-0.007829252675498489
8.86025e-06;-0.0078050136314892484
8.86050e-06;-0.007788139711711676
8.86075e-06;-0.00777872825868865
8.86100e-06;-0.0077771392111184445
8.86125e-06;-0.007785995390311137
8.86150e-06;-0.007796168300738835
8.86175e-06;-0.007822882667910024
8.86200e-06;-0.007849597035081212
8.86225e-06;-0.007878088499104772
8.86250e-06;-0.007928904770144947
8.86275e-06;-0.007979721041185122
8.86300e-06;-0.008030537312225295
8.86325e-06;-0.008081353583265127
8.86350e-06;-0.008145532739008437
8.86375e-06;-0.008219640145876311
8.86400e-06;-0.008293747552743683
8.86425e-06;-0.008367854959611558
8.86450e-06;-0.008442937540680458
8.86475e-06;-0.008530270762910143
8.86500e-06;-0.008617603985140419
8.86525e-06;-0.008705353455148895
8.86550e-06;-0.008798332044385002
8.86575e-06;-0.008891310633621738
8.86600e-06;-0.008984368226389206
8.86625e-06;-0.009078418302247399
8.86650e-06;-0.00917234065401484
8.86675e-06;-0.009264658469884886
8.86700e-06;-0.009356680425943712
8.86725e-06;-0.009444985638501028
8.86750e-06;-0.009532813259093
8.86775e-06;-0.00961464112314331
8.86800e-06;-0.00969559973090497
8.86825e-06;-0.009765638292924636
8.86850e-06;-0.009835676854943827
8.86875e-06;-0.009904442319071538
8.86900e-06;-0.009957214470998692
8.86925e-06;-0.010009986622925487
8.86950e-06;-0.01006150467534715
8.86975e-06;-0.0100972680830941
8.87000e-06;-0.01013303149084081
8.87025e-06;-0.01016678052028425
8.87050e-06;-0.010175223890745733
8.87075e-06;-0.010183667261207159
8.87100e-06;-0.010192110631668642
8.87125e-06;-0.010200554002130125
8.87150e-06;-0.010208997372591608
8.87175e-06;-0.010215030912193264
8.87200e-06;-0.010190790913882404
8.87225e-06;-0.010166550915571546
8.87250e-06;-0.01014231091726085
8.87275e-06;-0.01011807091894999
8.87300e-06;-0.010093830920639132
8.87325e-06;-0.010067874001531038
8.87350e-06;-0.01002034823801938
8.87375e-06;-0.009972822474507724
8.87400e-06;-0.009925296710996387
8.87425e-06;-0.00987777094748473
8.87450e-06;-0.009829275469710711
8.87475e-06;-0.009768597941329775
8.87500e-06;-0.009707920412948427
8.87525e-06;-0.00964724288456708
8.87550e-06;-0.009586565356186143
8.87575e-06;-0.009525590491613766
8.87600e-06;-0.009460880336484333
8.87625e-06;-0.009396164344501705
8.87650e-06;-0.00933137502695343
8.87675e-06;-0.00926665101349699
8.87700e-06;-0.009202837408601295
8.87725e-06;-0.00914028123076848
8.87750e-06;-0.009079473029491856
8.87775e-06;-0.009020851878303406
8.87800e-06;-0.008964838803674937
8.87825e-06;-0.00891185569473315
8.87850e-06;-0.008862324303266925
8.87875e-06;-0.008816816345282337
8.87900e-06;-0.00877716063005521
8.87925e-06;-0.00873814690005899
8.87950e-06;-0.008707198119581943
8.87975e-06;-0.00867691422540243
8.88000e-06;-0.008654982975754098
8.88025e-06;-0.00863392055893615
8.88050e-06;-0.008623772868163118
8.88075e-06;-0.008613625177390083
8.88100e-06;-0.008604917772388363
8.88125e-06;-0.008614303979958117
8.88150e-06;-0.008623690187527868
8.88175e-06;-0.008633076395097557
8.88200e-06;-0.00864246260266731
8.88225e-06;-0.008651848810237062
8.88250e-06;-0.008673808680678425
8.88275e-06;-0.00870511043241129
8.88300e-06;-0.008736412184144154
8.88325e-06;-0.008767713935876807
8.88350e-06;-0.008799015687609673
8.88375e-06;-0.008831540516365989
8.88400e-06;-0.00887943026939556
8.88425e-06;-0.008927320022425456
8.88450e-06;-0.008975209775455354
8.88475e-06;-0.009023099528484926
8.88500e-06;-0.009070989281514822
8.88525e-06;-0.00911887903454472
8.88550e-06;-0.009170511646992877
8.88575e-06;-0.009224925099737361
8.88600e-06;-0.009279338552481845
8.88625e-06;-0.009333752005225961
8.88650e-06;-0.009388165457970445
8.88675e-06;-0.009442578910714929
8.88700e-06;-0.009496725516244916
8.88725e-06;-0.009547519849464444
8.88750e-06;-0.009598314182683972
8.88775e-06;-0.009648599610935652
8.88800e-06;-0.009692491912554705
8.88825e-06;-0.009736384214173758
8.88850e-06;-0.009779540545774363
8.88875e-06;-0.009813451242479315
8.88900e-06;-0.009847361939184498
8.88925e-06;-0.009879915402289
8.88950e-06;-0.009895418597004222
8.88975e-06;-0.009910921791719547
8.89000e-06;-0.009926424986434873
8.89025e-06;-0.009941928181150092
8.89050e-06;-0.009957431375865418
8.89075e-06;-0.009972934570580743
8.89100e-06;-0.009986529496743607
8.89125e-06;-0.009976151769294657
8.89150e-06;-0.009965774041845706
8.89175e-06;-0.009955396314396826
8.89200e-06;-0.009945018586947876
8.89225e-06;-0.009934640859498925
8.89250e-06;-0.009924263132050045
8.89275e-06;-0.009912422093952124
8.89300e-06;-0.009882198192878985
8.89325e-06;-0.009851974291806053
8.89350e-06;-0.009821750390732915
8.89375e-06;-0.009791526489659778
8.89400e-06;-0.009761302588586844
8.89425e-06;-0.0097302479887947
8.89450e-06;-0.009688757723316009
8.89475e-06;-0.009647267457837599
8.89500e-06;-0.00960577719235891
8.89525e-06;-0.009564286926880218
8.89550e-06;-0.009522796661401808
8.89575e-06;-0.009481066913252355
8.89600e-06;-0.009436328660294693
8.89625e-06;-0.009391590407337334
8.89650e-06;-0.009346888949447124
8.89675e-06;-0.009302649730169027
8.89700e-06;-0.00925853665559807
8.89725e-06;-0.00921600827588983
8.89750e-06;-0.009173695207411134
8.89775e-06;-0.009134086989635313
8.89800e-06;-0.009094778683132668
8.89825e-06;-0.00905923801670148
8.89850e-06;-0.00902408502035414
8.89875e-06;-0.00899380213551815
8.89900e-06;-0.008964013082832822
8.89925e-06;-0.008940427804291972
8.89950e-06;-0.008917525265952849
8.89975e-06;-0.008903199662110083
8.90000e-06;-0.008888874058267314
8.90025e-06;-0.008875384085856669
8.90050e-06;-0.008872391746424423
8.90075e-06;-0.008869399406992176
8.90100e-06;-0.008867683118209757
8.90125e-06;-0.008881997235740756
8.90150e-06;-0.008896311353271754
8.90175e-06;-0.008910625470802654
8.90200e-06;-0.008924939588333652
8.90225e-06;-0.008939253705864651
8.90250e-06;-0.00895502475928344
8.90275e-06;-0.008989098592659648
8.90300e-06;-0.009023172426035855
8.90325e-06;-0.009057246259411834
8.90350e-06;-0.009091320092788041
8.90375e-06;-0.009125393926164248
8.90400e-06;-0.00916047814833146
8.90425e-06;-0.00920825539554748
8.90450e-06;-0.009256032642763501
8.90475e-06;-0.009303809889979198
8.90500e-06;-0.009351587137195218
8.90525e-06;-0.009399364384411238
8.90550e-06;-0.009447141631627258
8.90575e-06;-0.009495101538026813
8.90600e-06;-0.009545356103291311
8.90625e-06;-0.009595610668555807
8.90650e-06;-0.009645865233819965
8.90675e-06;-0.009696119799084461
8.90700e-06;-0.00974637436434896
8.90725e-06;-0.009796628929613117
8.90750e-06;-0.009846376094086114
8.90775e-06;-0.00988974902814939
8.90800e-06;-0.009933121962212372
8.90825e-06;-0.009975989642203746
8.90850e-06;-0.01001251005998343
8.90875e-06;-0.010048253752773748
8.90900e-06;-0.010074239825691528
8.90925e-06;-0.010100225898609308
8.90950e-06;-0.010125006420914006
8.90975e-06;-0.01013464219471188
8.91000e-06;-0.010144277968509753
8.91025e-06;-0.010152696540876926
8.91050e-06;-0.010145824001157964
8.91075e-06;-0.010138951461439004
8.91100e-06;-0.010130361275327193
8.91125e-06;-0.010100193129432188
8.91150e-06;-0.010070024983537183
8.91175e-06;-0.010039856837642384
8.91200e-06;-0.010009688691747379
8.91225e-06;-0.009977607417509596
8.91250e-06;-0.009921492438421595
8.91275e-06;-0.009865377459333212
8.91300e-06;-0.00980926248024483
8.91325e-06;-0.009753147501156826
8.91350e-06;-0.009695780162178614
8.91375e-06;-0.009622680032415327
8.91400e-06;-0.009549579902652042
8.91425e-06;-0.009475920751095405
8.91450e-06;-0.009395238879472604
8.91475e-06;-0.009314239689019704
8.91500e-06;-0.009229254175780181
8.91525e-06;-0.009144088509769971
8.91550e-06;-0.009056583380645173
8.91575e-06;-0.008968081526023514
8.91600e-06;-0.008879097623943217
8.91625e-06;-0.008790142245182372
8.91650e-06;-0.008701728273804717
8.91675e-06;-0.008614361984489534
8.91700e-06;-0.008528506261728542
8.91725e-06;-0.008444581526845104
8.91750e-06;-0.00836306565989931
8.91775e-06;-0.008284509720594671
8.91800e-06;-0.008209484541001042
8.91825e-06;-0.008138560159201957
8.91850e-06;-0.008072492366857968
8.91875e-06;-0.008013564327933435
8.91900e-06;-0.007955240609363999
8.91925e-06;-0.00790450867475697
8.91950e-06;-0.007854269885611633
8.91975e-06;-0.007810226244074205
8.92000e-06;-0.007766747781638585
8.92025e-06;-0.007730369390551776
8.92050e-06;-0.007694757595795316
8.92075e-06;-0.00766877617949041
8.92100e-06;-0.007642794763185679
8.92125e-06;-0.007617802888129611
8.92150e-06;-0.007605242140565741
8.92175e-06;-0.007592681393001956
8.92200e-06;-0.007580120645438087
8.92225e-06;-0.0075675598978742166
8.92250e-06;-0.007554999150310346
8.92275e-06;-0.007551105723588098
8.92300e-06;-0.007553651874841414
8.92325e-06;-0.007556198026094731
8.92350e-06;-0.0075587441773480295
8.92375e-06;-0.007561290328601346
8.92400e-06;-0.007564645167639049
8.92425e-06;-0.007578159159678014
8.92450e-06;-0.007591673151717071
8.92475e-06;-0.007605187143756128
8.92500e-06;-0.007618701135795093
8.92525e-06;-0.007632215127834151
8.92550e-06;-0.007645729119873207
8.92575e-06;-0.007662177858625727
8.92600e-06;-0.007680807032445562
8.92625e-06;-0.007699436206265398
8.92650e-06;-0.007718065380085107
8.92675e-06;-0.0077366945539049424
8.92700e-06;-0.007755323727724778
8.92725e-06;-0.007773877428298178
8.92750e-06;-0.00779148299502828
8.92775e-06;-0.007809088561758382
8.92800e-06;-0.00782647140102156
8.92825e-06;-0.007841056222980897
8.92850e-06;-0.007855641044940234
8.92875e-06;-0.00787011846879309
8.92900e-06;-0.007883246702245727
8.92925e-06;-0.007896374935698365
8.92950e-06;-0.007909727991018089
8.92975e-06;-0.007925905374580018
8.93000e-06;-0.007942082758141948
8.93025e-06;-0.007958579714280767
8.93050e-06;-0.007979091305944494
8.93075e-06;-0.007999602897608222
8.93100e-06;-0.008020114489271948
8.93125e-06;-0.008040626080935536
8.93150e-06;-0.008061137672599264
8.93175e-06;-0.008081649264262991
8.93200e-06;-0.008106714335287986
8.93225e-06;-0.00813516251465219
8.93250e-06;-0.008163610694016395
8.93275e-06;-0.008192058873380407
8.93300e-06;-0.008220507052744611
8.93325e-06;-0.008248955232108815
8.93350e-06;-0.008277876402621388
8.93375e-06;-0.008312739531879543
8.93400e-06;-0.0083476026611377
8.93425e-06;-0.00838246579039562
8.93450e-06;-0.008417328919653775
8.93475e-06;-0.00845219204891193
8.93500e-06;-0.00848705517816985
8.93525e-06;-0.008521918307428007
8.93550e-06;-0.00855694636659346
8.93575e-06;-0.008592096964086075
8.93600e-06;-0.008627247561578929
8.93625e-06;-0.008662398159071783
8.93650e-06;-0.008697548756564399
8.93675e-06;-0.008732699354057252
8.93700e-06;-0.008767849951550106
8.93725e-06;-0.008802665238970513
8.93750e-06;-0.00883326818833152
8.93775e-06;-0.008863871137692526
8.93800e-06;-0.008893623165356749
8.93825e-06;-0.00891268547581399
8.93850e-06;-0.008931747786271232
8.93875e-06;-0.008950810096728346
8.93900e-06;-0.00896987240718559
8.93925e-06;-0.008988934717642831
8.93950e-06;-0.009007997028100075
8.93975e-06;-0.009027059338557188
8.94000e-06;-0.00904612164901443
8.94025e-06;-0.009065183959471673
8.94050e-06;-0.009083048973316991
8.94075e-06;-0.009085872929627745
8.94100e-06;-0.009088696885938498
8.94125e-06;-0.009091520842249231
8.94150e-06;-0.009094344798559984
8.94175e-06;-0.009097168754870736
8.94200e-06;-0.00909999271118147
8.94225e-06;-0.009102816667492224
8.94250e-06;-0.009105640623802976
8.94275e-06;-0.00910846458011371
8.94300e-06;-0.00911043300850383
8.94325e-06;-0.009101653853921374
8.94350e-06;-0.009092874699338976
8.94375e-06;-0.00908409554475652
8.94400e-06;-0.009075316390174061
8.94425e-06;-0.009066537235591664
8.94450e-06;-0.009057758081009207
8.94475e-06;-0.00904897892642675
8.94500e-06;-0.009040199771844353
8.94525e-06;-0.009031420617261896
8.94550e-06;-0.009022641462679438
8.94575e-06;-0.009013635738295469
8.94600e-06;-0.009001783727210905
8.94625e-06;-0.008989931716126342
8.94650e-06;-0.008978079705041858
8.94675e-06;-0.008966227693957295
8.94700e-06;-0.008954375682872731
8.94725e-06;-0.008942523671788247
