Time(s);Current(A)
1.80000e-06;0.0073448803113546155
1.80025e-06;0.0073559510839085514
1.80050e-06;0.007367021856462496
1.80075e-06;0.007378092629016432
1.80100e-06;0.007389163401570377
1.80125e-06;0.007398086256187551
1.80150e-06;0.00740679386826314
1.80175e-06;0.007415501480338736
1.80200e-06;0.0074242090924143255
1.80225e-06;0.007432916704489922
1.80250e-06;0.007441624316565511
1.80275e-06;0.0074503319286411
1.80300e-06;0.007459039540716696
1.80325e-06;0.007467747152792285
1.80350e-06;0.007476454764867881
1.80375e-06;0.00748516237694347
1.80400e-06;0.007474332605959425
1.80425e-06;0.007461544996682968
1.80450e-06;0.007448757387406521
1.80475e-06;0.007435969778130064
1.80500e-06;0.007423182168853617
1.80525e-06;0.0074103945595771605
1.80550e-06;0.007397606950300714
1.80575e-06;0.007384819341024268
1.80600e-06;0.00737203173174781
1.80625e-06;0.007359244122471364
1.80650e-06;0.007346456513194906
1.80675e-06;0.007312371902452507
1.80700e-06;0.007276153122315261
1.80725e-06;0.0072399343421779856
1.80750e-06;0.00720371556204074
1.80775e-06;0.0071674967819034645
1.80800e-06;0.007131278001766219
1.80825e-06;0.007095059221628974
1.80850e-06;0.007058840441491698
1.80875e-06;0.007022621661354453
1.80900e-06;0.0069864028812171765
1.80925e-06;0.006947404465466527
1.80950e-06;0.006904388139251907
1.80975e-06;0.006861371813037322
1.81000e-06;0.006818355486822738
1.81025e-06;0.006775339160608117
1.81050e-06;0.006732322834393533
1.81075e-06;0.006689306508178912
1.81100e-06;0.006646290181964328
1.81125e-06;0.006603273855749744
1.81150e-06;0.006560257529535123
1.81175e-06;0.006517241203320539
1.81200e-06;0.006492231862629338
1.81225e-06;0.006469026999317554
1.81250e-06;0.00644582213600577
1.81275e-06;0.0064226172726939675
1.81300e-06;0.006399412409382184
1.81325e-06;0.006376207546070381
1.81350e-06;0.006353002682758597
1.81375e-06;0.006329797819446793
1.81400e-06;0.00630659295613501
1.81425e-06;0.0062833880928232265
1.81450e-06;0.006260183229511423
1.81475e-06;0.00623697836619964
1.81500e-06;0.006213773502887836
1.81525e-06;0.006190568639576053
1.81550e-06;0.006167363776264269
1.81575e-06;0.006153804396682107
1.81600e-06;0.00615418738055892
1.81625e-06;0.006154570364435733
1.81650e-06;0.006154953348312546
1.81675e-06;0.006155336332189359
1.81700e-06;0.006155719316066172
1.81725e-06;0.006156102299942985
1.81750e-06;0.006156485283819798
1.81775e-06;0.006156868267696611
1.81800e-06;0.006157251251573424
1.81825e-06;0.006157634235450237
1.81850e-06;0.00615801721932705
1.81875e-06;0.006158400203203863
1.81900e-06;0.006158783187080676
1.81925e-06;0.006159166170957489
1.81950e-06;0.006159549154834302
1.81975e-06;0.00616651095433069
1.82000e-06;0.0061741320159757525
1.82025e-06;0.006181753077620808
1.82050e-06;0.006189374139265871
1.82075e-06;0.006196995200910926
1.82100e-06;0.006204616262555982
1.82125e-06;0.006212237324201044
1.82150e-06;0.0062198583858461
1.82175e-06;0.006227479447491162
1.82200e-06;0.0062351731081435185
1.82225e-06;0.006242971709281489
1.82250e-06;0.006250770310419454
1.82275e-06;0.006258568911557419
1.82300e-06;0.006266367512695391
1.82325e-06;0.006274166113833355
1.82350e-06;0.006281964714971326
1.82375e-06;0.006289763316109291
1.82400e-06;0.006297561917247256
1.82425e-06;0.006305360518385227
1.82450e-06;0.0063252661207378325
1.82475e-06;0.006346384963906975
1.82500e-06;0.0063675038070761
1.82525e-06;0.006388622650245224
1.82550e-06;0.006409741493414367
1.82575e-06;0.006430860336583492
1.82600e-06;0.006451979179752634
1.82625e-06;0.006473098022921759
1.82650e-06;0.006494216866090902
1.82675e-06;0.006515335709260026
1.82700e-06;0.006536454552429151
1.82725e-06;0.006557573395598293
1.82750e-06;0.006578692238767418
1.82775e-06;0.006604940282646188
1.82800e-06;0.00663860248869109
1.82825e-06;0.0066722646947359925
1.82850e-06;0.006705926900780923
1.82875e-06;0.006739589106825826
1.82900e-06;0.006773251312870756
1.82925e-06;0.006806913518915659
1.82950e-06;0.006840575724960562
1.82975e-06;0.006874237931005492
1.83000e-06;0.006907900137050395
1.83025e-06;0.006941562343095326
1.83050e-06;0.0069752245491402284
1.83075e-06;0.00700888675518516
1.83100e-06;0.007042548961230062
1.83125e-06;0.007065930631758471
1.83150e-06;0.0070882820913303005
1.83175e-06;0.00711063355090211
1.83200e-06;0.007132985010473939
1.83225e-06;0.00715533647004575
1.83250e-06;0.0071776879296175594
1.83275e-06;0.007200039389189388
1.83300e-06;0.007222390848761198
1.83325e-06;0.007244742308333028
1.83350e-06;0.0072670937679048375
1.83375e-06;0.007289445227476647
1.83400e-06;0.007311796687048477
1.83425e-06;0.007334148146620287
1.83450e-06;0.0073564996061921155
1.83475e-06;0.007378851065763925
1.83500e-06;0.007401202525335755
1.83525e-06;0.00741833303779909
1.83550e-06;0.007427916770420327
1.83575e-06;0.007437500503041571
1.83600e-06;0.007447084235662807
1.83625e-06;0.007456667968284051
1.83650e-06;0.007466251700905287
1.83675e-06;0.007475835433526523
1.83700e-06;0.0074854191661477675
1.83725e-06;0.007495002898769003
1.83750e-06;0.007504586631390247
1.83775e-06;0.007514170364011484
1.83800e-06;0.00752375409663272
1.83825e-06;0.007533337829253963
1.83850e-06;0.0075429215618752
1.83875e-06;0.007552505294496444
1.83900e-06;0.00756208902711768
1.83925e-06;0.007571672759738924
1.83950e-06;0.0075768164649737966
1.83975e-06;0.007581515235715418
1.84000e-06;0.007586214006457044
1.84025e-06;0.007590912777198666
1.84050e-06;0.007595611547940291
1.84075e-06;0.007600310318681913
1.84100e-06;0.007605009089423535
1.84125e-06;0.00760970786016516
1.84150e-06;0.0076144066309067815
1.84175e-06;0.007619105401648407
1.84200e-06;0.007623804172390029
1.84225e-06;0.007628502943131651
1.84250e-06;0.0076332017138732765
1.84275e-06;0.007637900484614898
1.84300e-06;0.007642599255356523
1.84325e-06;0.007634631351169402
1.84350e-06;0.0076253941213453354
1.84375e-06;0.007616156891521262
1.84400e-06;0.0076069196616971955
1.84425e-06;0.007597682431873122
1.84450e-06;0.0075884452020490555
1.84475e-06;0.007579207972224981
1.84500e-06;0.007569970742400916
1.84525e-06;0.007560733512576849
1.84550e-06;0.007551496282752776
1.84575e-06;0.007542259052928709
1.84600e-06;0.007533021823104635
1.84625e-06;0.007523784593280569
1.84650e-06;0.007514547363456503
1.84675e-06;0.007505310133632428
1.84700e-06;0.007479783214479787
1.84725e-06;0.007452623907948612
1.84750e-06;0.007425464601417461
1.84775e-06;0.00739830529488631
1.84800e-06;0.0073711459883551355
1.84825e-06;0.007343986681823985
1.84850e-06;0.00731682737529281
1.84875e-06;0.00728966806876166
1.84900e-06;0.007262508762230485
1.84925e-06;0.0072353494556993345
1.84950e-06;0.007208190149168183
1.84975e-06;0.0071810308426370085
1.85000e-06;0.007153280082719093
1.85025e-06;0.0071254700533440124
1.85050e-06;0.007097660023968956
1.85075e-06;0.0070698499945939
1.85100e-06;0.00704203996521882
1.85125e-06;0.007014229935843763
1.85150e-06;0.006986419906468683
1.85175e-06;0.006958609877093627
1.85200e-06;0.00693079984771857
1.85225e-06;0.00690298981834349
1.85250e-06;0.0068751797889684335
1.85275e-06;0.006847369759593354
1.85300e-06;0.006837375496691546
1.85325e-06;0.0068291665491349044
1.85350e-06;0.006820957601578271
1.85375e-06;0.006812748654021636
1.85400e-06;0.006804539706464995
1.85425e-06;0.00679633075890836
1.85450e-06;0.00678812181135172
1.85475e-06;0.006779912863795085
1.85500e-06;0.006771703916238451
1.85525e-06;0.006763494968681809
1.85550e-06;0.006755286021125175
1.85575e-06;0.006747077073568534
1.85600e-06;0.006738868126011899
1.85625e-06;0.006730659178455265
1.85650e-06;0.006722450230898624
1.85675e-06;0.006721990950313817
1.85700e-06;0.006732733666084024
1.85725e-06;0.006743476381854222
1.85750e-06;0.006754219097624429
1.85775e-06;0.006764961813394628
1.85800e-06;0.006775704529164825
1.85825e-06;0.0067864472449350325
1.85850e-06;0.006797189960705231
1.85875e-06;0.006807932676475438
1.85900e-06;0.006818675392245637
1.85925e-06;0.006829418108015834
1.85950e-06;0.006840160823786042
1.85975e-06;0.00685090353955624
1.86000e-06;0.006861646255326447
1.86025e-06;0.006872388971096645
1.86050e-06;0.006883131686866844
1.86075e-06;0.0068928440506907315
1.86100e-06;0.0069024531630972105
1.86125e-06;0.006912062275503696
1.86150e-06;0.006921671387910174
1.86175e-06;0.006931280500316661
1.86200e-06;0.006940889612723139
1.86225e-06;0.006950498725129617
1.86250e-06;0.006960107837536104
1.86275e-06;0.006969716949942582
1.86300e-06;0.006979326062349069
1.86325e-06;0.006988935174755547
1.86350e-06;0.006998544287162025
1.86375e-06;0.007008153399568511
1.86400e-06;0.00701776251197499
1.86425e-06;0.0070273716243814755
1.86450e-06;0.0070369807367879535
1.86475e-06;0.0070465898491944325
1.86500e-06;0.007045274340999246
1.86525e-06;0.007042864078176141
1.86550e-06;0.0070404538153530346
1.86575e-06;0.00703804355252993
1.86600e-06;0.007035633289706823
1.86625e-06;0.007033223026883718
1.86650e-06;0.007030812764060613
1.86675e-06;0.007028402501237506
1.86700e-06;0.007025992238414401
1.86725e-06;0.0070235819755912945
1.86750e-06;0.00702117171276819
1.86775e-06;0.007018761449945085
1.86800e-06;0.007016351187121978
1.86825e-06;0.007013940924298873
1.86850e-06;0.007011530661475766
1.86875e-06;0.007009120398652661
1.86900e-06;0.007006710135829556
1.86925e-06;0.0070008449166455225
1.86950e-06;0.00699463347679141
1.86975e-06;0.006988422036937293
1.87000e-06;0.006982210597083181
1.87025e-06;0.006975999157229063
1.87050e-06;0.006969787717374951
1.87075e-06;0.006963576277520839
1.87100e-06;0.006957364837666721
1.87125e-06;0.006951153397812609
1.87150e-06;0.006944941957958492
1.87175e-06;0.0069387305181043794
1.87200e-06;0.006932519078250268
1.87225e-06;0.006926307638396151
1.87250e-06;0.006920096198542038
1.87275e-06;0.006913884758687921
1.87300e-06;0.006907673318833809
1.87325e-06;0.0069014618789796965
1.87350e-06;0.006895250439125579
1.87375e-06;0.006889038999271467
1.87400e-06;0.0068828275594173495
1.87425e-06;0.006876616119563237
1.87450e-06;0.00687040467970912
1.87475e-06;0.006864193239855008
1.87500e-06;0.006857981800000895
1.87525e-06;0.006851770360146778
1.87550e-06;0.006845558920292666
1.87575e-06;0.006839347480438548
1.87600e-06;0.006833136040584436
1.87625e-06;0.006826924600730324
1.87650e-06;0.006821798207430688
1.87675e-06;0.006816780546487089
1.87700e-06;0.006811762885543486
1.87725e-06;0.006806745224599888
1.87750e-06;0.006801727563656289
1.87775e-06;0.006796709902712686
1.87800e-06;0.006791692241769088
1.87825e-06;0.006786674580825484
1.87850e-06;0.0067816569198818856
1.87875e-06;0.006776639258938288
1.87900e-06;0.006771621597994684
1.87925e-06;0.0067666039370510855
1.87950e-06;0.006761586276107483
1.87975e-06;0.006756568615163884
1.88000e-06;0.006751550954220282
1.88025e-06;0.006746533293276683
1.88050e-06;0.006741515632333084
1.88075e-06;0.006736497971389482
1.88100e-06;0.006731480310445883
1.88125e-06;0.00672646264950228
1.88150e-06;0.006721444988558682
1.88175e-06;0.006716427327615083
1.88200e-06;0.00671140966667148
1.88225e-06;0.006706392005727882
1.88250e-06;0.006701374344784279
1.88275e-06;0.00669635668384068
1.88300e-06;0.006691339022897082
1.88325e-06;0.006686321361953479
1.88350e-06;0.00668130370100988
1.88375e-06;0.006667956852716274
1.88400e-06;0.0066537753377804406
1.88425e-06;0.006639593822844595
1.88450e-06;0.00662541230790876
1.88475e-06;0.006611230792972926
1.88500e-06;0.00659704927803708
1.88525e-06;0.006582867763101246
1.88550e-06;0.0065686862481654
1.88575e-06;0.006554504733229566
1.88600e-06;0.006540323218293732
1.88625e-06;0.006526141703357886
1.88650e-06;0.006511960188422052
1.88675e-06;0.006497778673486205
1.88700e-06;0.006483597158550371
1.88725e-06;0.006457944875209255
1.88750e-06;0.006431143107849346
1.88775e-06;0.006404341340489459
1.88800e-06;0.006377539573129549
1.88825e-06;0.006350737805769662
1.88850e-06;0.006323936038409752
1.88875e-06;0.006297134271049866
1.88900e-06;0.0062703325036899795
1.88925e-06;0.00624353073633007
1.88950e-06;0.006216728968970183
1.88975e-06;0.006189927201610273
1.89000e-06;0.006163125434250387
1.89025e-06;0.006136323666890499
1.89050e-06;0.00610952189953059
1.89075e-06;0.006086930074230343
1.89100e-06;0.006064760126606117
1.89125e-06;0.00604259017898191
1.89150e-06;0.006020420231357702
1.89175e-06;0.005998250283733476
1.89200e-06;0.005976080336109269
1.89225e-06;0.0059539103884850425
1.89250e-06;0.005931740440860835
1.89275e-06;0.00590957049323661
1.89300e-06;0.005887400545612403
1.89325e-06;0.005865230597988195
1.89350e-06;0.005843060650363969
1.89375e-06;0.005829907072112747
1.89400e-06;0.005829786484465786
1.89425e-06;0.005829665896818824
1.89450e-06;0.005829545309171863
1.89475e-06;0.005829424721524902
1.89500e-06;0.00582930413387794
1.89525e-06;0.00582918354623098
1.89550e-06;0.005829062958584018
1.89575e-06;0.005828942370937057
1.89600e-06;0.005828821783290096
1.89625e-06;0.005828701195643135
1.89650e-06;0.005828580607996173
1.89675e-06;0.005828460020349212
1.89700e-06;0.005846403903538662
1.89725e-06;0.005866158024699689
1.89750e-06;0.005885912145860715
1.89775e-06;0.005905666267021758
1.89800e-06;0.005925420388182784
1.89825e-06;0.005945174509343828
1.89850e-06;0.005964928630504854
1.89875e-06;0.0059846827516658796
1.89900e-06;0.006004436872826923
1.89925e-06;0.006024190993987949
1.89950e-06;0.006043945115148992
1.89975e-06;0.006065094761503672
1.90000e-06;0.0060882616130086605
1.90025e-06;0.006111428464513668
1.90050e-06;0.006134595316018657
1.90075e-06;0.006157762167523665
1.90100e-06;0.006180929019028654
1.90125e-06;0.006204095870533661
1.90150e-06;0.00622726272203865
1.90175e-06;0.006250429573543639
1.90200e-06;0.006273596425048647
1.90225e-06;0.006296763276553635
1.90250e-06;0.006319930128058643
1.90275e-06;0.006327289176693538
1.90300e-06;0.006333064127722745
1.90325e-06;0.006338839078751956
1.90350e-06;0.006344614029781163
1.90375e-06;0.006350388980810375
1.90400e-06;0.006356163931839581
1.90425e-06;0.006361938882868788
1.90450e-06;0.006367713833898
1.90475e-06;0.006373488784927206
1.90500e-06;0.006379263735956418
1.90525e-06;0.006385038686985625
1.90550e-06;0.006390813638014836
1.90575e-06;0.006396588589044043
1.90600e-06;0.0064023635400732495
1.90625e-06;0.006408138491102461
1.90650e-06;0.00640599768234766
1.90675e-06;0.006392414793236842
1.90700e-06;0.006378831904126034
1.90725e-06;0.006365249015015227
1.90750e-06;0.0063516661259044194
1.90775e-06;0.006338083236793601
1.90800e-06;0.006324500347682782
1.90825e-06;0.0063109174585719635
1.90850e-06;0.006297334569461167
1.90875e-06;0.006283751680350349
1.90900e-06;0.00627016879123953
1.90925e-06;0.006256585902128735
1.90950e-06;0.006243003013017916
1.90975e-06;0.0062294201239070975
1.91000e-06;0.006215837234796301
1.91025e-06;0.006202254345685483
1.91050e-06;0.006187677717191269
1.91075e-06;0.006173001506219287
1.91100e-06;0.006158325295247328
1.91125e-06;0.0061436490842753455
1.91150e-06;0.006128972873303363
1.91175e-06;0.006114296662331405
1.91200e-06;0.006099620451359422
1.91225e-06;0.006084944240387439
1.91250e-06;0.006070268029415456
1.91275e-06;0.006055591818443499
1.91300e-06;0.006040915607471516
1.91325e-06;0.006026239396499533
1.91350e-06;0.006011563185527575
1.91375e-06;0.006013839900624482
1.91400e-06;0.0060178154659548235
1.91425e-06;0.006021791031285158
1.91450e-06;0.006025766596615499
1.91475e-06;0.006029742161945841
1.91500e-06;0.006033717727276182
1.91525e-06;0.0060376932926065165
1.91550e-06;0.006041668857936858
1.91575e-06;0.006045644423267199
1.91600e-06;0.006049619988597534
1.91625e-06;0.006053595553927875
1.91650e-06;0.0060575711192582165
1.91675e-06;0.006061546684588558
1.91700e-06;0.006082914204171417
1.91725e-06;0.006106024568937639
1.91750e-06;0.006129134933703862
1.91775e-06;0.006152245298470046
1.91800e-06;0.006175355663236268
1.91825e-06;0.0061984660280024915
1.91850e-06;0.006221576392768676
1.91875e-06;0.006244686757534898
1.91900e-06;0.006267797122301121
1.91925e-06;0.006290907487067344
1.91950e-06;0.006314017851833527
1.91975e-06;0.0063381560216251315
1.92000e-06;0.006363779864051102
1.92025e-06;0.006389403706477029
1.92050e-06;0.006415027548902999
1.92075e-06;0.00644065139132897
1.92100e-06;0.0064662752337549395
1.92125e-06;0.006491899076180866
1.92150e-06;0.006517522918606837
1.92175e-06;0.006543146761032807
1.92200e-06;0.006568770603458733
1.92225e-06;0.006594394445884704
1.92250e-06;0.006620018288310674
1.92275e-06;0.006630048159266119
1.92300e-06;0.006638515360628757
1.92325e-06;0.006646982561991396
1.92350e-06;0.006655449763354035
1.92375e-06;0.00666391696471666
1.92400e-06;0.006672384166079298
1.92425e-06;0.006680851367441937
1.92450e-06;0.006689318568804561
1.92475e-06;0.0066977857701672
1.92500e-06;0.006706252971529839
1.92525e-06;0.006714720172892478
1.92550e-06;0.006723187374255102
1.92575e-06;0.006731654575617741
1.92600e-06;0.006740121776980379
1.92625e-06;0.006748588978343004
1.92650e-06;0.006757056179705643
1.92675e-06;0.006765523381068282
1.92700e-06;0.006760256045261248
1.92725e-06;0.006753612373499706
1.92750e-06;0.006746968701738164
1.92775e-06;0.006740325029976622
1.92800e-06;0.006733681358215091
1.92825e-06;0.006727037686453549
1.92850e-06;0.0067203940146920065
1.92875e-06;0.006713750342930476
1.92900e-06;0.006707106671168934
1.92925e-06;0.006700462999407392
1.92950e-06;0.00669381932764585
1.92975e-06;0.006687175655884318
1.93000e-06;0.006680531984122776
1.93025e-06;0.006673888312361234
1.93050e-06;0.006667244640599704
1.93075e-06;0.006660600968838162
1.93100e-06;0.00665395729707662
1.93125e-06;0.006645493350135424
1.93150e-06;0.006636846993685538
1.93175e-06;0.006628200637235652
1.93200e-06;0.006619554280785767
1.93225e-06;0.006610907924335895
1.93250e-06;0.00660226156788601
1.93275e-06;0.0065936152114361235
1.93300e-06;0.006584968854986253
1.93325e-06;0.006576322498536367
1.93350e-06;0.006567676142086481
1.93375e-06;0.006559029785636595
1.93400e-06;0.006539953413128255
1.93425e-06;0.0065198318502409335
1.93450e-06;0.006499710287353611
1.93475e-06;0.006479588724466323
1.93500e-06;0.006459467161579002
1.93525e-06;0.0064393455986916795
1.93550e-06;0.006419224035804392
1.93575e-06;0.00639910247291707
1.93600e-06;0.006378980910029749
1.93625e-06;0.0063588593471424265
1.93650e-06;0.006338737784255139
1.93675e-06;0.006303266504161346
1.93700e-06;0.006266257031158251
1.93725e-06;0.0062292475581552185
1.93750e-06;0.006192238085152123
1.93775e-06;0.006155228612149028
1.93800e-06;0.006118219139145995
1.93825e-06;0.0060812096661429
1.93850e-06;0.006044200193139805
1.93875e-06;0.00600719072013671
1.93900e-06;0.005970181247133677
1.93925e-06;0.005931548314598371
1.93950e-06;0.005890568702157084
1.93975e-06;0.005849589089715867
1.94000e-06;0.00580860947727458
1.94025e-06;0.005767629864833293
1.94050e-06;0.005726650252392007
1.94075e-06;0.00568567063995079
1.94100e-06;0.005644691027509503
1.94125e-06;0.005603711415068216
1.94150e-06;0.005562731802626999
1.94175e-06;0.005521752190185712
1.94200e-06;0.005495452365109914
1.94225e-06;0.005470623599372562
1.94250e-06;0.005445794833635168
1.94275e-06;0.005420966067897774
1.94300e-06;0.00539613730216038
1.94325e-06;0.005371308536423028
1.94350e-06;0.005346479770685634
1.94375e-06;0.00532165100494824
1.94400e-06;0.005296822239210888
1.94425e-06;0.005285185146050256
1.94450e-06;0.005292616364941025
1.94475e-06;0.005300047583831795
1.94500e-06;0.005307478802722552
1.94525e-06;0.0053149100216133205
1.94550e-06;0.00532234124050409
1.94575e-06;0.005329772459394847
1.94600e-06;0.0053372036782856165
1.94625e-06;0.005344634897176385
1.94650e-06;0.005352066116067142
1.94675e-06;0.005386465787202294
1.94700e-06;0.005423567962980755
1.94725e-06;0.005460670138759216
1.94750e-06;0.0054977723145376136
1.94775e-06;0.005534874490316075
1.94800e-06;0.005571976666094536
1.94825e-06;0.005609078841872934
1.94850e-06;0.005646181017651395
1.94875e-06;0.005683283193429856
1.94900e-06;0.005725354612911899
1.94925e-06;0.005774608979745733
1.94950e-06;0.005823863346579651
1.94975e-06;0.0058731177134135676
1.95000e-06;0.005922372080247401
1.95025e-06;0.005971626447081318
1.95050e-06;0.006020880813915235
1.95075e-06;0.006070135180749069
1.95100e-06;0.006119389547582986
