Time(s);Current(A)
4.80000e-06;0.010018748762490304
4.80025e-06;0.010062273269302598
4.80050e-06;0.010105797776114893
4.80075e-06;0.010149322282927335
4.80100e-06;0.010192846789739628
4.80125e-06;0.010236371296551923
4.80150e-06;0.010279895803364365
4.80175e-06;0.010323420310176658
4.80200e-06;0.010366944816988953
4.80225e-06;0.010410469323801396
4.80250e-06;0.010453993830613689
4.80275e-06;0.010479166577889875
4.80300e-06;0.010502313230889996
4.80325e-06;0.010525459883890037
4.80350e-06;0.010548606536890158
4.80375e-06;0.010571753189890199
4.80400e-06;0.01059489984289024
4.80425e-06;0.01061804649589036
4.80450e-06;0.010641193148890402
4.80475e-06;0.010652006152155013
4.80500e-06;0.010644362842568797
4.80525e-06;0.010636719532982607
4.80550e-06;0.010629076223396417
4.80575e-06;0.010621432913810201
4.80600e-06;0.010613789604224011
4.80625e-06;0.010606146294637821
4.80650e-06;0.010598502985051605
4.80675e-06;0.010590859675465416
4.80700e-06;0.010555830737343546
4.80725e-06;0.010517778336261335
4.80750e-06;0.010479725935179252
4.80775e-06;0.010441673534097041
4.80800e-06;0.010403621133014958
4.80825e-06;0.010365568731932876
4.80850e-06;0.010327516330850665
4.80875e-06;0.010289463929768584
4.80900e-06;0.010251411528686501
4.80925e-06;0.01021335912760429
4.80950e-06;0.010175306726522207
4.80975e-06;0.010126935191301308
4.81000e-06;0.010077424389920809
4.81025e-06;0.010027913588540478
4.81050e-06;0.009978402787160147
4.81075e-06;0.00992889198577965
4.81100e-06;0.009879381184399318
4.81125e-06;0.009829870383018987
4.81150e-06;0.009780359581638488
4.81175e-06;0.009730848780258157
4.81200e-06;0.00968133797887766
4.81225e-06;0.009631827177497328
4.81250e-06;0.009597757834812176
4.81275e-06;0.009565393279670556
4.81300e-06;0.009533028724529043
4.81325e-06;0.009500664169387532
4.81350e-06;0.00946829961424591
4.81375e-06;0.0094359350591044
4.81400e-06;0.009403570503962887
4.81425e-06;0.009371205948821267
4.81450e-06;0.009350120985853489
4.81475e-06;0.009345915023539165
4.81500e-06;0.009341709061224826
4.81525e-06;0.009337503098910502
4.81550e-06;0.009333297136596178
4.81575e-06;0.009329091174281838
4.81600e-06;0.009324885211967514
4.81625e-06;0.009320679249653175
4.81650e-06;0.009316473287338851
4.81675e-06;0.009338369044776255
4.81700e-06;0.009363146517443416
4.81725e-06;0.009387923990110491
4.81750e-06;0.009412701462777567
4.81775e-06;0.009437478935444726
4.81800e-06;0.009462256408111802
4.81825e-06;0.009487033880778878
4.81850e-06;0.009511811353446038
4.81875e-06;0.009536588826113114
4.81900e-06;0.00956136629878019
4.81925e-06;0.009586143771447349
4.81950e-06;0.009615867025976929
4.81975e-06;0.009652991244477101
4.82000e-06;0.0096901154629774
4.82025e-06;0.009727239681477574
4.82050e-06;0.009764363899977873
4.82075e-06;0.009801488118478047
4.82100e-06;0.00983861233697822
4.82125e-06;0.009875736555478519
4.82150e-06;0.009912860773978693
4.82175e-06;0.009949984992478867
4.82200e-06;0.009987109210979166
4.82225e-06;0.010024233429479338
4.82250e-06;0.010046033857220719
4.82275e-06;0.01006614248834445
4.82300e-06;0.010086251119468115
4.82325e-06;0.010106359750591778
4.82350e-06;0.010126468381715511
4.82375e-06;0.010146577012839176
4.82400e-06;0.01016668564396284
4.82425e-06;0.010186794275086572
4.82450e-06;0.010206902906210237
4.82475e-06;0.010227011537333968
4.82500e-06;0.010247120168457633
4.82525e-06;0.010256773228958935
4.82550e-06;0.010250780370652692
4.82575e-06;0.01024478751234647
4.82600e-06;0.010238794654040248
4.82625e-06;0.010232801795734006
4.82650e-06;0.010226808937427783
4.82675e-06;0.01022081607912156
4.82700e-06;0.010214823220815319
4.82725e-06;0.010208830362509096
4.82750e-06;0.010202837504202875
4.82775e-06;0.010196844645896631
4.82800e-06;0.010190851787590409
4.82825e-06;0.010169505828044392
4.82850e-06;0.01014646483590813
4.82875e-06;0.010123423843771944
4.82900e-06;0.010100382851635682
4.82925e-06;0.010077341859499496
4.82950e-06;0.010054300867363312
4.82975e-06;0.010031259875227048
4.83000e-06;0.010008218883090864
4.83025e-06;0.009985177890954678
4.83050e-06;0.009962136898818415
4.83075e-06;0.00993909590668223
4.83100e-06;0.009916054914546045
4.83125e-06;0.009893013922409783
4.83150e-06;0.009873630285807972
4.83175e-06;0.009854650433218695
4.83200e-06;0.009835670580629353
4.83225e-06;0.009816690728040077
4.83250e-06;0.0097977108754508
4.83275e-06;0.009778731022861458
4.83300e-06;0.00975975117027218
4.83325e-06;0.009740771317682839
4.83350e-06;0.009721791465093563
4.83375e-06;0.009702811612504286
4.83400e-06;0.009683831759914944
4.83425e-06;0.009664851907325666
4.83450e-06;0.00964587205473639
4.83475e-06;0.009645085416078659
4.83500e-06;0.009646307367740347
4.83525e-06;0.009647529319402035
4.83550e-06;0.009648751271063728
4.83575e-06;0.009649973222725415
4.83600e-06;0.009651195174387103
4.83625e-06;0.009652417126048795
4.83650e-06;0.009653639077710482
4.83675e-06;0.00965486102937217
4.83700e-06;0.009656082981033862
4.83725e-06;0.00965730493269555
4.83750e-06;0.00965852688435724
4.83775e-06;0.009659748836018929
4.83800e-06;0.009660970787680617
4.83825e-06;0.00966219273934231
4.83850e-06;0.009663414691003997
4.83875e-06;0.009669088147546107
4.83900e-06;0.009681422922387111
4.83925e-06;0.009693757697228075
4.83950e-06;0.009706092472069038
4.83975e-06;0.009718427246910043
4.84000e-06;0.009730762021751006
4.84025e-06;0.009743096796591967
4.84050e-06;0.009755431571432972
4.84075e-06;0.009767766346273936
4.84100e-06;0.009780101121114899
4.84125e-06;0.009792435895955904
4.84150e-06;0.009804770670796867
4.84175e-06;0.009817105445637872
4.84200e-06;0.009829440220478835
4.84225e-06;0.009841774995319798
4.84250e-06;0.009854109770160803
4.84275e-06;0.009866444545001766
4.84300e-06;0.009869727179107184
4.84325e-06;0.009872010427270596
4.84350e-06;0.009874293675434001
4.84375e-06;0.009876576923597407
4.84400e-06;0.00987886017176082
4.84425e-06;0.009881143419924226
4.84450e-06;0.009883426668087631
4.84475e-06;0.009885709916251043
4.84500e-06;0.009887993164414449
4.84525e-06;0.009890276412577854
4.84550e-06;0.009885212409107455
4.84575e-06;0.009869153835696833
4.84600e-06;0.009853095262286157
4.84625e-06;0.009837036688875535
4.84650e-06;0.009820978115464913
4.84675e-06;0.009804919542054237
4.84700e-06;0.009788860968643615
4.84725e-06;0.009772802395232993
4.84750e-06;0.009756743821822317
4.84775e-06;0.009740685248411695
4.84800e-06;0.009724626675001073
4.84825e-06;0.009697054728867602
4.84850e-06;0.009668211668731764
4.84875e-06;0.009639368608595928
4.84900e-06;0.009610525548459993
4.84925e-06;0.009581682488324157
4.84950e-06;0.00955283942818832
4.84975e-06;0.009523996368052385
4.85000e-06;0.009495153307916549
4.85025e-06;0.009466310247780614
4.85050e-06;0.009437467187644778
4.85075e-06;0.00940931674625616
4.85100e-06;0.009382202753003036
4.85125e-06;0.009355088759750005
4.85150e-06;0.009327974766496975
4.85175e-06;0.009300860773243852
4.85200e-06;0.00927374677999082
4.85225e-06;0.009246632786737789
4.85250e-06;0.009219518793484666
4.85275e-06;0.009192404800231636
4.85300e-06;0.009165290806978605
4.85325e-06;0.00913817681372548
4.85350e-06;0.009117634028269714
4.85375e-06;0.009097816725645328
4.85400e-06;0.009077999423020877
4.85425e-06;0.009058728749190741
4.85450e-06;0.009039518424967122
4.85475e-06;0.009020308100743571
4.85500e-06;0.009001097776520018
4.85525e-06;0.008981887452296401
4.85550e-06;0.008962677128072848
4.85575e-06;0.008943466803849295
4.85600e-06;0.008924256479625678
4.85625e-06;0.008905046155402125
4.85650e-06;0.008885835831178574
4.85675e-06;0.008866625506954955
4.85700e-06;0.008847415182731404
4.85725e-06;0.00882820485850785
4.85750e-06;0.008808994534284234
4.85775e-06;0.008789170143812062
4.85800e-06;0.00876927795841781
4.85825e-06;0.008749385773023489
4.85850e-06;0.008729493587629237
4.85875e-06;0.008709601402234916
4.85900e-06;0.008689709216840662
4.85925e-06;0.00866981703144641
4.85950e-06;0.00864992484605209
4.85975e-06;0.008630032660657837
4.86000e-06;0.008610140475263582
4.86025e-06;0.008590248289869262
4.86050e-06;0.00857035610447501
4.86075e-06;0.008550463919080757
4.86100e-06;0.008530571733686435
4.86125e-06;0.008514635536801672
4.86150e-06;0.008499136093985891
4.86175e-06;0.008483636651170058
4.86200e-06;0.008468137208354277
4.86225e-06;0.008452637765538498
4.86250e-06;0.008437138322722665
4.86275e-06;0.008421638879906884
4.86300e-06;0.00840613943709105
4.86325e-06;0.00839063999427527
4.86350e-06;0.008375140551459489
4.86375e-06;0.008377078109876446
4.86400e-06;0.008380940770254664
4.86425e-06;0.008384803430632881
4.86450e-06;0.008388666091011113
4.86475e-06;0.00839252875138933
4.86500e-06;0.008396391411767548
4.86525e-06;0.00840025407214578
4.86550e-06;0.008404116732523998
4.86575e-06;0.008407979392902215
4.86600e-06;0.008411842053280445
4.86625e-06;0.008442870329872428
4.86650e-06;0.008476897779335156
4.86675e-06;0.008510925228798002
4.86700e-06;0.008544952678260732
4.86725e-06;0.008578980127723576
4.86750e-06;0.008613007577186306
4.86775e-06;0.008647035026649036
4.86800e-06;0.00868106247611188
4.86825e-06;0.00871508992557461
4.86850e-06;0.00874911737503734
4.86875e-06;0.008783144824500187
4.86900e-06;0.00882303893836527
4.86925e-06;0.008871712042698102
4.86950e-06;0.008920385147031102
4.86975e-06;0.008969058251363935
4.87000e-06;0.00901773135569677
4.87025e-06;0.009066404460029768
4.87050e-06;0.009115077564362601
4.87075e-06;0.009163750668695436
4.87100e-06;0.009212423773028434
4.87125e-06;0.009261096877361269
4.87150e-06;0.009309769981694267
4.87175e-06;0.0093584430860271
4.87200e-06;0.009394977570759893
4.87225e-06;0.009430171912191978
4.87250e-06;0.009465366253623942
4.87275e-06;0.009500560595055905
4.87300e-06;0.00953575493648799
4.87325e-06;0.009570949277919955
4.87350e-06;0.00960614361935192
4.87375e-06;0.009641337960784003
4.87400e-06;0.009676532302215967
4.87425e-06;0.009711726643647932
4.87450e-06;0.009746920985080015
4.87475e-06;0.009774652202238079
4.87500e-06;0.009801559466069738
4.87525e-06;0.009828466729901487
4.87550e-06;0.009855373993733147
4.87575e-06;0.009882281257564896
4.87600e-06;0.009909188521396555
4.87625e-06;0.009936095785228213
4.87650e-06;0.009963003049059964
4.87675e-06;0.009989910312891622
4.87700e-06;0.010016817576723281
4.87725e-06;0.01004372484055503
4.87750e-06;0.010071189256230998
4.87775e-06;0.010098715183292613
4.87800e-06;0.010126241110354322
4.87825e-06;0.01015376703741594
4.87850e-06;0.010181292964477555
4.87875e-06;0.010208818891539264
4.87900e-06;0.01023634481860088
4.87925e-06;0.010263870745662495
4.87950e-06;0.010291396672724204
4.87975e-06;0.010318922599785821
4.88000e-06;0.01034644852684753
4.88025e-06;0.010372074231430915
4.88050e-06;0.010394856406220307
4.88075e-06;0.010417638581009773
4.88100e-06;0.010440420755799165
4.88125e-06;0.010463202930588555
4.88150e-06;0.010485985105378022
4.88175e-06;0.010508767280167414
4.88200e-06;0.010531549454956804
4.88225e-06;0.010554331629746271
4.88250e-06;0.010577113804535663
4.88275e-06;0.010599895979325053
4.88300e-06;0.010622678154114521
4.88325e-06;0.010629228736633278
4.88350e-06;0.010633987298284192
4.88375e-06;0.010638745859935121
4.88400e-06;0.010643504421586033
4.88425e-06;0.010648262983236963
4.88450e-06;0.010653021544887877
4.88475e-06;0.010657780106538789
4.88500e-06;0.010650982906721547
4.88525e-06;0.01062689344118289
4.88550e-06;0.010602803975644236
4.88575e-06;0.010578714510105499
4.88600e-06;0.010554625044566843
4.88625e-06;0.010530535579028189
4.88650e-06;0.010506446113489451
4.88675e-06;0.010482356647950797
4.88700e-06;0.010431124515646224
4.88725e-06;0.010376895744168103
4.88750e-06;0.010322666972690164
4.88775e-06;0.010268438201212227
4.88800e-06;0.010214209429734106
4.88825e-06;0.010159980658256167
4.88850e-06;0.010105751886778046
4.88875e-06;0.01005152311530011
4.88900e-06;0.00999729434382217
4.88925e-06;0.00994306557234405
4.88950e-06;0.009876775856779723
4.88975e-06;0.009809154573546558
4.89000e-06;0.009741533290313163
4.89025e-06;0.009673912007079996
4.89050e-06;0.009606290723846831
4.89075e-06;0.009538669440613436
4.89100e-06;0.00947104815738027
4.89125e-06;0.009403426874147105
4.89150e-06;0.00933580559091371
4.89175e-06;0.009268184307680545
4.89200e-06;0.009220929966404688
4.89225e-06;0.00917592420212449
4.89250e-06;0.009130918437844441
4.89275e-06;0.009085912673564242
4.89300e-06;0.009040906909284196
4.89325e-06;0.00899590114500415
4.89350e-06;0.00895089538072395
4.89375e-06;0.008905889616443903
4.89400e-06;0.008860883852163857
4.89425e-06;0.008815878087883658
4.89450e-06;0.00877087232360361
4.89475e-06;0.008725866559323564
4.89500e-06;0.008680860795043365
4.89525e-06;0.008635855030763319
4.89550e-06;0.008612487882728649
4.89575e-06;0.008591509708689282
4.89600e-06;0.008570531534649987
4.89625e-06;0.00854955336061069
4.89650e-06;0.008528575186571323
4.89675e-06;0.008507597012532028
4.89700e-06;0.00848661883849266
4.89725e-06;0.008465640664453366
4.89750e-06;0.008444662490414069
4.89775e-06;0.008423684316374703
4.89800e-06;0.008402706142335407
4.89825e-06;0.008381727968296112
4.89850e-06;0.008360749794256744
4.89875e-06;0.008339771620217448
4.89900e-06;0.008326981639888542
4.89925e-06;0.00831509566292181
4.89950e-06;0.008303209685955118
4.89975e-06;0.008291323708988425
4.90000e-06;0.008279437732021694
4.90025e-06;0.008267551755055001
4.90050e-06;0.00825566577808831
4.90075e-06;0.008243779801121577
4.90100e-06;0.008233413333104567
4.90125e-06;0.008225320687767941
4.90150e-06;0.008217228042431341
4.90175e-06;0.008209135397094744
4.90200e-06;0.008201042751758118
4.90225e-06;0.00819295010642152
4.90250e-06;0.00818485746108492
4.90275e-06;0.008176764815748295
4.90300e-06;0.008168672170411697
4.90325e-06;0.00817097837842555
4.90350e-06;0.00817443265385481
4.90375e-06;0.008177886929284058
4.90400e-06;0.008181341204713307
4.90425e-06;0.008184795480142568
4.90450e-06;0.008188249755571817
4.90475e-06;0.008191704031001066
4.90500e-06;0.008220492942496532
4.90525e-06;0.008252078880660697
4.90550e-06;0.008283664818824971
4.90575e-06;0.008315250756989136
4.90600e-06;0.008346836695153303
4.90625e-06;0.008378422633317575
4.90650e-06;0.00841000857148174
4.90675e-06;0.008471799967124728
4.90700e-06;0.008536926144048463
4.90725e-06;0.008602052320971975
4.90750e-06;0.00866717849789549
4.90775e-06;0.008732304674819223
4.90800e-06;0.008797430851742737
4.90825e-06;0.00886255702866625
4.90850e-06;0.008927683205589985
4.90875e-06;0.008992809382513497
4.90900e-06;0.00905793555943701
4.90925e-06;0.009138625781620923
4.90950e-06;0.009221034325297061
4.90975e-06;0.009303442868973479
4.91000e-06;0.009385851412649616
4.91025e-06;0.009468259956325754
4.91050e-06;0.00955066850000217
4.91075e-06;0.009633077043678308
4.91100e-06;0.009715485587354446
4.91125e-06;0.009797894131030863
4.91150e-06;0.009880302674707001
4.91175e-06;0.009948156410473086
4.91200e-06;0.010014403247850873
4.91225e-06;0.010080650085228435
4.91250e-06;0.010146896922606
4.91275e-06;0.010213143759983787
4.91300e-06;0.01027939059736135
4.91325e-06;0.010345637434738913
4.91350e-06;0.010397260437693668
4.91375e-06;0.010427000051027998
4.91400e-06;0.010456739664362431
4.91425e-06;0.010486479277696761
4.91450e-06;0.010516218891031093
4.91475e-06;0.010545958504365524
4.91500e-06;0.010575698117699857
4.91525e-06;0.010605437731034187
4.91550e-06;0.010593309161267925
4.91575e-06;0.010576558207176377
4.91600e-06;0.010559807253084827
4.91625e-06;0.010543056298993221
4.91650e-06;0.010526305344901673
4.91675e-06;0.010509554390810123
4.91700e-06;0.010492803436718517
4.91725e-06;0.01047605248262697
4.91750e-06;0.010459301528535421
4.91775e-06;0.010442550574443814
4.91800e-06;0.010392827006618652
4.91825e-06;0.010339463154415578
4.91850e-06;0.010286099302212685
4.91875e-06;0.010232735450009793
4.91900e-06;0.01017937159780672
4.91925e-06;0.010126007745603828
4.91950e-06;0.010072643893400936
4.91975e-06;0.010019280041197863
4.92000e-06;0.00996591618899497
4.92025e-06;0.009912552336792078
4.92050e-06;0.009852098745270146
4.92075e-06;0.009790862423344029
4.92100e-06;0.009729626101417912
4.92125e-06;0.009668389779491587
4.92150e-06;0.009607153457565472
4.92175e-06;0.009545917135639355
4.92200e-06;0.00948468081371303
4.92225e-06;0.00943657029265065
4.92250e-06;0.009389908902924942
4.92275e-06;0.009343247513199393
4.92300e-06;0.009296586123473845
4.92325e-06;0.009249924733748138
4.92350e-06;0.00920326334402259
4.92375e-06;0.009156601954297041
4.92400e-06;0.00913784430294356
4.92425e-06;0.009122167315551632
4.92450e-06;0.009106490328159703
4.92475e-06;0.009090813340767721
4.92500e-06;0.009075136353375791
4.92525e-06;0.009059459365983862
4.92550e-06;0.00904378237859188
4.92575e-06;0.00902810539119995
4.92600e-06;0.009012428403808021
4.92625e-06;0.00899675141641604
4.92650e-06;0.00898107442902411
4.92675e-06;0.008965397441632128
4.92700e-06;0.008949720454240199
4.92725e-06;0.008945691609860126
4.92750e-06;0.008959093272722034
4.92775e-06;0.008972494935583894
4.92800e-06;0.008985896598445755
4.92825e-06;0.008999298261307662
4.92850e-06;0.009012699924169523
4.92875e-06;0.009026101587031383
4.92900e-06;0.009039503249893291
4.92925e-06;0.009052904912755151
4.92950e-06;0.009066306575617012
4.92975e-06;0.00907970823847892
4.93000e-06;0.00909310990134078
4.93025e-06;0.00910651156420264
4.93050e-06;0.009119913227064548
4.93075e-06;0.009137855647457891
4.93100e-06;0.009156299382330797
4.93125e-06;0.009174743117203767
4.93150e-06;0.009193186852076672
4.93175e-06;0.00921163058694964
4.93200e-06;0.009230074321822546
4.93225e-06;0.009248518056695451
4.93250e-06;0.00926696179156842
4.93275e-06;0.009285405526441326
4.93300e-06;0.009303849261314232
4.93325e-06;0.009316047169660401
4.93350e-06;0.0093188987019891
4.93375e-06;0.009321750234317796
4.93400e-06;0.009324601766646502
4.93425e-06;0.0093274532989752
4.93450e-06;0.009330304831303897
4.93475e-06;0.009333156363632604
4.93500e-06;0.0093360078959613
4.93525e-06;0.009338859428289997
4.93550e-06;0.009341710960618704
4.93575e-06;0.0093445624929474
4.93600e-06;0.009325229144293313
4.93625e-06;0.009303446512235828
4.93650e-06;0.009281663880178346
4.93675e-06;0.009259881248120789
4.93700e-06;0.009238098616063305
4.93725e-06;0.009216315984005822
4.93750e-06;0.009194533351948265
4.93775e-06;0.009172750719890781
4.93800e-06;0.009150968087833299
4.93825e-06;0.00912918545577574
4.93850e-06;0.009107402823718257
4.93875e-06;0.009085620191660773
4.93900e-06;0.009063837559603216
4.93925e-06;0.009031776357172953
4.93950e-06;0.008998580366963556
4.93975e-06;0.008965384376754048
4.94000e-06;0.008932188386544653
4.94025e-06;0.008898992396335143
4.94050e-06;0.008865796406125748
4.94075e-06;0.008832600415916351
4.94100e-06;0.008799404425706843
4.94125e-06;0.008766208435497446
4.94150e-06;0.008733012445288051
4.94175e-06;0.008699816455078542
4.94200e-06;0.008666620464869147
4.94225e-06;0.00863342447465975
4.94250e-06;0.008611432202249218
4.94275e-06;0.008590676856918694
4.94300e-06;0.008569921511588172
4.94325e-06;0.00854916616625758
4.94350e-06;0.008528410820927056
4.94375e-06;0.008507655475596532
4.94400e-06;0.008486900130265939
4.94425e-06;0.008466144784935417
4.94450e-06;0.008455694151440025
4.94475e-06;0.008460663688698173
4.94500e-06;0.00846563322595632
4.94525e-06;0.008470602763214484
4.94550e-06;0.008475572300472632
4.94575e-06;0.008480541837730778
4.94600e-06;0.008485511374988942
4.94625e-06;0.00849048091224709
4.94650e-06;0.008495450449505237
4.94675e-06;0.00852580375902767
4.94700e-06;0.00855895952000949
4.94725e-06;0.008592115280991311
4.94750e-06;0.008625271041973243
4.94775e-06;0.008658426802955062
4.94800e-06;0.008691582563936881
4.94825e-06;0.008724738324918815
4.94850e-06;0.008757894085900634
4.94875e-06;0.008791049846882566
4.94900e-06;0.008824205607864385
4.94925e-06;0.008857361368846206
4.94950e-06;0.008901508006157717
4.94975e-06;0.008946868072154364
4.95000e-06;0.008992228138151011
4.95025e-06;0.00903758820414781
4.95050e-06;0.009082948270144458
4.95075e-06;0.009128308336141104
4.95100e-06;0.009173668402137906
4.95125e-06;0.009219028468134553
4.95150e-06;0.0092643885341312
4.95175e-06;0.009309748600127999
