Time(s);Current(A)
1.02500e-05;0.005350897433487783
1.02503e-05;0.00536143453857384
1.02505e-05;0.005371971643659898
1.02508e-05;0.005382508748745883
1.02510e-05;0.00539304585383194
1.02513e-05;0.005403582958917997
1.02515e-05;0.005414120064003983
1.02518e-05;0.005424661836122811
1.02520e-05;0.005446238029162642
1.02522e-05;0.005467814222202328
1.02525e-05;0.0054893904152421595
1.02528e-05;0.005510966608281992
1.02530e-05;0.005532542801321677
1.02533e-05;0.005554118994361509
1.02535e-05;0.005575695187401341
1.02537e-05;0.005597271380441027
1.02540e-05;0.005618847573480859
1.02543e-05;0.005640423766520691
1.02545e-05;0.0056619999595603765
1.02548e-05;0.00568786517594864
1.02550e-05;0.005718012168673514
1.02553e-05;0.005748159161398389
1.02555e-05;0.005778306154123059
1.02558e-05;0.005808453146847934
1.02560e-05;0.005838600139572808
1.02563e-05;0.005868747132297479
1.02565e-05;0.005898894125022354
1.02568e-05;0.005929041117747229
1.02570e-05;0.005959188110471899
1.02573e-05;0.005989335103196774
1.02575e-05;0.006019478978729218
1.02578e-05;0.006042252771615279
1.02580e-05;0.006065026564501495
1.02583e-05;0.0060878003573877106
1.02585e-05;0.006110574150273772
1.02588e-05;0.0061333479431599875
1.02590e-05;0.006156121736046204
1.02593e-05;0.006178895528932265
1.02595e-05;0.006201669321818481
1.02598e-05;0.006224443114704697
1.02600e-05;0.006247216907590758
1.02603e-05;0.006269990700476974
1.02605e-05;0.006279154971726277
1.02607e-05;0.006274732716865903
1.02610e-05;0.0062703104620055
1.02613e-05;0.006265888207145096
1.02615e-05;0.006261465952284722
1.02618e-05;0.006257043697424319
1.02620e-05;0.006252621442563916
1.02622e-05;0.006248199187703542
1.02625e-05;0.006243776932843138
1.02628e-05;0.006239354677982735
1.02630e-05;0.006234932423122361
1.02633e-05;0.006230510168261958
1.02635e-05;0.006226077056949216
1.02638e-05;0.006195975668256328
1.02640e-05;0.006165874279563644
1.02643e-05;0.006135772890870755
1.02645e-05;0.006105671502177867
1.02648e-05;0.006075570113485182
1.02650e-05;0.006045468724792294
1.02653e-05;0.006015367336099405
1.02655e-05;0.005985265947406721
1.02658e-05;0.005955164558713832
1.02660e-05;0.005925063170020944
1.02663e-05;0.00589496178132826
1.02665e-05;0.005864860392635371
1.02668e-05;0.005832351419606748
1.02670e-05;0.0057974389302523745
1.02673e-05;0.005762526440897764
1.02675e-05;0.005727613951543154
1.02678e-05;0.00569270146218878
1.02680e-05;0.0056577889728341695
1.02683e-05;0.005622876483479559
1.02685e-05;0.0055879639941251846
1.02688e-05;0.005553055780374703
1.02690e-05;0.005528256522857842
1.02692e-05;0.005503457265341149
1.02695e-05;0.005478658007824288
1.02698e-05;0.005453858750307427
1.02700e-05;0.005429059492790734
1.02703e-05;0.0054042602352738734
1.02705e-05;0.0053794609777570125
1.02707e-05;0.005354661720240319
1.02710e-05;0.005334594358236113
1.02713e-05;0.005319250896429538
1.02715e-05;0.005303907434623067
1.02718e-05;0.005288563972816491
1.02720e-05;0.005273220511009915
1.02723e-05;0.00525787704920334
1.02725e-05;0.005242533587396869
1.02728e-05;0.005227190125590293
1.02730e-05;0.005211846663783718
1.02733e-05;0.0051965032019772464
1.02735e-05;0.005181159740170671
1.02738e-05;0.005165816278364096
1.02740e-05;0.005150472816557624
1.02743e-05;0.005135129354751048
1.02745e-05;0.005119785892944473
1.02748e-05;0.005104442431138002
1.02750e-05;0.005089098969331426
1.02753e-05;0.00507375550752485
1.02755e-05;0.005061358613887519
1.02758e-05;0.005051903309708592
1.02760e-05;0.005042448005529665
1.02763e-05;0.005032992701350803
1.02765e-05;0.005023537397171876
1.02768e-05;0.00501408209299295
1.02770e-05;0.005004626788814087
1.02773e-05;0.00499517148463516
1.02775e-05;0.004985716180456234
1.02777e-05;0.004976260876277371
1.02780e-05;0.0049668055720984445
1.02783e-05;0.004957350267919517
1.02785e-05;0.0049478949637406545
1.02788e-05;0.004938439659561728
1.02790e-05;0.004928984355382801
1.02792e-05;0.004919529051203939
1.02795e-05;0.004910073747025012
1.02798e-05;0.004900618442846086
1.02800e-05;0.004898328577483288
1.02803e-05;0.004903192043752496
1.02805e-05;0.004908055510021704
1.02808e-05;0.004912918976290913
1.02810e-05;0.004917782442560088
1.02813e-05;0.004922645908829296
1.02815e-05;0.004927509375098504
1.02818e-05;0.00493237284136768
1.02820e-05;0.004937236307636888
1.02823e-05;0.0049420997739060965
1.02825e-05;0.004946963240175272
1.02828e-05;0.0049518267064444805
1.02830e-05;0.0049566901727136885
1.02833e-05;0.004961553638982864
1.02835e-05;0.0049750050346275675
1.02838e-05;0.0049970298489331495
1.02840e-05;0.005019054663238582
1.02843e-05;0.005041079477544164
1.02845e-05;0.005063104291849747
1.02848e-05;0.00508512910615518
1.02850e-05;0.005107153920460762
1.02853e-05;0.005129178734766345
1.02855e-05;0.005151203549071778
1.02858e-05;0.00517322836337736
1.02860e-05;0.005195253177682942
1.02862e-05;0.005217277991988375
1.02865e-05;0.005239302806293957
1.02868e-05;0.005261327620599539
1.02870e-05;0.005282913087137125
1.02873e-05;0.0053040599482570595
1.02875e-05;0.005325206809376994
1.02877e-05;0.005346353670496785
1.02880e-05;0.005367500531616719
1.02883e-05;0.005388647392736653
1.02885e-05;0.005409794253856444
1.02888e-05;0.005430941114976378
1.02890e-05;0.005452087976096313
1.02893e-05;0.005473234837216247
1.02895e-05;0.005494381698336038
1.02898e-05;0.0055155285594559724
1.02900e-05;0.005536675420575906
1.02903e-05;0.005547868170910703
1.02905e-05;0.005549123629561385
1.02908e-05;0.005550379088212067
1.02910e-05;0.005551634546862741
1.02913e-05;0.005552890005513423
1.02915e-05;0.005554145464164105
1.02918e-05;0.005555400922814778
1.02920e-05;0.00555665638146546
1.02923e-05;0.005557911840116142
1.02925e-05;0.005559167298766815
1.02928e-05;0.005560422757417497
1.02930e-05;0.005561678216068179
1.02933e-05;0.005562933674718853
1.02935e-05;0.005554911560685333
1.02938e-05;0.005537627549945903
1.02940e-05;0.0055203435392065904
1.02943e-05;0.00550305952846716
1.02945e-05;0.00548577551772773
1.02947e-05;0.005468491506988417
1.02950e-05;0.005451207496248987
1.02953e-05;0.005433923485509556
1.02955e-05;0.005416639474770244
1.02958e-05;0.0053993554640308136
1.02960e-05;0.005382071453291383
1.02962e-05;0.005364785668573545
1.02965e-05;0.005343305604220328
1.02968e-05;0.005321825539867111
1.02970e-05;0.0053003454755140384
1.02973e-05;0.005278865411160821
1.02975e-05;0.005257385346807604
1.02978e-05;0.005235905282454387
1.02980e-05;0.005214425218101316
1.02983e-05;0.0051929451537480985
1.02985e-05;0.0051714650893948805
1.02988e-05;0.005149985025041809
1.02990e-05;0.005128504960688592
1.02993e-05;0.0051142873830143385
1.02995e-05;0.005107320020859966
1.02998e-05;0.005100352658705546
1.03000e-05;0.005093385296551125
1.03003e-05;0.005086417934396753
1.03005e-05;0.005079450572242333
1.03008e-05;0.005072483210087912
1.03010e-05;0.005065515847933539
1.03013e-05;0.005058548485779119
1.03015e-05;0.005051581123624699
1.03018e-05;0.005044613761470326
1.03020e-05;0.005037646399315906
1.03023e-05;0.005030679037161485
1.03025e-05;0.005023720704996213
1.03028e-05;0.005038112294768046
1.03030e-05;0.005052503884539879
1.03032e-05;0.0050668954743116135
1.03035e-05;0.005081287064083446
1.03038e-05;0.005095678653855279
1.03040e-05;0.005110070243627014
1.03043e-05;0.005124461833398847
1.03045e-05;0.00513885342317068
1.03047e-05;0.005153245012942415
1.03050e-05;0.005167636602714247
1.03053e-05;0.00518202819248608
1.03055e-05;0.005196419782257816
1.03058e-05;0.005210811372029648
1.03060e-05;0.005228644470779991
1.03063e-05;0.005249913263516979
1.03065e-05;0.005271182056253824
1.03068e-05;0.005292450848990812
1.03070e-05;0.005313719641727802
1.03073e-05;0.005334988434464646
1.03075e-05;0.005356257227201635
1.03078e-05;0.005377526019938623
1.03080e-05;0.005398794812675469
1.03083e-05;0.005420063605412457
1.03085e-05;0.005441332398149446
1.03088e-05;0.00546260119088629
1.03090e-05;0.00548386998362328
1.03093e-05;0.0054996587938210585
1.03095e-05;0.0055099768808050545
1.03098e-05;0.00552029496778912
1.03100e-05;0.005530613054773186
1.03103e-05;0.005540931141757182
1.03105e-05;0.005551249228741248
1.03108e-05;0.005561567315725314
1.03110e-05;0.00557188540270931
1.03113e-05;0.005582203489693375
1.03115e-05;0.0055925215766774415
1.03117e-05;0.0056028396636614375
1.03120e-05;0.005613157750645503
1.03123e-05;0.005623475837629569
1.03125e-05;0.005627764393233799
1.03128e-05;0.005626033605335534
1.03130e-05;0.005624302817437268
1.03132e-05;0.0056225720295390155
1.03135e-05;0.0056208412416407505
1.03138e-05;0.005619110453742485
1.03140e-05;0.005617379665844232
1.03143e-05;0.005615648877945967
1.03145e-05;0.005613918090047701
1.03148e-05;0.005612187302149436
1.03150e-05;0.005610456514251183
1.03153e-05;0.005608725726352918
1.03155e-05;0.005606994938454652
1.03158e-05;0.005605264150556399
1.03160e-05;0.005603533362658134
1.03163e-05;0.005601800977034584
1.03165e-05;0.005596291032341884
1.03168e-05;0.005590781087649147
1.03170e-05;0.00558527114295641
1.03173e-05;0.00557976119826371
1.03175e-05;0.005574251253570973
1.03178e-05;0.005568741308878236
1.03180e-05;0.005563231364185536
1.03183e-05;0.005557721419492799
1.03185e-05;0.005552211474800062
1.03188e-05;0.005546701530107362
1.03190e-05;0.005541191585414625
1.03193e-05;0.005535681640721888
1.03195e-05;0.005530171696029188
1.03198e-05;0.005524661751336451
1.03200e-05;0.0055191518066437135
1.03202e-05;0.005518883342275733
1.03205e-05;0.005523847501897084
1.03208e-05;0.0055288116615184344
1.03210e-05;0.005533775821139752
1.03213e-05;0.0055387399807611025
1.03215e-05;0.005543704140382453
1.03217e-05;0.00554866830000377
1.03220e-05;0.005553632459625121
1.03223e-05;0.005558596619246472
1.03225e-05;0.005563560778867788
1.03228e-05;0.00556852493848914
1.03230e-05;0.00557348909811049
1.03232e-05;0.005578453257731807
1.03235e-05;0.0055834174173531575
1.03238e-05;0.005588381576974509
1.03240e-05;0.005593350417479653
1.03243e-05;0.00560938644029457
1.03245e-05;0.005625422463109596
1.03248e-05;0.005641458485924623
1.03250e-05;0.00565749450873954
1.03253e-05;0.005673530531554566
1.03255e-05;0.005689566554369592
1.03258e-05;0.00570560257718451
1.03260e-05;0.005721638599999536
1.03263e-05;0.005737674622814562
1.03265e-05;0.00575371064562948
1.03268e-05;0.0057697466684445056
1.03270e-05;0.005785782691259532
1.03273e-05;0.00580181871407445
1.03275e-05;0.0058178547368894756
1.03278e-05;0.005833890759704502
1.03280e-05;0.005848335688289368
1.03283e-05;0.005861192211057076
1.03285e-05;0.005874048733824784
1.03287e-05;0.005886905256592405
1.03290e-05;0.005899761779360114
1.03293e-05;0.005912618302127822
1.03295e-05;0.005925474824895443
1.03298e-05;0.005938331347663151
1.03300e-05;0.005951187870430859
1.03302e-05;0.00596404439319848
1.03305e-05;0.005976900915966189
1.03308e-05;0.0059897574387338965
1.03310e-05;0.006002613961501518
1.03313e-05;0.006015470484269226
1.03315e-05;0.006028327960344281
1.03317e-05;0.006043439375637888
1.03320e-05;0.006058550790931598
1.03323e-05;0.006073662206225309
1.03325e-05;0.006088773621519019
1.03328e-05;0.006103885036812627
1.03330e-05;0.0061189964521063366
1.03333e-05;0.0061341078674000465
1.03335e-05;0.006149219282693654
1.03338e-05;0.006164330697987364
1.03340e-05;0.006179442113281074
1.03343e-05;0.006194553528574682
1.03345e-05;0.006209664943868392
1.03348e-05;0.0062247763591621015
1.03350e-05;0.006239887774455709
1.03353e-05;0.006256454954195187
1.03355e-05;0.006274475438629709
1.03358e-05;0.006292495923064108
1.03360e-05;0.00631051640749863
1.03363e-05;0.0063285368919331515
1.03365e-05;0.006346557376367552
1.03368e-05;0.0063645778608020735
1.03370e-05;0.006382598345236595
1.03373e-05;0.0064006188296709945
1.03375e-05;0.006418639314105516
1.03378e-05;0.006436659798540038
1.03380e-05;0.006454678171324135
1.03383e-05;0.006467703891806422
1.03385e-05;0.0064807296122887095
1.03387e-05;0.006493755332770908
1.03390e-05;0.006506781053253195
1.03393e-05;0.006519806773735482
1.03395e-05;0.006532832494217681
1.03398e-05;0.006545858214699969
1.03400e-05;0.006558883935182256
1.03402e-05;0.006571909655664455
1.03405e-05;0.006584935376146742
1.03408e-05;0.006597961096629029
1.03410e-05;0.006611934637745367
1.03413e-05;0.006626854397998766
1.03415e-05;0.006641774158252265
1.03418e-05;0.0066566939185057645
1.03420e-05;0.0066716136787591624
1.03423e-05;0.006686533439012662
1.03425e-05;0.006701453199266162
1.03428e-05;0.00671637295951956
1.03430e-05;0.0067312927197730596
1.03433e-05;0.006746212480026559
1.03435e-05;0.006761132240279958
1.03438e-05;0.006776052000533457
1.03440e-05;0.006790971760786957
1.03443e-05;0.0068058915210403555
1.03445e-05;0.006820811281293855
1.03448e-05;0.006835731041547354
1.03450e-05;0.006850650801800752
1.03453e-05;0.006866543040694118
1.03455e-05;0.006883406115066915
1.03458e-05;0.006900269189439597
1.03460e-05;0.006917132263812394
1.03463e-05;0.00693399533818519
1.03465e-05;0.006950858412557872
1.03468e-05;0.006967721486930669
1.03470e-05;0.006984584561303465
1.03472e-05;0.007001447635676147
1.03475e-05;0.007018310710048944
1.03478e-05;0.007035173784421741
1.03480e-05;0.007052036858794422
1.03483e-05;0.007068899933167219
1.03485e-05;0.007085763007540016
1.03487e-05;0.007102626081912698
1.03490e-05;0.007119489156285494
1.03493e-05;0.0071363522306582905
1.03495e-05;0.007148812826582194
1.03498e-05;0.007156878382758146
1.03500e-05;0.007164943938934153
1.03503e-05;0.00717300949511016
1.03505e-05;0.007181075051286112
1.03508e-05;0.007189140607462118
1.03510e-05;0.007197206163638125
1.03513e-05;0.007205271719814077
1.03515e-05;0.007213337275990084
1.03518e-05;0.007221402832166091
1.03520e-05;0.007229468388342043
1.03523e-05;0.00723753394451805
1.03525e-05;0.007245599500694057
1.03528e-05;0.007253665056870009
1.03530e-05;0.007261730613046016
1.03533e-05;0.007269796169222022
1.03535e-05;0.007277861725397974
1.03538e-05;0.007285927281573981
1.03540e-05;0.007293992837749988
1.03543e-05;0.007302058393925941
1.03545e-05;0.007308336838805755
1.03548e-05;0.0073128311920032715
1.03550e-05;0.007317325545200758
1.03553e-05;0.007321819898398274
1.03555e-05;0.007326314251595791
1.03557e-05;0.007330808604793277
1.03560e-05;0.007335302957990794
1.03563e-05;0.00733979731118831
1.03565e-05;0.0073442916643857966
1.03568e-05;0.007348786017583313
1.03570e-05;0.007353280370780829
1.03572e-05;0.007357774723978315
1.03575e-05;0.007362269077175832
1.03578e-05;0.007366763430373348
1.03580e-05;0.007371257783570865
1.03583e-05;0.007375752136768351
1.03585e-05;0.007380246489965867
1.03588e-05;0.0073847408431633845
1.03590e-05;0.00738923519636087
1.03593e-05;0.007393729549558387
1.03595e-05;0.007392241440506117
1.03598e-05;0.007384780977541919
1.03600e-05;0.00737732051457767
1.03603e-05;0.007369860051613421
1.03605e-05;0.007362399588649223
1.03608e-05;0.007354939125684973
1.03610e-05;0.007347478662720724
1.03613e-05;0.007340018199756526
1.03615e-05;0.007332557736792277
1.03618e-05;0.007311317761499824
1.03620e-05;0.007276321556593968
1.03623e-05;0.007241325351687876
1.03625e-05;0.007206329146781783
1.03628e-05;0.007171332941875928
1.03630e-05;0.007136336736969835
1.03633e-05;0.007101340532063743
1.03635e-05;0.007066344327157887
1.03638e-05;0.007031348122251795
1.03640e-05;0.006984609427964095
1.03642e-05;0.006926148085129727
1.03645e-05;0.006867686742294963
1.03648e-05;0.0068092253994602
1.03650e-05;0.006750764056625831
1.03653e-05;0.006692302713791067
1.03655e-05;0.0066338413709563036
1.03657e-05;0.006575380028121935
1.03660e-05;0.006516918685287171
1.03663e-05;0.006455822707504413
1.03665e-05;0.006392096546415204
1.03668e-05;0.006328370385326428
1.03670e-05;0.006264644224237219
1.03673e-05;0.006200918063148011
1.03675e-05;0.006137191902059234
1.03678e-05;0.006073465740970026
1.03680e-05;0.006009739579880817
1.03683e-05;0.005946013418792041
1.03685e-05;0.005892660574174359
1.03688e-05;0.0058496635186343696
1.03690e-05;0.0058066664630946705
1.03693e-05;0.005763669407554681
1.03695e-05;0.00572067235201469
1.03698e-05;0.005677675296474992
1.03700e-05;0.005634678240935002
1.03703e-05;0.005591681185395012
1.03705e-05;0.005548684129855313
1.03708e-05;0.005505702381859689
1.03710e-05;0.005498912844222823
1.03713e-05;0.005492123306586001
1.03715e-05;0.005485333768949135
1.03718e-05;0.005478544231312267
1.03720e-05;0.005471754693675447
1.03723e-05;0.00546496515603858
1.03725e-05;0.005458175618401713
1.03727e-05;0.005451386080764892
1.03730e-05;0.005444596543128025
1.03733e-05;0.005449092226875071
1.03735e-05;0.0054648540638023504
1.03738e-05;0.005480615900729737
1.03740e-05;0.005496377737657123
1.03742e-05;0.005512139574584403
1.03745e-05;0.005527901411511789
1.03748e-05;0.005573171344798146
1.03750e-05;0.005609602825219768
1.03753e-05;0.005646034305641145
1.03755e-05;0.005682465786062767
1.03758e-05;0.00571889726648439
1.03760e-05;0.005755328746905766
1.03763e-05;0.005791760227327389
1.03765e-05;0.005828191707749011
1.03768e-05;0.005865867332093261
1.03770e-05;0.00590473684185777
1.03773e-05;0.005943606351622279
1.03775e-05;0.005982475861386524
1.03778e-05;0.006021345371151032
1.03780e-05;0.0060602148809155406
1.03783e-05;0.006099084390679786
1.03785e-05;0.0061379539004442945
1.03788e-05;0.006163753889308577
1.03790e-05;0.006185855342326017
1.03793e-05;0.0062079567953436075
1.03795e-05;0.006230058248361197
1.03798e-05;0.006252159701378638
1.03800e-05;0.006274261154396227
1.03803e-05;0.006296362607413817
1.03805e-05;0.006318464060431257
1.03808e-05;0.006340565513448847
1.03810e-05;0.006362666966466438
1.03812e-05;0.006384768419483877
1.03815e-05;0.006406869872501468
1.03818e-05;0.006415416966242984
1.03820e-05;0.006408974193966586
1.03823e-05;0.006402531421690144
1.03825e-05;0.006396088649413703
1.03827e-05;0.006389645877137305
1.03830e-05;0.006383203104860863
1.03833e-05;0.006376760332584421
1.03835e-05;0.006370317560307979
1.03838e-05;0.006363874788031581
1.03840e-05;0.00635743201575514
1.03843e-05;0.006350989243478698
1.03845e-05;0.0063445464712023
1.03848e-05;0.006335217478600403
1.03850e-05;0.00631182482861207
1.03853e-05;0.006288432178623895
1.03855e-05;0.0062650395286355616
1.03858e-05;0.006241646878647228
1.03860e-05;0.006218254228659053
1.03863e-05;0.00619486157867072
1.03865e-05;0.0061714689286823865
1.03868e-05;0.0061480762786942115
1.03870e-05;0.006124683628705878
1.03873e-05;0.006101290978717545
1.03875e-05;0.00607871826181319
1.03878e-05;0.006056548881852267
1.03880e-05;0.006034379501891344
1.03883e-05;0.006012210121930571
1.03885e-05;0.005990040741969648
1.03888e-05;0.0059678713620087255
1.03890e-05;0.005945701982047953
1.03893e-05;0.00592353260208703
1.03895e-05;0.005901363222126107
1.03897e-05;0.0058791938421653344
1.03900e-05;0.005857332940900169
1.03903e-05;0.0058369751607416495
1.03905e-05;0.005816617380583268
1.03908e-05;0.005796259600424748
1.03910e-05;0.005775901820266228
1.03912e-05;0.005755544040107846
1.03915e-05;0.005735186259949327
1.03918e-05;0.005714828479790807
1.03920e-05;0.005694470699632287
1.03923e-05;0.005674112919473905
1.03925e-05;0.0056537551393153855
1.03928e-05;0.005633397359156866
1.03930e-05;0.005613039578998485
1.03933e-05;0.005592681798839965
1.03935e-05;0.00556777030136691
1.03938e-05;0.005540618764480755
1.03940e-05;0.005513467227594417
1.03943e-05;0.005486315690708078
1.03945e-05;0.005459164153821923
1.03948e-05;0.005432012616935584
1.03950e-05;0.005404861080049245
1.03953e-05;0.0053777095431630905
1.03955e-05;0.005350558006276752
1.03958e-05;0.005323406469390413
1.03960e-05;0.005296254932504258
1.03963e-05;0.005269103395617919
1.03965e-05;0.0052419518587315805
1.03968e-05;0.005215484349928121
1.03970e-05;0.005192349898036403
1.03973e-05;0.005169215446144686
1.03975e-05;0.005146080994253126
1.03978e-05;0.005122946542361408
1.03980e-05;0.005099812090469691
1.03982e-05;0.005076677638578131
1.03985e-05;0.0050535431866864135
1.03988e-05;0.0050304087347946965
1.03990e-05;0.005007274282903137
1.03993e-05;0.004984139831011419
1.03995e-05;0.004961005379119702
1.03997e-05;0.004937870927228142
1.04000e-05;0.004914736475336424
1.04003e-05;0.004894895172660249
1.04005e-05;0.004891100365783892
1.04008e-05;0.004887305558907561
1.04010e-05;0.004883510752031204
