Time(s);Current(A)
2.80000e-06;0.002729399494106806
2.80025e-06;0.0027094612969425324
2.80050e-06;0.0026895230997782257
2.80075e-06;0.002669584902613919
2.80100e-06;0.0026497578401444223
2.80125e-06;0.0026299441200075763
2.80150e-06;0.002610130399870697
2.80175e-06;0.002590316679733817
2.80200e-06;0.002570502959596971
2.80225e-06;0.0025506892394600916
2.80250e-06;0.002530875519323212
2.80275e-06;0.002511061799186366
2.80300e-06;0.0024912480790494867
2.80325e-06;0.002471434358912607
2.80350e-06;0.0024516206387757275
2.80375e-06;0.0024318069186388814
2.80400e-06;0.002411798171589673
2.80425e-06;0.0023914879633882636
2.80450e-06;0.002371177755186888
2.80475e-06;0.002350867546985478
2.80500e-06;0.0023305573387840685
2.80525e-06;0.002310247130582659
2.80550e-06;0.0022899369223812836
2.80575e-06;0.0022696267141798735
2.80600e-06;0.002249316505978464
2.80625e-06;0.0022290062977770885
2.80650e-06;0.002208696089575679
2.80675e-06;0.002188385881374269
2.80700e-06;0.0021680756731728935
2.80725e-06;0.0021508821602730177
2.80750e-06;0.0021340628238214277
2.80775e-06;0.0021172434873698376
2.80800e-06;0.002100424150918276
2.80825e-06;0.002086904869364017
2.80850e-06;0.002073781777588093
2.80875e-06;0.0020606586858121913
2.80900e-06;0.0020475355940362673
2.80925e-06;0.002036224593632366
2.80950e-06;0.0020294275747722574
2.80975e-06;0.002023146366011487
2.81000e-06;0.002016865157250707
2.81025e-06;0.002010583948489926
2.81050e-06;0.0020043027397291563
2.81075e-06;0.0019980215309683756
2.81100e-06;0.001991740322207595
2.81125e-06;0.001985459113446825
2.81150e-06;0.0019791779046860448
2.81175e-06;0.001972896695925264
2.81200e-06;0.0019666154871644833
2.81225e-06;0.0019603342784037135
2.81250e-06;0.0019540530696429328
2.81275e-06;0.0019477718608821523
2.81300e-06;0.0019437887645892124
2.81325e-06;0.0019433579556406668
2.81350e-06;0.001942927146692121
2.81375e-06;0.0019424963377435752
2.81400e-06;0.00194206552879503
2.81425e-06;0.0019416347198464845
2.81450e-06;0.0019412039108979387
2.81475e-06;0.0019407731019493936
2.81500e-06;0.001940342293000848
2.81525e-06;0.0019399114840523023
2.81550e-06;0.0019394806751037571
2.81575e-06;0.0019390498661552113
2.81600e-06;0.0019386190572066658
2.81625e-06;0.00193818824825812
2.81650e-06;0.0019377574393095749
2.81675e-06;0.0019380416175554481
2.81700e-06;0.0019384116339545984
2.81725e-06;0.001938781650353748
2.81750e-06;0.0019391516667528982
2.81775e-06;0.0019395216831520484
2.81800e-06;0.0019398916995511984
2.81825e-06;0.001940261715950348
2.81850e-06;0.0019406317323494983
2.81875e-06;0.0019410017487486485
2.81900e-06;0.001941371765147798
2.81925e-06;0.0019417417815469483
2.81950e-06;0.0019421117979460986
2.81975e-06;0.001938104304161023
2.82000e-06;0.0019335712661520635
2.82025e-06;0.0019290382281431041
2.82050e-06;0.0019245051901341447
2.82075e-06;0.0019199721521251931
2.82100e-06;0.0019154391141162337
2.82125e-06;0.0019109060761072743
2.82150e-06;0.0019063730380983227
2.82175e-06;0.0019018400000893633
2.82200e-06;0.001897306962080404
2.82225e-06;0.0018927739240714445
2.82250e-06;0.0018882408860624927
2.82275e-06;0.001878777351664262
2.82300e-06;0.0018687218840004848
2.82325e-06;0.0018586664163367248
2.82350e-06;0.0018486109486729476
2.82375e-06;0.0018385554810091706
2.82400e-06;0.0018285000133454105
2.82425e-06;0.0018184445456816333
2.82450e-06;0.0018083890780178562
2.82475e-06;0.0017983336103540792
2.82500e-06;0.0017882781426903191
2.82525e-06;0.0017778593263233717
2.82550e-06;0.0017668788668610534
2.82575e-06;0.0017558984073987537
2.82600e-06;0.0017449179479364354
2.82625e-06;0.0017339374884741173
2.82650e-06;0.001722957029011799
2.82675e-06;0.0017119765695494994
2.82700e-06;0.0017009961100871813
2.82725e-06;0.001690015650624863
2.82750e-06;0.0016790351911625634
2.82775e-06;0.0016680547317002453
2.82800e-06;0.0016621742789412264
2.82825e-06;0.001656906110095269
2.82850e-06;0.0016516379412493025
2.82875e-06;0.0016463697724033361
2.82900e-06;0.0016411016035573697
2.82925e-06;0.001635833434711412
2.82950e-06;0.0016305652658654456
2.82975e-06;0.0016252970970194792
2.83000e-06;0.0016200289281735217
2.83025e-06;0.0016147607593275553
2.83050e-06;0.0016094925904815887
2.83075e-06;0.0016042244216356223
2.83100e-06;0.0015989562527896648
2.83125e-06;0.0015936880839436984
2.83150e-06;0.0015884199150977317
2.83175e-06;0.0015856441629540448
2.83200e-06;0.0015867210422342737
2.83225e-06;0.0015877979215145027
2.83250e-06;0.00158887480079473
2.83275e-06;0.0015899516800749588
2.83300e-06;0.0015910285593551876
2.83325e-06;0.0015921054386354165
2.83350e-06;0.0015931823179156437
2.83375e-06;0.0015942591971958727
2.83400e-06;0.0015953360764761016
2.83425e-06;0.0015964129557563289
2.83450e-06;0.0015974898350365578
2.83475e-06;0.0015985667143167868
2.83500e-06;0.0015996435935970155
2.83525e-06;0.0016007204728772427
2.83550e-06;0.0016017973521574717
2.83575e-06;0.0016043364889711234
2.83600e-06;0.0016070511778608011
2.83625e-06;0.0016097658667504834
2.83650e-06;0.0016124805556401657
2.83675e-06;0.0016151952445298435
2.83700e-06;0.0016179099334195258
2.83725e-06;0.001620624622309208
2.83750e-06;0.0016233393111988903
2.83775e-06;0.001626054000088568
2.83800e-06;0.001629212084647339
2.83825e-06;0.001632423401299935
2.83850e-06;0.0016356347179525255
2.83875e-06;0.0016388460346051215
2.83900e-06;0.0016420573512577175
2.83925e-06;0.0016452686679103135
2.83950e-06;0.001648479984562904
2.83975e-06;0.0016516913012155
2.84000e-06;0.001654902617868096
2.84025e-06;0.001663903036679846
2.84050e-06;0.001673598469112165
2.84075e-06;0.0016832939015444842
2.84100e-06;0.001692989333976787
2.84125e-06;0.001702684766409106
2.84150e-06;0.001712380198841425
2.84175e-06;0.0017220756312737442
2.84200e-06;0.0017317710637060467
2.84225e-06;0.001741466496138366
2.84250e-06;0.001751161928570685
2.84275e-06;0.0017608573610029877
2.84300e-06;0.0017732167519747093
2.84325e-06;0.0017896939336723796
2.84350e-06;0.00180617111537005
2.84375e-06;0.0018226482970676926
2.84400e-06;0.0018391254787653631
2.84425e-06;0.0018556026604630335
2.84450e-06;0.001872079842160676
2.84475e-06;0.0018885570238583464
2.84500e-06;0.001905034205556017
2.84525e-06;0.0019215113872536596
2.84550e-06;0.00193798856895133
2.84575e-06;0.0019544657506490003
2.84600e-06;0.0019703205868166255
2.84625e-06;0.001986100706973307
2.84650e-06;0.002001880827130015
2.84675e-06;0.002017660947286723
2.84700e-06;0.002033441067443404
2.84725e-06;0.0020492211876001125
2.84750e-06;0.0020650013077568204
2.84775e-06;0.002080781427913502
2.84800e-06;0.0020965615480702097
2.84825e-06;0.002112341668226918
2.84850e-06;0.002119984843839707
2.84875e-06;0.0021266511344134728
2.84900e-06;0.0021333174249872494
2.84925e-06;0.0021399837155610265
2.84950e-06;0.002146650006134792
2.84975e-06;0.002153316296708569
2.85000e-06;0.002159982587282346
2.85025e-06;0.0021666488778561226
2.85050e-06;0.0021733151684298884
2.85075e-06;0.002179981459003665
2.85100e-06;0.0021757530874906305
2.85125e-06;0.002170216751748449
2.85150e-06;0.0021646804160062576
2.85175e-06;0.0021591440802640667
2.85200e-06;0.0021536077445218848
2.85225e-06;0.002148071408779694
2.85250e-06;0.002142535073037503
2.85275e-06;0.002136998737295312
2.85300e-06;0.00213146240155313
2.85325e-06;0.002125926065810939
2.85350e-06;0.0021172192949835814
2.85375e-06;0.0021036118517176313
2.85400e-06;0.0020900044084516587
2.85425e-06;0.002076396965185686
2.85450e-06;0.0020627895219197134
2.85475e-06;0.0020491820786537633
2.85500e-06;0.0020355746353877906
2.85525e-06;0.002021967192121818
2.85550e-06;0.0020083597488558683
2.85575e-06;0.001994752305589895
2.85600e-06;0.0019811448623239226
2.85625e-06;0.0019691269005512606
2.85650e-06;0.001957299764792246
2.85675e-06;0.0019454726290332317
2.85700e-06;0.001933645493274217
2.85725e-06;0.0019218183575152226
2.85750e-06;0.0019099912217562078
2.85775e-06;0.0018981640859971932
2.85800e-06;0.0018863369502381986
2.85825e-06;0.001874509814479184
2.85850e-06;0.0018626826787201695
2.85875e-06;0.001850855542961155
2.85900e-06;0.0018390284072021604
2.85925e-06;0.0018272012714431458
2.85950e-06;0.0018153741356841313
2.85975e-06;0.0018035469999251367
2.86000e-06;0.0017945546025990575
2.86025e-06;0.0017899439775334344
2.86050e-06;0.001785333352467819
2.86075e-06;0.0017807227274021962
2.86100e-06;0.001776112102336573
2.86125e-06;0.00177150147727095
2.86150e-06;0.0017668908522053349
2.86175e-06;0.0017622802271397117
2.86200e-06;0.0017576696020740886
2.86225e-06;0.0017530589770084735
2.86250e-06;0.0017484483519428504
2.86275e-06;0.0017438377268772275
2.86300e-06;0.0017392271018116044
2.86325e-06;0.001734616476745989
2.86350e-06;0.0017300058516803662
2.86375e-06;0.001725395226614743
2.86400e-06;0.0017235067454938785
2.86425e-06;0.001721945072756677
2.86450e-06;0.0017203834000194757
2.86475e-06;0.0017188217272822769
2.86500e-06;0.0017172600545450755
2.86525e-06;0.001715698381807874
2.86550e-06;0.0017141367090706726
2.86575e-06;0.0017125750363334738
2.86600e-06;0.0017110133635962724
2.86625e-06;0.001709451690859071
2.86650e-06;0.0017082947715657837
2.86675e-06;0.0017077634963856595
2.86700e-06;0.0017072322212055354
2.86725e-06;0.0017067009460254112
2.86750e-06;0.001706169670845288
2.86775e-06;0.0017056383956651638
2.86800e-06;0.0017051071204850397
2.86825e-06;0.0017045758453049164
2.86850e-06;0.0017040445701247923
2.86875e-06;0.0017035132949446681
2.86900e-06;0.0017029820197645448
2.86925e-06;0.0017122049578082782
2.86950e-06;0.0017225989429099909
2.86975e-06;0.0017329929280117033
2.87000e-06;0.0017433869131133982
2.87025e-06;0.0017537808982151107
2.87050e-06;0.0017641748833168232
2.87075e-06;0.0017745688684185179
2.87100e-06;0.0017849628535202306
2.87125e-06;0.001795356838621943
2.87150e-06;0.0018057508237236555
2.87175e-06;0.0018161448088253505
2.87200e-06;0.001833164110865843
2.87225e-06;0.0018604244389014847
2.87250e-06;0.0018876847669370802
2.87275e-06;0.0019149450949727219
2.87300e-06;0.0019422054230083636
2.87325e-06;0.001969465751043959
2.87350e-06;0.001996726079079601
2.87375e-06;0.0020239864071152423
2.87400e-06;0.0020512467351508842
2.87425e-06;0.0020785070631864798
2.87450e-06;0.0021057673912221212
2.87475e-06;0.002133027719257763
2.87500e-06;0.0021658086419629437
2.87525e-06;0.002199252342485132
2.87550e-06;0.0022326960430073197
2.87575e-06;0.002266139743529508
2.87600e-06;0.0022995834440516397
2.87625e-06;0.0023330271445738274
2.87650e-06;0.0023664708450960156
2.87675e-06;0.0023978012236070233
2.87700e-06;0.0024258649530124235
2.87725e-06;0.0024539286824178234
2.87750e-06;0.002481992411823176
2.87775e-06;0.002510056141228576
2.87800e-06;0.0025381198706339756
2.87825e-06;0.0025661836000393755
2.87850e-06;0.002594247329444728
2.87875e-06;0.002606681437736485
2.87900e-06;0.002617239123870419
2.87925e-06;0.0026277968100043353
2.87950e-06;0.0026383544961382692
2.87975e-06;0.002648912182272203
2.88000e-06;0.0026594698684061376
2.88025e-06;0.002670027554540054
2.88050e-06;0.0026805852406739878
2.88075e-06;0.0026911429268079217
2.88100e-06;0.002701700612941838
2.88125e-06;0.002712258299075772
2.88150e-06;0.002722815985209706
2.88175e-06;0.0027157480005847476
2.88200e-06;0.0027065639570407105
2.88225e-06;0.002697379913496674
2.88250e-06;0.0026881958699526373
2.88275e-06;0.002679011826408616
2.88300e-06;0.002669827782864579
2.88325e-06;0.0026606437393205426
2.88350e-06;0.002651459695776521
2.88375e-06;0.0026422756522324845
2.88400e-06;0.002633091608688448
2.88425e-06;0.002623907565144411
2.88450e-06;0.00261472352160039
2.88475e-06;0.002597804767780629
2.88500e-06;0.0025799574193621283
2.88525e-06;0.002562110070943658
2.88550e-06;0.002544262722525157
2.88575e-06;0.0025264153741066564
2.88600e-06;0.002508568025688186
2.88625e-06;0.0024907206772696853
2.88650e-06;0.0024728733288511846
2.88675e-06;0.002455025980432684
2.88700e-06;0.0024397770133225837
2.88725e-06;0.0024248399962096133
2.88750e-06;0.002409902979096643
2.88775e-06;0.0023949659619836978
2.88800e-06;0.0023800289448707274
2.88825e-06;0.002365091927757757
2.88850e-06;0.0023501549106447867
2.88875e-06;0.0023352178935318415
2.88900e-06;0.002320280876418871
2.88925e-06;0.0023162722217593486
2.88950e-06;0.002313575577244553
2.88975e-06;0.002310878932729753
2.89000e-06;0.002308182288214953
2.89025e-06;0.0023054856437001578
2.89050e-06;0.0023027889991853573
2.89075e-06;0.0023000923546705574
2.89100e-06;0.0022973957101557574
2.89125e-06;0.002294699065640962
2.89150e-06;0.002292002421126162
2.89175e-06;0.0022893057766113618
2.89200e-06;0.0022866091320965665
2.89225e-06;0.0022888611884735567
2.89250e-06;0.002298762656184292
2.89275e-06;0.0023086641238950273
2.89300e-06;0.002318565591605746
2.89325e-06;0.0023284670593164817
2.89350e-06;0.002338368527027217
2.89375e-06;0.0023482699947379357
2.89400e-06;0.002358171462448671
2.89425e-06;0.0023680729301594062
2.89450e-06;0.002377974397870125
2.89475e-06;0.0023878758655808607
2.89500e-06;0.002397777333291596
2.89525e-06;0.002407678801002331
2.89550e-06;0.0024201959066876204
2.89575e-06;0.002433027034128008
2.89600e-06;0.0024458581615683954
2.89625e-06;0.0024586892890087614
2.89650e-06;0.0024715204164491487
2.89675e-06;0.0024843515438895364
2.89700e-06;0.002497182671329924
2.89725e-06;0.0025100137987702897
2.89750e-06;0.0025228449262106774
2.89775e-06;0.002535676053651065
2.89800e-06;0.0025485071810914307
2.89825e-06;0.0025593387854976777
2.89850e-06;0.0025699303361431808
2.89875e-06;0.002580521886788666
2.89900e-06;0.002591113437434169
2.89925e-06;0.0026017049880796726
2.89950e-06;0.0026122965387251756
2.89975e-06;0.002622888089370661
2.90000e-06;0.002633479640016164
2.90025e-06;0.002644071190661667
2.90050e-06;0.0026546627413071523
2.90075e-06;0.0026652542919526553
2.90100e-06;0.00268089498144074
2.90125e-06;0.0026971418478755516
2.90150e-06;0.0027133887143103354
2.90175e-06;0.002729635580745147
2.90200e-06;0.0027458824471799583
2.90225e-06;0.002762129313614742
2.90250e-06;0.0027783761800495538
2.90275e-06;0.0027946230464843654
2.90300e-06;0.0028108699129191493
2.90325e-06;0.0028271167793539605
2.90350e-06;0.002843363645788772
2.90375e-06;0.0028596105122235833
2.90400e-06;0.0028773272764848106
2.90425e-06;0.0028973161225186233
2.90450e-06;0.0029173049685524365
2.90475e-06;0.0029372938145862154
2.90500e-06;0.002957282660620028
2.90525e-06;0.0029772715066538414
2.90550e-06;0.002997260352687654
2.90575e-06;0.003017249198721433
2.90600e-06;0.003037238044755246
2.90625e-06;0.003057226890789059
2.90650e-06;0.0030772157368228383
2.90675e-06;0.003097204582856651
2.90700e-06;0.003117193428890464
2.90725e-06;0.003130520064792126
2.90750e-06;0.00314304686564812
2.90775e-06;0.0031555736665041145
2.90800e-06;0.0031681004673601086
2.90825e-06;0.003180627268216082
2.90850e-06;0.003193154069072076
2.90875e-06;0.00320568086992807
2.90900e-06;0.003218207670784043
2.90925e-06;0.0032307344716400372
2.90950e-06;0.0032432612724960317
2.90975e-06;0.0032557880733520258
2.91000e-06;0.003268314874207999
2.91025e-06;0.003280841675063993
2.91050e-06;0.003293368475919987
2.91075e-06;0.0033058952767759603
2.91100e-06;0.0033118312736734865
2.91125e-06;0.003316976008229963
2.91150e-06;0.00332212074278643
2.91175e-06;0.0033272654773429063
2.91200e-06;0.0033324102118993826
2.91225e-06;0.003337554946455859
2.91250e-06;0.0033426996810123266
2.91275e-06;0.003347844415568803
2.91300e-06;0.003352989150125279
2.91325e-06;0.003358133884681747
2.91350e-06;0.003363278619238223
2.91375e-06;0.0033684233537946994
2.91400e-06;0.0033735680883511757
2.91425e-06;0.003378712822907643
2.91450e-06;0.0033838575574641192
2.91475e-06;0.0033866798055503483
2.91500e-06;0.0033892232263351978
2.91525e-06;0.003391766647120051
2.91550e-06;0.0033943100679049046
2.91575e-06;0.0033968534886897536
2.91600e-06;0.0033993969094746074
2.91625e-06;0.003401940330259461
2.91650e-06;0.0034044837510443142
2.91675e-06;0.0034070271718291637
2.91700e-06;0.003409570592614017
2.91725e-06;0.0034121140133988705
2.91750e-06;0.003411621337001538
2.91775e-06;0.003410764160403715
2.91800e-06;0.003409906983805892
2.91825e-06;0.0034090498072080694
2.91850e-06;0.0034081926306102476
2.91875e-06;0.003407335454012425
2.91900e-06;0.003406478277414602
2.91925e-06;0.0034056211008167804
2.91950e-06;0.0034047639242189573
2.91975e-06;0.0034039067476211347
2.92000e-06;0.0034030495710233133
2.92025e-06;0.0033901698766710927
2.92050e-06;0.0033758468127990156
2.92075e-06;0.003361523748926938
2.92100e-06;0.0033472006850548855
2.92125e-06;0.003332877621182808
2.92150e-06;0.003318554557310731
2.92175e-06;0.003304231493438678
2.92200e-06;0.003289908429566601
2.92225e-06;0.0032755853656945234
2.92250e-06;0.0032612623018224702
2.92275e-06;0.0032469392379503932
2.92300e-06;0.003221234230120722
2.92325e-06;0.0031941627571860204
2.92350e-06;0.003167091284251365
2.92375e-06;0.003140019811316664
2.92400e-06;0.0031129483383819626
2.92425e-06;0.003085876865447307
2.92450e-06;0.003058805392512606
2.92475e-06;0.0030317339195779047
2.92500e-06;0.0030046624466432037
2.92525e-06;0.0029775909737085483
2.92550e-06;0.002950519500773847
2.92575e-06;0.0029223451124248275
2.92600e-06;0.0028940383130015117
2.92625e-06;0.002865731513578148
2.92650e-06;0.0028374247141547846
2.92675e-06;0.0028091179147314693
2.92700e-06;0.0027808111153081057
2.92725e-06;0.002752504315884742
2.92750e-06;0.0027241975164613787
2.92775e-06;0.0026958907170380633
2.92800e-06;0.002677693763855506
2.92825e-06;0.002660710553435891
2.92850e-06;0.0026437273430163044
2.92875e-06;0.0026267441325966896
2.92900e-06;0.0026097609221770743
2.92925e-06;0.002592777711757459
2.92950e-06;0.002575794501337873
2.92975e-06;0.0025588112909182576
2.93000e-06;0.002541828080498643
2.93025e-06;0.0025415742788487223
2.93050e-06;0.0025433289349279923
2.93075e-06;0.0025450835910072623
2.93100e-06;0.0025468382470865292
2.93125e-06;0.0025485929031657992
2.93150e-06;0.002550347559245069
2.93175e-06;0.002552102215324339
2.93200e-06;0.0025538568714036066
2.93225e-06;0.0025556115274828766
2.93250e-06;0.0025573661835621465
2.93275e-06;0.002565249211638537
2.93300e-06;0.002582605117395608
2.93325e-06;0.0025999610231526786
2.93350e-06;0.0026173169289097496
2.93375e-06;0.002634672834666791
2.93400e-06;0.0026520287404238623
2.93425e-06;0.002669384646180933
2.93450e-06;0.0026867405519379745
2.93475e-06;0.0027040964576950455
2.93500e-06;0.002721452363452116
2.93525e-06;0.0027388082692091577
2.93550e-06;0.0027596793801549714
2.93575e-06;0.002780972510858242
2.93600e-06;0.002802265641561512
2.93625e-06;0.002823558772264747
2.93650e-06;0.002844851902968017
2.93675e-06;0.0028661450336712876
2.93700e-06;0.002887438164374522
2.93725e-06;0.0029087312950777924
2.93750e-06;0.0029300244257810626
2.93775e-06;0.002951317556484333
2.93800e-06;0.002964894064277734
2.93825e-06;0.0029775441489595434
2.93850e-06;0.002990194233641352
2.93875e-06;0.0030028443183231397
2.93900e-06;0.0030154944030049485
2.93925e-06;0.0030281444876867577
2.93950e-06;0.0030407945723685452
2.93975e-06;0.003053444657050354
2.94000e-06;0.003066094741732163
2.94025e-06;0.003078744826413972
2.94050e-06;0.003079698208182088
2.94075e-06;0.003079247336297265
2.94100e-06;0.003078796464412442
2.94125e-06;0.0030783455925276195
2.94150e-06;0.0030778947206427966
2.94175e-06;0.0030774438487579736
2.94200e-06;0.0030769929768731507
2.94225e-06;0.0030765421049883286
2.94250e-06;0.0030760912331035057
2.94275e-06;0.0030756403612186823
2.94300e-06;0.00307518948933386
2.94325e-06;0.0030747386174490372
2.94350e-06;0.003070860437506558
2.94375e-06;0.003061684525960818
2.94400e-06;0.003052508614415063
2.94425e-06;0.0030433327028693076
2.94450e-06;0.003034156791323552
2.94475e-06;0.0030249808797778123
2.94500e-06;0.003015804968232057
2.94525e-06;0.0030066290566863017
2.94550e-06;0.0029974531451405616
2.94575e-06;0.0029882772335948064
2.94600e-06;0.002979101322049051
2.94625e-06;0.002969925410503296
2.94650e-06;0.002960749498957556
2.94675e-06;0.0029526330742768218
2.94700e-06;0.002944643846833765
2.94725e-06;0.002936654619390722
2.94750e-06;0.002928665391947665
2.94775e-06;0.0029206761645046075
2.94800e-06;0.0029126869370615645
2.94825e-06;0.0029046977096185075
