Time(s);Current(A)
4.50000e-06;-0.008757170172463325
4.50025e-06;-0.008705098375112106
4.50050e-06;-0.008640158267678947
4.50075e-06;-0.008564781275964198
4.50100e-06;-0.008489404284249193
4.50125e-06;-0.008414027292534442
4.50150e-06;-0.008338650300819692
4.50175e-06;-0.008263273309104686
4.50200e-06;-0.008187896317389937
4.50225e-06;-0.008108676089197358
4.50250e-06;-0.008026338791697899
4.50275e-06;-0.00794400149419872
4.50300e-06;-0.00786166419669954
4.50325e-06;-0.00777932689920008
4.50350e-06;-0.0076969896017009005
4.50375e-06;-0.007614652304201721
4.50400e-06;-0.00753676081427202
4.50425e-06;-0.0074624751108712485
4.50450e-06;-0.007388189407470227
4.50475e-06;-0.007320311351076169
4.50500e-06;-0.007257630237395965
4.50525e-06;-0.007194949123715549
4.50550e-06;-0.0071472378134313725
4.50575e-06;-0.007111667810339092
4.50600e-06;-0.0070760978072466904
4.50625e-06;-0.007040527804154409
4.50650e-06;-0.007004957801062128
4.50675e-06;-0.006969387797969727
4.50700e-06;-0.006933817794877446
4.50725e-06;-0.006900292538252915
4.50750e-06;-0.006903920288033742
4.50775e-06;-0.0069075480378145565
4.50800e-06;-0.006911175787595371
4.50825e-06;-0.006914803537376198
4.50850e-06;-0.006918431287157013
4.50875e-06;-0.0069220590369378394
4.50900e-06;-0.006925686786718654
4.50925e-06;-0.006947135365334733
4.50950e-06;-0.006983037584494117
4.50975e-06;-0.00701893980365338
4.51000e-06;-0.007054842022812643
4.51025e-06;-0.007090744241972027
4.51050e-06;-0.007126646461131289
4.51075e-06;-0.007162548680290552
4.51100e-06;-0.007208907198776336
4.51125e-06;-0.007263746332460461
4.51150e-06;-0.0073185854661445855
4.51175e-06;-0.007373424599828895
4.51200e-06;-0.0074282637335130195
4.51225e-06;-0.007483102867197144
4.51250e-06;-0.0075379420008814535
4.51275e-06;-0.007595400997698988
4.51300e-06;-0.007654984842937081
4.51325e-06;-0.007714568688174972
4.51350e-06;-0.0077733001746010805
4.51375e-06;-0.007831340352671743
4.51400e-06;-0.007889380530742209
4.51425e-06;-0.007944147242029301
4.51450e-06;-0.007996258997553867
4.51475e-06;-0.008048370753078255
4.51500e-06;-0.008099997754016933
4.51525e-06;-0.008142816772891907
4.51550e-06;-0.008185635791766737
4.51575e-06;-0.008228454810641566
4.51600e-06;-0.008271413752758687
4.51625e-06;-0.00831448618007122
4.51650e-06;-0.008357558607383754
4.51675e-06;-0.008403368604052072
4.51700e-06;-0.008451398915150525
4.51725e-06;-0.00849942922624914
4.51750e-06;-0.008547459537347594
4.51775e-06;-0.008595489848446047
4.51800e-06;-0.008643520159544662
4.51825e-06;-0.008692104884829917
4.51850e-06;-0.008750763305869514
4.51875e-06;-0.008809421726909308
4.51900e-06;-0.008868080147948905
4.51925e-06;-0.008926738568988502
4.51950e-06;-0.008985396990028297
4.51975e-06;-0.009044055411067894
4.52000e-06;-0.009107971084955027
4.52025e-06;-0.009176150670672178
4.52050e-06;-0.009244330256389098
4.52075e-06;-0.009312509842106019
4.52100e-06;-0.00938068942782317
4.52125e-06;-0.009449055499059484
4.52150e-06;-0.009520810008812197
4.52175e-06;-0.009592564518564667
4.52200e-06;-0.009664319028317134
4.52225e-06;-0.009736073538069847
4.52250e-06;-0.009807828047822317
4.52275e-06;-0.009879261248806703
4.52300e-06;-0.009950433851281634
4.52325e-06;-0.010020158857946142
4.52350e-06;-0.01008870978737329
4.52375e-06;-0.010155356472649646
4.52400e-06;-0.010220458714582992
4.52425e-06;-0.010283290313781031
4.52450e-06;-0.010344280300886369
4.52475e-06;-0.01040210923241591
4.52500e-06;-0.01045737437965488
4.52525e-06;-0.010508591915305357
4.52550e-06;-0.010556526622559528
4.52575e-06;-0.010599649466488054
4.52600e-06;-0.01063886963319112
4.52625e-06;-0.010678089799894184
4.52650e-06;-0.010712007943387667
4.52675e-06;-0.010741625863905589
4.52700e-06;-0.01077124378442351
4.52725e-06;-0.010791898992322337
4.52750e-06;-0.01080528496332748
4.52775e-06;-0.010818670934332622
4.52800e-06;-0.010832056905337811
4.52825e-06;-0.010845442876342953
4.52850e-06;-0.010858828847348097
4.52875e-06;-0.01087124965169443
4.52900e-06;-0.01086613339531068
4.52925e-06;-0.01086101713892693
4.52950e-06;-0.010855900882543162
4.52975e-06;-0.010850784626159411
4.53000e-06;-0.010845668369775643
4.53025e-06;-0.010840552113391893
4.53050e-06;-0.010828135784451586
4.53075e-06;-0.010809798708187756
4.53100e-06;-0.010791461631923988
4.53125e-06;-0.01077312455566022
4.53150e-06;-0.010754787479396389
4.53175e-06;-0.01073645040313262
4.53200e-06;-0.010718113326868853
4.53225e-06;-0.010696731120235442
4.53250e-06;-0.010672879150823048
4.53275e-06;-0.010649027181410654
4.53300e-06;-0.010625175211998178
4.53325e-06;-0.010601323242585782
4.53350e-06;-0.010577471273173388
4.53375e-06;-0.010553619303760912
4.53400e-06;-0.010531371495304273
4.53425e-06;-0.010510424746749495
4.53450e-06;-0.010489477998194788
4.53475e-06;-0.01046853124964008
4.53500e-06;-0.010447584501085305
4.53525e-06;-0.010429310482358168
4.53550e-06;-0.010413204189752768
4.53575e-06;-0.010396276650074804
4.53600e-06;-0.010378683035317743
4.53625e-06;-0.010357386095079987
4.53650e-06;-0.01033308556080175
4.53675e-06;-0.010304912514889552
4.53700e-06;-0.010273598655963256
4.53725e-06;-0.010242284797036854
4.53750e-06;-0.01020645313643172
4.53775e-06;-0.010166957298246569
4.53800e-06;-0.010127461460061285
4.53825e-06;-0.010078293642029832
4.53850e-06;-0.01002128133364069
4.53875e-06;-0.009964269025251741
4.53900e-06;-0.009907256716862793
4.53925e-06;-0.009850244408473652
4.53950e-06;-0.009793232100084703
4.53975e-06;-0.009726160586398103
4.54000e-06;-0.009650930521906418
4.54025e-06;-0.009575700457414986
4.54050e-06;-0.009500470392923555
4.54075e-06;-0.00942524032843187
4.54100e-06;-0.009350010263940438
4.54125e-06;-0.009269309346100143
4.54150e-06;-0.009184171275058037
4.54175e-06;-0.009099033204016218
4.54200e-06;-0.0090138951329744
4.54225e-06;-0.008928757061932292
4.54250e-06;-0.008843618990890473
4.54275e-06;-0.008758692439881827
4.54300e-06;-0.008677609204049445
4.54325e-06;-0.008596525968217063
4.54350e-06;-0.008515442732384405
4.54375e-06;-0.008434359496552022
4.54400e-06;-0.00835327626071964
4.54425e-06;-0.008272193024886984
4.54450e-06;-0.008207733144487028
4.54475e-06;-0.008156755689966266
4.54500e-06;-0.008105778235445331
4.54525e-06;-0.008054800780924569
4.54550e-06;-0.008003823326403807
4.54575e-06;-0.007952845871882872
4.54600e-06;-0.00790186841736211
4.54625e-06;-0.007850890962841348
4.54650e-06;-0.007799913508320414
4.54675e-06;-0.007748936053799652
4.54700e-06;-0.007697958599278717
4.54725e-06;-0.007646981144757955
4.54750e-06;-0.007611739202399491
4.54775e-06;-0.00758925959778017
4.54800e-06;-0.007566779993160925
4.54825e-06;-0.00754430038854168
4.54850e-06;-0.0075218207839223596
4.54875e-06;-0.0074993411793031145
4.54900e-06;-0.00747686157468387
4.54925e-06;-0.007454381970064549
4.54950e-06;-0.007431902365445304
4.54975e-06;-0.00740942276082606
4.55000e-06;-0.0073869431562067385
4.55025e-06;-0.007364463551587494
4.55050e-06;-0.0073491446309183065
4.55075e-06;-0.007339633405992757
4.55100e-06;-0.007330122181067238
4.55125e-06;-0.007320610956141688
4.55150e-06;-0.00731109973121617
4.55175e-06;-0.007301588506290652
4.55200e-06;-0.0072920772813651015
4.55225e-06;-0.007282566056439584
4.55250e-06;-0.007273054831514066
4.55275e-06;-0.0072635436065885154
4.55300e-06;-0.007257553664900212
4.55325e-06;-0.007254419671304374
4.55350e-06;-0.007251285677708524
4.55375e-06;-0.007248151684112686
4.55400e-06;-0.007245017690516848
4.55425e-06;-0.0072418836969209985
4.55450e-06;-0.00723874970332516
4.55475e-06;-0.007235615709729321
4.55500e-06;-0.007232481716133472
4.55525e-06;-0.007229347722537634
4.55550e-06;-0.007230938136569299
4.55575e-06;-0.00723636029659871
4.55600e-06;-0.00724178245662812
4.55625e-06;-0.007247204616657549
4.55650e-06;-0.007252626776686959
4.55675e-06;-0.00725804893671637
4.55700e-06;-0.0072634710967457985
4.55725e-06;-0.007268893256775209
4.55750e-06;-0.007274315416804619
4.55775e-06;-0.00728051057300128
4.55800e-06;-0.0073007510555323785
4.55825e-06;-0.007320991538063478
4.55850e-06;-0.007341232020594646
4.55875e-06;-0.007361472503125746
4.55900e-06;-0.007381712985656845
4.55925e-06;-0.007401953468188013
4.55950e-06;-0.0074221939507191125
4.55975e-06;-0.007442434433250281
4.56000e-06;-0.00746267491578138
4.56025e-06;-0.007488957619590569
4.56050e-06;-0.007520140886395953
4.56075e-06;-0.00755132415320123
4.56100e-06;-0.007582507420006508
4.56125e-06;-0.007613690686811892
4.56150e-06;-0.0076448739536171696
4.56175e-06;-0.007676057220422448
4.56200e-06;-0.007707240487227832
4.56225e-06;-0.00773842375403311
4.56250e-06;-0.007770134977629016
4.56275e-06;-0.007802274402277674
4.56300e-06;-0.007834413826926224
4.56325e-06;-0.007866553251574775
4.56350e-06;-0.007898692676223434
4.56375e-06;-0.007930832100871983
4.56400e-06;-0.007962971525520642
4.56425e-06;-0.007995110950169191
4.56450e-06;-0.00802725037481774
4.56475e-06;-0.008053254977186479
4.56500e-06;-0.008074283912219208
4.56525e-06;-0.008095312847251936
4.56550e-06;-0.008116341782284734
4.56575e-06;-0.008137370717317464
4.56600e-06;-0.008158399652350191
4.56625e-06;-0.00817942858738299
4.56650e-06;-0.00820045752241572
4.56675e-06;-0.008220490570919694
4.56700e-06;-0.008222428379279072
4.56725e-06;-0.008224366187638443
4.56750e-06;-0.008226303995997815
4.56775e-06;-0.008228241804357191
4.56800e-06;-0.008230179612716562
4.56825e-06;-0.00823211742107594
4.56850e-06;-0.00823405522943531
4.56875e-06;-0.008235993037794681
4.56900e-06;-0.00822786045017305
4.56925e-06;-0.008211560235511558
4.56950e-06;-0.008195260020850066
4.56975e-06;-0.008178959806188518
4.57000e-06;-0.008162659591527024
4.57025e-06;-0.008146359376865532
4.57050e-06;-0.008130059162203985
4.57075e-06;-0.008113758947542493
4.57100e-06;-0.008097458732881
4.57125e-06;-0.008075800899557763
4.57150e-06;-0.008049797752392781
4.57175e-06;-0.008023794605227801
4.57200e-06;-0.007997791458062732
4.57225e-06;-0.007971788310897752
4.57250e-06;-0.007945785163732684
4.57275e-06;-0.007919782016567702
4.57300e-06;-0.007893778869402722
4.57325e-06;-0.007867775722237654
4.57350e-06;-0.00784299068636837
4.57375e-06;-0.007819193603581987
4.57400e-06;-0.0077953965207955235
4.57425e-06;-0.007771599438009141
4.57450e-06;-0.007747802355222758
4.57475e-06;-0.007724005272436295
4.57500e-06;-0.00770064158149362
4.57525e-06;-0.007685152612474798
4.57550e-06;-0.007669663643455923
4.57575e-06;-0.007654174674437101
4.57600e-06;-0.0076386857054182794
4.57625e-06;-0.007623196736399405
4.57650e-06;-0.007607707767380583
4.57675e-06;-0.007596996076108624
4.57700e-06;-0.007590159011313202
4.57725e-06;-0.007583321946517781
4.57750e-06;-0.007576484881722337
4.57775e-06;-0.0075696478169269155
4.57800e-06;-0.007562810752131495
4.57825e-06;-0.007555973687336051
4.57850e-06;-0.007549136622540629
4.57875e-06;-0.007542299557745208
4.57900e-06;-0.007535462492949764
4.57925e-06;-0.0075286254281543424
4.57950e-06;-0.007521788363358922
4.57975e-06;-0.0075149512985634775
4.58000e-06;-0.007508114233768056
4.58025e-06;-0.007501277168972635
4.58050e-06;-0.007494440104177191
4.58075e-06;-0.007487917763141304
4.58100e-06;-0.0074871139470937195
4.58125e-06;-0.007486310131046138
4.58150e-06;-0.007485506314998556
4.58175e-06;-0.007484702498950971
4.58200e-06;-0.007483898682903389
4.58225e-06;-0.007483094866855808
4.58250e-06;-0.007482291050808223
4.58275e-06;-0.007481487234760641
4.58300e-06;-0.007480683418713059
4.58325e-06;-0.007479879602665475
4.58350e-06;-0.007479075786617893
4.58375e-06;-0.0074782719705703115
4.58400e-06;-0.007477468154522726
4.58425e-06;-0.007476664338475145
4.58450e-06;-0.007475860522427563
4.58475e-06;-0.007475056706379979
4.58500e-06;-0.007475470923113164
4.58525e-06;-0.0074768730292492525
4.58550e-06;-0.007478275135385336
4.58575e-06;-0.007482566262219814
4.58600e-06;-0.00748920053858011
4.58625e-06;-0.007495834814940383
4.58650e-06;-0.007510495188271616
4.58675e-06;-0.007531665153355476
4.58700e-06;-0.007552835118439264
4.58725e-06;-0.007574005083523052
4.58750e-06;-0.007595175048606912
4.58775e-06;-0.0076163450136907
4.58800e-06;-0.007638620163479714
4.58825e-06;-0.007680976499252764
4.58850e-06;-0.007723332835025671
4.58875e-06;-0.007765689170798578
4.58900e-06;-0.007808045506571628
4.58925e-06;-0.007850401842344534
4.58950e-06;-0.007892758178117585
4.58975e-06;-0.007944842836382662
4.59000e-06;-0.008004817681881462
4.59025e-06;-0.008064792527380467
4.59050e-06;-0.008124767372879267
4.59075e-06;-0.008184742218378067
4.59100e-06;-0.00824471706387707
4.59125e-06;-0.008309918167360781
4.59150e-06;-0.008379358044185398
4.59175e-06;-0.008448797921010252
4.59200e-06;-0.008518237797834869
4.59225e-06;-0.008587677674659486
4.59250e-06;-0.008657117551484338
4.59275e-06;-0.00872731748039021
4.59300e-06;-0.00879813385198011
4.59325e-06;-0.008867979074479952
4.59350e-06;-0.00893703664338769
4.59375e-06;-0.009004464831362316
4.59400e-06;-0.009070571504692385
4.59425e-06;-0.009134401878605865
4.59450e-06;-0.009196386052559609
4.59475e-06;-0.009256086470563944
4.59500e-06;-0.009310028103540941
4.59525e-06;-0.009360801326782282
4.59550e-06;-0.009411574550023453
4.59575e-06;-0.009458002537052188
4.59600e-06;-0.009500906306281472
4.59625e-06;-0.009543810075510613
4.59650e-06;-0.009586713844739752
4.59675e-06;-0.009629617613969037
4.59700e-06;-0.009672521383198176
4.59725e-06;-0.009715425152427317
4.59750e-06;-0.009756468828992945
4.59775e-06;-0.009796003871423617
4.59800e-06;-0.009835538913854424
4.59825e-06;-0.009875073956285098
4.59850e-06;-0.009914608998715772
4.59875e-06;-0.009954144041146579
4.59900e-06;-0.009993679083577251
4.59925e-06;-0.010033036135551522
4.59950e-06;-0.010072248827794048
4.59975e-06;-0.010111461520036438
4.60000e-06;-0.01015067421227883
4.60025e-06;-0.010189886904521356
4.60050e-06;-0.010229099596763748
4.60075e-06;-0.010268296652966837
4.60100e-06;-0.01030720960262075
4.60125e-06;-0.010346122552274533
4.60150e-06;-0.010385035501928316
4.60175e-06;-0.010423948451582229
4.60200e-06;-0.010462861401236012
4.60225e-06;-0.010501774350889925
4.60250e-06;-0.010539899756206917
4.60275e-06;-0.010577386421157764
4.60300e-06;-0.010614873086108739
4.60325e-06;-0.010650907184226672
4.60350e-06;-0.01068576317334509
4.60375e-06;-0.010720619162463623
4.60400e-06;-0.01075413640400532
4.60425e-06;-0.010786567850021155
4.60450e-06;-0.010817696974050646
4.60475e-06;-0.010847769845646267
4.60500e-06;-0.010876584105963765
4.60525e-06;-0.010903387132331683
4.60550e-06;-0.010927589840291175
4.60575e-06;-0.010950335065869721
4.60600e-06;-0.0109701174767889
4.60625e-06;-0.0109874968873538
4.60650e-06;-0.011001722441751703
4.60675e-06;-0.011013390050966486
4.60700e-06;-0.011019205388800066
4.60725e-06;-0.011020274223116498
4.60750e-06;-0.011021343057432928
4.60775e-06;-0.011022411891749358
4.60800e-06;-0.01102348072606579
4.60825e-06;-0.0110210734478008
4.60850e-06;-0.011006616655272293
4.60875e-06;-0.010992159862743737
4.60900e-06;-0.010977703070215231
4.60925e-06;-0.010963246277686724
4.60950e-06;-0.01094878948515817
4.60975e-06;-0.010922675075018054
4.61000e-06;-0.01089520210693501
4.61025e-06;-0.010867729138851872
4.61050e-06;-0.010840256170768827
4.61075e-06;-0.01081278320268569
4.61100e-06;-0.010785310234602646
4.61125e-06;-0.010749575008584915
4.61150e-06;-0.010712679783889302
4.61175e-06;-0.010675784559193815
4.61200e-06;-0.010638889334498327
4.61225e-06;-0.010601994109802716
4.61250e-06;-0.010565098885107229
4.61275e-06;-0.010526693102942599
4.61300e-06;-0.010488037628160477
4.61325e-06;-0.010449382153378487
4.61350e-06;-0.010412345885882697
4.61375e-06;-0.010375577270636753
4.61400e-06;-0.010338808655390934
4.61425e-06;-0.010304636153176387
4.61450e-06;-0.010270892784093662
4.61475e-06;-0.010237149415011053
4.61500e-06;-0.01021415101010682
4.61525e-06;-0.010192928729768413
4.61550e-06;-0.010171706449430006
4.61575e-06;-0.010150484169091527
4.61600e-06;-0.01012926188875312
4.61625e-06;-0.010108039608414714
4.61650e-06;-0.010086817328076236
4.61675e-06;-0.01006559504773783
4.61700e-06;-0.010059538649661772
4.61725e-06;-0.010055989146499257
4.61750e-06;-0.010052439643336753
4.61775e-06;-0.01004889014017425
4.61800e-06;-0.010045340637011735
4.61825e-06;-0.010041791133849232
4.61850e-06;-0.010038241630686728
4.61875e-06;-0.010034692127524215
4.61900e-06;-0.010043519221699342
4.61925e-06;-0.01005439214666585
4.61950e-06;-0.010065265071632322
4.61975e-06;-0.010076137996598794
4.62000e-06;-0.010087010921565302
4.62025e-06;-0.010097883846531774
4.62050e-06;-0.010108756771498244
4.62075e-06;-0.010127138539053674
4.62100e-06;-0.010146761505700822
4.62125e-06;-0.01016638447234797
4.62150e-06;-0.010186007438995184
4.62175e-06;-0.010205630405642332
4.62200e-06;-0.01022525337228948
4.62225e-06;-0.010244876338936696
4.62250e-06;-0.010266960884281646
4.62275e-06;-0.01028945232445861
4.62300e-06;-0.01031194376463565
4.62325e-06;-0.010334678165826944
4.62350e-06;-0.010357452728066669
4.62375e-06;-0.010380227290306316
4.62400e-06;-0.01040198658453542
4.62425e-06;-0.010423578056664521
4.62450e-06;-0.010445169528793548
4.62475e-06;-0.010465085715463559
4.62500e-06;-0.010484724980255829
4.62525e-06;-0.010502593586734698
4.62550e-06;-0.010520169506362842
4.62575e-06;-0.010537678292026557
4.62600e-06;-0.010555175980558433
4.62625e-06;-0.010575732660150708
4.62650e-06;-0.010596794985836995
4.62675e-06;-0.010620748867279336
4.62700e-06;-0.010645180718040511
4.62725e-06;-0.010671810406924869
4.62750e-06;-0.010698803394766237
4.62775e-06;-0.010728602822087336
4.62800e-06;-0.010758866149149568
4.62825e-06;-0.010794405619730262
4.62850e-06;-0.01083081722798927
4.62875e-06;-0.010867228836248152
4.62900e-06;-0.010910733201136108
4.62925e-06;-0.010955409986803997
4.62950e-06;-0.011000086772471735
4.62975e-06;-0.011044763558139473
4.63000e-06;-0.011089440343807362
4.63025e-06;-0.011134117129475098
4.63050e-06;-0.011184075653158503
4.63075e-06;-0.011236132434133107
4.63100e-06;-0.011289368377103044
4.63125e-06;-0.01134346426983485
4.63150e-06;-0.011398147161759974
4.63175e-06;-0.01145333397881375
4.63200e-06;-0.011509101108255407
4.63225e-06;-0.01156537610640266
4.63250e-06;-0.011621880964939489
4.63275e-06;-0.011678309146630516
4.63300e-06;-0.011734349451065133
4.63325e-06;-0.011789669105620595
4.63350e-06;-0.011843962272974443
4.63375e-06;-0.011897044021944836
4.63400e-06;-0.011948828498499977
4.63425e-06;-0.011999137563249303
4.63450e-06;-0.012047662150083259
4.63475e-06;-0.012094078429525066
4.63500e-06;-0.012136844031893506
4.63525e-06;-0.01217905669324924
4.63550e-06;-0.01221611322636796
4.63575e-06;-0.012252317460133683
4.63600e-06;-0.012284082060890414
4.63625e-06;-0.012315112797754027
4.63650e-06;-0.012341989220957944
4.63675e-06;-0.012368178943078706
4.63700e-06;-0.012389769988631916
4.63725e-06;-0.01241060088065834
4.63750e-06;-0.012425439533544691
4.63775e-06;-0.012439287679347554
4.63800e-06;-0.012453135825150369
4.63825e-06;-0.012461029294864649
4.63850e-06;-0.012467938466604886
4.63875e-06;-0.0124748476383451
4.63900e-06;-0.01247513638884888
4.63925e-06;-0.012474330794821834
4.63950e-06;-0.012473525200794791
4.63975e-06;-0.012472719606767749
4.64000e-06;-0.012465686138713261
4.64025e-06;-0.012457623213523528
4.64050e-06;-0.012449560288333794
4.64075e-06;-0.012441497363144033
4.64100e-06;-0.01242985236142031
4.64125e-06;-0.012417615248451109
4.64150e-06;-0.012403790497143083
4.64175e-06;-0.012388816983705373
4.64200e-06;-0.012373033614200139
4.64225e-06;-0.012356649077938575
4.64250e-06;-0.012339794876881948
4.64275e-06;-0.012322587155573016
4.64300e-06;-0.012305139000369553
4.64325e-06;-0.012287562302089172
4.64350e-06;-0.012269977610793256
4.64375e-06;-0.012252558878640296
4.64400e-06;-0.01223553340083119
4.64425e-06;-0.01221910390210016
4.64450e-06;-0.012203425464498402
4.64475e-06;-0.012188642172245905
4.64500e-06;-0.01217489904744684
4.64525e-06;-0.012162338179567491
4.64550e-06;-0.012150893334034725
4.64575e-06;-0.012139253918221942
4.64600e-06;-0.01212501900266966
4.64625e-06;-0.01210680014812892
4.64650e-06;-0.012084585839250326
4.64675e-06;-0.012058698741901902
4.64700e-06;-0.012029483577544874
