Time(s);Current(A)
1.10000e-05;-0.0011797894679477523
1.10003e-05;-0.001188295775728617
1.10005e-05;-0.0011976532991278487
1.10008e-05;-0.0012077538001037174
1.10010e-05;-0.0012184893052375615
1.10013e-05;-0.0012297553455552712
1.10015e-05;-0.0012415164398107033
1.10018e-05;-0.0012540004697197368
1.10020e-05;-0.0012675889140296131
1.10023e-05;-0.001282408225360268
1.10025e-05;-0.0012983511839091202
1.10028e-05;-0.0013152866966214727
1.10030e-05;-0.001333109453328808
1.10033e-05;-0.0013519077920436677
1.10035e-05;-0.001370862885236937
1.10038e-05;-0.0013916020419897617
1.10040e-05;-0.001412341198742446
1.10043e-05;-0.0014332190711967916
1.10045e-05;-0.001455728470258003
1.10047e-05;-0.0014788794295251563
1.10050e-05;-0.0015025358758161355
1.10053e-05;-0.0015266339638496328
1.10055e-05;-0.0015507700851651845
1.10058e-05;-0.0015753390731754718
1.10060e-05;-0.0015999372748836207
1.10062e-05;-0.0016248745752856508
1.10065e-05;-0.001649881219680834
1.10068e-05;-0.001674802510911377
1.10070e-05;-0.0016994839564426734
1.10073e-05;-0.0017237719816042495
1.10075e-05;-0.001747530026165498
1.10078e-05;-0.0017706861811838486
1.10080e-05;-0.0017932062748585826
1.10083e-05;-0.001814993462751302
1.10085e-05;-0.0018358935500946928
1.10088e-05;-0.001855746368210878
1.10090e-05;-0.0018743919530453887
1.10093e-05;-0.0018916818456698914
1.10095e-05;-0.0019076619927669628
1.10098e-05;-0.0019231310139846824
1.10100e-05;-0.0019393333618951357
1.10103e-05;-0.001956798628239848
1.10105e-05;-0.0019753973763459946
1.10108e-05;-0.0019949539676185997
1.10110e-05;-0.0020154590131590917
1.10113e-05;-0.0020360227211589604
1.10115e-05;-0.002057320576669153
1.10118e-05;-0.002079499735018989
1.10120e-05;-0.0021032422789579335
1.10123e-05;-0.002128782336712054
1.10125e-05;-0.00215594105862035
1.10128e-05;-0.0021845708819410088
1.10130e-05;-0.002215140846960831
1.10132e-05;-0.002245710811980446
1.10135e-05;-0.0022765333418137547
1.10138e-05;-0.0023102303775982772
1.10140e-05;-0.0023439274133825717
1.10143e-05;-0.0023778267981381922
1.10145e-05;-0.002414103863051886
1.10147e-05;-0.0024513048850531394
1.10150e-05;-0.002489346385427814
1.10153e-05;-0.002527436092635056
1.10155e-05;-0.0025660744543647375
1.10158e-05;-0.002604764313816402
1.10160e-05;-0.0026440402822637296
1.10163e-05;-0.002683335450701713
1.10165e-05;-0.0027228359568721348
1.10168e-05;-0.0027621270352679566
1.10170e-05;-0.0028007421139332727
1.10173e-05;-0.0028392202633799736
1.10175e-05;-0.002876139985713524
1.10178e-05;-0.0029128933300673478
1.10180e-05;-0.0029477530832809342
1.10183e-05;-0.002982456218353583
1.10185e-05;-0.003015245657286521
1.10188e-05;-0.003046304733755665
1.10190e-05;-0.003074662807660775
1.10193e-05;-0.0031027508593663377
1.10195e-05;-0.0031276124942355463
1.10198e-05;-0.0031506413948225757
1.10200e-05;-0.0031725645290931748
1.10203e-05;-0.003193412184925801
1.10205e-05;-0.0032141438510011667
1.10208e-05;-0.0032334075618543744
1.10210e-05;-0.0032509886037565593
1.10213e-05;-0.0032684012461326882
1.10215e-05;-0.0032838017786000285
1.10217e-05;-0.003298060007107669
1.10220e-05;-0.0033116305708411503
1.10223e-05;-0.0033245336958664822
1.10225e-05;-0.0033373351982184385
1.10228e-05;-0.003348980106445465
1.10230e-05;-0.0033604928525429825
1.10232e-05;-0.0033705014270063414
1.10235e-05;-0.003380414405825872
1.10238e-05;-0.003389204859578284
1.10240e-05;-0.003397565673684301
1.10243e-05;-0.0034055089239231427
1.10245e-05;-0.003413388462537863
1.10248e-05;-0.003420542882556059
1.10250e-05;-0.003427614259323813
1.10253e-05;-0.0034337404992196337
1.10255e-05;-0.0034397956370933215
1.10258e-05;-0.0034450415443254513
1.10260e-05;-0.0034502434539297132
1.10263e-05;-0.003454944615065943
1.10265e-05;-0.003459645776202141
1.10268e-05;-0.0034642766815450245
1.10270e-05;-0.003468107987396563
1.10273e-05;-0.0034719392932480763
1.10275e-05;-0.003475711243986558
1.10278e-05;-0.003478807658716511
1.10280e-05;-0.0034818812722822515
1.10283e-05;-0.003484695379856774
1.10285e-05;-0.0034874903344533762
1.10288e-05;-0.003490051771018045
1.10290e-05;-0.003492418839716933
1.10293e-05;-0.003494551230773282
1.10295e-05;-0.0034961601868906934
1.10298e-05;-0.00349601192454616
1.10300e-05;-0.0034923672827981435
1.10302e-05;-0.0034844784533935203
1.10305e-05;-0.0034724725249519607
1.10308e-05;-0.0034565662251924384
1.10310e-05;-0.0034369758725883584
1.10313e-05;-0.0034139086347061676
1.10315e-05;-0.0033874159755049897
1.10317e-05;-0.0033569580358528924
1.10320e-05;-0.0033216778347457195
1.10323e-05;-0.003281339316542084
1.10325e-05;-0.0032362549586491427
1.10328e-05;-0.0031866448492668593
1.10330e-05;-0.0031316347679980123
1.10333e-05;-0.003076064088374039
1.10335e-05;-0.003014113092787646
1.10338e-05;-0.0029515646032712128
1.10340e-05;-0.002882215879643586
1.10343e-05;-0.0028124482257606766
1.10345e-05;-0.0027376821799713967
1.10348e-05;-0.0026600226623622707
1.10350e-05;-0.0025792810696799195
1.10353e-05;-0.0024982860784919926
1.10355e-05;-0.0024144070928858587
1.10358e-05;-0.0023303687812072926
1.10360e-05;-0.0022444330604428652
1.10363e-05;-0.002157496653165372
1.10365e-05;-0.0020700604147582263
1.10368e-05;-0.0019826468453922248
1.10370e-05;-0.0018957787098630324
1.10373e-05;-0.001809975874279552
1.10375e-05;-0.0017257204112077784
1.10378e-05;-0.001643348643814632
1.10380e-05;-0.0015631191642514826
1.10383e-05;-0.001485443127858768
1.10385e-05;-0.0014108664266481443
1.10387e-05;-0.0013399484644490702
1.10390e-05;-0.001273248919115239
1.10393e-05;-0.0012113183113069215
1.10395e-05;-0.001154559601802182
1.10398e-05;-0.001102769989916449
1.10400e-05;-0.0010552864627454443
1.10402e-05;-0.0010118416043898596
1.10405e-05;-0.0009726067254861716
1.10408e-05;-0.0009378015317469993
1.10410e-05;-0.0009076454172488678
1.10413e-05;-0.0008823524484119892
1.10415e-05;-0.0008620439039064058
1.10418e-05;-0.0008464619063347573
1.10420e-05;-0.0008350600310136501
1.10423e-05;-0.0008275399951000826
1.10425e-05;-0.0008238781496508325
1.10428e-05;-0.0008240811256379246
1.10430e-05;-0.000828155495825775
1.10433e-05;-0.0008361043851548368
1.10435e-05;-0.0008478728942090213
1.10438e-05;-0.0008631684616324121
1.10440e-05;-0.0008815179716677153
1.10443e-05;-0.0009026036828730998
1.10445e-05;-0.0009262799406102869
1.10448e-05;-0.0009524200803077164
1.10450e-05;-0.0009808973744848308
1.10453e-05;-0.0010115828824795085
1.10455e-05;-0.0010443115211758178
1.10458e-05;-0.0010787690827494447
1.10460e-05;-0.0011145284754607615
1.10463e-05;-0.0011512598582011128
1.10465e-05;-0.0011887413393110956
1.10468e-05;-0.001226762886745563
1.10470e-05;-0.0012651142732381258
1.10472e-05;-0.0013035841409844533
1.10475e-05;-0.001341938250904682
1.10478e-05;-0.0013798494170077142
1.10480e-05;-0.0014169191589275165
1.10483e-05;-0.0014528105795331189
1.10485e-05;-0.001487253816001904
1.10487e-05;-0.0015199867986391462
1.10490e-05;-0.0015506488508252863
1.10493e-05;-0.0015781562197661463
1.10495e-05;-0.0016051910091146788
1.10498e-05;-0.0016268472469676022
1.10500e-05;-0.0016485034848206723
1.10503e-05;-0.001669713970100639
1.10505e-05;-0.0016858512291815357
1.10508e-05;-0.0017015018816448422
1.10510e-05;-0.001711614337380446
1.10513e-05;-0.0017217267931159816
1.10515e-05;-0.0017314372682453647
1.10518e-05;-0.0017363906359179908
1.10520e-05;-0.001739100525599122
1.10523e-05;-0.0017396909354803194
1.10525e-05;-0.0017381923386391841
1.10528e-05;-0.0017346243116548776
1.10530e-05;-0.0017290066451321005
1.10533e-05;-0.0017213603426034208
1.10535e-05;-0.0017117273205719352
1.10538e-05;-0.0017002370447991185
1.10540e-05;-0.001687090840455159
1.10543e-05;-0.0016724417221745701
1.10545e-05;-0.001656384287720091
1.10548e-05;-0.0016390059838035952
1.10550e-05;-0.0016203944993701783
1.10553e-05;-0.0016006385683986091
1.10555e-05;-0.0015798396310595054
1.10557e-05;-0.001558154114517495
1.10560e-05;-0.0015357833855474553
1.10563e-05;-0.001512898735047616
1.10565e-05;-0.0014896344888463556
1.10568e-05;-0.0014661208180782427
1.10570e-05;-0.0014424880796962555
1.10572e-05;-0.0014188668079497548
1.10575e-05;-0.0013953959919173649
1.10578e-05;-0.0013722488727575283
1.10580e-05;-0.0013496265839438534
1.10583e-05;-0.001327711924448323
1.10585e-05;-0.001306663971782607
1.10588e-05;-0.0012866397326058315
1.10590e-05;-0.0012677958043310563
1.10593e-05;-0.001250302208967921
1.10595e-05;-0.0012345478848178398
1.10598e-05;-0.0012217445316423728
1.10600e-05;-0.001213512034683225
1.10603e-05;-0.001210551686479952
1.10605e-05;-0.0012127734780143274
1.10608e-05;-0.0012200077039548607
1.10610e-05;-0.0012320849518005486
1.10613e-05;-0.0012488437810541507
1.10615e-05;-0.0012702600684966975
1.10618e-05;-0.0012970709285625016
1.10620e-05;-0.0013320852813234734
1.10623e-05;-0.0013678119142447173
1.10625e-05;-0.0014120811985666257
1.10628e-05;-0.001461906350275227
1.10630e-05;-0.001518487165273824
1.10633e-05;-0.0015757825076399127
1.10635e-05;-0.0016412100721896607
1.10638e-05;-0.0017073648199286957
1.10640e-05;-0.0017817958290536602
1.10642e-05;-0.0018567292112911045
1.10645e-05;-0.0019377825535181405
1.10648e-05;-0.002023414812078649
1.10650e-05;-0.0021094499178454093
1.10653e-05;-0.002200069932661932
1.10655e-05;-0.002290980852722586
1.10657e-05;-0.0023852026411804736
1.10660e-05;-0.0024796248260146956
1.10663e-05;-0.002576327774227319
1.10665e-05;-0.0026730723568955134
1.10668e-05;-0.002770214876029165
1.10670e-05;-0.0028664933739784076
1.10673e-05;-0.0029626039613342625
1.10675e-05;-0.003056642129236391
1.10678e-05;-0.0031486542942261923
1.10680e-05;-0.0032382840877983143
1.10683e-05;-0.0033250331236864654
1.10685e-05;-0.0034082812897358043
1.10688e-05;-0.003487180958827008
1.10690e-05;-0.0035592902389806284
1.10693e-05;-0.0036307208248549266
1.10695e-05;-0.0036940428263866716
1.10698e-05;-0.003752771175554993
1.10700e-05;-0.0038087498667619944
1.10703e-05;-0.00386207506907804
1.10705e-05;-0.003915112779272476
1.10708e-05;-0.003964510432413144
1.10710e-05;-0.004009719391322059
1.10713e-05;-0.004054508338683862
1.10715e-05;-0.0040942795169583
1.10718e-05;-0.004131211854927114
1.10720e-05;-0.004166457523996846
1.10723e-05;-0.004200084089706556
1.10725e-05;-0.004233461205979601
1.10727e-05;-0.004263999273201036
1.10730e-05;-0.004294210056744173
1.10733e-05;-0.004320695939443663
1.10735e-05;-0.004346944915697246
1.10738e-05;-0.00437041342639289
1.10740e-05;-0.004392835424348097
1.10742e-05;-0.004414249789967373
1.10745e-05;-0.004435507828925167
1.10748e-05;-0.004454986673403894
1.10750e-05;-0.0044742593765538935
1.10753e-05;-0.004491185931516886
1.10755e-05;-0.0045079355494464235
1.10758e-05;-0.004522671400883277
1.10760e-05;-0.004537298007319895
1.10763e-05;-0.004550681267937549
1.10765e-05;-0.004564064528555203
1.10768e-05;-0.004577270068594181
1.10770e-05;-0.0045884529244088765
1.10773e-05;-0.004599635780223572
1.10775e-05;-0.004610666427689968
1.10778e-05;-0.004619964752274929
1.10780e-05;-0.004629184973078535
1.10783e-05;-0.004637516274390131
1.10785e-05;-0.004645847575701782
1.10788e-05;-0.004654102478226349
1.10790e-05;-0.004661440402211513
1.10793e-05;-0.004668181710432262
1.10795e-05;-0.004674198613316585
1.10798e-05;-0.00467916011549226
1.10800e-05;-0.004682639393122805
1.10803e-05;-0.004684451913157721
1.10805e-05;-0.004684551173693843
1.10808e-05;-0.004682441262401044
1.10810e-05;-0.004680081826451412
1.10812e-05;-0.004674882485347995
1.10815e-05;-0.004669414024690401
1.10818e-05;-0.004660882644245636
1.10820e-05;-0.004652051454350062
1.10823e-05;-0.004639808054953523
1.10825e-05;-0.004627355185728646
1.10827e-05;-0.004612389997510941
1.10830e-05;-0.004595844863319667
1.10833e-05;-0.004577822887757917
1.10835e-05;-0.004558406745573
1.10838e-05;-0.004537598503683616
1.10840e-05;-0.004515362603284697
1.10843e-05;-0.004491758659592876
1.10845e-05;-0.004466926507095916
1.10848e-05;-0.004441012866709142
1.10850e-05;-0.004414164849789344
1.10853e-05;-0.004386528387438863
1.10855e-05;-0.004358236599788141
1.10858e-05;-0.004329371792530762
1.10860e-05;-0.004299993299749161
1.10863e-05;-0.004270219924068547
1.10865e-05;-0.004240219402043777
1.10868e-05;-0.004210165778166004
1.10870e-05;-0.004180231887992747
1.10873e-05;-0.004150590821421693
1.10875e-05;-0.004121406337261548
1.10878e-05;-0.004092812250488984
1.10880e-05;-0.004064926197814617
1.10883e-05;-0.004037903586462757
1.10885e-05;-0.004011930591388354
1.10888e-05;-0.003987197592837765
1.10890e-05;-0.00396389415256524
1.10893e-05;-0.003942196081342526
1.10895e-05;-0.003922042425088829
1.10897e-05;-0.0039024606443751934
1.10900e-05;-0.0038819387979402084
1.10903e-05;-0.003859832989111843
1.10905e-05;-0.003836300092731052
1.10908e-05;-0.0038115786402071116
1.10910e-05;-0.0037859083718828094
1.10912e-05;-0.0037595193712195115
1.10915e-05;-0.003732494281735413
1.10918e-05;-0.003704344157227342
1.10920e-05;-0.0036742423913996678
1.10923e-05;-0.003641906183483915
1.10925e-05;-0.0036075538604516
1.10928e-05;-0.0035714559527055653
1.10930e-05;-0.0035338413772314395
1.10933e-05;-0.003494627923811933
1.10935e-05;-0.00345521177039449
1.10938e-05;-0.0034134886354673212
1.10940e-05;-0.003371563092020749
1.10943e-05;-0.003327217255330809
1.10945e-05;-0.003281450777708367
1.10948e-05;-0.003234553124058107
1.10950e-05;-0.003186801143778277
1.10953e-05;-0.0031383702744228075
1.10955e-05;-0.003089882632519128
1.10958e-05;-0.0030407488474501394
1.10960e-05;-0.0029915652477145987
1.10963e-05;-0.0029418059122964537
1.10965e-05;-0.002891962235161362
1.10968e-05;-0.002842336197654475
1.10970e-05;-0.002793229762314856
1.10973e-05;-0.0027449425338774694
1.10975e-05;-0.002697738059011494
1.10978e-05;-0.0026517389895215114
1.10980e-05;-0.002606985418576852
1.10983e-05;-0.0025636506372800636
1.10985e-05;-0.0025220316452684243
1.10988e-05;-0.0024824376792471686
1.10990e-05;-0.002445178366362425
1.10993e-05;-0.0024105659897422087
1.10995e-05;-0.0023789620177148392
1.10997e-05;-0.0023508916650832362
1.11000e-05;-0.0023268948667183762
1.11003e-05;-0.0023072143311293264
1.11005e-05;-0.0022918749085519964
1.11008e-05;-0.002280882168116538
1.11010e-05;-0.002274241427317799
1.11013e-05;-0.002272142222716637
1.11015e-05;-0.0022761536618761354
1.11018e-05;-0.0022810985853932843
1.11020e-05;-0.00229666773770381
1.11023e-05;-0.0023122368900142303
1.11025e-05;-0.002328687784494421
1.11028e-05;-0.002355174016439876
1.11030e-05;-0.002382296687639718
1.11033e-05;-0.0024166628398889947
1.11035e-05;-0.0024516215027171884
1.11038e-05;-0.002493323682886429
1.11040e-05;-0.0025355672238070127
1.11043e-05;-0.002583972132546043
1.11045e-05;-0.0026328250630025646
1.11048e-05;-0.0026867770454113266
1.11050e-05;-0.002741079018636315
1.11053e-05;-0.002799364328569046
1.11055e-05;-0.002857911198412039
1.11058e-05;-0.0029194349497677465
1.11060e-05;-0.0029811273545166275
1.11063e-05;-0.003044739247499945
1.11065e-05;-0.0031084004286077646
1.11068e-05;-0.0031726225707076634
1.11070e-05;-0.003236771749083063
1.11073e-05;-0.0033000905082860204
1.11075e-05;-0.003363281148452998
1.11078e-05;-0.0034248914746567373
1.11080e-05;-0.003484958116560286
1.11082e-05;-0.003543091641701734
1.11085e-05;-0.0035988690227770626
1.11088e-05;-0.00365186482178467
1.11090e-05;-0.0037016530150616057
1.11093e-05;-0.003747630757447305
1.11095e-05;-0.0037878897368721393
1.11098e-05;-0.003827403771709647
1.11100e-05;-0.0038584393980165667
1.11103e-05;-0.003888493831469415
1.11105e-05;-0.003907381053282659
1.11108e-05;-0.003926268275095776
1.11110e-05;-0.003943932176064861
1.11113e-05;-0.003947673143626671
1.11115e-05;-0.0039514141111884555
1.11118e-05;-0.003954325185331384
1.11120e-05;-0.003947386867288074
1.11123e-05;-0.003935456513084757
1.11125e-05;-0.003918682315840953
1.11128e-05;-0.0038972136399996913
1.11130e-05;-0.003871198697486023
1.11133e-05;-0.0038407871607932724
1.11135e-05;-0.0038061298916013966
1.11138e-05;-0.0037674001820765385
1.11140e-05;-0.0037248212441671675
1.11143e-05;-0.0036786645153862106
1.11145e-05;-0.0036292168995022554
1.11148e-05;-0.0035767659423595246
1.11150e-05;-0.0035215991898032645
1.11153e-05;-0.003464004225288958
1.11155e-05;-0.0034042700005761984
1.11158e-05;-0.003342698801415479
1.11160e-05;-0.003279625321796614
1.11163e-05;-0.0032154130192850964
1.11165e-05;-0.0031504360527257035
1.11167e-05;-0.003085068580963231
1.11170e-05;-0.0030196847628411417
1.11173e-05;-0.002954658794814398
1.11175e-05;-0.002890365846736496
1.11178e-05;-0.002827188950048241
1.11180e-05;-0.0027655315876782167
1.11183e-05;-0.002705816100074734
1.11185e-05;-0.0026484700583253307
1.11188e-05;-0.002593922066034042
1.11190e-05;-0.00254260026114477
1.11193e-05;-0.0024949331433637215
1.11195e-05;-0.0024513588408425426
1.11198e-05;-0.0024123152553744615
1.11200e-05;-0.0023781398484871885
1.11203e-05;-0.0023489908879043573
1.11205e-05;-0.0023249352551400148
1.11208e-05;-0.00230603263005936
1.11210e-05;-0.0022925588198254242
1.11213e-05;-0.002286378679635577
1.11215e-05;-0.0022812851065859745
1.11218e-05;-0.002288558037401807
1.11220e-05;-0.0022958309682176393
1.11223e-05;-0.0023041523482689153
1.11225e-05;-0.0023244064023757558
1.11228e-05;-0.002345436579898174
1.11230e-05;-0.002375300020329626
1.11233e-05;-0.0024058850588365363
1.11235e-05;-0.002444682793141799
1.11238e-05;-0.002484140162771124
1.11240e-05;-0.002531105013979155
1.11243e-05;-0.0025786376658851456
1.11245e-05;-0.002632632605547296
1.11248e-05;-0.002687093610404786
1.11250e-05;-0.00274685902473962
1.11252e-05;-0.0028069890790499356
1.11255e-05;-0.0028712691959805396
1.11258e-05;-0.0029358078640072203
1.11260e-05;-0.003003289169456964
1.11263e-05;-0.003070904263675285
1.11265e-05;-0.0031400420427397614
1.11268e-05;-0.003209182642566796
1.11270e-05;-0.0032783553462273516
1.11273e-05;-0.003347400128306387
1.11275e-05;-0.0034149890015139563
1.11278e-05;-0.0034823994144766025
1.11280e-05;-0.003547612506740931
1.11283e-05;-0.0036106100317470037
1.11285e-05;-0.003669922357648885
1.11288e-05;-0.003728512765789913
1.11290e-05;-0.003778886839697646
1.11293e-05;-0.0038292609136050372
1.11295e-05;-0.003879009906530155
1.11298e-05;-0.003921453197675385
1.11300e-05;-0.003961490728555914
1.11303e-05;-0.003998952247797247
1.11305e-05;-0.004036049098855251
1.11308e-05;-0.004068995566254625
1.11310e-05;-0.004101495619772038
1.11313e-05;-0.004128914920521936
1.11315e-05;-0.004156007219671048
1.11318e-05;-0.004179180318564262
1.11320e-05;-0.004200105507001366
1.11323e-05;-0.004220721872085338
1.11325e-05;-0.004237823438082144
1.11328e-05;-0.0042549250040789495
1.11330e-05;-0.004271655119525577
1.11333e-05;-0.0042841576594285025
1.11335e-05;-0.004296393975761416
1.11337e-05;-0.004305600332242071
1.11340e-05;-0.004314645848841874
1.11343e-05;-0.00432186080482742
1.11345e-05;-0.004328865018508233
1.11348e-05;-0.004333470719080564
1.11350e-05;-0.004338076419652896
1.11353e-05;-0.004342455437477926
1.11355e-05;-0.004344254519861433
1.11358e-05;-0.004345944495149314
1.11360e-05;-0.004346392694138349
1.11363e-05;-0.004346768380724627
1.11365e-05;-0.00434631878475173
1.11368e-05;-0.004345791824664476
1.11370e-05;-0.004344384363423594
1.11373e-05;-0.004342903261474919
1.11375e-05;-0.004340584035433483
1.11378e-05;-0.0043382444058762465
1.11380e-05;-0.004335672558586445
1.11383e-05;-0.00433311084723676
1.11385e-05;-0.0043306644956639054
1.11388e-05;-0.004328237607352664
1.11390e-05;-0.004326032235495975
1.11393e-05;-0.0043238268636393
1.11395e-05;-0.004321713509396782
1.11398e-05;-0.004320647431609638
1.11400e-05;-0.0043195813538225
1.11403e-05;-0.004318515276035355
1.11405e-05;-0.0043174491982482105
1.11408e-05;-0.004316383120461073
1.11410e-05;-0.0043153170426739286
1.11413e-05;-0.0043154544681022425
1.11415e-05;-0.004316460654683813
1.11418e-05;-0.00431746684126539
1.11420e-05;-0.004318473027846967
1.11422e-05;-0.004319479214428538
1.11425e-05;-0.004320485401010115
1.11428e-05;-0.004321683034002495
1.11430e-05;-0.00432505956850523
1.11433e-05;-0.004328436103007987
1.11435e-05;-0.004331812637510744
1.11438e-05;-0.004335189172013501
1.11440e-05;-0.004338565706516236
1.11443e-05;-0.004341942241018993
1.11445e-05;-0.00434531877552175
1.11448e-05;-0.004348695310024485
