Time(s);Current(A)
6.00000e-06;-0.005615246757289941
6.00025e-06;-0.005628363504430869
6.00050e-06;-0.005641480251571754
6.00075e-06;-0.005654596998712638
6.00100e-06;-0.005667713745853568
6.00125e-06;-0.005680830492994452
6.00150e-06;-0.0056939472401353365
6.00175e-06;-0.005707031576259989
6.00200e-06;-0.005720068180642476
6.00225e-06;-0.005733104785024964
6.00250e-06;-0.005746141389407496
6.00275e-06;-0.005759177993789983
6.00300e-06;-0.00577221459817247
6.00325e-06;-0.005785251202555002
6.00350e-06;-0.00579828780693749
6.00375e-06;-0.005811324411320021
6.00400e-06;-0.005824361015702509
6.00425e-06;-0.005836619110392702
6.00450e-06;-0.005848794927631403
6.00475e-06;-0.005860970744870062
6.00500e-06;-0.005873146562108722
6.00525e-06;-0.005885322379347422
6.00550e-06;-0.005897498196586081
6.00575e-06;-0.00590967401382474
6.00600e-06;-0.005921849831063441
6.00625e-06;-0.0059340256483021
6.00650e-06;-0.005944368010419666
6.00675e-06;-0.005952010241005558
6.00700e-06;-0.005959652471591425
6.00725e-06;-0.005967294702177292
6.00750e-06;-0.005974936932763184
6.00775e-06;-0.0059825791633490505
6.00800e-06;-0.005990221393934942
6.00825e-06;-0.005997863624520809
6.00850e-06;-0.006005505855106676
6.00875e-06;-0.006013148085692568
6.00900e-06;-0.006020790316278435
6.00925e-06;-0.006028432546864301
6.00950e-06;-0.006030849385577547
6.00975e-06;-0.006032713974356499
6.01000e-06;-0.00603457856313545
6.01025e-06;-0.006036443151914408
6.01050e-06;-0.00603830774069336
6.01075e-06;-0.006040172329472311
6.01100e-06;-0.006042036918251269
6.01125e-06;-0.006043901507030221
6.01150e-06;-0.006045766095809172
6.01175e-06;-0.00604763068458813
6.01200e-06;-0.006049495273367082
6.01225e-06;-0.006049904449688354
6.01250e-06;-0.006048170238357032
6.01275e-06;-0.0060464360270257094
6.01300e-06;-0.006044701815694381
6.01325e-06;-0.006042967604363059
6.01350e-06;-0.0060412333930317365
6.01375e-06;-0.0060394991817004084
6.01400e-06;-0.006037764970369086
6.01425e-06;-0.006036030759037764
6.01450e-06;-0.0060342965477064355
6.01475e-06;-0.006032562336375113
6.01500e-06;-0.006029734735443858
6.01525e-06;-0.0060267915787132875
6.01550e-06;-0.006023848421982727
6.01575e-06;-0.006020905265252166
6.01600e-06;-0.006017962108521595
6.01625e-06;-0.006015018951791035
6.01650e-06;-0.006012075795060464
6.01675e-06;-0.006009132638329904
6.01700e-06;-0.006006189481599343
6.01725e-06;-0.006003246324868773
6.01750e-06;-0.00600042181926639
6.01775e-06;-0.005997772051321179
6.01800e-06;-0.00599512228337596
6.01825e-06;-0.005991733983674938
6.01850e-06;-0.005987258047381336
6.01875e-06;-0.005982782111087719
6.01900e-06;-0.005976775879244322
6.01925e-06;-0.005968515979330057
6.01950e-06;-0.005960256079415764
6.01975e-06;-0.005949745870416688
6.02000e-06;-0.005935921628559954
6.02025e-06;-0.005922097386703173
6.02050e-06;-0.005908273144846439
6.02075e-06;-0.005894448902989659
6.02100e-06;-0.0058806246611329245
6.02125e-06;-0.005863545920433744
6.02150e-06;-0.0058416742754301134
6.02175e-06;-0.005819802630426556
6.02200e-06;-0.005797930985422999
6.02225e-06;-0.005776059340419367
6.02250e-06;-0.00575418769541581
6.02275e-06;-0.005729939064142215
6.02300e-06;-0.005702189842370166
6.02325e-06;-0.00567444062059821
6.02350e-06;-0.005646691398826255
6.02375e-06;-0.0056189421770542055
6.02400e-06;-0.005590136512755084
6.02425e-06;-0.00555977502429359
6.02450e-06;-0.005529413535831992
6.02475e-06;-0.005499052047370498
6.02500e-06;-0.005468690558908901
6.02525e-06;-0.00543821114390626
6.02550e-06;-0.005407558058346654
6.02575e-06;-0.005377245739436904
6.02600e-06;-0.005347435267976681
6.02625e-06;-0.005318015279881308
6.02650e-06;-0.0052894767551878085
6.02675e-06;-0.005261756124093569
6.02700e-06;-0.005235019158769618
6.02725e-06;-0.005209456503003268
6.02750e-06;-0.00518525851295982
6.02775e-06;-0.005162615466066679
6.02800e-06;-0.00514174021769429
6.02825e-06;-0.005122922625353057
6.02850e-06;-0.00510650168342535
6.02875e-06;-0.005092707643425604
6.02900e-06;-0.005082151444567664
6.02925e-06;-0.005074002837701038
6.02950e-06;-0.005068036493304691
6.02975e-06;-0.005065283969435415
6.03000e-06;-0.0050653441436016074
6.03025e-06;-0.005069546581499131
6.03050e-06;-0.005073749019396654
6.03075e-06;-0.005082417512303788
6.03100e-06;-0.005097663169717986
6.03125e-06;-0.005112908827132183
6.03150e-06;-0.005128154484546434
6.03175e-06;-0.005143400141960631
6.03200e-06;-0.005163369113274573
6.03225e-06;-0.005190294114568085
6.03250e-06;-0.005217219115861506
6.03275e-06;-0.0052441441171549264
6.03300e-06;-0.005271069118448438
6.03325e-06;-0.005301560069949589
6.03350e-06;-0.005337302600548947
6.03375e-06;-0.005373045131148183
6.03400e-06;-0.00540878766174742
6.03425e-06;-0.005444530192346777
6.03450e-06;-0.005480272722946013
6.03475e-06;-0.005517301987411256
6.03500e-06;-0.005556226226366369
6.03525e-06;-0.00559515046532135
6.03550e-06;-0.005634074704276331
6.03575e-06;-0.005672998943231445
6.03600e-06;-0.0057119231821864255
6.03625e-06;-0.005749814386900687
6.03650e-06;-0.005786184240864264
6.03675e-06;-0.005822554094827719
6.03700e-06;-0.005853369177537281
6.03725e-06;-0.005876003742037127
6.03750e-06;-0.005898638306536897
6.03775e-06;-0.005921272871036744
6.03800e-06;-0.005943907435536514
6.03825e-06;-0.0059665420000362835
6.03850e-06;-0.00598917656453613
6.03875e-06;-0.0060118111290359
6.03900e-06;-0.00603444569353567
6.03925e-06;-0.006057080258035517
6.03950e-06;-0.006079714822535286
6.03975e-06;-0.006102349387035057
6.04000e-06;-0.006124983951534903
6.04025e-06;-0.006147618516034673
6.04050e-06;-0.006164226704450223
6.04075e-06;-0.006171959841664008
6.04100e-06;-0.006179692978877766
6.04125e-06;-0.006187426116091524
6.04150e-06;-0.006195159253305308
6.04175e-06;-0.0062028923905190665
6.04200e-06;-0.0062106255277328505
6.04225e-06;-0.006218358664946608
6.04250e-06;-0.006226091802160366
6.04275e-06;-0.006233824939374151
6.04300e-06;-0.006241558076587909
6.04325e-06;-0.006249291213801667
6.04350e-06;-0.006257024351015451
6.04375e-06;-0.006264757488229209
6.04400e-06;-0.006269951080131902
6.04425e-06;-0.006271404680645345
6.04450e-06;-0.006272858281158784
6.04475e-06;-0.0062743118816722225
6.04500e-06;-0.0062757654821856655
6.04525e-06;-0.006277219082699104
6.04550e-06;-0.006278672683212542
6.04575e-06;-0.006280126283725986
6.04600e-06;-0.006281579884239424
6.04625e-06;-0.0062830334847528676
6.04650e-06;-0.006284487085266305
6.04675e-06;-0.006285940685779744
6.04700e-06;-0.006287036241201503
6.04725e-06;-0.006287604503192448
6.04750e-06;-0.006288172765183392
6.04775e-06;-0.006288741027174339
6.04800e-06;-0.006289309289165284
6.04825e-06;-0.0062898775511562284
6.04850e-06;-0.006290445813147174
6.04875e-06;-0.006291014075138119
6.04900e-06;-0.006291582337129064
6.04925e-06;-0.00629215059912001
6.04950e-06;-0.006292718861110954
6.04975e-06;-0.006293287123101899
6.05000e-06;-0.006295145647928806
6.05025e-06;-0.006298904344363097
6.05050e-06;-0.006302663040797401
6.05075e-06;-0.006306421737231692
6.05100e-06;-0.006310180433665983
6.05125e-06;-0.006313939130100287
6.05150e-06;-0.006317697826534578
6.05175e-06;-0.006321456522968869
6.05200e-06;-0.006325215219403173
6.05225e-06;-0.006328973915837464
6.05250e-06;-0.006332732612271755
6.05275e-06;-0.006336491308706059
6.05300e-06;-0.006342566192086789
6.05325e-06;-0.006348885863632128
6.05350e-06;-0.0063552055351774875
6.05375e-06;-0.006361525206722826
6.05400e-06;-0.006367844878268165
6.05425e-06;-0.006374164549813525
6.05450e-06;-0.006380484221358864
6.05475e-06;-0.0063868038929042244
6.05500e-06;-0.006393123564449563
6.05525e-06;-0.006399443235994902
6.05550e-06;-0.006405762907540262
6.05575e-06;-0.006411491962471241
6.05600e-06;-0.006416351215614511
6.05625e-06;-0.006421210468757798
6.05650e-06;-0.00642606972190107
6.05675e-06;-0.00643092897504434
6.05700e-06;-0.006435788228187627
6.05725e-06;-0.006440647481330899
6.05750e-06;-0.006445506734474169
6.05775e-06;-0.006450365987617456
6.05800e-06;-0.0064552252407607275
6.05825e-06;-0.006460084493903998
6.05850e-06;-0.006464943747047285
6.05875e-06;-0.006467215816419671
6.05900e-06;-0.006465677737187688
6.05925e-06;-0.006464139657955711
6.05950e-06;-0.006462601578723733
6.05975e-06;-0.0064610634994917504
6.06000e-06;-0.006459525420259773
6.06025e-06;-0.0064579873410277955
6.06050e-06;-0.006456449261795813
6.06075e-06;-0.006454911182563835
6.06100e-06;-0.006453373103331858
6.06125e-06;-0.006451835024099875
6.06150e-06;-0.006450296944867898
6.06175e-06;-0.00644623702472988
6.06200e-06;-0.006438463186502149
6.06225e-06;-0.006430689348274445
6.06250e-06;-0.00642291551004674
6.06275e-06;-0.0064151416718190085
6.06300e-06;-0.006407367833591304
6.06325e-06;-0.006399593995363573
6.06350e-06;-0.006391820157135868
6.06375e-06;-0.006384046318908164
6.06400e-06;-0.006376272480680433
6.06425e-06;-0.0063684986424527275
6.06450e-06;-0.00635896792046608
6.06475e-06;-0.006349251520742474
6.06500e-06;-0.0063395351210189
6.06525e-06;-0.0063298187212953265
6.06550e-06;-0.00632010232157172
6.06575e-06;-0.0063103859218481455
6.06600e-06;-0.006300669522124572
6.06625e-06;-0.006290953122400965
6.06650e-06;-0.006281236722677392
6.06675e-06;-0.006271520322953818
6.06700e-06;-0.006263151078509062
6.06725e-06;-0.0062567657912391125
6.06750e-06;-0.0062503805039691405
6.06775e-06;-0.00624399521669919
6.06800e-06;-0.006237609929429241
6.06825e-06;-0.006231224642159269
6.06850e-06;-0.0062248393548893196
6.06875e-06;-0.006218454067619369
6.06900e-06;-0.006212068780349398
6.06925e-06;-0.006205683493079448
6.06950e-06;-0.00620200848239166
6.06975e-06;-0.006202324899236386
6.07000e-06;-0.006202641316081112
6.07025e-06;-0.0062029577329258375
6.07050e-06;-0.006203274149770565
6.07075e-06;-0.00620359056661529
6.07100e-06;-0.006203906983460016
6.07125e-06;-0.0062042234003047425
6.07150e-06;-0.006204539817149468
6.07175e-06;-0.006204856233994195
6.07200e-06;-0.006207546018658969
6.07225e-06;-0.006213731064923071
6.07250e-06;-0.006219916111187195
6.07275e-06;-0.006226101157451297
6.07300e-06;-0.0062322862037154
6.07325e-06;-0.006238471249979523
6.07350e-06;-0.0062446562962436255
6.07375e-06;-0.006250841342507728
6.07400e-06;-0.006257026388771851
6.07425e-06;-0.006263211435035954
6.07450e-06;-0.006269396481300056
6.07475e-06;-0.006277072444102404
6.07500e-06;-0.006284905975672272
6.07525e-06;-0.00629273950724214
6.07550e-06;-0.006300573038812035
6.07575e-06;-0.006308406570381903
6.07600e-06;-0.006316240101951798
6.07625e-06;-0.006324073633521666
6.07650e-06;-0.006331907165091534
6.07675e-06;-0.006339740696661429
6.07700e-06;-0.006347574228231297
6.07725e-06;-0.0063536806314193044
6.07750e-06;-0.006357243490594197
6.07775e-06;-0.006360806349769077
6.07800e-06;-0.006364369208943957
6.07825e-06;-0.006367932068118849
6.07850e-06;-0.006371494927293729
6.07875e-06;-0.006375057786468609
6.07900e-06;-0.006378620645643501
6.07925e-06;-0.006382183504818381
6.07950e-06;-0.006385746363993261
6.07975e-06;-0.006389309223168153
6.08000e-06;-0.006390089452874652
6.08025e-06;-0.006386771700868262
6.08050e-06;-0.006383453948861883
6.08075e-06;-0.006380136196855504
6.08100e-06;-0.0063768184448491135
6.08125e-06;-0.006373500692842734
6.08150e-06;-0.006370182940836355
6.08175e-06;-0.006366865188829965
6.08200e-06;-0.006363547436823586
6.08225e-06;-0.006360229684817207
6.08250e-06;-0.006356911932810816
6.08275e-06;-0.006351718282180446
6.08300e-06;-0.0063437619934255075
6.08325e-06;-0.0063358057046705414
6.08350e-06;-0.006327849415915603
6.08375e-06;-0.006319893127160664
6.08400e-06;-0.006311936838405699
6.08425e-06;-0.0063039805496507605
6.08450e-06;-0.0062960242608957944
6.08475e-06;-0.006288067972140856
6.08500e-06;-0.006280111683385917
6.08525e-06;-0.0062715925145234745
6.08550e-06;-0.006263013857203801
6.08575e-06;-0.006254435199884128
6.08600e-06;-0.006245856542564427
6.08625e-06;-0.006237277885244754
6.08650e-06;-0.0062286992279250815
6.08675e-06;-0.00622012057060538
6.08700e-06;-0.006211541913285707
6.08725e-06;-0.006202963255966034
6.08750e-06;-0.0061950114296840594
6.08775e-06;-0.006187982738213436
6.08800e-06;-0.006180935308814272
6.08825e-06;-0.006173860284045538
6.08850e-06;-0.00616524987906175
6.08875e-06;-0.006154378317817582
6.08900e-06;-0.006141250201510613
6.08925e-06;-0.006124798853891318
6.08950e-06;-0.006108347506271967
6.08975e-06;-0.006089582385426108
6.09000e-06;-0.006067409768010521
6.09025e-06;-0.006045237150594859
6.09050e-06;-0.006019830749632039
6.09075e-06;-0.0059896619518112326
6.09100e-06;-0.005959493153990325
6.09125e-06;-0.005925683590254695
6.09150e-06;-0.005886512266246639
6.09175e-06;-0.005847340942238451
6.09200e-06;-0.005808169618230395
6.09225e-06;-0.005768998294222339
6.09250e-06;-0.005721531033717473
6.09275e-06;-0.005673187010191776
6.09300e-06;-0.005624842986665915
6.09325e-06;-0.005576498963140219
6.09350e-06;-0.005526138305365265
6.09375e-06;-0.005472807747944235
6.09400e-06;-0.005418836428695573
6.09425e-06;-0.005363921458744658
6.09450e-06;-0.005308570149291705
6.09475e-06;-0.005252368524196561
6.09500e-06;-0.00519578811245867
6.09525e-06;-0.005139164022447564
6.09550e-06;-0.005082832728671584
6.09575e-06;-0.0050271297948796725
6.09600e-06;-0.004972371178884484
6.09625e-06;-0.0049187928026614685
6.09650e-06;-0.004866548419937394
6.09675e-06;-0.004815832619496746
6.09700e-06;-0.004766952156050662
6.09725e-06;-0.004720261873781616
6.09750e-06;-0.0046761174386120465
6.09775e-06;-0.00463487349612183
6.09800e-06;-0.00459679213731444
6.09825e-06;-0.004562674678616596
6.09850e-06;-0.004531554980238593
6.09875e-06;-0.0045046006610840955
6.09900e-06;-0.004477888745073927
6.09925e-06;-0.004451176829063759
6.09950e-06;-0.004424895468408199
6.09975e-06;-0.004406223440999745
6.10000e-06;-0.0043875514135912905
6.10025e-06;-0.004368879386182773
6.10050e-06;-0.00435166914178689
6.10075e-06;-0.004342014946496866
6.10100e-06;-0.00433236075120681
6.10125e-06;-0.004322706555916786
6.10150e-06;-0.004313052360626729
6.10175e-06;-0.004306320326253653
6.10200e-06;-0.004304510802665925
6.10225e-06;-0.004302701279078191
6.10250e-06;-0.004300891755490463
6.10275e-06;-0.004299082231902735
6.10300e-06;-0.004301003956376815
6.10325e-06;-0.004305595546001048
6.10350e-06;-0.00431018713562528
6.10375e-06;-0.004314778725249529
6.10400e-06;-0.004319370314873762
6.10425e-06;-0.004324303814780407
6.10450e-06;-0.00433301947009644
6.10475e-06;-0.004341735125412443
6.10500e-06;-0.004350450780728447
6.10525e-06;-0.004359166436044479
6.10550e-06;-0.0043678820913604826
6.10575e-06;-0.004377268088677235
6.10600e-06;-0.004387133743930566
6.10625e-06;-0.004396999399183897
6.10650e-06;-0.0044067220524757955
6.10675e-06;-0.00441634238184093
6.10700e-06;-0.004425355190377048
6.10725e-06;-0.004433933292171002
6.10750e-06;-0.004442511393964927
6.10775e-06;-0.004450179684798065
6.10800e-06;-0.004457196967567172
6.10825e-06;-0.004464207735852722
6.10850e-06;-0.004471213842750911
6.10875e-06;-0.004479272853050327
6.10900e-06;-0.004488085260081982
6.10925e-06;-0.0044979822833826014
6.10950e-06;-0.004508655395308161
6.10975e-06;-0.0045193285072336825
6.11000e-06;-0.0045311554970552375
6.11025e-06;-0.0045438081351131055
6.11050e-06;-0.0045564607731709734
6.11075e-06;-0.0045719436376482295
6.11100e-06;-0.004589451648338641
6.11125e-06;-0.004606959659029052
6.11150e-06;-0.004624467669719522
6.11175e-06;-0.004641975680409933
6.11200e-06;-0.0046594836911003435
6.11225e-06;-0.004679921500281437
6.11250e-06;-0.004702455703686618
6.11275e-06;-0.0047249899070918
6.11300e-06;-0.004747524110497058
6.11325e-06;-0.004770058313902239
6.11350e-06;-0.004792592517307421
6.11375e-06;-0.004816730802415742
6.11400e-06;-0.004842016875546962
6.11425e-06;-0.004867302948678269
6.11450e-06;-0.004892589021809489
6.11475e-06;-0.00491787509494071
6.11500e-06;-0.004943161168072017
6.11525e-06;-0.004968447241203237
6.11550e-06;-0.004992739080061697
6.11575e-06;-0.00501631950242063
6.11600e-06;-0.0050398999247794835
6.11625e-06;-0.005063480347138338
6.11650e-06;-0.005087060769497271
6.11675e-06;-0.005110641191856124
6.11700e-06;-0.005134221614214978
6.11725e-06;-0.0051554793323686735
6.11750e-06;-0.005175075057830514
6.11775e-06;-0.0051924553612564366
6.11800e-06;-0.00520825043690154
6.11825e-06;-0.0052240455125465894
6.11850e-06;-0.005236354163274455
6.11875e-06;-0.005246168130124894
6.11900e-06;-0.005255982096975334
6.11925e-06;-0.005261995496035877
6.11950e-06;-0.005265289428761862
6.11975e-06;-0.005268583361487848
6.12000e-06;-0.005266312535189677
6.12025e-06;-0.005260059889420772
6.12050e-06;-0.005253807243651868
6.12075e-06;-0.005247554597882943
6.12100e-06;-0.005241301952114038
6.12125e-06;-0.005234106670013976
6.12150e-06;-0.005216484099591359
6.12175e-06;-0.005198861529168802
6.12200e-06;-0.005181238958746244
6.12225e-06;-0.005163616388323628
6.12250e-06;-0.00514599381790107
6.12275e-06;-0.005123624047912418
6.12300e-06;-0.005097857456681381
6.12325e-06;-0.005072090865450343
6.12350e-06;-0.005046324274219217
6.12375e-06;-0.005020184035313699
6.12400e-06;-0.004989910567183546
6.12425e-06;-0.00495963709905329
6.12450e-06;-0.004929363630923137
6.12475e-06;-0.004899090162792983
6.12500e-06;-0.00486794410070496
6.12525e-06;-0.0048361736608864584
6.12550e-06;-0.004804381370404433
6.12575e-06;-0.004772698577223431
6.12600e-06;-0.004741333328448476
6.12625e-06;-0.004710459666776026
6.12650e-06;-0.004680251244066351
6.12675e-06;-0.004650892997901329
6.12700e-06;-0.004622583489439141
6.12725e-06;-0.004598181502884852
6.12750e-06;-0.004576237245764565
6.12775e-06;-0.004554292988644204
6.12800e-06;-0.004532348731523917
6.12825e-06;-0.004510404474403631
6.12850e-06;-0.00448846021728327
6.12875e-06;-0.004466515960162984
6.12900e-06;-0.004445099681027879
6.12925e-06;-0.004429523807672752
6.12950e-06;-0.004413947934317678
6.12975e-06;-0.004398372060962603
6.13000e-06;-0.004382796187607476
6.13025e-06;-0.004367220314252402
6.13050e-06;-0.004351644440897327
6.13075e-06;-0.004336068567542201
6.13100e-06;-0.004321547479550433
6.13125e-06;-0.004308700020912156
6.13150e-06;-0.00429651006390936
6.13175e-06;-0.004284320106906564
6.13200e-06;-0.004272130149903727
6.13225e-06;-0.004259940192900931
6.13250e-06;-0.004247750235898135
6.13275e-06;-0.004235560278895298
6.13300e-06;-0.004223532694297383
6.13325e-06;-0.004213301246580826
6.13350e-06;-0.004203069798864235
6.13375e-06;-0.004192838351147679
6.13400e-06;-0.004182606903431123
6.13425e-06;-0.004172375455714532
6.13450e-06;-0.004162144007997975
6.13475e-06;-0.004151912560281419
6.13500e-06;-0.004142438566042138
6.13525e-06;-0.004133506561669862
6.13550e-06;-0.004124574557297557
6.13575e-06;-0.004115642552925281
6.13600e-06;-0.004106818800254603
6.13625e-06;-0.004099192510131906
6.13650e-06;-0.004091566220009235
6.13675e-06;-0.004083939929886564
6.13700e-06;-0.004076313639763868
6.13725e-06;-0.0040691353108632125
6.13750e-06;-0.004062489780673568
6.13775e-06;-0.00405623581272879
6.13800e-06;-0.004050495355379599
6.13825e-06;-0.004045718928423859
6.13850e-06;-0.0040426737761227
6.13875e-06;-0.004041908980722828
6.13900e-06;-0.004043520214469437
6.13925e-06;-0.004047420796699735
6.13950e-06;-0.00405351460696404
6.13975e-06;-0.0040617057190372036
6.14000e-06;-0.00407262090721124
6.14025e-06;-0.004084871291527088
6.14050e-06;-0.004100207505262859
6.14075e-06;-0.0041177517599234655
6.14100e-06;-0.004139982642614472
6.14125e-06;-0.00416556700506181
6.14150e-06;-0.004191151367509062
6.14175e-06;-0.004216735729956314
6.14200e-06;-0.00424309294503815
6.14225e-06;-0.004277999329055895
6.14250e-06;-0.004312905713073641
6.14275e-06;-0.0043478120970915045
6.14300e-06;-0.0043827184811092495
6.14325e-06;-0.00442196460239275
6.14350e-06;-0.004464315988479388
6.14375e-06;-0.004506667374565882
6.14400e-06;-0.004549018760652519
6.14425e-06;-0.004591370146739013
6.14450e-06;-0.004633956426804505
6.14475e-06;-0.004679141065494536
6.14500e-06;-0.004724325704184415
6.14525e-06;-0.004769510342874294
6.14550e-06;-0.004814694981564326
6.14575e-06;-0.004859879620254204
6.14600e-06;-0.004904040596690243
6.14625e-06;-0.004947469099667284
6.14650e-06;-0.004989542182913442
