Time(s);Current(A)
1.37500e-05;0.0065234173538164485
1.37503e-05;0.006571276810206591
1.37505e-05;0.006619136266596734
1.37508e-05;0.006666995722986552
1.37510e-05;0.0067148551793766945
1.37513e-05;0.006762714635766837
1.37515e-05;0.006810574092156655
1.37518e-05;0.006858433548546797
1.37520e-05;0.00690629300493694
1.37523e-05;0.006938414667713381
1.37525e-05;0.006964645507725812
1.37528e-05;0.006990876347738243
1.37530e-05;0.007017107187750496
1.37533e-05;0.007043338027762927
1.37535e-05;0.0070695688677753585
1.37538e-05;0.007095799707787612
1.37540e-05;0.007122030547800043
1.37543e-05;0.007148261387812474
1.37545e-05;0.007174492227824728
1.37548e-05;0.007176846755762317
1.37550e-05;0.007170264127312641
1.37553e-05;0.00716368149886301
1.37555e-05;0.007157098870413334
1.37558e-05;0.007150516241963658
1.37560e-05;0.007143933613514027
1.37563e-05;0.007137350985064351
1.37565e-05;0.007130768356614675
1.37568e-05;0.007124185728165044
1.37570e-05;0.007117603099715368
1.37573e-05;0.007111020471265692
1.37575e-05;0.007099230213504591
1.37578e-05;0.007069770739301377
1.37580e-05;0.007040311265097963
1.37583e-05;0.007010851790894549
1.37585e-05;0.006981392316691335
1.37588e-05;0.006951932842487921
1.37590e-05;0.006922473368284506
1.37593e-05;0.006893013894081292
1.37595e-05;0.006863554419877878
1.37598e-05;0.006834094945674465
1.37600e-05;0.00680463547147125
1.37603e-05;0.006775175997267836
1.37605e-05;0.006744139749580144
1.37608e-05;0.006712513298884197
1.37610e-05;0.006680886848188034
1.37613e-05;0.0066492603974918725
1.37615e-05;0.006617633946795925
1.37618e-05;0.006586007496099763
1.37620e-05;0.006554381045403602
1.37623e-05;0.006527666699925208
1.37625e-05;0.006502791007434187
1.37628e-05;0.006477915314943167
1.37630e-05;0.006453039622452315
1.37633e-05;0.006428163929961294
1.37635e-05;0.0064032882374702735
1.37638e-05;0.006378412544979422
1.37640e-05;0.006348572943758605
1.37643e-05;0.006316875298946996
1.37645e-05;0.006285177654135601
1.37648e-05;0.006253480009323992
1.37650e-05;0.0062217823645123824
1.37653e-05;0.006190084719700987
1.37655e-05;0.006158387074889378
1.37658e-05;0.006126689430077768
1.37660e-05;0.006094991785266159
1.37663e-05;0.0060632941404547645
1.37665e-05;0.006031596495643154
1.37668e-05;0.005997064652354923
1.37670e-05;0.0059529165204741516
1.37673e-05;0.0059087683885930805
1.37675e-05;0.005864620256712009
1.37678e-05;0.0058204721248312375
1.37680e-05;0.0057763239929501655
1.37683e-05;0.0057321758610690944
1.37685e-05;0.005688027729188323
1.37688e-05;0.0056438795973072515
1.37690e-05;0.00559973146542618
1.37693e-05;0.0055555833335454085
1.37695e-05;0.005511435201664337
1.37698e-05;0.005467093728931315
1.37700e-05;0.005422679886670778
1.37703e-05;0.005378266044409941
1.37705e-05;0.005333852202149103
1.37708e-05;0.0052894383598885665
1.37710e-05;0.005245024517627729
1.37713e-05;0.005200610675366891
1.37715e-05;0.005156196833106355
1.37718e-05;0.005114719707622591
1.37720e-05;0.005083206710016369
1.37723e-05;0.005051693712410362
1.37725e-05;0.00502018071480414
1.37728e-05;0.004988667717197919
1.37730e-05;0.004957154719591911
1.37733e-05;0.00492564172198569
1.37735e-05;0.004894128724379468
1.37738e-05;0.004862615726773461
1.37740e-05;0.004840044080305931
1.37743e-05;0.0048208192762337785
1.37745e-05;0.004801594472161625
1.37748e-05;0.004782369668089603
1.37750e-05;0.004763144864017449
1.37753e-05;0.0047439200599452966
1.37755e-05;0.004724695255873274
1.37758e-05;0.004705470451801121
1.37760e-05;0.004686245647728968
1.37763e-05;0.004667020843656945
1.37765e-05;0.004647796039584792
1.37768e-05;0.004628571235512639
1.37770e-05;0.004609346431440616
1.37773e-05;0.0045901216273684636
1.37775e-05;0.00457089682329631
1.37778e-05;0.004551672019224288
1.37780e-05;0.004532447215152134
1.37783e-05;0.004513222411079982
1.37785e-05;0.004493997607007959
1.37788e-05;0.004474772802935806
1.37790e-05;0.004455547998863653
1.37793e-05;0.004441874177022217
1.37795e-05;0.004430278146599598
1.37798e-05;0.004418682116176979
1.37800e-05;0.004407086085754438
1.37803e-05;0.004395490055331818
1.37805e-05;0.004383894024909199
1.37808e-05;0.004372297994486659
1.37810e-05;0.0043607019640640385
1.37813e-05;0.004349105933641419
1.37815e-05;0.004337509903218879
1.37818e-05;0.0043259138727962596
1.37820e-05;0.004314317842373639
1.37823e-05;0.004302721811951099
1.37825e-05;0.00429112578152848
1.37828e-05;0.0042795297511058605
1.37830e-05;0.00426793372068324
1.37833e-05;0.0042563376902607
1.37835e-05;0.004244741659838081
1.37838e-05;0.004233145629415461
1.37840e-05;0.00422154959899292
1.37843e-05;0.004209953568570301
1.37845e-05;0.004196177392119489
1.37848e-05;0.004181585163928349
1.37850e-05;0.004166992935737109
1.37853e-05;0.00415240070754587
1.37855e-05;0.004137808479354729
1.37858e-05;0.00412321625116349
1.37860e-05;0.00410862402297225
1.37863e-05;0.0040940317947811096
1.37865e-05;0.00407943956658987
1.37868e-05;0.00406484733839863
1.37870e-05;0.00405025511020749
1.37873e-05;0.004035662882016251
1.37875e-05;0.004021070653825011
1.37878e-05;0.00400647842563387
1.37880e-05;0.003988630995947236
1.37883e-05;0.00396956510987655
1.37885e-05;0.003950499223805993
1.37888e-05;0.003931433337735308
1.37890e-05;0.003912367451664622
1.37893e-05;0.003893301565594066
1.37895e-05;0.00387423567952338
1.37898e-05;0.0038551697934526945
1.37900e-05;0.0038361039073821377
1.37903e-05;0.003817038021311452
1.37905e-05;0.0037979721352407662
1.37908e-05;0.00377890624917021
1.37910e-05;0.003759840363099524
1.37913e-05;0.0037407744770288384
1.37915e-05;0.0037284781939524924
1.37918e-05;0.0037187158449502617
1.37920e-05;0.0037089534959479646
1.37923e-05;0.0036991911469456676
1.37925e-05;0.0036894287979434364
1.37928e-05;0.0036796664489411393
1.37930e-05;0.0036699040999388422
1.37933e-05;0.0036601417509366115
1.37935e-05;0.0036503794019343144
1.37938e-05;0.0036406170529320173
1.37940e-05;0.0036308547039297866
1.37943e-05;0.0036210923549274895
1.37945e-05;0.0036113300059251925
1.37948e-05;0.0036015676569229613
1.37950e-05;0.0035918053079206642
1.37953e-05;0.003582042958918367
1.37955e-05;0.0035758355089934475
1.37958e-05;0.0035816896474770562
1.37960e-05;0.0035875437859606645
1.37963e-05;0.0035933979244442337
1.37965e-05;0.003599252062927842
1.37968e-05;0.0036051062014114507
1.37970e-05;0.0036109603398950195
1.37973e-05;0.0036168144783786283
1.37975e-05;0.003622668616862237
1.37978e-05;0.0036285227553458058
1.37980e-05;0.0036343768938294145
1.37983e-05;0.003640231032313023
1.37985e-05;0.003646085170796592
1.37988e-05;0.0036519393092802007
1.37990e-05;0.0036577934477638094
1.37993e-05;0.0036636475862473782
1.37995e-05;0.003669501724730987
1.37998e-05;0.0036788297852137775
1.38000e-05;0.0036894581714813713
1.38003e-05;0.003700086557748893
1.38005e-05;0.0037107149440164873
1.38008e-05;0.003721343330284081
1.38010e-05;0.003731971716551603
1.38013e-05;0.0037426001028191967
1.38015e-05;0.00375175645487604
1.38018e-05;0.0037603618089423873
1.38020e-05;0.0037689671630087933
1.38023e-05;0.0037775725170751994
1.38025e-05;0.003786177871141547
1.38028e-05;0.003794783225207953
1.38030e-05;0.003803388579274359
1.38033e-05;0.0038215797355196897
1.38035e-05;0.003843358959011961
1.38038e-05;0.003865138182504232
1.38040e-05;0.003886917405996355
1.38043e-05;0.003908696629488627
1.38045e-05;0.003930475852980898
1.38048e-05;0.003952255076473021
1.38050e-05;0.003974034299965292
1.38053e-05;0.003995813523457563
1.38055e-05;0.004023903972031645
1.38058e-05;0.0040734080803664875
1.38060e-05;0.00412291218870133
1.38063e-05;0.004172416297035837
1.38065e-05;0.004221920405370679
1.38068e-05;0.004271424513705522
1.38070e-05;0.004320928622040029
1.38073e-05;0.004370432730374871
1.38075e-05;0.004419936838709714
1.38078e-05;0.004469440947044221
1.38080e-05;0.00453031449551327
1.38083e-05;0.0045954437458012795
1.38085e-05;0.004660572996088848
1.38088e-05;0.00472895436207428
1.38090e-05;0.004798553029397869
1.38093e-05;0.0048681516967214586
1.38095e-05;0.004937750364044577
1.38098e-05;0.005007349031368166
1.38100e-05;0.0050769476986917556
1.38103e-05;0.005146546366014873
1.38105e-05;0.005216145033338462
1.38108e-05;0.005279130619281104
1.38110e-05;0.005339640858844576
1.38113e-05;0.005400151098408458
1.38115e-05;0.0054606613379723406
1.38118e-05;0.005521171577535813
1.38120e-05;0.005581681817099695
1.38123e-05;0.005642192056663577
1.38125e-05;0.005702702296227049
1.38128e-05;0.005737261157387368
1.38130e-05;0.005762106142842677
1.38133e-05;0.005786951128297817
1.38135e-05;0.005811796113753125
1.38138e-05;0.005836641099208433
1.38140e-05;0.005861486084663573
1.38143e-05;0.005886331070118881
1.38145e-05;0.00591117605557419
1.38148e-05;0.00593602104102933
1.38150e-05;0.005960866026484638
1.38153e-05;0.0059520947478687745
1.38155e-05;0.0059307405456877895
1.38158e-05;0.00590938634350666
1.38160e-05;0.00588803214132553
1.38163e-05;0.005866677939144545
1.38165e-05;0.005845323736963415
1.38168e-05;0.005823969534782285
1.38170e-05;0.0058026153326013
1.38173e-05;0.0057812611304201705
1.38175e-05;0.005759906928239041
1.38178e-05;0.005717059360253838
1.38180e-05;0.00566616659788005
1.38183e-05;0.0056152738355059175
1.38185e-05;0.005564381073131785
1.38188e-05;0.005513488310757997
1.38190e-05;0.005462595548383863
1.38193e-05;0.00541170278600973
1.38195e-05;0.005360810023635943
1.38198e-05;0.005305181609196137
1.38200e-05;0.0052477805900476085
1.38203e-05;0.0051903795708994685
1.38205e-05;0.00513297855175094
1.38208e-05;0.005075577532602411
1.38210e-05;0.005018176513454271
1.38213e-05;0.004960775494305743
1.38215e-05;0.004903374475157214
1.38218e-05;0.004857988952798448
1.38220e-05;0.0048171009581067185
1.38223e-05;0.0047762129634149894
1.38225e-05;0.004735324968723537
1.38228e-05;0.004694436974031807
1.38230e-05;0.004653548979340078
1.38233e-05;0.004612660984648625
1.38235e-05;0.004571772989956896
1.38238e-05;0.004530884995265166
1.38240e-05;0.004489997000573714
1.38243e-05;0.004460395792249724
1.38245e-05;0.004435019347567245
1.38248e-05;0.004409642902884938
1.38250e-05;0.004384266458202459
1.38253e-05;0.00435889001351998
1.38255e-05;0.004333513568837673
1.38258e-05;0.004308137124155194
1.38260e-05;0.004282760679472715
1.38263e-05;0.004257384234790236
1.38265e-05;0.00423200779010793
1.38268e-05;0.00421243936383655
1.38270e-05;0.004195044940351749
1.38273e-05;0.0041776505168670645
1.38275e-05;0.004160256093382262
1.38278e-05;0.00414286166989746
1.38280e-05;0.0041254672464127755
1.38283e-05;0.004108072822927973
1.38285e-05;0.004090678399443171
1.38288e-05;0.004073283975958486
1.38290e-05;0.004055889552473684
1.38293e-05;0.004038495128988882
1.38295e-05;0.004021100705504197
1.38298e-05;0.0040050571672446585
1.38300e-05;0.003993597112578855
1.38303e-05;0.0039821370579131285
1.38305e-05;0.003970677003247325
1.38308e-05;0.00395921694858152
1.38310e-05;0.003947756893915794
1.38313e-05;0.00393629683924999
1.38315e-05;0.003924836784584187
1.38318e-05;0.00391337672991846
1.38320e-05;0.0039019166752526564
1.38323e-05;0.0038904566205868523
1.38325e-05;0.003878996565921126
1.38328e-05;0.0038675365112553223
1.38330e-05;0.0038682108098981875
1.38333e-05;0.0038734271254642332
1.38335e-05;0.003878643441030314
1.38338e-05;0.0038838597565963953
1.38340e-05;0.003889076072162441
1.38343e-05;0.0038942923877285218
1.38345e-05;0.0038995087032946026
1.38348e-05;0.003904725018860684
1.38350e-05;0.0039099413344267295
1.38353e-05;0.00391515764999281
1.38355e-05;0.003926631672377872
1.38358e-05;0.003959337769855651
1.38360e-05;0.003992043867333652
1.38363e-05;0.004024749964811652
1.38365e-05;0.0040574560622894315
1.38368e-05;0.0040901621597674315
1.38370e-05;0.0041228682572454324
1.38373e-05;0.004155574354723211
1.38375e-05;0.004188280452201211
1.38378e-05;0.004220986549679212
1.38380e-05;0.004253692647156991
1.38383e-05;0.004297984772804737
1.38385e-05;0.004346613671470923
1.38388e-05;0.004395242570136779
1.38390e-05;0.004443871468802965
1.38393e-05;0.00449250036746915
1.38395e-05;0.004541129266135006
1.38398e-05;0.004589758164801191
1.38400e-05;0.004638387063467377
1.38403e-05;0.004686348336606982
1.38405e-05;0.0047320443909183415
1.38408e-05;0.004777740445229701
1.38410e-05;0.004823436499540751
1.38413e-05;0.004869132553852111
1.38415e-05;0.0049148286081634705
1.38418e-05;0.0049605246624745206
1.38420e-05;0.00500622071678588
1.38423e-05;0.00505191677109724
1.38425e-05;0.005079476580467436
1.38428e-05;0.005100247801326064
1.38430e-05;0.005121019022184692
1.38433e-05;0.00514179024304332
1.38435e-05;0.005162561463901807
1.38438e-05;0.0051833326847604356
1.38440e-05;0.005204103905619064
1.38443e-05;0.005224875126477551
1.38445e-05;0.0052456463473361786
1.38448e-05;0.005266417568194807
1.38450e-05;0.005287188789053294
1.38453e-05;0.005307960009911922
1.38455e-05;0.005328731230770551
1.38458e-05;0.005349502451629038
1.38460e-05;0.005351933702285718
1.38463e-05;0.005347500107907736
1.38465e-05;0.005343066513529784
1.38468e-05;0.005338632919151803
1.38470e-05;0.005334199324773821
1.38473e-05;0.005329765730395869
1.38475e-05;0.005325332136017887
1.38478e-05;0.005320898541639906
1.38480e-05;0.005316464947261954
1.38483e-05;0.005312031352883972
1.38485e-05;0.0053075977585059905
1.38488e-05;0.005303164164128038
1.38490e-05;0.005298730569750057
1.38493e-05;0.005294296975372075
1.38495e-05;0.005284298869664067
1.38498e-05;0.005272217908446573
1.38500e-05;0.005260136947229079
1.38503e-05;0.005248055986011667
1.38505e-05;0.005235975024794173
1.38508e-05;0.005223894063576679
1.38510e-05;0.005211813102359268
1.38513e-05;0.005199732141141774
1.38515e-05;0.00518765117992428
1.38518e-05;0.005175570218706786
1.38520e-05;0.005163489257489374
1.38523e-05;0.005151408296271881
1.38525e-05;0.005139327335054387
1.38528e-05;0.005127246373836975
1.38530e-05;0.005115165412619481
1.38533e-05;0.005110454490549437
1.38535e-05;0.00510850225216854
1.38538e-05;0.0051065500137876295
1.38540e-05;0.005104597775406719
1.38543e-05;0.005102645537025821
1.38545e-05;0.005100693298644911
1.38548e-05;0.005098741060264
1.38550e-05;0.005096788821883102
1.38553e-05;0.005094836583502191
1.38555e-05;0.005092884345121281
1.38558e-05;0.005090932106740383
1.38560e-05;0.005088979868359472
1.38563e-05;0.0050870276299785615
1.38565e-05;0.0050850753915976646
1.38568e-05;0.005083123153216754
1.38570e-05;0.005088649321349951
1.38573e-05;0.0050969747362252776
1.38575e-05;0.005105300151100661
1.38578e-05;0.005113625565976044
1.38580e-05;0.005121950980851371
1.38583e-05;0.005130276395726754
1.38585e-05;0.005138601810602137
1.38588e-05;0.005146927225477465
1.38590e-05;0.005155252640352848
1.38593e-05;0.005163578055228231
1.38595e-05;0.005171903470103558
1.38598e-05;0.005180228884978941
1.38600e-05;0.005188554299854324
1.38603e-05;0.005196873485421905
1.38605e-05;0.005205190339293561
1.38608e-05;0.005213507193165274
1.38610e-05;0.005221824047036986
1.38613e-05;0.005230140900908642
1.38615e-05;0.005238457754780355
1.38618e-05;0.005246774608652067
1.38620e-05;0.005255091462523722
1.38623e-05;0.005263408316395435
1.38625e-05;0.005271725170267147
1.38628e-05;0.005280042024138803
1.38630e-05;0.005288358878010516
1.38633e-05;0.005296675731882228
1.38635e-05;0.005292582709928504
1.38638e-05;0.005283844540052066
1.38640e-05;0.005275106370175628
1.38643e-05;0.005266368200299249
1.38645e-05;0.005257630030422811
1.38648e-05;0.005248891860546373
1.38650e-05;0.005240153690669995
1.38653e-05;0.005231415520793557
1.38655e-05;0.005222677350917119
1.38658e-05;0.0052139391810407405
1.38660e-05;0.005205201011164303
1.38663e-05;0.005196462841287865
1.38665e-05;0.005187724671411487
1.38668e-05;0.005164749561913319
1.38670e-05;0.005136445415167275
1.38673e-05;0.0051081412684214214
1.38675e-05;0.005079837121675377
1.38678e-05;0.005051532974929332
1.38680e-05;0.005023228828183479
1.38683e-05;0.004994924681437434
1.38685e-05;0.004966620534691388
1.38688e-05;0.004938316387945343
1.38690e-05;0.00491001224119949
1.38693e-05;0.004881708094453445
1.38695e-05;0.0048534039477074005
1.38698e-05;0.004825099800961547
1.38700e-05;0.004795639699409348
1.38703e-05;0.004765746911733364
1.38705e-05;0.004735854124057582
1.38708e-05;0.004705961336381598
1.38710e-05;0.004676068548705613
1.38713e-05;0.004646175761029832
1.38715e-05;0.004616282973353847
1.38718e-05;0.004586390185677863
1.38720e-05;0.0045564973980020814
1.38723e-05;0.004526604610326097
1.38725e-05;0.0044967118226501126
1.38728e-05;0.004480114088565507
1.38730e-05;0.004468492833815226
1.38733e-05;0.004456871579064946
1.38735e-05;0.004445250324314744
1.38738e-05;0.004433629069564463
1.38740e-05;0.004422007814814183
1.38743e-05;0.004410386560063981
1.38745e-05;0.0043987653053137
1.38748e-05;0.00438714405056342
1.38750e-05;0.004375522795813217
1.38753e-05;0.004363901541062937
1.38755e-05;0.004369388685665674
1.38758e-05;0.004381279685299758
1.38760e-05;0.004393170684933923
1.38763e-05;0.004405061684568088
1.38765e-05;0.0044169526842021715
1.38768e-05;0.0044288436838363365
1.38770e-05;0.0044407346834705015
1.38773e-05;0.004452625683104667
1.38775e-05;0.004464516682738751
1.38778e-05;0.004476407682372916
1.38780e-05;0.00448829868200708
1.38783e-05;0.004509697387174251
1.38785e-05;0.0045346549271959675
1.38788e-05;0.004559612467217684
1.38790e-05;0.004584570007239231
1.38793e-05;0.004609527547260949
1.38795e-05;0.004634485087282665
1.38798e-05;0.004659442627304213
1.38800e-05;0.004684400167325929
1.38803e-05;0.004709357707347646
1.38805e-05;0.004734315247369193
1.38808e-05;0.0047592727873909104
1.38810e-05;0.0047816450651592
1.38813e-05;0.004803049651891475
1.38815e-05;0.004824454238623895
1.38818e-05;0.004845858825356314
1.38820e-05;0.004867263412088589
1.38823e-05;0.004888667998821009
1.38825e-05;0.004910072585553428
1.38828e-05;0.004931477172285703
1.38830e-05;0.004952881759018123
1.38833e-05;0.004958216605347441
1.38835e-05;0.004957536377686974
1.38838e-05;0.0049568561500265024
1.38840e-05;0.004956175922366031
1.38843e-05;0.004955495694705564
1.38845e-05;0.004954815467045092
1.38848e-05;0.004954135239384621
1.38850e-05;0.004953455011724154
1.38853e-05;0.004952774784063682
1.38855e-05;0.004929937461703273
1.38858e-05;0.004898806504182603
1.38860e-05;0.004867675546662144
1.38863e-05;0.004836544589141473
1.38865e-05;0.004805413631620803
1.38868e-05;0.004774282674100344
1.38870e-05;0.004743151716579673
1.38873e-05;0.004712020759059003
1.38875e-05;0.004680889801538544
1.38878e-05;0.004634720510176774
1.38880e-05;0.0045829222112218106
1.38883e-05;0.004531123912267198
1.38885e-05;0.0044793256133122345
1.38888e-05;0.004427527314357271
1.38890e-05;0.004375729015402658
1.38893e-05;0.004323930716447695
1.38895e-05;0.004272132417492731
1.38898e-05;0.004220334118538118
1.38900e-05;0.004166974584655376
1.38903e-05;0.00411303066400765
1.38905e-05;0.00405908674336029
1.38908e-05;0.0040051428227125645
1.38910e-05;0.003951198902064839
1.38913e-05;0.003897254981417479
1.38915e-05;0.0038433110607697537
1.38918e-05;0.003789367140122028
1.38920e-05;0.0037481322600846083
1.38923e-05;0.003711654508520374
1.38925e-05;0.0036751767569561393
1.38928e-05;0.003638699005392152
1.38930e-05;0.0036022212538279175
1.38933e-05;0.003565743502263683
1.38935e-05;0.0035292657506996957
1.38938e-05;0.0034927879991354612
1.38940e-05;0.0034776288773669816
1.38943e-05;0.003470449544469905
1.38945e-05;0.003463270211572877
1.38948e-05;0.0034560908786758
1.38950e-05;0.0034489115457787232
1.38953e-05;0.003441732212881695
1.38955e-05;0.003434552879984618
1.38958e-05;0.0034273735470875416
1.38960e-05;0.003420194214190513
1.38963e-05;0.0034130148812934365
1.38965e-05;0.003425557403955553
1.38968e-05;0.003445482025984511
1.38970e-05;0.0034654066480136045
1.38973e-05;0.0034853312700426973
1.38975e-05;0.0035052558920716553
1.38978e-05;0.0035251805141007487
1.38980e-05;0.0035451051361298416
1.38983e-05;0.0035650297581587996
1.38985e-05;0.003584954380187893
1.38988e-05;0.0036048790022169858
1.38990e-05;0.0036334896667819293
1.38993e-05;0.0036653516090433868
1.38995e-05;0.003697213551304844
1.38998e-05;0.0037290754935660857
1.39000e-05;0.003760937435827543
1.39003e-05;0.0037927993780890006
1.39005e-05;0.003824661320350242
