Time(s);Current(A)
4.55000e-06;-0.001773025980502984
4.55025e-06;-0.0017595072732592065
4.55050e-06;-0.001747213138504106
4.55075e-06;-0.001735746868817061
4.55100e-06;-0.001724677693998384
4.55125e-06;-0.0017118276565772357
4.55150e-06;-0.0016953472633351447
4.55175e-06;-0.0016767374141544121
4.55200e-06;-0.0016524201160698323
4.55225e-06;-0.0016262868722676032
4.55250e-06;-0.001595286461595326
4.55275e-06;-0.0015626352113093367
4.55300e-06;-0.0015255593178215554
4.55325e-06;-0.0014860494101862991
4.55350e-06;-0.0014400157651374057
4.55375e-06;-0.0013913804534165936
4.55400e-06;-0.001335772055601217
4.55425e-06;-0.0012780262620764008
4.55450e-06;-0.0012145517391728392
4.55475e-06;-0.0011493110918205725
4.55500e-06;-0.0010793368104608716
4.55525e-06;-0.001007373711487964
4.55550e-06;-0.0009300801078066742
4.55575e-06;-0.0008513483617903053
4.55600e-06;-0.0007679864375637126
4.55625e-06;-0.0006819120505620715
4.55650e-06;-0.0005936477151417148
4.55675e-06;-0.0005037031790727482
4.55700e-06;-0.000412469912035655
4.55725e-06;-0.00032004685809748016
4.55750e-06;-0.00022643306829857302
4.55775e-06;-0.00013192717468301225
4.55800e-06;-3.7071573908205896e-05
4.55825e-06;5.756008819437799e-05
4.55850e-06;0.00015139424646098065
4.55875e-06;0.00024386539515411333
4.55900e-06;0.00033448216037457873
4.55925e-06;0.0004229364405655504
4.55950e-06;0.0005089827546236022
4.55975e-06;0.0005921878917465805
4.56000e-06;0.0006719660106425262
4.56025e-06;0.0007477118418004106
4.56050e-06;0.0008188200464206806
4.56075e-06;0.000884703749642398
4.56100e-06;0.0009449582167555916
4.56125e-06;0.0009996750063629354
4.56150e-06;0.0010492557414879407
4.56175e-06;0.0010938299395723448
4.56200e-06;0.0011332356185584712
4.56225e-06;0.0011672691996807366
4.56250e-06;0.0011957271889567265
4.56275e-06;0.0012184176066528084
4.56300e-06;0.0012352626857374497
4.56325e-06;0.001245822685590806
4.56350e-06;0.0012507400105771314
4.56375e-06;0.0012530074450656755
4.56400e-06;0.0012481725421272037
4.56425e-06;0.0012407449403446257
4.56450e-06;0.0012263682883832693
4.56475e-06;0.0012094918107498289
4.56500e-06;0.0011859152051504553
4.56525e-06;0.0011601997487440472
4.56550e-06;0.0011287516629515779
4.56575e-06;0.0010955027992496475
4.56600e-06;0.001057427422016321
4.56625e-06;0.001017777929923289
4.56650e-06;0.0009739094352375497
4.56675e-06;0.0009284694459219423
4.56700e-06;0.0008788174768527799
4.56725e-06;0.0008291655077837858
4.56750e-06;0.0007784579710049745
4.56775e-06;0.0007249212614515414
4.56800e-06;0.0006713845518982898
4.56825e-06;0.0006175624323740245
4.56850e-06;0.0005629753461770357
4.56875e-06;0.0005085616063639866
4.56900e-06;0.0004546124761304266
4.56925e-06;0.0004012883260395189
4.56950e-06;0.00034963927152713737
4.56975e-06;0.0002987409128261073
4.57000e-06;0.00025048837161937383
4.57025e-06;0.0002046676669790434
4.57050e-06;0.00016164458517964358
4.57075e-06;0.00012177824632653314
4.57100e-06;8.535874850142434e-05
4.57125e-06;5.247715619356796e-05
4.57150e-06;2.3069243642985817e-05
4.57175e-06;-2.8715378674543635e-06
4.57200e-06;-2.5261319821971465e-05
4.57225e-06;-4.400214216678867e-05
4.57250e-06;-5.899607709594681e-05
4.57275e-06;-7.014936417649858e-05
4.57300e-06;-7.741149677172869e-05
4.57325e-06;-8.085666078073772e-05
4.57350e-06;-8.065628361313335e-05
4.57375e-06;-7.694567848948347e-05
4.57400e-06;-6.980351137875242e-05
4.57425e-06;-5.929961854287257e-05
4.57450e-06;-4.550386107737267e-05
4.57475e-06;-2.8488701539033865e-05
4.57500e-06;-8.353698163457181e-06
4.57525e-06;1.4723488334568994e-05
4.57550e-06;4.050429376928494e-05
4.57575e-06;6.877280036546737e-05
4.57600e-06;9.934857788293588e-05
4.57625e-06;0.00013205674140459172
4.57650e-06;0.00016672240996706402
4.57675e-06;0.00020316907226666447
4.57700e-06;0.00024135799337420688
4.57725e-06;0.00028099733042074443
4.57750e-06;0.000321110639738699
4.57775e-06;0.0003624943075877033
4.57800e-06;0.0004040839626600836
4.57825e-06;0.00044622571253305244
4.57850e-06;0.0004883585380721964
4.57875e-06;0.0005303733295225516
4.57900e-06;0.0005719675067795225
4.57925e-06;0.0006128583163049853
4.57950e-06;0.0006527390510807561
4.57975e-06;0.0006913119659482958
4.58000e-06;0.0007282933484908706
4.58025e-06;0.0007634016166202224
4.58050e-06;0.0007963551825466762
4.58075e-06;0.0008268625163880216
4.58100e-06;0.0008545447236960091
4.58125e-06;0.0008788315339466771
4.58150e-06;0.0008991618150387989
4.58175e-06;0.0009152954558374493
4.58200e-06;0.000927216327747984
4.58225e-06;0.0009343665531252717
4.58250e-06;0.0009369384877265725
4.58275e-06;0.0009372109730545644
4.58300e-06;0.000931320386873952
4.58325e-06;0.0009235976670161968
4.58350e-06;0.0009091199460589402
4.58375e-06;0.0008896986689568572
4.58400e-06;0.0008679852101601323
4.58425e-06;0.0008401281586963346
4.58450e-06;0.0008101873761463331
4.58475e-06;0.0007746616981877094
4.58500e-06;0.000737195766489907
4.58525e-06;0.0006945294928325298
4.58550e-06;0.0006500680085942218
4.58575e-06;0.000600794932592667
4.58600e-06;0.000550038195012759
4.58625e-06;0.0004953048911715555
4.58650e-06;0.00043942166499018147
4.58675e-06;0.0003804563731620646
4.58700e-06;0.0003206341456200607
4.58725e-06;0.00025851512634406386
4.58750e-06;0.000195833116841588
4.58775e-06;0.00013164215949558822
4.58800e-06;6.728639520972876e-05
4.58825e-06;2.4889358646639566e-06
4.58850e-06;-6.217410688230499e-05
4.58875e-06;-0.0001262512323135113
4.58900e-06;-0.00018940555717944323
4.58925e-06;-0.00025130181398964614
4.58950e-06;-0.0003116033437351917
4.58975e-06;-0.00036992413630774134
4.59000e-06;-0.0004258436786244955
4.59025e-06;-0.00047893747012272235
4.59050e-06;-0.000528781031434854
4.59075e-06;-0.0005749779096347798
4.59100e-06;-0.0006170660123830698
4.59125e-06;-0.0006557165977215431
4.59150e-06;-0.0006932221558571406
4.59175e-06;-0.0007276587684800697
4.59200e-06;-0.0007608397427743914
4.59225e-06;-0.0007906553074049445
4.59250e-06;-0.0008189754273316901
4.59275e-06;-0.000843287399415214
4.59300e-06;-0.0008662135810357384
4.59325e-06;-0.0008854255142854113
4.59350e-06;-0.000903708454844807
4.59375e-06;-0.0009195014738192244
4.59400e-06;-0.0009340730228931169
4.59425e-06;-0.0009453707418253481
4.59450e-06;-0.0009566684607576176
4.59475e-06;-0.0009664303191288317
4.59500e-06;-0.0009720757055378461
4.59525e-06;-0.0009777210919468798
4.59550e-06;-0.0009823558446854235
4.59575e-06;-0.0009842818585748354
4.59600e-06;-0.000986207872464254
4.59625e-06;-0.0009867284076396905
4.59650e-06;-0.0009834819252445227
4.59675e-06;-0.0009802354428493439
4.59700e-06;-0.000976988960454176
4.59725e-06;-0.0009737424780590082
4.59750e-06;-0.0009704959956638293
4.59775e-06;-0.0009672495132686614
4.59800e-06;-0.0009630732507585959
4.59825e-06;-0.0009564049561782087
4.59850e-06;-0.0009497366615978214
4.59875e-06;-0.0009430683670174116
4.59900e-06;-0.0009364000724370244
4.59925e-06;-0.0009297317778566372
4.59950e-06;-0.0009230634832762274
4.59975e-06;-0.0009164937572336582
4.60000e-06;-0.0009101882183396704
4.60025e-06;-0.0009038826794456612
4.60050e-06;-0.0008978253111010222
4.60075e-06;-0.0008924330989131509
4.60100e-06;-0.0008866832886349387
4.60125e-06;-0.0008799750303376444
4.60150e-06;-0.0008719208465005894
4.60175e-06;-0.0008602592617786718
4.60200e-06;-0.0008475909315540388
4.60225e-06;-0.0008313454602326585
4.60250e-06;-0.0008127445327996594
4.60275e-06;-0.0007930367191129285
4.60300e-06;-0.0007703621867384845
4.60325e-06;-0.000746099526283058
4.60350e-06;-0.0007175803044687087
4.60375e-06;-0.0006873743005521528
4.60400e-06;-0.0006526473190128735
4.60425e-06;-0.0006168358154339811
4.60450e-06;-0.0005774944365797092
4.60475e-06;-0.0005356321306186033
4.60500e-06;-0.0004914892741231483
4.60525e-06;-0.00044639039492159273
4.60550e-06;-0.0003980566787470846
4.60575e-06;-0.00034732653544568547
4.60600e-06;-0.0002945000095837847
4.60625e-06;-0.00023990782127477877
4.60650e-06;-0.0001838806561480849
4.60675e-06;-0.00012674138406484846
4.60700e-06;-6.874022487092087e-05
4.60725e-06;-9.948148565057754e-06
4.60750e-06;4.967010573396835e-05
4.60775e-06;0.0001099042008785196
4.60800e-06;0.00017017689730559703
4.60825e-06;0.00023044654998489436
4.60850e-06;0.00029022514220360064
4.60875e-06;0.00034915270354937195
4.60900e-06;0.00040691477184391005
4.60925e-06;0.00046330914466958774
4.60950e-06;0.0005181715072713764
4.60975e-06;0.0005712215865473733
4.61000e-06;0.0006216973082512652
4.61025e-06;0.0006693364952111403
4.61050e-06;0.0007152317163229711
4.61075e-06;0.0007564526937598619
4.61100e-06;0.0007961898672712958
4.61125e-06;0.00083195009299945
4.61150e-06;0.0008670964653348973
4.61175e-06;0.0009005975644315084
4.61200e-06;0.000933138728929817
4.61225e-06;0.0009631070401639855
4.61250e-06;0.0009930753513980523
4.61275e-06;0.001021642229871752
4.61300e-06;0.0010464529348953432
4.61325e-06;0.0010712636399188506
4.61350e-06;0.001095300630298026
4.61375e-06;0.001117263881224908
4.61400e-06;0.0011392271321517154
4.61425e-06;0.001161190383078523
4.61450e-06;0.001183153634005405
4.61475e-06;0.0012021262040721077
4.61500e-06;0.0012202141182857003
4.61525e-06;0.0012383020324992318
4.61550e-06;0.001256389946712763
4.61575e-06;0.0012736338791372191
4.61600e-06;0.0012886157394321606
4.61625e-06;0.001303597599727102
4.61650e-06;0.0013185794600220943
4.61675e-06;0.0013335613203170357
4.61700e-06;0.0013485431806119772
4.61725e-06;0.0013635250409069694
4.61750e-06;0.0013785069012019109
4.61775e-06;0.0013906761040093985
4.61800e-06;0.0014020133110188293
4.61825e-06;0.0014133505180282217
4.61850e-06;0.0014246877250376141
4.61875e-06;0.001436024932047045
4.61900e-06;0.0014473621390564374
4.61925e-06;0.0014586993460658682
4.61950e-06;0.001469467535134121
4.61975e-06;0.001478710620648875
4.62000e-06;0.0014877809766143239
4.62025e-06;0.0014962479593666124
4.62050e-06;0.0015041794164020687
4.62075e-06;0.0015114952104091756
4.62100e-06;0.001518015379221747
4.62125e-06;0.0015233217129179677
4.62150e-06;0.00152693697587527
4.62175e-06;0.0015286658320787223
4.62200e-06;0.0015285313045279856
4.62225e-06;0.0015263492456854778
4.62250e-06;0.0015222449070991474
4.62275e-06;0.0015171943281732372
4.62300e-06;0.0015096075998574112
4.62325e-06;0.001500623740808032
4.62350e-06;0.0014878952387653974
4.62375e-06;0.0014751667367228058
4.62400e-06;0.001460859200957236
4.62425e-06;0.0014423194788796246
4.62450e-06;0.001423779756802076
4.62475e-06;0.0014033810442906397
4.62500e-06;0.001377999794830239
4.62525e-06;0.001352618545369924
4.62550e-06;0.001327237295909609
4.62575e-06;0.0013018560464492083
4.62600e-06;0.0012764747969888934
4.62625e-06;0.001246168066031348
4.62650e-06;0.0012144043571349925
4.62675e-06;0.0011826406482387446
4.62700e-06;0.0011508769393424967
4.62725e-06;0.0011191132304461413
4.62750e-06;0.0010867337153260988
4.62775e-06;0.0010527036929160437
4.62800e-06;0.0010186736705058734
4.62825e-06;0.000984741102715967
4.62850e-06;0.0009510697365097931
4.62875e-06;0.0009173983703037331
4.62900e-06;0.0008842661018625318
4.62925e-06;0.0008525787437786001
4.62950e-06;0.0008208913856947758
4.62975e-06;0.0007901768182058333
4.63000e-06;0.0007620695611115038
4.63025e-06;0.0007339623040172696
4.63050e-06;0.0007070439801086617
4.63075e-06;0.0006833122801967038
4.63100e-06;0.0006601328029226762
4.63125e-06;0.0006384334137903155
4.63150e-06;0.0006167340246578814
4.63175e-06;0.0005947058494176489
4.63200e-06;0.000571796449131496
4.63225e-06;0.0005488870488452654
4.63250e-06;0.0005259776485591124
4.63275e-06;0.0005028268147979234
4.63300e-06;0.00047902888184388393
4.63325e-06;0.0004552309488898445
4.63350e-06;0.0004314330159357245
4.63375e-06;0.00040679617254935557
4.63400e-06;0.00037991084947812414
4.63425e-06;0.0003530255264068016
4.63450e-06;0.00032579491557979993
4.63475e-06;0.00029763885136188976
4.63500e-06;0.000269227381966171
4.63525e-06;0.00024013136588791497
4.63550e-06;0.00021056938650461919
4.63575e-06;0.00017975851452808704
4.63600e-06;0.00014864147009377334
4.63625e-06;0.00011670381057940392
4.63650e-06;8.467533302004281e-05
4.63675e-06;5.240927669602882e-05
4.63700e-06;2.0161254332272743e-05
4.63725e-06;-1.2124479888569857e-05
4.63750e-06;-4.45749876647168e-05
4.63775e-06;-7.712022589794593e-05
4.63800e-06;-0.00010958532321774634
4.63825e-06;-0.00014182721927464114
4.63850e-06;-0.0001734708828077803
4.63875e-06;-0.00020469705992145798
4.63900e-06;-0.00023480427403701804
4.63925e-06;-0.00026444587675974486
4.63950e-06;-0.0002928395300975886
4.63975e-06;-0.00032081593821428074
4.64000e-06;-0.0003473244268384858
4.64025e-06;-0.0003724916639087173
4.64050e-06;-0.00039611657643985723
4.64075e-06;-0.0004179851059622562
4.64100e-06;-0.00043776761254432086
4.64125e-06;-0.0004548665371053323
4.64150e-06;-0.000468648991320392
4.64175e-06;-0.00047885021676316683
4.64200e-06;-0.00048547718141456127
4.64225e-06;-0.0004885701624471668
4.64250e-06;-0.00048816939969969776
4.64275e-06;-0.00048430713061914913
4.64300e-06;-0.0004769431281326145
4.64325e-06;-0.00046586940220041533
4.64350e-06;-0.00045085580037172696
4.64375e-06;-0.00043190283120611935
4.64400e-06;-0.0004091812049336152
4.64425e-06;-0.0003828824563910741
4.64450e-06;-0.00035319818147399343
4.64475e-06;-0.0003203148354659501
4.64500e-06;-0.0002843735227501099
4.64525e-06;-0.00024541026851943927
4.64550e-06;-0.00020344722849927464
4.64575e-06;-0.00015865101523466745
4.64600e-06;-0.00011129485398422496
4.64625e-06;-6.166501998981226e-05
4.64650e-06;-1.0047758835348982e-05
4.64675e-06;4.327386751321622e-05
4.64700e-06;9.804525409953734e-05
4.64725e-06;0.00015407762630197116
4.64750e-06;0.00021119090233922503
4.64775e-06;0.00026911452710812596
4.64800e-06;0.00032751117459696677
4.64825e-06;0.0003860353956259763
4.64850e-06;0.0004443417302565508
4.64875e-06;0.0005020867882748939
4.64900e-06;0.0005589450102608782
4.64925e-06;0.0006146321420795052
4.64950e-06;0.0006688692412861103
4.64975e-06;0.0007213208751767561
4.65000e-06;0.0007716097911678553
4.65025e-06;0.0008189180321371131
4.65050e-06;0.0008630025354526517
4.65075e-06;0.0009052739795175191
4.65100e-06;0.0009426859931432452
4.65125e-06;0.0009788275644050219
4.65150e-06;0.0010115640476678737
4.65175e-06;0.0010429624871672784
4.65200e-06;0.0010707746508233293
4.65225e-06;0.001098586814479286
4.65250e-06;0.0011244172936588459
4.65275e-06;0.00114493638664838
4.65300e-06;0.0011654554796378448
4.65325e-06;0.0011844156255739553
4.65350e-06;0.0011991974222578731
4.65375e-06;0.0012139792189417408
4.65400e-06;0.0012274535579037491
4.65425e-06;0.0012374235988956515
4.65450e-06;0.0012473936398875538
4.65475e-06;0.001255433165705541
4.65500e-06;0.0012582984512465427
4.65525e-06;0.0012611637367875446
4.65550e-06;0.0012640290223285562
4.65575e-06;0.001266894307869558
4.65600e-06;0.0012697595934105597
4.65625e-06;0.0012726248789515712
4.65650e-06;0.0012706397190479389
4.65675e-06;0.0012672197771836033
4.65700e-06;0.0012637998353192562
4.65725e-06;0.0012603798934549206
4.65750e-06;0.0012569599515905852
4.65775e-06;0.001253540009726238
4.65800e-06;0.0012494638213742153
4.65825e-06;0.0012436287361982641
4.65850e-06;0.0012377936510223327
4.65875e-06;0.0012317469651627994
4.65900e-06;0.001225133139094038
4.65925e-06;0.0012185193130252988
4.65950e-06;0.0012120143662000767
4.65975e-06;0.0012058012416690449
4.66000e-06;0.001199588117138034
4.66025e-06;0.001193538511811796
4.66050e-06;0.001188029350026921
4.66075e-06;0.0011828702077739332
4.66100e-06;0.0011777126159363174
4.66125e-06;0.0011713315110013461
4.66150e-06;0.0011622099742961292
4.66175e-06;0.0011497409993879771
4.66200e-06;0.0011336703894393922
4.66225e-06;0.0011143455624314429
4.66250e-06;0.0010935932532553582
4.66275e-06;0.0010690149520193246
4.66300e-06;0.0010427902239074787
4.66325e-06;0.0010121526797932324
4.66350e-06;0.0009793320546527006
4.66375e-06;0.0009406602526218243
4.66400e-06;0.0009000455555307274
4.66425e-06;0.0008542234371217495
4.66450e-06;0.0008068171842396823
4.66475e-06;0.0007551650738249277
4.66500e-06;0.0007020050950197917
4.66525e-06;0.0006448036699405354
4.66550e-06;0.0005863436963361946
4.66575e-06;0.0005234497193822511
4.66600e-06;0.0004577125628355764
4.66625e-06;0.00039113607211147564
4.66650e-06;0.00032189799942810405
4.66675e-06;0.00025124505550734545
4.66700e-06;0.00017948780438308598
4.66725e-06;0.00010672140356193781
4.66750e-06;3.296931091771457e-05
4.66775e-06;-4.151878923263173e-05
4.66800e-06;-0.00011631542977962413
4.66825e-06;-0.00019085671394268908
4.66850e-06;-0.0002647135554244455
4.66875e-06;-0.00033785576813360893
4.66900e-06;-0.0004090826055965959
4.66925e-06;-0.0004793068176952752
4.66950e-06;-0.0005468437551173943
4.66975e-06;-0.0006133914358828975
4.67000e-06;-0.0006759758476393048
4.67025e-06;-0.0007350442543385301
4.67050e-06;-0.0007925407209134347
4.67075e-06;-0.0008446049900621845
4.67100e-06;-0.0008920810102391595
4.67125e-06;-0.0009346419726661588
4.67150e-06;-0.0009721184963189337
4.67175e-06;-0.0010044173045676565
4.67200e-06;-0.0010314488994109822
4.67225e-06;-0.0010531207623007248
4.67250e-06;-0.0010693405227364982
4.67275e-06;-0.0010800174348807004
4.67300e-06;-0.001085080785504763
4.67325e-06;-0.0010845333729448605
4.67350e-06;-0.0010777633746696137
4.67375e-06;-0.001065148028319838
4.67400e-06;-0.0010497612275702538
4.67425e-06;-0.001026946269213933
4.67450e-06;-0.001001523032976681
4.67475e-06;-0.0009691089910513496
4.67500e-06;-0.0009342823185784989
4.67525e-06;-0.0008929892218497361
4.67550e-06;-0.0008495788793428478
4.67575e-06;-0.0008004938140860436
4.67600e-06;-0.000749619374450953
4.67625e-06;-0.0006939489854767037
4.67650e-06;-0.0006371411690184528
4.67675e-06;-0.0005766361822657806
4.67700e-06;-0.0005138329766951306
4.67725e-06;-0.0004490700600900233
4.67750e-06;-0.00038272453192064417
4.67775e-06;-0.000315192237155036
4.67800e-06;-0.0002468698501058148
4.67825e-06;-0.000178153309880127
4.67850e-06;-0.00010943853707983527
4.67875e-06;-4.112178697661841e-05
4.67900e-06;2.639577257717317e-05
4.67925e-06;9.269495575572233e-05
4.67950e-06;0.00015733239512159705
4.67975e-06;0.0002198530407954795
4.68000e-06;0.00027980131919716424
4.68025e-06;0.00033672218798357567
4.68050e-06;0.0003901606139835705
4.68075e-06;0.0004397022094880096
4.68100e-06;0.0004853177816073992
4.68125e-06;0.0005279608105915836
4.68150e-06;0.0005690132902282963
4.68175e-06;0.0006088039207485113
4.68200e-06;0.0006471898067489806
4.68225e-06;0.0006846005718890156
4.68250e-06;0.0007193977809713048
4.68275e-06;0.000752858728256384
4.68300e-06;0.0007827381757947897
4.68325e-06;0.0008126176233332966
4.68350e-06;0.0008418782010825826
4.68375e-06;0.0008694800604597523
4.68400e-06;0.0008970819198368285
4.68425e-06;0.0009238943467050505
4.68450e-06;0.0009485909065055901
4.68475e-06;0.0009732874663060461
4.68500e-06;0.0009969715908852983
4.68525e-06;0.0010179421480364657
4.68550e-06;0.001038912705187562
4.68575e-06;0.001059883262338658
4.68600e-06;0.0010808538194898253
4.68625e-06;0.0011018243766409215
4.68650e-06;0.0011227949337920178
4.68675e-06;0.0011427380566202605
4.68700e-06;0.0011599274108568974
4.68725e-06;0.001177116765093534
4.68750e-06;0.0011943061193302293
4.68775e-06;0.001211495473566866
4.68800e-06;0.0012286848278035612
4.68825e-06;0.001245874182040198
4.68850e-06;0.0012622904547846198
4.68875e-06;0.001276634685078896
4.68900e-06;0.0012909789153731236
4.68925e-06;0.001304864020265168
4.68950e-06;0.001317518559773335
4.68975e-06;0.0013301730992814594
4.69000e-06;0.0013423408981696023
4.69025e-06;0.0013532041163157051
4.69050e-06;0.0013640673344617708
4.69075e-06;0.0013742914168970676
4.69100e-06;0.0013828024634656491
4.69125e-06;0.0013913135100342019
4.69150e-06;0.0013989166475339824
4.69175e-06;0.0014040863725795604
4.69200e-06;0.001409256097625121
4.69225e-06;0.0014144258226706993
4.69250e-06;0.0014195955477162598
4.69275e-06;0.0014247652727618204
4.69300e-06;0.0014299349978073987
4.69325e-06;0.0014351047228529593
4.69350e-06;0.001436844049106574
4.69375e-06;0.0014375686491137133
4.69400e-06;0.00143829324912085
4.69425e-06;0.0014390178491279868
4.69450e-06;0.0014397424491351262
4.69475e-06;0.001440467049142263
4.69500e-06;0.0014411916491493997
