Time(s);Current(A)
1.45500e-05;0.0013348276976746054
1.45503e-05;0.0013339653754313697
1.45505e-05;0.0013331030531881284
1.45508e-05;0.0013322407309448868
1.45510e-05;0.0013313784087016511
1.45513e-05;0.0013305160864584098
1.45515e-05;0.0013296537642151682
1.45518e-05;0.001328791441971927
1.45520e-05;0.0013279291197286912
1.45523e-05;0.0013270667974854499
1.45525e-05;0.0013262044752422083
1.45528e-05;0.0013253421529989726
1.45530e-05;0.0013244798307557313
1.45533e-05;0.0013236175085124897
1.45535e-05;0.0013227551862692543
1.45538e-05;0.0013229665592181048
1.45540e-05;0.001324376078681883
1.45543e-05;0.0013257855981456518
1.45545e-05;0.0013271951176094302
1.45548e-05;0.0013286046370732084
1.45550e-05;0.0013300141565369772
1.45553e-05;0.0013314236760007556
1.45555e-05;0.0013328331954645337
1.45558e-05;0.0013342427149283026
1.45560e-05;0.001335652234392081
1.45563e-05;0.001337061753855859
1.45565e-05;0.001338471273319628
1.45568e-05;0.0013398807927834063
1.45570e-05;0.0013412903122471845
1.45573e-05;0.0013426998317109533
1.45575e-05;0.0013441093511747317
1.45578e-05;0.0013455188706385098
1.45580e-05;0.0013469283901022787
1.45583e-05;0.001348337909566057
1.45585e-05;0.0013497474290298352
1.45588e-05;0.001351156948493604
1.45590e-05;0.0013525664679573824
1.45593e-05;0.0013539759874211606
1.45595e-05;0.0013553855068849294
1.45598e-05;0.0013567950263487078
1.45600e-05;0.0013570182206657756
1.45603e-05;0.0013559175836470945
1.45605e-05;0.0013548169466284213
1.45608e-05;0.0013537163096097402
1.45610e-05;0.0013526156725910594
1.45613e-05;0.0013515150355723861
1.45615e-05;0.001350414398553705
1.45618e-05;0.0013493137615350243
1.45620e-05;0.0013482131245163508
1.45623e-05;0.00134711248749767
1.45625e-05;0.0013460118504789891
1.45628e-05;0.0013449112134603157
1.45630e-05;0.0013438105764416348
1.45633e-05;0.001342709939422954
1.45635e-05;0.0013416093024042806
1.45638e-05;0.0013405086653855997
1.45640e-05;0.0013394080283669189
1.45643e-05;0.0013383073913482454
1.45645e-05;0.0013372067543295646
1.45648e-05;0.0013361061173108838
1.45650e-05;0.0013350054802922103
1.45653e-05;0.0013339048432735295
1.45655e-05;0.0013328042062548486
1.45658e-05;0.0013317035692361752
1.45660e-05;0.0013306029322174943
1.45663e-05;0.0013296270834817338
1.45665e-05;0.0013287904871589903
1.45668e-05;0.0013279538908362411
1.45670e-05;0.001327117294513492
1.45673e-05;0.0013262806981907485
1.45675e-05;0.0013254441018679993
1.45678e-05;0.0013246075055452502
1.45680e-05;0.0013294641224164197
1.45683e-05;0.001334481067575636
1.45685e-05;0.0013394980127348526
1.45688e-05;0.0013445149578940351
1.45690e-05;0.0013495319030532517
1.45693e-05;0.001354548848212468
1.45695e-05;0.0013637736164186691
1.45698e-05;0.0013776939337509068
1.45700e-05;0.0013916142510832388
1.45703e-05;0.0014055345684155706
1.45705e-05;0.0014194548857478083
1.45708e-05;0.0014333752030801403
1.45710e-05;0.0014472955204124724
1.45713e-05;0.0014691268312248718
1.45715e-05;0.001491180925902806
1.45718e-05;0.0015132350205807404
1.45720e-05;0.0015352891152585252
1.45723e-05;0.0015573432099364594
1.45725e-05;0.0015793973046143938
1.45728e-05;0.0016031494945387603
1.45730e-05;0.0016295951549966396
1.45733e-05;0.001656931925044384
1.45735e-05;0.0016842686950919426
1.45738e-05;0.001711605465139687
1.45740e-05;0.001738942235187431
1.45743e-05;0.00176627900523499
1.45745e-05;0.001793615775282734
1.45748e-05;0.001820952545330478
1.45750e-05;0.0018462896863817688
1.45753e-05;0.0018715705152799204
1.45755e-05;0.001896851344178072
1.45758e-05;0.0019221321730760526
1.45760e-05;0.0019474130019742043
1.45763e-05;0.001972693830872356
1.45765e-05;0.0019979746597703365
1.45768e-05;0.002016145514451762
1.45770e-05;0.002026382282348535
1.45773e-05;0.002036619050245239
1.45775e-05;0.002046855818142012
1.45778e-05;0.0020570925860387847
1.45780e-05;0.002067329353935558
1.45783e-05;0.0020775661218322616
1.45785e-05;0.0020878028897290345
1.45788e-05;0.002098039657625808
1.45790e-05;0.0021082764255225114
1.45793e-05;0.0021185131934192843
1.45795e-05;0.0021287499613160577
1.45798e-05;0.002127954446958874
1.45800e-05;0.0021148479055611885
1.45803e-05;0.0021017413641635026
1.45805e-05;0.0020886348227659056
1.45808e-05;0.00207552828136822
1.45810e-05;0.0020624217399705345
1.45813e-05;0.0020493151985729375
1.45815e-05;0.0020362086571752516
1.45818e-05;0.002023102115777566
1.45820e-05;0.002009995574379969
1.45823e-05;0.0019968890329822835
1.45825e-05;0.0019837824915845976
1.45828e-05;0.001964949782353702
1.45830e-05;0.0019397271888343976
1.45833e-05;0.001914504595315093
1.45835e-05;0.0018892820017959596
1.45838e-05;0.001864059408276655
1.45840e-05;0.0018388368147573505
1.45843e-05;0.001813614221238217
1.45845e-05;0.0017879876935773904
1.45848e-05;0.0017619104120267532
1.45850e-05;0.0017358331304762925
1.45853e-05;0.0017097558489256553
1.45855e-05;0.001683678567375018
1.45858e-05;0.0016576012858245572
1.45860e-05;0.00163152400427392
1.45863e-05;0.0016094166576074622
1.45865e-05;0.0015917393984416386
1.45868e-05;0.0015740621392759347
1.45870e-05;0.0015563848801101112
1.45873e-05;0.0015387076209442876
1.45875e-05;0.0015210303617785837
1.45878e-05;0.0015033531026127601
1.45880e-05;0.0014856758434469365
1.45883e-05;0.0014766918829480424
1.45885e-05;0.0014774088558113453
1.45888e-05;0.0014781258286746483
1.45890e-05;0.0014788428015379462
1.45893e-05;0.001479559774401249
1.45895e-05;0.0014802767472645519
1.45898e-05;0.0014809937201278498
1.45900e-05;0.0014817106929911528
1.45903e-05;0.0014891095964502873
1.45905e-05;0.001503964928812342
1.45908e-05;0.0015188202611744971
1.45910e-05;0.0015368401608845303
1.45913e-05;0.0015583914309222737
1.45915e-05;0.0015799427009601632
1.45918e-05;0.0016057039972241739
1.45920e-05;0.001636163301165013
1.45923e-05;0.0016666226051060586
1.45925e-05;0.001697081909047104
1.45928e-05;0.0017275412129879432
1.45930e-05;0.0017580005169289886
1.45933e-05;0.0017884598208700341
1.45935e-05;0.0018217132986776325
1.45938e-05;0.0018580848212607
1.45940e-05;0.0018944563438437674
1.45943e-05;0.0019308278664265882
1.45945e-05;0.001967199389009656
1.45948e-05;0.0020035709115927233
1.45950e-05;0.0020399424341757907
1.45953e-05;0.0020743033882980365
1.45955e-05;0.002106420730253539
1.45958e-05;0.002138538072209042
1.45960e-05;0.002170655414164327
1.45963e-05;0.00220277275611983
1.45965e-05;0.002234890098075333
1.45968e-05;0.002267007440030618
1.45970e-05;0.002299124781986121
1.45973e-05;0.002315967538773523
1.45975e-05;0.002332380143373618
1.45978e-05;0.002348792747973824
1.45980e-05;0.00236520535257403
1.45983e-05;0.0023816179571741246
1.45985e-05;0.0023980305617743304
1.45988e-05;0.0024144431663745366
1.45990e-05;0.0024201065721255748
1.45993e-05;0.0024137748462516847
1.45995e-05;0.002407443120377794
1.45998e-05;0.0024011113945039465
1.46000e-05;0.002394779668630056
1.46003e-05;0.002388447942756166
1.46005e-05;0.002382116216882318
1.46008e-05;0.0023757844910084276
1.46010e-05;0.002369452765134537
1.46013e-05;0.0023536210100278594
1.46015e-05;0.0023271880833647452
1.46018e-05;0.002300755156701631
1.46020e-05;0.0022743222300386965
1.46023e-05;0.0022478893033755823
1.46025e-05;0.002221456376712468
1.46028e-05;0.0021950234500495336
1.46030e-05;0.0021685905233864195
1.46033e-05;0.0021421575967233053
1.46035e-05;0.0021117507645010444
1.46038e-05;0.0020769094138633312
1.46040e-05;0.0020420680632253817
1.46043e-05;0.002007226712587432
1.46045e-05;0.001972385361949719
1.46048e-05;0.0019375440113117695
1.46050e-05;0.0019027026606738202
1.46053e-05;0.0018700826090597212
1.46055e-05;0.001837525112115422
1.46058e-05;0.001804967615171123
1.46060e-05;0.0017724101182270443
1.46063e-05;0.0017398526212827454
1.46065e-05;0.0017072951243384462
1.46068e-05;0.0016781727107109613
1.46070e-05;0.0016528835387147453
1.46073e-05;0.0016275943667185295
1.46075e-05;0.0016054936036576449
1.46078e-05;0.0015869508159766215
1.46080e-05;0.0015684080282955984
1.46083e-05;0.0015532069876406532
1.46085e-05;0.0015417350337767542
1.46088e-05;0.0015302630799128554
1.46090e-05;0.001522339653002472
1.46093e-05;0.0015183760605402125
1.46095e-05;0.0015144124680779528
1.46098e-05;0.0015138727110634753
1.46100e-05;0.0015171536440785312
1.46103e-05;0.001520434577093587
1.46105e-05;0.0015268690553060693
1.46108e-05;0.0015368226041274022
1.46110e-05;0.0015467761529487348
1.46113e-05;0.001561296499283227
1.46115e-05;0.0015809129777164387
1.46118e-05;0.0016005294561496504
1.46120e-05;0.001620145934582862
1.46123e-05;0.0016397624130159408
1.46125e-05;0.0016593788914491523
1.46128e-05;0.001678995369882364
1.46130e-05;0.0016986118483154427
1.46133e-05;0.0017257992382859542
1.46135e-05;0.0017531998349741452
1.46138e-05;0.0017806004316621507
1.46140e-05;0.0018080010283503419
1.46143e-05;0.0018354016250385328
1.46145e-05;0.0018628022217265384
1.46148e-05;0.0018902028184147293
1.46150e-05;0.0019172480202583422
1.46153e-05;0.0019438966336675159
1.46155e-05;0.00197054524707687
1.46158e-05;0.001997193860486224
1.46160e-05;0.002023842473895398
1.46163e-05;0.0020504910873047517
1.46165e-05;0.002077139700714106
1.46168e-05;0.0020942544857545536
1.46170e-05;0.002111100785785684
1.46173e-05;0.002127947085816814
1.46175e-05;0.00214479338584783
1.46178e-05;0.0021616396858789603
1.46180e-05;0.00217848598591009
1.46183e-05;0.0021888767569731163
1.46185e-05;0.0021920637428234652
1.46188e-05;0.0021952507286738137
1.46190e-05;0.0021939820151440016
1.46193e-05;0.0021877411449612747
1.46195e-05;0.002181500274778548
1.46198e-05;0.0021704452744482528
1.46200e-05;0.0021540181412158976
1.46203e-05;0.0021375910079835425
1.46205e-05;0.0021167120267045238
1.46208e-05;0.002090865186511825
1.46210e-05;0.0020650183463189506
1.46213e-05;0.0020352760840662517
1.46215e-05;0.0020011868838678325
1.46218e-05;0.001967097683669182
1.46220e-05;0.0019283403280310845
1.46223e-05;0.0018843737340344504
1.46225e-05;0.001840407140037518
1.46228e-05;0.001796440546040586
1.46230e-05;0.001752473952043952
1.46233e-05;0.0017085073580470197
1.46235e-05;0.0016614890316041925
1.46238e-05;0.0016110652483543812
1.46240e-05;0.0015606414651042281
1.46243e-05;0.001510217681854075
1.46245e-05;0.0014597938986042637
1.46248e-05;0.0014093701153541104
1.46250e-05;0.0013597819430872678
1.46253e-05;0.0013111262369402447
1.46255e-05;0.0012624705307928918
1.46258e-05;0.001213814824645539
1.46260e-05;0.001165159118498516
1.46263e-05;0.0011243073494899402
1.46265e-05;0.001083675349503901
1.46268e-05;0.0010430433495181369
1.46270e-05;0.0010024113495320976
1.46273e-05;0.0009663280616853078
1.46275e-05;0.000935320724301592
1.46278e-05;0.000907799173814199
1.46280e-05;0.0008841674455599403
1.46283e-05;0.0008641703444858291
1.46285e-05;0.0008482291579106101
1.46288e-05;0.0008360230082805981
1.46290e-05;0.0008279848213467256
1.46293e-05;0.0008237754513279153
1.46295e-05;0.000823838693951498
1.46298e-05;0.000827705320934538
1.46300e-05;0.0008358161801330064
1.46303e-05;0.0008475309933915165
1.46305e-05;0.0008632674927271867
1.46308e-05;0.000882378255346036
1.46310e-05;0.000905254389953977
1.46313e-05;0.0009312708743565206
1.46315e-05;0.0009607917044958383
1.46318e-05;0.0009931444063744517
1.46320e-05;0.0010286572204398932
1.46323e-05;0.0010670970616901585
1.46325e-05;0.0011088031999806234
1.46328e-05;0.0011505093382710883
1.46330e-05;0.0011955369215569732
1.46333e-05;0.0012442709364108083
1.46335e-05;0.0012930049512646434
1.46338e-05;0.0013417389661181482
1.46340e-05;0.0013904729809719834
1.46343e-05;0.0014392069958258187
1.46345e-05;0.0014899266983787937
1.46348e-05;0.0015407023204811409
1.46350e-05;0.0015914779425834883
1.46353e-05;0.0016422535646854915
1.46355e-05;0.0016930291867878386
1.46358e-05;0.0017377147132950105
1.46360e-05;0.0017756042451083159
1.46363e-05;0.0018134937769218777
1.46365e-05;0.0018513833087354396
1.46368e-05;0.0018892728405487448
1.46370e-05;0.0019271623723623066
1.46373e-05;0.0019650519041758685
1.46375e-05;0.0020029414359894306
1.46378e-05;0.0020408309678027355
1.46380e-05;0.0020787204996162976
1.46383e-05;0.002106638081807167
1.46385e-05;0.0021234278720499637
1.46388e-05;0.002140217662292874
1.46390e-05;0.0021570074525357843
1.46393e-05;0.002173797242778581
1.46395e-05;0.0021905870330214913
1.46398e-05;0.0022073768232644016
1.46400e-05;0.0022241666135071982
1.46403e-05;0.0022409564037501085
1.46405e-05;0.002257746193993019
1.46408e-05;0.002267577009806371
1.46410e-05;0.002269642240898648
1.46413e-05;0.002271707471990925
1.46415e-05;0.002273772703083188
1.46418e-05;0.002275837934175465
1.46420e-05;0.002277903165267742
1.46423e-05;0.002279968396360005
1.46425e-05;0.002282033627452282
1.46428e-05;0.002284098858544559
1.46430e-05;0.002286164089636822
1.46433e-05;0.002284735192945367
1.46435e-05;0.002279407166345178
1.46438e-05;0.0022740791397450246
1.46440e-05;0.0022687511131448354
1.46443e-05;0.002263423086544646
1.46445e-05;0.002258095059944493
1.46448e-05;0.0022527670333443036
1.46450e-05;0.0022474390067441143
1.46453e-05;0.0022421109801439615
1.46455e-05;0.0022367829535437722
1.46458e-05;0.0022312567226519774
1.46460e-05;0.0022255093137354244
1.46463e-05;0.0022197619048189106
1.46465e-05;0.0022140144959023576
1.46468e-05;0.002208267086985805
1.46470e-05;0.0022025196780692913
1.46473e-05;0.0021967722691527383
1.46475e-05;0.0021910248602361854
1.46478e-05;0.0021815963150943808
1.46480e-05;0.0021720641043668477
1.46483e-05;0.002162531893639315
1.46485e-05;0.002152999682911847
1.46488e-05;0.0021434674721843142
1.46490e-05;0.0021339352614567816
1.46493e-05;0.0021244030507293135
1.46495e-05;0.002109936863694835
1.46498e-05;0.002089964806302635
1.46500e-05;0.0020699927489105704
1.46503e-05;0.002050020691518371
1.46505e-05;0.002030048634126171
1.46508e-05;0.002010076576734106
1.46510e-05;0.0019901045193419066
1.46513e-05;0.0019701324619497067
1.46515e-05;0.0019501604045576422
1.46518e-05;0.0019258262657566362
1.46520e-05;0.0018966244394689957
1.46523e-05;0.0018674226131815532
1.46525e-05;0.0018382207868939127
1.46528e-05;0.0018090189606062722
1.46530e-05;0.0017798171343188297
1.46533e-05;0.0017506153080311892
1.46535e-05;0.0017214134817435487
1.46538e-05;0.001692211655456106
1.46540e-05;0.0016621007668140386
1.46543e-05;0.0016309754469789534
1.46545e-05;0.0015998501271438685
1.46548e-05;0.001568724807308994
1.46550e-05;0.001537599487473909
1.46553e-05;0.0015064741676388239
1.46555e-05;0.0014753488478039497
1.46558e-05;0.0014493316900373871
1.46560e-05;0.0014234583847613509
1.46563e-05;0.0013975850794854898
1.46565e-05;0.0013717117742094536
1.46568e-05;0.0013458384689334173
1.46570e-05;0.0013199651636575565
1.46573e-05;0.0012969528672910268
1.46575e-05;0.0012771331975550983
1.46578e-05;0.0012573135278193042
1.46580e-05;0.001237493858083376
1.46583e-05;0.0012176741883474476
1.46585e-05;0.0011978545186116536
1.46588e-05;0.0011779460481299642
1.46590e-05;0.0011579384840646073
1.46593e-05;0.0011379309199993858
1.46595e-05;0.0011179233559340288
1.46598e-05;0.0010979157918686716
1.46600e-05;0.0010779082278034502
1.46603e-05;0.0010566053525501403
1.46605e-05;0.0010338570274136501
1.46608e-05;0.0010111087022773141
1.46610e-05;0.000988360377140824
1.46613e-05;0.0009656120520043338
1.46615e-05;0.0009428637268679977
1.46618e-05;0.0009201154017315075
1.46620e-05;0.0008973670765950174
1.46623e-05;0.0008736826023328995
1.46625e-05;0.000848953470495524
1.46628e-05;0.0008242243386581485
1.46630e-05;0.0007994952068207731
1.46633e-05;0.0007747660749835652
1.46635e-05;0.0007500369431461898
1.46638e-05;0.0007253078113088143
1.46640e-05;0.0007005786794716064
1.46643e-05;0.0006762479249406157
1.46645e-05;0.0006523617233760544
1.46648e-05;0.0006284755218116551
1.46650e-05;0.0006045893202470938
1.46653e-05;0.0005807031186825326
1.46655e-05;0.0005568169171181332
1.46658e-05;0.0005366513092281536
1.46660e-05;0.0005165904780975866
1.46663e-05;0.0004965296469671556
1.46665e-05;0.0004764688158365887
1.46668e-05;0.0004564079847060218
1.46670e-05;0.00043835878631919006
1.46673e-05;0.0004225543877471177
1.46675e-05;0.00040766289962975235
1.46678e-05;0.00039379013683710267
1.46680e-05;0.00038038729174535806
1.46683e-05;0.00036750883221633817
1.46685e-05;0.0003554205493976199
1.46688e-05;0.0003442140321687632
1.46690e-05;0.00033300751493990654
1.46693e-05;0.0003228164888909527
1.46695e-05;0.0003137586589583326
1.46698e-05;0.0003047008290257125
1.46700e-05;0.0002961441034253045
1.46703e-05;0.0002881465648413304
1.46705e-05;0.00028014902625735636
1.46708e-05;0.0002727878976028305
1.46710e-05;0.00026613694474770546
1.46713e-05;0.0002594859918925804
1.46715e-05;0.0002533534835400032
1.46718e-05;0.000247799512262491
1.46720e-05;0.0002422455409849411
1.46723e-05;0.00023731061654176815
1.46725e-05;0.0002330664922577828
1.46728e-05;0.0002288223679737687
1.46730e-05;0.0002245782436897546
1.46733e-05;0.00022033411940576924
1.46735e-05;0.00021608999512175514
1.46738e-05;0.00021184587083774103
1.46740e-05;0.00020760174655375568
1.46743e-05;0.00020407707714990584
1.46745e-05;0.00020135525418378284
1.46748e-05;0.00019863343121767827
1.46750e-05;0.00019591160825155527
1.46753e-05;0.00019318978528543227
1.46755e-05;0.0001904679623193277
1.46758e-05;0.0001877461393532047
1.46760e-05;0.0001850243163870817
1.46763e-05;0.0001825676732036679
1.46765e-05;0.00018045891899243853
1.46768e-05;0.0001784677056012574
1.46770e-05;0.00017661002030190364
1.46773e-05;0.00017508069955518777
1.46775e-05;0.00017468781470847248
1.46778e-05;0.00017673515121388706
1.46780e-05;0.00018210581695867896
1.46783e-05;0.0001909111096506503
1.46785e-05;0.00020297071110020982
1.46788e-05;0.00021810243900333392
1.46790e-05;0.0002361241033813296
1.46793e-05;0.0002569655467947286
1.46795e-05;0.00028094072842261176
1.46798e-05;0.00030867405772121387
1.46800e-05;0.00034052638446221365
1.46803e-05;0.00037637508591327847
1.46805e-05;0.00041591487583551515
1.46808e-05;0.0004588393231864256
1.46810e-05;0.0005048419905461973
1.46813e-05;0.0005536866786897463
1.46815e-05;0.0006061240013897334
1.46818e-05;0.0006609467995092197
1.46820e-05;0.0007185455562569086
1.46823e-05;0.0007792420312318836
1.46825e-05;0.0008424145055618478
1.46828e-05;0.0009083499707586162
1.46830e-05;0.0009742854359553846
1.46833e-05;0.001042327702817634
1.46835e-05;0.001112720969387871
1.46838e-05;0.001183114235958108
1.46840e-05;0.001253507502527868
1.46843e-05;0.0013239007690981047
1.46845e-05;0.0013944745190445737
1.46848e-05;0.0014650533516373245
1.46850e-05;0.0015356321842305537
1.46853e-05;0.0016062110168237828
1.46855e-05;0.0016742437573206545
1.46858e-05;0.0017394352898058415
1.46860e-05;0.0018046268222910286
1.46863e-05;0.0018660041591766138
1.46865e-05;0.0019231251994761486
1.46868e-05;0.0019802462397756834
1.46870e-05;0.0020317449200968215
1.46873e-05;0.0020769695562690765
1.46875e-05;0.002122194192441331
1.46878e-05;0.0021614777983012764
1.46880e-05;0.0021941317528022296
1.46883e-05;0.0022267857073031833
1.46885e-05;0.0022532648738909527
1.46888e-05;0.0022728535368231363
1.46890e-05;0.002292442199755453
1.46893e-05;0.002305559778854036
1.46895e-05;0.0023114562149045568
1.46898e-05;0.0023173526509551175
1.46900e-05;0.002317425944176818
1.46903e-05;0.002311001137785648
1.46905e-05;0.0023045763313944336
1.46908e-05;0.0022926780465729315
1.46910e-05;0.002274671855915397
1.46913e-05;0.0022566656652577405
1.46915e-05;0.0022338536339945076
1.46918e-05;0.002205678720195929
1.46920e-05;0.00217750380639716
1.46923e-05;0.0021440814874421382
1.46925e-05;0.002104803539934606
1.46928e-05;0.002065525592426807
1.46930e-05;0.0020262476449190085
1.46933e-05;0.0019869696974114757
1.46935e-05;0.0019476917499036772
1.46938e-05;0.001904937799723744
1.46940e-05;0.0018583049456113256
1.46943e-05;0.001811672091498591
1.46945e-05;0.0017650392373858568
1.46948e-05;0.0017184063832734384
1.46950e-05;0.001671773529160704
1.46953e-05;0.0016261993387585026
1.46955e-05;0.0015818065211050877
1.46958e-05;0.0015374137034513723
1.46960e-05;0.0014930208857976566
1.46963e-05;0.0014486280681442418
1.46965e-05;0.0014092543192555029
1.46968e-05;0.0013754813962031918
1.46970e-05;0.001341708473150881
1.46973e-05;0.0013079355500987988
1.46975e-05;0.0012741626270464878
