Time(s);Current(A)
1.40000e-05;0.004401432949488862
1.40003e-05;0.004421513781908298
1.40005e-05;0.00444159461432787
1.40008e-05;0.004461675446747442
1.40010e-05;0.004481756279166878
1.40013e-05;0.00450183711158645
1.40015e-05;0.004521917944006022
1.40018e-05;0.004541998776425458
1.40020e-05;0.00456207960884503
1.40023e-05;0.004582160441264602
1.40025e-05;0.004602241273684038
1.40028e-05;0.00462232210610361
1.40030e-05;0.004645234729149082
1.40033e-05;0.004671570737900738
1.40035e-05;0.004697906746652571
1.40038e-05;0.004724242755404406
1.40040e-05;0.004750578764156061
1.40043e-05;0.004776914772907895
1.40045e-05;0.0048032507816597285
1.40048e-05;0.004829586790411384
1.40050e-05;0.004855922799163218
1.40053e-05;0.004882258807915051
1.40055e-05;0.004908594816666886
1.40058e-05;0.004934930825418541
1.40060e-05;0.004961266834170375
1.40063e-05;0.004987602842922208
1.40065e-05;0.0050144962453752325
1.40068e-05;0.005041417314417803
1.40070e-05;0.005068338383460373
1.40073e-05;0.005095259452502761
1.40075e-05;0.005122180521545332
1.40078e-05;0.005149101590587902
1.40080e-05;0.00517602265963029
1.40083e-05;0.005202943728672861
1.40085e-05;0.005229864797715432
1.40088e-05;0.005245244253224895
1.40090e-05;0.005260050833437287
1.40093e-05;0.005274857413649679
1.40095e-05;0.005289663993861971
1.40098e-05;0.005304470574074363
1.40100e-05;0.005319277154286756
1.40103e-05;0.005334083734499047
1.40105e-05;0.00534889031471144
1.40108e-05;0.005363696894923832
1.40110e-05;0.005346530591619663
1.40113e-05;0.005327777293992678
1.40115e-05;0.0053090239963656935
1.40118e-05;0.005290270698738836
1.40120e-05;0.005271517401111851
1.40123e-05;0.005252764103484866
1.40125e-05;0.005234010805858008
1.40128e-05;0.005215257508231023
1.40130e-05;0.005196504210604038
1.40133e-05;0.00517775091297718
1.40135e-05;0.005125908171511091
1.40138e-05;0.005072423014542819
1.40140e-05;0.005018937857574546
1.40143e-05;0.0049654527006066365
1.40145e-05;0.004911967543638364
1.40148e-05;0.0048584823866700926
1.40150e-05;0.004804997229702183
1.40153e-05;0.00475151207273391
1.40155e-05;0.004698026915765638
1.40158e-05;0.004644541758797728
1.40160e-05;0.004577919476085141
1.40163e-05;0.004510645123815627
1.40165e-05;0.00444337077154657
1.40168e-05;0.004376096419277056
1.40170e-05;0.004308822067007543
1.40173e-05;0.0042415477147384854
1.40175e-05;0.004174273362468972
1.40178e-05;0.004113708064635037
1.40180e-05;0.004053475774967804
1.40183e-05;0.003993243485300163
1.40185e-05;0.003933011195632523
1.40188e-05;0.003872778905965291
1.40190e-05;0.0038125466162976505
1.40193e-05;0.00375231432663001
1.40195e-05;0.0037201011021465442
1.40198e-05;0.0036892786217104304
1.40200e-05;0.0036584561412743165
1.40203e-05;0.0036276336608384117
1.40205e-05;0.003596811180402298
1.40208e-05;0.003565988699966184
1.40210e-05;0.003535166219530279
1.40213e-05;0.0035043437390941653
1.40215e-05;0.0034735212586580514
1.40218e-05;0.0034426987782221466
1.40220e-05;0.0034118762977860327
1.40223e-05;0.0034139164961624314
1.40225e-05;0.003417587854417259
1.40228e-05;0.0034212592126720612
1.40230e-05;0.0034249305709268887
1.40233e-05;0.0034286019291817162
1.40235e-05;0.0034322732874365186
1.40238e-05;0.0034359446456913457
1.40240e-05;0.003439616003946173
1.40243e-05;0.0034432873622009755
1.40245e-05;0.003446958720455803
1.40248e-05;0.0034506300787106306
1.40250e-05;0.0034727465092293714
1.40253e-05;0.003495778472593538
1.40255e-05;0.0035188104359577042
1.40258e-05;0.0035418423993217145
1.40260e-05;0.003564874362685881
1.40263e-05;0.0035879063260500473
1.40265e-05;0.0036109382894140576
1.40268e-05;0.003633970252778224
1.40270e-05;0.003658246046202248
1.40273e-05;0.003684025520728717
1.40275e-05;0.003709804995255361
1.40278e-05;0.0037355844697820047
1.40280e-05;0.003761363944308474
1.40283e-05;0.003787143418835118
1.40285e-05;0.0038129228933617616
1.40288e-05;0.0038387023678882306
1.40290e-05;0.0038644818424148743
1.40293e-05;0.003874189453079693
1.40295e-05;0.0038830993266007405
1.40298e-05;0.0038920092001218484
1.40300e-05;0.003900919073642957
1.40303e-05;0.003909828947164004
1.40305e-05;0.0039187388206851125
1.40308e-05;0.00392764869420622
1.40310e-05;0.003936558567727328
1.40313e-05;0.003945468441248376
1.40315e-05;0.003954378314769484
1.40318e-05;0.003963288188290592
1.40320e-05;0.00397219806181164
1.40323e-05;0.003981107935332747
1.40325e-05;0.00396410256035197
1.40328e-05;0.003945810865595192
1.40330e-05;0.003927519170838289
1.40333e-05;0.003909227476081386
1.40335e-05;0.003890935781324607
1.40338e-05;0.0038726440865677037
1.40340e-05;0.003854352391810801
1.40343e-05;0.0038360606970540222
1.40345e-05;0.003817769002297119
1.40348e-05;0.0037994773075402163
1.40350e-05;0.003781185612783437
1.40353e-05;0.0037628939180265344
1.40355e-05;0.0037446022232696316
1.40358e-05;0.003714670856836794
1.40360e-05;0.003684161747926457
1.40363e-05;0.00365365263901612
1.40365e-05;0.003623143530105989
1.40368e-05;0.003592634421195652
1.40370e-05;0.003562125312285315
1.40373e-05;0.0035316162033751848
1.40375e-05;0.0035011070944648477
1.40378e-05;0.003473610972663341
1.40380e-05;0.00344626440238594
1.40383e-05;0.0034189178321083536
1.40385e-05;0.003391571261830767
1.40388e-05;0.0033642246915533656
1.40390e-05;0.003336878121275779
1.40393e-05;0.0033095315509981925
1.40395e-05;0.003282184980720606
1.40398e-05;0.003276011684178993
1.40400e-05;0.003270889336493134
1.40403e-05;0.003265766988807275
1.40405e-05;0.003260644641121451
1.40408e-05;0.003255522293435592
1.40410e-05;0.0032503999457497335
1.40413e-05;0.003245277598063909
1.40415e-05;0.0032401552503780505
1.40418e-05;0.0032350329026921915
1.40420e-05;0.0032465809522407543
1.40423e-05;0.0032782820452902255
1.40425e-05;0.0033099831383396963
1.40428e-05;0.003341684231388953
1.40430e-05;0.0033733853244384236
1.40433e-05;0.003405086417487895
1.40435e-05;0.003436787510537151
1.40438e-05;0.003468488603586622
1.40440e-05;0.0035001896966360933
1.40443e-05;0.0035318907896853494
1.40445e-05;0.0035881099129277494
1.40448e-05;0.0036455460041322336
1.40450e-05;0.0037029820953363287
1.40453e-05;0.003760418186540813
1.40455e-05;0.003817854277745297
1.40458e-05;0.0038752903689493923
1.40460e-05;0.003932726460153877
1.40463e-05;0.003993135819081644
1.40465e-05;0.0040571395970818835
1.40468e-05;0.004121143375082556
1.40470e-05;0.0041851471530832286
1.40473e-05;0.004249150931083467
1.40475e-05;0.00431315470908414
1.40478e-05;0.0043771584870848125
1.40480e-05;0.004441162265085485
1.40483e-05;0.004489953789190898
1.40485e-05;0.004537990243436346
1.40488e-05;0.004586026697681794
1.40490e-05;0.004634063151926917
1.40493e-05;0.004682099606172365
1.40495e-05;0.004730136060417813
1.40498e-05;0.004778172514662936
1.40500e-05;0.004826208968908384
1.40503e-05;0.004874245423153832
1.40505e-05;0.004922281877398954
1.40508e-05;0.004950836995399746
1.40510e-05;0.004978425144932422
1.40513e-05;0.005006013294464911
1.40515e-05;0.0050336014439975865
1.40518e-05;0.005061189593530262
1.40520e-05;0.005088777743062751
1.40523e-05;0.005116365892595427
1.40525e-05;0.005143954042128102
1.40528e-05;0.005171542191660591
1.40530e-05;0.005199130341193267
1.40533e-05;0.0052144635947852045
1.40535e-05;0.005229188568851898
1.40538e-05;0.005243913542918692
1.40540e-05;0.005258638516985485
1.40543e-05;0.005273363491052179
1.40545e-05;0.005288088465118973
1.40548e-05;0.005302813439185766
1.40550e-05;0.005317538413252459
1.40553e-05;0.005332263387319253
1.40555e-05;0.0053469883613860465
1.40558e-05;0.00536171333545274
1.40560e-05;0.005376438309519533
1.40563e-05;0.005391163283586327
1.40565e-05;0.00540588825765312
1.40568e-05;0.005420613231719814
1.40570e-05;0.005435338205786608
1.40573e-05;0.005450063179853401
1.40575e-05;0.0054647881539200945
1.40578e-05;0.0054795131279868885
1.40580e-05;0.0054883635556049
1.40583e-05;0.0054901121734388944
1.40585e-05;0.005491860791272902
1.40588e-05;0.005493609409106908
1.40590e-05;0.005495358026940903
1.40593e-05;0.00549710664477491
1.40595e-05;0.005498855262608917
1.40598e-05;0.005500603880442912
1.40600e-05;0.005502352498276919
1.40603e-05;0.0055041011161109255
1.40605e-05;0.005505849733944921
1.40608e-05;0.005507598351778927
1.40610e-05;0.005509346969612934
1.40613e-05;0.005511095587446929
1.40615e-05;0.005512844205280936
1.40618e-05;0.005514592823114943
1.40620e-05;0.005516341440948938
1.40623e-05;0.0055180900587829445
1.40625e-05;0.005519838676616952
1.40628e-05;0.005521587294450946
1.40630e-05;0.005509093829354355
1.40633e-05;0.00549589344944627
1.40635e-05;0.005482693069538275
1.40638e-05;0.00546949268963019
1.40640e-05;0.005456292309722105
1.40643e-05;0.005443091929814109
1.40645e-05;0.005429891549906024
1.40648e-05;0.00541669116999794
1.40650e-05;0.005403490790089855
1.40653e-05;0.00539029041018186
1.40655e-05;0.0053720210338223376
1.40658e-05;0.005353500054611603
1.40660e-05;0.005334979075400995
1.40663e-05;0.00531645809619026
1.40665e-05;0.005297937116979526
1.40668e-05;0.005279416137768917
1.40670e-05;0.005260895158558183
1.40673e-05;0.0052423741793474485
1.40675e-05;0.005223853200136839
1.40678e-05;0.005205332220926105
1.40680e-05;0.005187111364777827
1.40683e-05;0.005172631973610707
1.40685e-05;0.005158337553016935
1.40688e-05;0.005144043132423164
1.40690e-05;0.005129748711829489
1.40693e-05;0.005115454291235718
1.40695e-05;0.005101159870641947
1.40698e-05;0.005086865450048272
1.40700e-05;0.0050725710294545
1.40703e-05;0.005058276608860729
1.40705e-05;0.0050439821882670545
1.40708e-05;0.005029687767673283
1.40710e-05;0.005015393347079512
1.40713e-05;0.005001098926485837
1.40715e-05;0.004986804505892065
1.40718e-05;0.004972008371449358
1.40720e-05;0.00495660570910647
1.40723e-05;0.0049412030467634776
1.40725e-05;0.004925800384420485
1.40728e-05;0.004910397722077598
1.40730e-05;0.004894995059734605
1.40733e-05;0.004879592397391613
1.40735e-05;0.004864189735048621
1.40738e-05;0.004848787072705732
1.40740e-05;0.00483338441036274
1.40743e-05;0.0048179817480197475
1.40745e-05;0.00480257908567686
1.40748e-05;0.004787176423333868
1.40750e-05;0.004771773760990875
1.40753e-05;0.004756371098647987
1.40755e-05;0.004739843643469266
1.40758e-05;0.004723260358485227
1.40760e-05;0.004706677073501299
1.40763e-05;0.0046900937885172595
1.40765e-05;0.00467351050353322
1.40768e-05;0.004656927218549292
1.40770e-05;0.004640343933565253
1.40773e-05;0.004623760648581212
1.40775e-05;0.004607177363597286
1.40778e-05;0.004590594078613245
1.40780e-05;0.004574010793629206
1.40783e-05;0.004557427508645278
1.40785e-05;0.0045408442236612384
1.40788e-05;0.004524260938677199
1.40790e-05;0.004507677653693271
1.40793e-05;0.004500501034390915
1.40795e-05;0.004493791320902095
1.40798e-05;0.0044870816074133206
1.40800e-05;0.0044803718939245
1.40803e-05;0.00447366218043568
1.40805e-05;0.0044669524669469045
1.40808e-05;0.004460242753458085
1.40810e-05;0.004453533039969265
1.40813e-05;0.004446823326480489
1.40815e-05;0.0044401136129916694
1.40818e-05;0.004433403899502849
1.40820e-05;0.004426694186014029
1.40823e-05;0.004419984472525254
1.40825e-05;0.0044132747590364335
1.40828e-05;0.004406565045547614
1.40830e-05;0.004411047060803302
1.40833e-05;0.0044160845846094
1.40835e-05;0.004421122108415497
1.40838e-05;0.0044261596322215605
1.40840e-05;0.004431197156027658
1.40843e-05;0.004436234679833756
1.40845e-05;0.004441272203639819
1.40848e-05;0.004446309727445917
1.40850e-05;0.0044513472512520144
1.40853e-05;0.004456384775058078
1.40855e-05;0.004461422298864176
1.40858e-05;0.004466459822670274
1.40860e-05;0.004471497346476337
1.40863e-05;0.00447790743237618
1.40865e-05;0.004485976825083797
1.40868e-05;0.004494046217791359
1.40870e-05;0.004502115610498976
1.40873e-05;0.004510185003206593
1.40875e-05;0.004518254395914155
1.40878e-05;0.004526323788621772
1.40880e-05;0.004534393181329388
1.40883e-05;0.0045424625740369505
1.40885e-05;0.004550531966744567
1.40888e-05;0.004558601359452184
1.40890e-05;0.004566670752159746
1.40893e-05;0.004574740144867364
1.40895e-05;0.00458280953757498
1.40898e-05;0.00457881346840965
1.40900e-05;0.004574218522395615
1.40903e-05;0.0045696235763815814
1.40905e-05;0.004565028630367547
1.40908e-05;0.004560433684353544
1.40910e-05;0.00455583873833951
1.40913e-05;0.004551243792325476
1.40915e-05;0.004546648846311473
1.40918e-05;0.004542053900297439
1.40920e-05;0.004537458954283405
1.40923e-05;0.004532864008269402
1.40925e-05;0.004528269062255368
1.40928e-05;0.0045236741162413335
1.40930e-05;0.004519079170227331
1.40933e-05;0.004495588101011195
1.40935e-05;0.004471159110740762
1.40938e-05;0.004446730120470493
1.40940e-05;0.004422301130200059
1.40943e-05;0.004397872139929625
1.40945e-05;0.004373443149659357
1.40948e-05;0.004349014159388923
1.40950e-05;0.004324585169118489
1.40953e-05;0.00430015617884822
1.40955e-05;0.004275727188577787
1.40958e-05;0.004251298198307353
1.40960e-05;0.004226869208037084
1.40963e-05;0.00420244021776665
1.40965e-05;0.004178011227496217
1.40968e-05;0.0041495882227922335
1.40970e-05;0.004120966972649579
1.40973e-05;0.004092345722506926
1.40975e-05;0.004063724472364466
1.40978e-05;0.004035103222221812
1.40980e-05;0.004006481972079159
1.40983e-05;0.0039778607219366985
1.40985e-05;0.003949239471794045
1.40988e-05;0.003920618221651391
1.40990e-05;0.0039031588284321236
1.40993e-05;0.003886253461057818
1.40995e-05;0.0038693480936833977
1.40998e-05;0.0038524427263089776
1.41000e-05;0.003835537358934672
1.41003e-05;0.0038186319915602517
1.41005e-05;0.0038017266241858316
1.41008e-05;0.003784821256811526
1.41010e-05;0.0037679158894371057
1.41013e-05;0.003772955501785492
1.41015e-05;0.0037790843671156684
1.41018e-05;0.0037852132324458863
1.41020e-05;0.0037913420977761037
1.41023e-05;0.00379747096310628
1.41025e-05;0.0038035998284364977
1.41028e-05;0.0038097286937667156
1.41030e-05;0.003815857559096892
1.41033e-05;0.0038219864244271096
1.41035e-05;0.003828115289757327
1.41038e-05;0.0038479683215665596
1.41040e-05;0.003875098218950322
1.41043e-05;0.0039022281163340836
1.41045e-05;0.003929358013717662
1.41048e-05;0.003956487911101424
1.41050e-05;0.003983617808485186
1.41053e-05;0.004010747705868765
1.41055e-05;0.0040378776032525265
1.41058e-05;0.004065007500636288
1.41060e-05;0.004092137398019867
1.41063e-05;0.0041209117091652245
1.41065e-05;0.0041526830712080316
1.41068e-05;0.0041844544332506235
1.41070e-05;0.004216225795293431
1.41073e-05;0.004249404404961111
1.41075e-05;0.004283907527512709
1.41078e-05;0.004318410650064073
1.41080e-05;0.004352913772615671
1.41083e-05;0.004380686482253217
1.41085e-05;0.004405233351352191
1.41088e-05;0.004429780220451331
1.41090e-05;0.004454327089550471
1.41093e-05;0.004478873958649445
1.41095e-05;0.004503420827748585
1.41098e-05;0.004527967696847725
1.41100e-05;0.0045525145659467
1.41103e-05;0.00457706143504584
1.41105e-05;0.00460160830414498
1.41108e-05;0.004626155173243954
1.41110e-05;0.004649234215538873
1.41113e-05;0.004665441090982331
1.41115e-05;0.0046816479664256805
1.41118e-05;0.004697854841869139
1.41120e-05;0.004714061717312598
1.41123e-05;0.004730268592755946
1.41125e-05;0.004746475468199405
1.41128e-05;0.004762682343642863
1.41130e-05;0.004778889219086212
1.41133e-05;0.004795096094529671
1.41135e-05;0.0048113029699731295
1.41138e-05;0.004827509845416478
1.41140e-05;0.004840601014888784
1.41143e-05;0.004852198847955384
1.41145e-05;0.0048637966810219065
1.41148e-05;0.004875394514088507
1.41150e-05;0.004886992347155107
1.41153e-05;0.00489859018022163
1.41155e-05;0.00491018801328823
1.41158e-05;0.0049217858463548305
1.41160e-05;0.004933383679421353
1.41163e-05;0.004944981512487953
1.41165e-05;0.004956579345554554
1.41168e-05;0.004968177178621154
1.41170e-05;0.004979775011687676
1.41173e-05;0.004991372844754277
1.41175e-05;0.005002970677820877
1.41178e-05;0.005014568510887399
1.41180e-05;0.005026166343953999
1.41183e-05;0.0050377641770206
1.41185e-05;0.005049362010087122
1.41188e-05;0.0050609598431537225
1.41190e-05;0.005072557676220323
1.41193e-05;0.005084155509286845
1.41195e-05;0.005095753342353446
1.41198e-05;0.005107351175420046
1.41200e-05;0.0051189490084865685
1.41203e-05;0.005128433210166088
1.41205e-05;0.005128021675155469
1.41208e-05;0.005127610140144853
1.41210e-05;0.005127198605134235
1.41213e-05;0.005126787070123616
1.41215e-05;0.005126375535113
1.41218e-05;0.005125964000102382
1.41220e-05;0.005125552465091763
1.41223e-05;0.005125140930081147
1.41225e-05;0.005124729395070529
1.41228e-05;0.00512431786005991
1.41230e-05;0.005123906325049295
1.41233e-05;0.005123494790038676
1.41235e-05;0.005123083255028057
1.41238e-05;0.005122671720017442
1.41240e-05;0.005122260185006823
1.41243e-05;0.0051218486499962045
1.41245e-05;0.005121437114985589
1.41248e-05;0.00512102557997497
1.41250e-05;0.005120614044964352
1.41253e-05;0.005120202509953733
1.41255e-05;0.0051197909749431175
1.41258e-05;0.005119379439932499
1.41260e-05;0.00511896790492188
1.41263e-05;0.005118556369911265
1.41265e-05;0.005118144834900646
1.41268e-05;0.005114850975678757
1.41270e-05;0.0051101756383202645
1.41273e-05;0.005105500300961739
1.41275e-05;0.005100824963603214
1.41278e-05;0.005096149626244721
1.41280e-05;0.005091474288886196
1.41283e-05;0.005086798951527671
1.41285e-05;0.005082123614169178
1.41288e-05;0.005077448276810653
1.41290e-05;0.00507213082076153
1.41293e-05;0.005063807051725494
1.41295e-05;0.005055483282689402
1.41298e-05;0.00504715951365331
1.41300e-05;0.005038835744617273
1.41303e-05;0.0050305119755811815
1.41305e-05;0.0050221882065450895
1.41308e-05;0.005013864437509053
1.41310e-05;0.005005540668472961
1.41313e-05;0.004997216899436868
1.41315e-05;0.004975934570517028
1.41318e-05;0.004948441293121715
1.41320e-05;0.004920948015726402
1.41323e-05;0.004893454738331274
1.41325e-05;0.004865961460935961
1.41328e-05;0.004838468183540647
1.41330e-05;0.004810974906145521
1.41333e-05;0.004783481628750207
1.41335e-05;0.004755988351354893
1.41338e-05;0.00472849507395958
1.41340e-05;0.004701001796564453
1.41343e-05;0.004661513842637653
1.41345e-05;0.004616276922885076
1.41348e-05;0.0045710400031328076
1.41350e-05;0.004525803083380231
1.41353e-05;0.004480566163627655
1.41355e-05;0.004435329243875385
1.41358e-05;0.004390092324122809
1.41360e-05;0.004344855404370233
1.41363e-05;0.004299618484617964
1.41365e-05;0.004254381564865387
1.41368e-05;0.004209144645112811
1.41370e-05;0.004165146911897495
1.41373e-05;0.004121743112251892
1.41375e-05;0.004078339312606289
1.41378e-05;0.004034935512960981
1.41380e-05;0.003991531713315378
1.41383e-05;0.003948127913669775
1.41385e-05;0.0039047241140244666
1.41388e-05;0.0038613203143788638
1.41390e-05;0.003817916514733261
1.41393e-05;0.0037745127150879527
1.41395e-05;0.003744315336293931
1.41398e-05;0.003720447704031522
1.41400e-05;0.003696580071769275
1.41403e-05;0.003672712439506866
1.41405e-05;0.0036488448072444575
1.41408e-05;0.0036249771749822107
1.41410e-05;0.0036011095427198017
1.41413e-05;0.003577241910457393
1.41415e-05;0.003553374278195146
1.41418e-05;0.0035295066459327374
1.41420e-05;0.0035193680927844166
1.41423e-05;0.0035158097926728075
1.41425e-05;0.003512251492561223
1.41428e-05;0.0035086931924496138
1.41430e-05;0.0035051348923380047
1.41433e-05;0.00350157659222642
1.41435e-05;0.003498018292114811
1.41438e-05;0.0034944599920032023
1.41440e-05;0.003490901691891617
1.41443e-05;0.003487343391780008
1.41445e-05;0.0034837850916683995
1.41448e-05;0.0034823888046193537
1.41450e-05;0.0034911147707437948
1.41453e-05;0.003499840736868236
1.41455e-05;0.003508566702992618
1.41458e-05;0.0035172926691170595
1.41460e-05;0.0035260186352415006
1.41463e-05;0.0035347446013658827
1.41465e-05;0.003543470567490324
1.41468e-05;0.0035521965336147653
1.41470e-05;0.0035609224997391474
1.41473e-05;0.0035696484658635885
1.41475e-05;0.0035783744319880296
1.41478e-05;0.003587449265378974
1.41480e-05;0.003596691308447437
1.41483e-05;0.0036059333515159
1.41485e-05;0.0036151753945843005
1.41488e-05;0.003624417437652764
1.41490e-05;0.003633659480721227
1.41493e-05;0.0036429015237896276
1.41495e-05;0.003652143566858091
1.41498e-05;0.0036613856099265538
1.41500e-05;0.003670627652994954
1.41503e-05;0.0036798696960634175
1.41505e-05;0.0036903151959864593
