Time(s);Current(A)
1.02500e-05;0.0046611104099068155
1.02503e-05;0.004650290879463573
1.02505e-05;0.004639471349020331
1.02508e-05;0.004628651818577162
1.02510e-05;0.004617832288133919
1.02513e-05;0.004607012757690677
1.02515e-05;0.004596193227247508
1.02518e-05;0.004585373696804266
1.02520e-05;0.004574554166361024
1.02522e-05;0.004563734635917855
1.02525e-05;0.004552915105474613
1.02528e-05;0.004542095575031371
1.02530e-05;0.004531276044588202
1.02533e-05;0.004520456514144959
1.02535e-05;0.004509636983701717
1.02537e-05;0.004498817453258548
1.02540e-05;0.004490600678484573
1.02543e-05;0.004494622047186245
1.02545e-05;0.004498643415887889
1.02548e-05;0.004502664784589561
1.02550e-05;0.004506686153291232
1.02553e-05;0.004510707521992904
1.02555e-05;0.0045147288906945485
1.02558e-05;0.00451875025939622
1.02560e-05;0.0045227716280978915
1.02563e-05;0.004526792996799535
1.02565e-05;0.004530814365501207
1.02568e-05;0.004534835734202878
1.02570e-05;0.004538857102904523
1.02573e-05;0.004542878471606194
1.02575e-05;0.004546899840307866
1.02578e-05;0.0045509212090095105
1.02580e-05;0.004554942577711182
1.02583e-05;0.004559842622335207
1.02585e-05;0.004568874196527946
1.02588e-05;0.004577905770720746
1.02590e-05;0.004586937344913546
1.02593e-05;0.004595968919106285
1.02595e-05;0.004605000493299085
1.02598e-05;0.004614032067491885
1.02600e-05;0.004623063641684624
1.02603e-05;0.004632095215877424
1.02605e-05;0.004641126790070224
1.02607e-05;0.004649795004329732
1.02610e-05;0.00465828856817627
1.02613e-05;0.004666782132022808
1.02615e-05;0.004675275695869289
1.02618e-05;0.004683769259715826
1.02620e-05;0.004692262823562364
1.02622e-05;0.004700756387408845
1.02625e-05;0.004709249951255383
1.02628e-05;0.00471774351510192
1.02630e-05;0.004728762331772876
1.02633e-05;0.0047516548739562755
1.02635e-05;0.0047745474161396744
1.02638e-05;0.004797439958323073
1.02640e-05;0.004820332500506318
1.02643e-05;0.004843225042689717
1.02645e-05;0.004866117584873116
1.02648e-05;0.00488901012705636
1.02650e-05;0.004911902669239759
1.02653e-05;0.004934795211423158
1.02655e-05;0.004957687753606403
1.02658e-05;0.004980580295789802
1.02660e-05;0.005003472837973201
1.02663e-05;0.005037250046772471
1.02665e-05;0.005076259014350882
1.02668e-05;0.005115267981929293
1.02670e-05;0.00515427694950744
1.02673e-05;0.005193285917085851
1.02675e-05;0.005232294884664262
1.02678e-05;0.005271303852242409
1.02680e-05;0.00531031281982082
1.02683e-05;0.0053493217873992315
1.02685e-05;0.005388330754977378
1.02688e-05;0.005427339722555789
1.02690e-05;0.0054663486901342
1.02692e-05;0.005504697220039145
1.02695e-05;0.005539940375473897
1.02698e-05;0.005575183530908648
1.02700e-05;0.005610426686343161
1.02703e-05;0.005645669841777913
1.02705e-05;0.005680912997212664
1.02707e-05;0.005716156152647177
1.02710e-05;0.005751399308081928
1.02713e-05;0.00578664246351668
1.02715e-05;0.005821885618951193
1.02718e-05;0.005852689504135596
1.02720e-05;0.005862619963918091
1.02723e-05;0.005872550423700585
1.02725e-05;0.005882480883483012
1.02728e-05;0.005892411343265507
1.02730e-05;0.0059023418030480015
1.02733e-05;0.005912272262830429
1.02735e-05;0.005922202722612924
1.02738e-05;0.005932133182395418
1.02740e-05;0.005942063642177846
1.02743e-05;0.005946247238584445
1.02745e-05;0.00592340911357908
1.02748e-05;0.005900570988573871
1.02750e-05;0.005877732863568507
1.02753e-05;0.005854894738563142
1.02755e-05;0.005832056613557932
1.02758e-05;0.005809218488552568
1.02760e-05;0.0057863803635472034
1.02763e-05;0.005763542238541993
1.02765e-05;0.005740704113536629
1.02768e-05;0.005714271548847613
1.02770e-05;0.005670937947641336
1.02773e-05;0.005627604346434766
1.02775e-05;0.005584270745228196
1.02777e-05;0.005540937144021919
1.02780e-05;0.0054976035428153484
1.02783e-05;0.005454269941608777
1.02785e-05;0.005410936340402501
1.02788e-05;0.00536760273919593
1.02790e-05;0.00532426913798936
1.02792e-05;0.0052802946025466485
1.02795e-05;0.005233306397689152
1.02798e-05;0.005186318192831655
1.02800e-05;0.0051393299879744754
1.02803e-05;0.005101769118395398
1.02805e-05;0.005068304285412837
1.02808e-05;0.005034839452430276
1.02810e-05;0.005001378067917978
1.02813e-05;0.004967928992074173
1.02815e-05;0.004934479916230368
1.02818e-05;0.00490103084038679
1.02820e-05;0.004867581764542985
1.02823e-05;0.00483413268869918
1.02825e-05;0.004800683612855601
1.02828e-05;0.0047672345370117965
1.02830e-05;0.004733785461167992
1.02833e-05;0.004705078889619807
1.02835e-05;0.004678941932783599
1.02838e-05;0.004652804975947392
1.02840e-05;0.004626668019111362
1.02843e-05;0.004600531062275154
1.02845e-05;0.004574394105438947
1.02848e-05;0.004548257148602917
1.02850e-05;0.004522120191766709
1.02853e-05;0.0044957999965277076
1.02855e-05;0.004467323173650787
1.02858e-05;0.004438846350773672
1.02860e-05;0.004410369527896558
1.02862e-05;0.0043818927050196365
1.02865e-05;0.0043534158821425225
1.02868e-05;0.0043249390592654076
1.02870e-05;0.004296462236388486
1.02873e-05;0.004267985413511372
1.02875e-05;0.004239508590634258
1.02877e-05;0.0042110317677573365
1.02880e-05;0.004182554944880222
1.02883e-05;0.0041540781220031076
1.02885e-05;0.004125601299126186
1.02888e-05;0.004101303734918709
1.02890e-05;0.0040785240876535945
1.02893e-05;0.004055744440388479
1.02895e-05;0.004032964793123519
1.02898e-05;0.004010185145858404
1.02900e-05;0.003987405498593289
1.02903e-05;0.003964625851328328
1.02905e-05;0.003941846204063214
1.02908e-05;0.003919066556798099
1.02910e-05;0.003896286909533138
1.02913e-05;0.0038735072622680233
1.02915e-05;0.0038507276150029084
1.02918e-05;0.003827947967737948
1.02920e-05;0.003812120462664561
1.02923e-05;0.0038072208263396474
1.02925e-05;0.003802321190014767
1.02928e-05;0.0037974215536898527
1.02930e-05;0.003792521917364939
1.02933e-05;0.003787622281040058
1.02935e-05;0.003782722644715144
1.02938e-05;0.0037778230083902304
1.02940e-05;0.0037729233720653495
1.02943e-05;0.0037680237357404357
1.02945e-05;0.003763124099415522
1.02947e-05;0.003758224463090641
1.02950e-05;0.0037533248267657272
1.02953e-05;0.0037484251904408134
1.02955e-05;0.00375887527837207
1.02958e-05;0.003771245380755554
1.02960e-05;0.003783615483139039
1.02962e-05;0.00379598558552244
1.02965e-05;0.0038083556879059247
1.02968e-05;0.0038207257902894095
1.02970e-05;0.00383309589267281
1.02973e-05;0.003845465995056295
1.02975e-05;0.0038578360974397797
1.02978e-05;0.0038702061998232644
1.02980e-05;0.0038825763022066655
1.02983e-05;0.0038949464045901503
1.02985e-05;0.003907316506973635
1.02988e-05;0.003921086453096658
1.02990e-05;0.003937056772606164
1.02993e-05;0.003953027092115671
1.02995e-05;0.003968997411625068
1.02998e-05;0.003984967731134575
1.03000e-05;0.004000938050644081
1.03003e-05;0.004016908370153479
1.03005e-05;0.004032878689662985
1.03008e-05;0.004048849009172491
1.03010e-05;0.004064819328681889
1.03013e-05;0.004078800231390785
1.03015e-05;0.004092532288651625
1.03018e-05;0.004106264345912371
1.03020e-05;0.004119996403173211
1.03023e-05;0.00413372846043405
1.03025e-05;0.004147460517694796
1.03028e-05;0.004161192574955636
1.03030e-05;0.004174924632216475
1.03032e-05;0.0041886566894772225
1.03035e-05;0.004206426267728077
1.03038e-05;0.0042305423070042
1.03040e-05;0.00425465834628016
1.03043e-05;0.004278774385556283
1.03045e-05;0.0043028904248324056
1.03047e-05;0.004327006464108365
1.03050e-05;0.004351122503384488
1.03053e-05;0.004375238542660612
1.03055e-05;0.004399354581936571
1.03058e-05;0.004423470621212694
1.03060e-05;0.004447586660488817
1.03063e-05;0.004471702699764941
1.03065e-05;0.0044958187390409
1.03068e-05;0.004528818877751614
1.03070e-05;0.004562930280680443
1.03073e-05;0.004597041683609041
1.03075e-05;0.0046311530865378705
1.03078e-05;0.0046652644894666995
1.03080e-05;0.004699375892395298
1.03083e-05;0.004733487295324127
1.03085e-05;0.004767598698252956
1.03088e-05;0.004801710101181554
1.03090e-05;0.004835821504110383
1.03093e-05;0.004869932907039212
1.03095e-05;0.004904044309967811
1.03098e-05;0.004934406323803948
1.03100e-05;0.0049588747827063505
1.03103e-05;0.004983343241608588
1.03105e-05;0.00500781170051099
1.03108e-05;0.005032280159413393
1.03110e-05;0.00505674861831563
1.03113e-05;0.005081217077218034
1.03115e-05;0.005105685536120437
1.03117e-05;0.005130153995022674
1.03120e-05;0.0051546224539250765
1.03123e-05;0.005179090912827479
1.03125e-05;0.005203559371729716
1.03128e-05;0.005228027830632119
1.03130e-05;0.005243367317980921
1.03132e-05;0.005244357242237533
1.03135e-05;0.005245347166494152
1.03138e-05;0.005246337090750772
1.03140e-05;0.005247327015007384
1.03143e-05;0.005248316939264004
1.03145e-05;0.005249306863520623
1.03148e-05;0.005250296787777242
1.03150e-05;0.005251286712033855
1.03153e-05;0.005252276636290474
1.03155e-05;0.005253266560547093
1.03158e-05;0.0052542564848037055
1.03160e-05;0.0052552464090603246
1.03163e-05;0.0052499354951646955
1.03165e-05;0.005234720478263306
1.03168e-05;0.005219505461361813
1.03170e-05;0.0052042904444603195
1.03173e-05;0.00518907542755893
1.03175e-05;0.005173860410657437
1.03178e-05;0.0051586453937559435
1.03180e-05;0.005143430376854554
1.03183e-05;0.005128215359953061
1.03185e-05;0.0051130003430515675
1.03188e-05;0.005097785326150177
1.03190e-05;0.005082570309248684
1.03193e-05;0.005066227819964956
1.03195e-05;0.0050497443012246625
1.03198e-05;0.0050332607824842565
1.03200e-05;0.0050167772637438515
1.03202e-05;0.005000293745003558
1.03205e-05;0.004983810226263153
1.03208e-05;0.004967326707522748
1.03210e-05;0.004950843188782454
1.03213e-05;0.004934359670042049
1.03215e-05;0.004917876151301644
1.03217e-05;0.004901392632561351
1.03220e-05;0.004886925490253231
1.03223e-05;0.004875627831021164
1.03225e-05;0.004864330171789174
1.03228e-05;0.004853032512557108
1.03230e-05;0.004841734853325042
1.03232e-05;0.004830437194093052
1.03235e-05;0.004819139534860986
1.03238e-05;0.00480784187562892
1.03240e-05;0.004796544216396853
1.03243e-05;0.004785246557164864
1.03245e-05;0.004773948897932798
1.03248e-05;0.004762651238700732
1.03250e-05;0.004751353579468742
1.03253e-05;0.004740055920236676
1.03255e-05;0.004728758261004609
1.03258e-05;0.004717460601772619
1.03260e-05;0.004706162942540553
1.03263e-05;0.004694865283308487
1.03265e-05;0.0046835676240764975
1.03268e-05;0.0046722699648444315
1.03270e-05;0.004662291956770512
1.03273e-05;0.004652479016762977
1.03275e-05;0.004642666076755376
1.03278e-05;0.004632853136747775
1.03280e-05;0.00462304019674024
1.03283e-05;0.004613227256732639
1.03285e-05;0.004603414316725038
1.03287e-05;0.004593601376717504
1.03290e-05;0.004583788436709903
1.03293e-05;0.004573975496702302
1.03295e-05;0.004564162556694767
1.03298e-05;0.004554349616687166
1.03300e-05;0.004544536676679565
1.03302e-05;0.004534723736672031
1.03305e-05;0.004524910796664429
1.03308e-05;0.004515097856656828
1.03310e-05;0.004505284916649294
1.03313e-05;0.004495471976641693
1.03315e-05;0.004485659036634092
1.03317e-05;0.004481504716535104
1.03320e-05;0.004486245015393821
1.03323e-05;0.0044909853142525375
1.03325e-05;0.004495725613111254
1.03328e-05;0.004500465911969938
1.03330e-05;0.004505206210828655
1.03333e-05;0.004509946509687372
1.03335e-05;0.004514686808546057
1.03338e-05;0.004519427107404774
1.03340e-05;0.004524167406263491
1.03343e-05;0.0045289077051221755
1.03345e-05;0.0045565986387241485
1.03348e-05;0.004587160343799747
1.03350e-05;0.004617722048875139
1.03353e-05;0.0046482837539507365
1.03355e-05;0.004678845459026335
1.03358e-05;0.004709407164101727
1.03360e-05;0.004739968869177325
1.03363e-05;0.004770530574252924
1.03365e-05;0.0048010922793283155
1.03368e-05;0.004831653984403914
1.03370e-05;0.004868321698243126
1.03373e-05;0.0049145872684827
1.03375e-05;0.004960852838722589
1.03378e-05;0.005007118408962476
1.03380e-05;0.005053383979202052
1.03383e-05;0.00509964954944194
1.03385e-05;0.005145915119681828
1.03387e-05;0.005192180689921403
1.03390e-05;0.005238446260161291
1.03393e-05;0.005283409792250832
1.03395e-05;0.005326326688693113
1.03398e-05;0.005369243585135686
1.03400e-05;0.005412160481578258
1.03402e-05;0.005455077378020539
1.03405e-05;0.005497994274463112
1.03408e-05;0.005540911170905684
1.03410e-05;0.005583828067348256
1.03413e-05;0.005626744963790537
1.03415e-05;0.00566067808065586
1.03418e-05;0.005680489857432977
1.03420e-05;0.005700301634209961
1.03423e-05;0.005720113410987078
1.03425e-05;0.005739925187764196
1.03428e-05;0.005759736964541179
1.03430e-05;0.0057795487413182965
1.03433e-05;0.005799360518095414
1.03435e-05;0.005819172294872397
1.03438e-05;0.005838984071649515
1.03440e-05;0.005858795848426632
1.03443e-05;0.0058786076252036155
1.03445e-05;0.005898419401980733
1.03448e-05;0.00591823117875785
1.03450e-05;0.005938042955534834
1.03453e-05;0.00595055404440771
1.03455e-05;0.0059515893957139115
1.03458e-05;0.005952624747020106
1.03460e-05;0.005953660098326307
1.03463e-05;0.005954695449632508
1.03465e-05;0.005955730800938701
1.03468e-05;0.005956766152244902
1.03470e-05;0.005957801503551103
1.03472e-05;0.005958836854857297
1.03475e-05;0.005959872206163498
1.03478e-05;0.005960907557469699
1.03480e-05;0.005961942908775893
1.03483e-05;0.005962978260082094
1.03485e-05;0.005964013611388295
1.03487e-05;0.005965048962694489
1.03490e-05;0.005964515074104929
1.03493e-05;0.005961514543267315
1.03495e-05;0.005958514012429702
1.03498e-05;0.005955513481592108
1.03500e-05;0.005952512950754495
1.03503e-05;0.005949512419916881
1.03505e-05;0.005946511889079288
1.03508e-05;0.0059435113582416745
1.03510e-05;0.0059405108274040615
1.03513e-05;0.005937510296566468
1.03515e-05;0.005934509765728855
1.03518e-05;0.005931509234891241
1.03520e-05;0.005928508704053648
1.03523e-05;0.005925508173216034
1.03525e-05;0.00592250764237842
1.03528e-05;0.005919507111540827
1.03530e-05;0.005916506580703213
1.03533e-05;0.0059135060498656
1.03535e-05;0.005910505519028006
1.03538e-05;0.005907504988190393
1.03540e-05;0.0059045044573527794
1.03543e-05;0.005901503926515186
1.03545e-05;0.005900626415525895
1.03548e-05;0.005903086017279033
1.03550e-05;0.005905545619032156
1.03553e-05;0.005908005220785295
1.03555e-05;0.005910464822538434
1.03557e-05;0.005912924424291556
1.03560e-05;0.005915384026044694
1.03563e-05;0.005917843627797834
1.03565e-05;0.0059203032295509555
1.03568e-05;0.005922762831304095
1.03570e-05;0.005925222433057233
1.03572e-05;0.005927682034810355
1.03575e-05;0.0059301416365634945
1.03578e-05;0.005932601238316633
1.03580e-05;0.005935060840069772
1.03583e-05;0.005937520441822894
1.03585e-05;0.005939980043576033
1.03588e-05;0.005942439645329172
1.03590e-05;0.005944899247082294
1.03593e-05;0.005947358848835433
1.03595e-05;0.005949818450588572
1.03598e-05;0.0059522780523416936
1.03600e-05;0.005953949601426073
1.03603e-05;0.0059543824335926265
1.03605e-05;0.005954815265759176
1.03608e-05;0.005955248097925729
1.03610e-05;0.005955680930092282
1.03613e-05;0.005956113762258832
1.03615e-05;0.005956546594425386
1.03618e-05;0.005956979426591938
1.03620e-05;0.005957412258758488
1.03623e-05;0.005957845090925042
1.03625e-05;0.005958277923091594
1.03628e-05;0.005958710755258144
1.03630e-05;0.0059591435874246975
1.03633e-05;0.00595957641959125
1.03635e-05;0.005954026351871257
1.03638e-05;0.0059390719389830395
1.03640e-05;0.005924117526094822
1.03642e-05;0.0059091631132067056
1.03645e-05;0.005894208700318488
1.03648e-05;0.00587925428743027
1.03650e-05;0.005864299874542153
1.03653e-05;0.005849345461653935
1.03655e-05;0.0058343910487657176
1.03657e-05;0.005819436635877601
1.03660e-05;0.005804482222989384
1.03663e-05;0.005789527810101166
1.03665e-05;0.005774573397212948
1.03668e-05;0.005759618984324831
1.03670e-05;0.005740576677692872
1.03673e-05;0.005715108730567437
1.03675e-05;0.005689640783442175
1.03678e-05;0.00566417283631674
1.03680e-05;0.005638704889191305
1.03683e-05;0.005613236942066043
1.03685e-05;0.005587768994940608
1.03688e-05;0.005562301047815173
1.03690e-05;0.005536833100689911
1.03693e-05;0.005511365153564476
1.03695e-05;0.005485897206439041
1.03698e-05;0.005460429259313779
1.03700e-05;0.005434961312188344
1.03703e-05;0.005415359146750874
1.03705e-05;0.005396490700400904
1.03708e-05;0.005377622254050807
1.03710e-05;0.005358753807700709
1.03713e-05;0.005339885361350739
1.03715e-05;0.005321016915000642
1.03718e-05;0.005302148468650543
1.03720e-05;0.005283280022300574
1.03723e-05;0.005264411575950477
1.03725e-05;0.005245543129600378
1.03727e-05;0.005226674683250409
1.03730e-05;0.005207806236900311
1.03733e-05;0.005193128220914922
1.03735e-05;0.005185037019737071
1.03738e-05;0.005176945818559167
1.03740e-05;0.005168854617381262
1.03742e-05;0.0051607634162034125
1.03745e-05;0.0051526722150255075
1.03748e-05;0.005144581013847603
1.03750e-05;0.005136489812669698
1.03753e-05;0.005128398611491849
1.03755e-05;0.005120307410313944
1.03758e-05;0.0051122162091360385
1.03760e-05;0.005104125007958189
1.03763e-05;0.005096033806780284
1.03765e-05;0.00508794260560238
1.03768e-05;0.005079851404424529
1.03770e-05;0.005071760203246625
1.03773e-05;0.00506366900206872
1.03775e-05;0.0050555778008908705
1.03778e-05;0.0050494909369737054
1.03780e-05;0.0050465546321163705
1.03783e-05;0.005043618327259056
1.03785e-05;0.005040682022401721
1.03788e-05;0.0050377457175443865
1.03790e-05;0.005034809412687072
1.03793e-05;0.005031873107829737
1.03795e-05;0.005028936802972403
1.03798e-05;0.005026000498115088
1.03800e-05;0.005023064193257753
1.03803e-05;0.005020127888400419
1.03805e-05;0.005017191583543104
1.03808e-05;0.005014255278685769
1.03810e-05;0.005011318973828435
1.03812e-05;0.00500838266897112
1.03815e-05;0.005005446364113786
1.03818e-05;0.005002510059256451
1.03820e-05;0.004999573754399136
1.03823e-05;0.0050019244434351216
1.03825e-05;0.005012585603387609
1.03827e-05;0.0050232467633400234
1.03830e-05;0.005033907923292511
1.03833e-05;0.005044569083244997
1.03835e-05;0.005055230243197485
1.03838e-05;0.005065891403149899
1.03840e-05;0.005076552563102386
1.03843e-05;0.005087213723054873
1.03845e-05;0.005097874883007288
1.03848e-05;0.005108536042959775
1.03850e-05;0.0051191972029122615
1.03853e-05;0.005129858362864676
1.03855e-05;0.005140519522817163
1.03858e-05;0.005167291029551258
1.03860e-05;0.0051960776929310115
1.03863e-05;0.00522486435631096
1.03865e-05;0.005253651019690908
1.03868e-05;0.005282437683070662
1.03870e-05;0.005311224346450611
1.03873e-05;0.0053400110098305595
1.03875e-05;0.005368797673210313
1.03878e-05;0.005397584336590261
1.03880e-05;0.00542637099997021
1.03883e-05;0.005455157663349963
1.03885e-05;0.0054839443267299115
1.03888e-05;0.005512730990109861
1.03890e-05;0.005541308723224749
1.03893e-05;0.005569558044973164
1.03895e-05;0.005597807366721578
1.03897e-05;0.005626056688469801
1.03900e-05;0.005654306010218216
1.03903e-05;0.00568255533196663
1.03905e-05;0.005710804653714853
1.03908e-05;0.0057390539754632675
1.03910e-05;0.005767303297211681
1.03912e-05;0.005795552618959905
1.03915e-05;0.0058238019407083185
1.03918e-05;0.005852051262456733
1.03920e-05;0.005860218208964655
1.03923e-05;0.005865873159145402
1.03925e-05;0.005871528109326189
1.03928e-05;0.005877183059506974
1.03930e-05;0.0058828380096877225
1.03933e-05;0.005888492959868508
1.03935e-05;0.005894147910049294
1.03938e-05;0.005899802860230042
1.03940e-05;0.005905457810410828
1.03943e-05;0.005911112760591614
1.03945e-05;0.005916767710772362
1.03948e-05;0.0059120902393530175
1.03950e-05;0.005891171536912415
1.03953e-05;0.0058702528344719545
1.03955e-05;0.005849334132031352
1.03958e-05;0.00582841542959075
1.03960e-05;0.005807496727150289
1.03963e-05;0.005786578024709686
1.03965e-05;0.005765659322269084
1.03968e-05;0.005744740619828623
1.03970e-05;0.005723821917388021
1.03973e-05;0.005702903214947419
1.03975e-05;0.005670608922924387
1.03978e-05;0.005636891719571254
1.03980e-05;0.005603174516218122
1.03982e-05;0.005569457312865217
1.03985e-05;0.005535740109512085
1.03988e-05;0.005502022906158952
1.03990e-05;0.005468305702806048
1.03993e-05;0.005434588499452915
1.03995e-05;0.005400871296099783
1.03997e-05;0.0053671540927468795
1.04000e-05;0.005336877933455382
1.04003e-05;0.005312010650585439
1.04005e-05;0.005287143367715495
1.04008e-05;0.0052622760848457205
