Time(s);Current(A)
1.12500e-05;-0.0019948895730070577
1.12503e-05;-0.0019711851887823347
1.12505e-05;-0.0019493701124789935
1.12508e-05;-0.0019291195899149816
1.12510e-05;-0.0019097660956859566
1.12513e-05;-0.0018909930949352067
1.12515e-05;-0.001872876536141778
1.12518e-05;-0.0018555490244823673
1.12520e-05;-0.001839145252484439
1.12523e-05;-0.0018238000223352597
1.12525e-05;-0.0018095926549461321
1.12527e-05;-0.001796323257851648
1.12530e-05;-0.001783577012752044
1.12533e-05;-0.0017711592780863335
1.12535e-05;-0.0017591208900989126
1.12538e-05;-0.0017475483086820673
1.12540e-05;-0.0017368340565211624
1.12542e-05;-0.0017261709951184965
1.12545e-05;-0.001716469762814939
1.12548e-05;-0.001707360180185867
1.12550e-05;-0.0016986572802100424
1.12553e-05;-0.0016899774120223458
1.12555e-05;-0.0016817486856558195
1.12558e-05;-0.0016735477501020602
1.12560e-05;-0.001666216437745397
1.12563e-05;-0.001658938695096279
1.12565e-05;-0.0016516609524471607
1.12568e-05;-0.0016452355249694944
1.12570e-05;-0.0016388626010067225
1.12573e-05;-0.001632892275975967
1.12575e-05;-0.0016269467514647693
1.12578e-05;-0.0016210012269535314
1.12580e-05;-0.0016158320283576953
1.12583e-05;-0.001610710652258399
1.12585e-05;-0.001605589276159068
1.12588e-05;-0.0016008145868724305
1.12590e-05;-0.001596477617211599
1.12593e-05;-0.0015921406475507378
1.12595e-05;-0.0015878036778898764
1.12598e-05;-0.0015838198452154226
1.12600e-05;-0.0015800608567340078
1.12603e-05;-0.0015765446651436307
1.12605e-05;-0.0015734056345000792
1.12608e-05;-0.0015712904895743894
1.12610e-05;-0.0015711782435335658
1.12612e-05;-0.001573536142827093
1.12615e-05;-0.0015783228408382574
1.12618e-05;-0.0015864577400522097
1.12620e-05;-0.0015947902249196053
1.12623e-05;-0.001606111771087884
1.12625e-05;-0.001619530906395145
1.12627e-05;-0.0016365799433623103
1.12630e-05;-0.0016538453251194803
1.12633e-05;-0.001676521722057705
1.12635e-05;-0.0016995314432474422
1.12638e-05;-0.001727376189725991
1.12640e-05;-0.0017555187788703998
1.12643e-05;-0.0017886916980153873
1.12645e-05;-0.001822174490802414
1.12648e-05;-0.001855657283589668
1.12650e-05;-0.001895092684718963
1.12653e-05;-0.0019348947728104642
1.12655e-05;-0.001974696860902235
1.12658e-05;-0.0020186010790053913
1.12660e-05;-0.0020627579926506576
1.12663e-05;-0.0021090567881755654
1.12665e-05;-0.0021554875258870546
1.12668e-05;-0.002203444842424878
1.12670e-05;-0.00225149619783152
1.12673e-05;-0.0023006234288841824
1.12675e-05;-0.0023498169350129354
1.12678e-05;-0.0023990400493801643
1.12680e-05;-0.0024482649876461436
1.12683e-05;-0.002496402206970527
1.12685e-05;-0.002544472421659305
1.12688e-05;-0.002590565683321258
1.12690e-05;-0.002636537162587828
1.12693e-05;-0.0026797454256149954
1.12695e-05;-0.002722783471602482
1.12697e-05;-0.0027618994129770522
1.12700e-05;-0.002800773748564077
1.12703e-05;-0.0028345241043901685
1.12705e-05;-0.0028679588176492815
1.12708e-05;-0.0028953581657136453
1.12710e-05;-0.0029223857289055956
1.12712e-05;-0.002941465161611684
1.12715e-05;-0.002960054981082725
1.12718e-05;-0.002978644800553767
1.12720e-05;-0.002987200424671834
1.12723e-05;-0.002995137931754835
1.12725e-05;-0.0030030754388378892
1.12728e-05;-0.0030007872839611697
1.12730e-05;-0.0029978692175042687
1.12733e-05;-0.0029949511510473483
1.12735e-05;-0.0029855280450104067
1.12738e-05;-0.002972602813547378
1.12740e-05;-0.0029564697815814885
1.12743e-05;-0.002937219699022335
1.12745e-05;-0.0029149477562267385
1.12748e-05;-0.0028897866982063453
1.12750e-05;-0.0028619215717590233
1.12753e-05;-0.002831552347340309
1.12755e-05;-0.0027988707328330496
1.12758e-05;-0.0027640663469538974
1.12760e-05;-0.002727328275206471
1.12763e-05;-0.0026888464533540604
1.12765e-05;-0.002648813503045514
1.12768e-05;-0.0026074452366837233
1.12770e-05;-0.0025649904673793484
1.12773e-05;-0.0025217069719849165
1.12775e-05;-0.0024778481346383217
1.12778e-05;-0.002433665068366081
1.12780e-05;-0.0023894092032429107
1.12782e-05;-0.002345332215684539
1.12785e-05;-0.0023016875501784156
1.12788e-05;-0.0022587430151141436
1.12790e-05;-0.0022167870358802107
1.12793e-05;-0.0021761142981632444
1.12795e-05;-0.0021370154119833935
1.12797e-05;-0.002099780717153547
1.12800e-05;-0.0020647005534858223
1.12803e-05;-0.0020320646028322733
1.12805e-05;-0.0020021495666169365
1.12808e-05;-0.0019751405505557583
1.12810e-05;-0.0019510968795597892
1.12813e-05;-0.0019300497490960674
1.12815e-05;-0.001912056273617456
1.12818e-05;-0.001897179409946583
1.12820e-05;-0.001888557351624403
1.12823e-05;-0.0018803094424883237
1.12825e-05;-0.0018720615333521885
1.12828e-05;-0.001872999488715646
1.12830e-05;-0.0018745033030378958
1.12833e-05;-0.0018760071173601557
1.12835e-05;-0.0018847094437186892
1.12838e-05;-0.001893855206024365
1.12840e-05;-0.0019084049104312773
1.12843e-05;-0.0019232875033812935
1.12845e-05;-0.00194324741570163
1.12848e-05;-0.0019635200962598944
1.12850e-05;-0.0019883279912802595
1.12853e-05;-0.0020134152603031503
1.12855e-05;-0.002042381537502983
1.12858e-05;-0.002071586765705028
1.12860e-05;-0.0021040365085062958
1.12863e-05;-0.0021366861168352342
1.12865e-05;-0.0021719290778447996
1.12867e-05;-0.0022073317921193834
1.12870e-05;-0.0022445418151822785
1.12873e-05;-0.002281863170376132
1.12875e-05;-0.0023201339630727364
1.12878e-05;-0.0023584632421229674
1.12880e-05;-0.002396898452869653
1.12882e-05;-0.002435340189120508
1.12885e-05;-0.0024730333852474085
1.12888e-05;-0.0025106804705117337
1.12890e-05;-0.0025466405441629714
1.12893e-05;-0.0025824966961160677
1.12895e-05;-0.002615682623629835
1.12898e-05;-0.002648704062496689
1.12900e-05;-0.002676985332097441
1.12903e-05;-0.0027049746022630035
1.12905e-05;-0.002732963872428566
1.12908e-05;-0.0027548469003951144
1.12910e-05;-0.0027763537773902807
1.12913e-05;-0.002797860654385447
1.12915e-05;-0.0028139751767012446
1.12918e-05;-0.0028297575242711074
1.12920e-05;-0.0028455398718409707
1.12923e-05;-0.002855270368642051
1.12925e-05;-0.0028646280650411436
1.12928e-05;-0.0028739857614402363
1.12930e-05;-0.002877957975195647
1.12933e-05;-0.0028815984375296123
1.12935e-05;-0.002885238899863578
1.12938e-05;-0.0028848647775330492
1.12940e-05;-0.002884243352545135
1.12943e-05;-0.002880381141402778
1.12945e-05;-0.0028763192944089282
1.12948e-05;-0.0028699632475998813
1.12950e-05;-0.002862196011222362
1.12952e-05;-0.0028532212697192374
1.12955e-05;-0.0028431031712633594
1.12958e-05;-0.002831892068516608
1.12960e-05;-0.0028196384451976567
1.12963e-05;-0.002806391948274887
1.12965e-05;-0.002792216207173555
1.12967e-05;-0.0027772472143941496
1.12970e-05;-0.0027616817321271985
1.12973e-05;-0.002745672840865602
1.12975e-05;-0.0027293167635850228
1.12978e-05;-0.002712701355345892
1.12980e-05;-0.002695914379790283
1.12983e-05;-0.0026790429561101173
1.12985e-05;-0.002662183374418099
1.12988e-05;-0.0026454765756385424
1.12990e-05;-0.002629102404125308
1.12993e-05;-0.0026132126672428553
1.12995e-05;-0.0025979237519222573
1.12998e-05;-0.002583346907525703
1.13000e-05;-0.0025695931942703084
1.13003e-05;-0.0025567732337323395
1.13005e-05;-0.0025449177878848015
1.13008e-05;-0.002533659898303268
1.13010e-05;-0.002522343251284711
1.13013e-05;-0.00251065620028468
1.13015e-05;-0.0024986532310161446
1.13018e-05;-0.0024863982798030175
1.13020e-05;-0.0024741289197897113
1.13023e-05;-0.002461865700744398
1.13025e-05;-0.002449602859989114
1.13028e-05;-0.002437249110976738
1.13030e-05;-0.0024240969190985457
1.13033e-05;-0.0024108958872646586
1.13035e-05;-0.0023966343322047957
1.13037e-05;-0.0023823074477936175
1.13040e-05;-0.0023672275271924216
1.13043e-05;-0.0023521012187661607
1.13045e-05;-0.0023369749103400025
1.13048e-05;-0.0023212100509112836
1.13050e-05;-0.0023054058560660244
1.13052e-05;-0.0022887185681034496
1.13055e-05;-0.002271976880671518
1.13058e-05;-0.0022547572943440535
1.13060e-05;-0.0022373253558240084
1.13063e-05;-0.0022198005625177824
1.13065e-05;-0.0022022707433570826
1.13068e-05;-0.0021847260104171737
1.13070e-05;-0.0021670860510513575
1.13073e-05;-0.0021493543086793855
1.13075e-05;-0.002131625165776003
1.13078e-05;-0.0021140050727855705
1.13080e-05;-0.002096601776254414
1.13083e-05;-0.0020795221994895363
1.13085e-05;-0.002062861807101798
1.13088e-05;-0.0020466537321635614
1.13090e-05;-0.0020308878336851954
1.13093e-05;-0.0020156059302421014
1.13095e-05;-0.0020012345889501644
1.13098e-05;-0.0019869175998412443
1.13100e-05;-0.001973684710888694
1.13103e-05;-0.001961375487994984
1.13105e-05;-0.001949975166805041
1.13108e-05;-0.0019389854043508925
1.13110e-05;-0.0019275499835485592
1.13113e-05;-0.0019152617655997563
1.13115e-05;-0.0019021843378329991
1.13118e-05;-0.0018884486398108322
1.13120e-05;-0.0018741880834921526
1.13122e-05;-0.0018595360808358733
1.13125e-05;-0.0018445622215984123
1.13128e-05;-0.0018290207292202692
1.13130e-05;-0.0018124416876251102
1.13133e-05;-0.001794636554142397
1.13135e-05;-0.001775711459617273
1.13137e-05;-0.0017558149029529913
1.13140e-05;-0.001734784850737172
1.13143e-05;-0.0017136884153616603
1.13145e-05;-0.0016914484440333662
1.13148e-05;-0.0016691380296819944
1.13150e-05;-0.0016452417103679647
1.13153e-05;-0.0016212476976321807
1.13155e-05;-0.0015960737417769044
1.13158e-05;-0.0015702364706575876
1.13160e-05;-0.0015439234079496697
1.13163e-05;-0.001517294761401707
1.13165e-05;-0.0014904859353042548
1.13168e-05;-0.0014635084265599788
1.13170e-05;-0.0014362859220666245
1.13173e-05;-0.0014088524167376229
1.13175e-05;-0.0013813574590614383
1.13178e-05;-0.001353967586453424
1.13180e-05;-0.0013268493133545029
1.13183e-05;-0.0013001697716359213
1.13185e-05;-0.001274079794338956
1.13188e-05;-0.001248652994184286
1.13190e-05;-0.0012239080646979307
1.13193e-05;-0.001199932323265541
1.13195e-05;-0.0011768861524087946
1.13198e-05;-0.0011549398657202663
1.13200e-05;-0.0011342643473821763
1.13203e-05;-0.001115030275766395
1.13205e-05;-0.0010973996525837125
1.13207e-05;-0.0010814763743114651
1.13210e-05;-0.001067287976623067
1.13213e-05;-0.0010556899398844078
1.13215e-05;-0.0010442452660110013
1.13218e-05;-0.001037125003253352
1.13220e-05;-0.0010302711287909904
1.13222e-05;-0.001023417254328675
1.13225e-05;-0.001021957671873352
1.13228e-05;-0.0010208303835069921
1.13230e-05;-0.0010197030951406322
1.13233e-05;-0.0010237095828391557
1.13235e-05;-0.001028032316569253
1.13238e-05;-0.0010323550502993502
1.13240e-05;-0.0010414078280076766
1.13243e-05;-0.0010507519814243302
1.13245e-05;-0.0010600961348409836
1.13248e-05;-0.001073653906077405
1.13250e-05;-0.001087471240625044
1.13253e-05;-0.0011012885751726829
1.13255e-05;-0.0011180113551619785
1.13258e-05;-0.001134913113661422
1.13260e-05;-0.0011537091414403824
1.13263e-05;-0.0011726218582089362
1.13265e-05;-0.001193051284390887
1.13268e-05;-0.0012135741414757574
1.13270e-05;-0.0012351528064001856
1.13273e-05;-0.0012567965102036056
1.13275e-05;-0.0012789963005831685
1.13278e-05;-0.0013012303464834225
1.13280e-05;-0.0013235313947301138
1.13283e-05;-0.0013458365703921545
1.13285e-05;-0.0013677131393920793
1.13288e-05;-0.0013895633057687594
1.13290e-05;-0.0014104367292675786
1.13292e-05;-0.0014312499843726052
1.13295e-05;-0.0014500093964161576
1.13298e-05;-0.001468642289556275
1.13300e-05;-0.0014872751826962662
1.13303e-05;-0.0015036995936989726
1.13305e-05;-0.0015187733641435568
1.13307e-05;-0.0015331535020307373
1.13310e-05;-0.0015478794405882589
1.13313e-05;-0.0015637991575699678
1.13315e-05;-0.001579790955706351
1.13318e-05;-0.0015970290961776444
1.13320e-05;-0.0016143440126542518
1.13323e-05;-0.001631658929130859
1.13325e-05;-0.001649651600110145
1.13328e-05;-0.0016676860214833037
1.13330e-05;-0.0016878757800340533
1.13333e-05;-0.001708198309632986
1.13335e-05;-0.001729690971539117
1.13338e-05;-0.0017526610183871757
1.13340e-05;-0.0017756310652350788
1.13343e-05;-0.0018002811200679202
1.13345e-05;-0.0018250346651684105
1.13348e-05;-0.001849788210268733
1.13350e-05;-0.0018768385870269778
1.13353e-05;-0.0019040304510431333
1.13355e-05;-0.0019312223150591043
1.13358e-05;-0.0019602104121883538
1.13360e-05;-0.001989309159176034
1.13363e-05;-0.0020184079061635178
1.13365e-05;-0.0020480843062217315
1.13368e-05;-0.002077796290319689
1.13370e-05;-0.0021075082744174455
1.13373e-05;-0.002137574168344478
1.13375e-05;-0.002167661863491078
1.13377e-05;-0.0021977495586374745
1.13380e-05;-0.002227169496630854
1.13383e-05;-0.0022565483000777427
1.13385e-05;-0.0022846507691408734
1.13388e-05;-0.0023126746146570187
1.13390e-05;-0.0023392008316246403
1.13392e-05;-0.002365634793090416
1.13395e-05;-0.0023900887310466727
1.13398e-05;-0.0024144206974617203
1.13400e-05;-0.0024368208908292026
1.13403e-05;-0.0024575745191677436
1.13405e-05;-0.00247644395569533
1.13408e-05;-0.002492768884839948
1.13410e-05;-0.002505676867558218
1.13413e-05;-0.002514749462856018
1.13415e-05;-0.0025199897148614377
1.13418e-05;-0.002519713398936001
1.13420e-05;-0.0025191109496455447
1.13423e-05;-0.002511622062807373
1.13425e-05;-0.0025037089641368575
1.13428e-05;-0.0024884290068399313
1.13430e-05;-0.002472695243264324
1.13433e-05;-0.002450898589801667
1.13435e-05;-0.002424855259725416
1.13438e-05;-0.002394909810672231
1.13440e-05;-0.0023612841707768267
1.13443e-05;-0.0023242011049232998
1.13445e-05;-0.002283850314675186
1.13448e-05;-0.0022402701044192414
1.13450e-05;-0.0021934147897690465
1.13453e-05;-0.002143418308343076
1.13455e-05;-0.0020905783740596097
1.13458e-05;-0.002035216346355282
1.13460e-05;-0.001977654243520968
1.13462e-05;-0.0019182140703372433
1.13465e-05;-0.0018571974347972213
1.13468e-05;-0.0017948108193507335
1.13470e-05;-0.0017312086474334512
1.13473e-05;-0.0016666567576606743
1.13475e-05;-0.0016015249671120142
1.13477e-05;-0.0015361969599769377
1.13480e-05;-0.0014710569068165868
1.13483e-05;-0.0014064890878535733
1.13485e-05;-0.0013428648501685855
1.13488e-05;-0.0012804961852160175
1.13490e-05;-0.0012196620882646907
1.13493e-05;-0.0011607119005692186
1.13495e-05;-0.0011040593923902547
1.13498e-05;-0.0010501272927578638
1.13500e-05;-0.000999338874272246
1.13503e-05;-0.0009521169295732473
1.13505e-05;-0.0009087728610280264
1.13508e-05;-0.0008690404300838655
1.13510e-05;-0.0008321750460121328
1.13513e-05;-0.0007978260216233
1.13515e-05;-0.0007661169070346319
1.13518e-05;-0.0007372414156765019
1.13520e-05;-0.0007113958271586906
1.13523e-05;-0.0006887763628839416
1.13525e-05;-0.000669509277707237
1.13528e-05;-0.0006533590246175955
1.13530e-05;-0.0006397903752381077
1.13533e-05;-0.0006285151683545929
1.13535e-05;-0.0006195419169638069
1.13538e-05;-0.0006129233286242483
1.13540e-05;-0.0006098752346768401
1.13543e-05;-0.0006070386589451955
1.13545e-05;-0.0006087508955306965
1.13548e-05;-0.0006107433437637578
1.13550e-05;-0.0006162647101707413
1.13553e-05;-0.0006220034616678803
1.13555e-05;-0.0006306477134361353
1.13558e-05;-0.0006394709470927205
1.13560e-05;-0.0006510607416215779
1.13562e-05;-0.0006628209592247943
1.13565e-05;-0.0006770919828360301
1.13568e-05;-0.0006915176747517061
1.13570e-05;-0.0007075567963248507
1.13573e-05;-0.0007236953068704571
1.13575e-05;-0.0007407982783580157
1.13578e-05;-0.0007579606616591992
1.13580e-05;-0.0007757421038723643
1.13583e-05;-0.0007935616807690914
1.13585e-05;-0.0008115817712339989
1.13588e-05;-0.0008296142135465643
1.13590e-05;-0.000847026801911135
1.13593e-05;-0.0008644012066171959
1.13595e-05;-0.0008804911895043412
1.13598e-05;-0.0008965020506496737
1.13600e-05;-0.0009112526152072715
1.13603e-05;-0.000924928349668616
1.13605e-05;-0.0009375872967448928
1.13608e-05;-0.0009500486726088969
1.13610e-05;-0.0009636801851969501
1.13613e-05;-0.0009791325078150398
1.13615e-05;-0.000997029104981275
1.13618e-05;-0.0010150696381587075
1.13620e-05;-0.0010355911223706353
1.13623e-05;-0.0010562654357892025
1.13625e-05;-0.0010784246571795269
1.13628e-05;-0.0011030619937838818
1.13630e-05;-0.001127846350139549
1.13633e-05;-0.0011570196343259926
1.13635e-05;-0.001186463281107139
1.13638e-05;-0.0012196497929973951
1.13640e-05;-0.001253066869335251
1.13643e-05;-0.001289971704740624
1.13645e-05;-0.001327091389791966
1.13647e-05;-0.0013642110748430562
1.13650e-05;-0.0014059677755180336
1.13653e-05;-0.0014480101212579347
1.13655e-05;-0.0014900524669978358
1.13658e-05;-0.0015353429461195016
1.13660e-05;-0.0015808335136919165
1.13663e-05;-0.0016279341114572839
1.13665e-05;-0.001675133888784442
1.13668e-05;-0.00172233366611192
1.13670e-05;-0.0017706951281450864
1.13673e-05;-0.0018191281511840097
1.13675e-05;-0.0018678582435457409
1.13678e-05;-0.0019166066356918216
1.13680e-05;-0.0019645313156870406
1.13683e-05;-0.0020124052541432183
1.13685e-05;-0.002058436024946313
1.13688e-05;-0.0021043532546729127
1.13690e-05;-0.002147911694762893
1.13693e-05;-0.002191324830917306
1.13695e-05;-0.0022315122043582943
1.13698e-05;-0.0022715008674058465
1.13700e-05;-0.0023064066513172527
1.13703e-05;-0.0023409993244995057
1.13705e-05;-0.0023727183560778176
1.13708e-05;-0.002400809186970142
1.13710e-05;-0.0024289000178622762
1.13713e-05;-0.0024518316607816154
1.13715e-05;-0.0024744454922669265
1.13718e-05;-0.0024970593237520844
1.13720e-05;-0.0025123059310790084
1.13723e-05;-0.002527098709608235
1.13725e-05;-0.002541891488137362
1.13728e-05;-0.0025566842666665886
1.13730e-05;-0.0025639828711473828
1.13732e-05;-0.002570819826582922
1.13735e-05;-0.0025776567820185075
1.13738e-05;-0.0025844937374540932
1.13740e-05;-0.0025855862926073216
1.13743e-05;-0.0025863249866294176
1.13745e-05;-0.0025870636806515183
1.13748e-05;-0.0025839222333447496
1.13750e-05;-0.0025805417652295503
1.13753e-05;-0.0025749107420368227
1.13755e-05;-0.0025691410822717385
1.13758e-05;-0.002561301916322307
1.13760e-05;-0.0025533352666037242
1.13763e-05;-0.0025434007656516136
1.13765e-05;-0.0025333450429829148
1.13768e-05;-0.002522017481996717
1.13770e-05;-0.0025100404644101243
1.13773e-05;-0.0024976076095412436
1.13775e-05;-0.002484797052066415
1.13778e-05;-0.0024716744439182274
1.13780e-05;-0.0024583045390364293
1.13783e-05;-0.002444752502980342
1.13785e-05;-0.0024310962489066533
1.13788e-05;-0.00241747939237659
1.13790e-05;-0.002404099553042421
1.13793e-05;-0.002391109619097514
1.13795e-05;-0.002378884117445601
1.13798e-05;-0.0023667042808147797
1.13800e-05;-0.0023554361585977207
1.13803e-05;-0.0023449453240410325
1.13805e-05;-0.0023351184913498716
1.13808e-05;-0.002324944260372993
1.13810e-05;-0.002312783800294511
1.13813e-05;-0.0022978572275775743
1.13815e-05;-0.0022802624108076708
1.13817e-05;-0.0022602222455113067
1.13820e-05;-0.002237964426547356
1.13823e-05;-0.002213716662285431
1.13825e-05;-0.0021875891054238634
1.13828e-05;-0.0021591192594189006
1.13830e-05;-0.0021274518673150655
1.13833e-05;-0.00209226910928735
1.13835e-05;-0.002053803691067062
1.13838e-05;-0.0020123663848444656
1.13840e-05;-0.001968270594176519
1.13843e-05;-0.001921829928430179
1.13845e-05;-0.0018732846478473838
1.13848e-05;-0.0018225160718788578
1.13850e-05;-0.0017679270167462386
1.13853e-05;-0.0017131105923652507
1.13855e-05;-0.001654914387603225
1.13858e-05;-0.001594708597657222
1.13860e-05;-0.0015329367599449953
1.13863e-05;-0.0014699661850728469
1.13865e-05;-0.0014061183254425636
1.13868e-05;-0.001341489638343109
1.13870e-05;-0.0012760227494083118
1.13873e-05;-0.0012098711907537704
1.13875e-05;-0.0011434042316657328
1.13878e-05;-0.0010770218015683476
1.13880e-05;-0.0010111249512457549
1.13883e-05;-0.0009461149508010322
1.13885e-05;-0.0008823637497612036
1.13888e-05;-0.0008201027705638587
1.13890e-05;-0.0007594667235882803
1.13893e-05;-0.0007007226211870979
1.13895e-05;-0.0006442725628527769
1.13898e-05;-0.00059053790641744
1.13900e-05;-0.0005399404963104861
1.13902e-05;-0.0004929023827711545
1.13905e-05;-0.00044978624858162466
1.13908e-05;-0.0004106328848650829
1.13910e-05;-0.0003751741409278689
1.13913e-05;-0.000343286476615518
1.13915e-05;-0.00031507014033088773
1.13918e-05;-0.00029066004308893665
1.13920e-05;-0.0002701923650900994
1.13923e-05;-0.0002538032557417457
1.13925e-05;-0.00024159185246527243
1.13928e-05;-0.0002334554450590375
1.13930e-05;-0.0002290979260138455
1.13933e-05;-0.0002283137962506575
1.13935e-05;-0.00023103770682293646
