Time(s);Current(A)
6.25000e-06;-0.005149288336981991
6.25025e-06;-0.005113158699565153
6.25050e-06;-0.005078898136012657
6.25075e-06;-0.005045271329996961
6.25100e-06;-0.00501431882422951
6.25125e-06;-0.004984192861758545
6.25150e-06;-0.004957554707818106
6.25175e-06;-0.004931976920161541
6.25200e-06;-0.0049108736162820415
6.25225e-06;-0.004891292912505509
6.25250e-06;-0.004878137205036876
6.25275e-06;-0.004864981497568286
6.25300e-06;-0.0048536950655669485
6.25325e-06;-0.004850296514271736
6.25350e-06;-0.004846897962976535
6.25375e-06;-0.004846370248274546
6.25400e-06;-0.004857956754815162
6.25425e-06;-0.004869543261355739
6.25450e-06;-0.004881129767896316
6.25475e-06;-0.004892716274436932
6.25500e-06;-0.004904302780977508
6.25525e-06;-0.004919218164996377
6.25550e-06;-0.004948180589642199
6.25575e-06;-0.004977143014288019
6.25600e-06;-0.005006105438933939
6.25625e-06;-0.0050350678635797605
6.25650e-06;-0.005064030288225582
6.25675e-06;-0.005094865021525359
6.25700e-06;-0.005133600434828338
6.25725e-06;-0.005172335848131315
6.25750e-06;-0.005211852425883284
6.25775e-06;-0.005254665324638357
6.25800e-06;-0.005297478223393431
6.25825e-06;-0.005340694535941082
6.25850e-06;-0.0053856131550373615
6.25875e-06;-0.005430531774133641
6.25900e-06;-0.005475449991778929
6.25925e-06;-0.0055203665153994155
6.25950e-06;-0.005565045067703966
6.25975e-06;-0.005608719439840559
6.26000e-06;-0.005651954847455759
6.26025e-06;-0.005693337933228295
6.26050e-06;-0.005734057152628167
6.26075e-06;-0.0057719750199310615
6.26100e-06;-0.005808996045381893
6.26125e-06;-0.005842232619763483
6.26150e-06;-0.005874261183051814
6.26175e-06;-0.005901192237942061
6.26200e-06;-0.005925963961479844
6.26225e-06;-0.005941623840131144
6.26250e-06;-0.005957283718782499
6.26275e-06;-0.005970202726930154
6.26300e-06;-0.00597155593863107
6.26325e-06;-0.005972909150331991
6.26350e-06;-0.005971465347843513
6.26375e-06;-0.005958218836423853
6.26400e-06;-0.005944972325004239
6.26425e-06;-0.005927916458562384
6.26450e-06;-0.005894786054954188
6.26475e-06;-0.005861655651346104
6.26500e-06;-0.00582852524773802
6.26525e-06;-0.005795394844129825
6.26550e-06;-0.005758247930762424
6.26575e-06;-0.005704152338412656
6.26600e-06;-0.005650056746062705
6.26625e-06;-0.005595961153712937
6.26650e-06;-0.00554186556136317
6.26675e-06;-0.005485305927322294
6.26700e-06;-0.0054183486460407425
6.26725e-06;-0.005351391364759192
6.26750e-06;-0.005283434752635257
6.26775e-06;-0.0052112612112235
6.26800e-06;-0.005138647277908172
6.26825e-06;-0.005063968921298468
6.26850e-06;-0.00498829954870047
6.26875e-06;-0.004912081072675572
6.26900e-06;-0.004835755584208679
6.26925e-06;-0.004759765927183761
6.26950e-06;-0.004684550930973372
6.26975e-06;-0.0046105237419905515
6.27000e-06;-0.0045380603469210926
6.27025e-06;-0.004467549876919446
6.27050e-06;-0.004399449902573919
6.27075e-06;-0.004334252717076321
6.27100e-06;-0.004272451079279789
6.27125e-06;-0.004214538124487996
6.27150e-06;-0.004161333144754451
6.27175e-06;-0.004113369100839016
6.27200e-06;-0.004066621810731095
6.27225e-06;-0.0040250089211132725
6.27250e-06;-0.003984536509585879
6.27275e-06;-0.00394887663386514
6.27300e-06;-0.003914896459461839
6.27325e-06;-0.0038880042096789596
6.27350e-06;-0.0038611119598960793
6.27375e-06;-0.003836070161983333
6.27400e-06;-0.0038188368138422192
6.27425e-06;-0.0038016034657011055
6.27450e-06;-0.0037865939412956187
6.27475e-06;-0.0037809684036989757
6.27500e-06;-0.0037753428661023328
6.27525e-06;-0.0037697173285056707
6.27550e-06;-0.0037640917909090277
6.27575e-06;-0.0037584662533123848
6.27600e-06;-0.003755252351677691
6.27625e-06;-0.003762214958050624
6.27650e-06;-0.0037691775644235798
6.27675e-06;-0.0037761401707965127
6.27700e-06;-0.003783102777169445
6.27725e-06;-0.0037900653835424014
6.27750e-06;-0.0037985625708931844
6.27775e-06;-0.0038135353108791955
6.27800e-06;-0.003828508050865257
6.27825e-06;-0.003843480790851268
6.27850e-06;-0.003858453530837279
6.27875e-06;-0.003873426270823341
6.27900e-06;-0.0038883990108093515
6.27925e-06;-0.0039036064149188185
6.27950e-06;-0.003919804043659627
6.27975e-06;-0.00393600167240038
6.28000e-06;-0.003952199301141134
6.28025e-06;-0.003968396929881942
6.28050e-06;-0.003984594558622695
6.28075e-06;-0.004000792187363504
6.28100e-06;-0.004016296452630771
6.28125e-06;-0.004028874895323528
6.28150e-06;-0.004041453338016327
6.28175e-06;-0.004053975755971845
6.28200e-06;-0.004066261763376172
6.28225e-06;-0.004078547770780541
6.28250e-06;-0.004091346981430777
6.28275e-06;-0.004106311783000556
6.28300e-06;-0.004121276584570387
6.28325e-06;-0.004136981424150243
6.28350e-06;-0.004155809041318675
6.28375e-06;-0.00417463665848717
6.28400e-06;-0.004193464275655602
6.28425e-06;-0.004212291892824033
6.28450e-06;-0.0042311195099925284
6.28475e-06;-0.004249947127160959
6.28500e-06;-0.004273539677890069
6.28525e-06;-0.004299257219465495
6.28550e-06;-0.00432497476104092
6.28575e-06;-0.0043506923026164325
6.28600e-06;-0.004376409844191857
6.28625e-06;-0.004402127385767282
6.28650e-06;-0.0044288411803933385
6.28675e-06;-0.004459758916784572
6.28700e-06;-0.004490676653175805
6.28725e-06;-0.004521594389567144
6.28750e-06;-0.004552512125958376
6.28775e-06;-0.00458342986234961
6.28800e-06;-0.004614347598740949
6.28825e-06;-0.0046452653351321815
6.28850e-06;-0.0046759825466993225
6.28875e-06;-0.004706610331329082
6.28900e-06;-0.004737238115958738
6.28925e-06;-0.0047678659005884975
6.28950e-06;-0.004798493685218153
6.28975e-06;-0.0048291214698478096
6.29000e-06;-0.004859749254477569
6.29025e-06;-0.004889002575618207
6.29050e-06;-0.004912456000374556
6.29075e-06;-0.004935909425130986
6.29100e-06;-0.004959362849887335
6.29125e-06;-0.004982816274643685
6.29150e-06;-0.005006269699400114
6.29175e-06;-0.005029723124156464
6.29200e-06;-0.005046313189623237
6.29225e-06;-0.00505984244102452
6.29250e-06;-0.0050733716924257575
6.29275e-06;-0.005086900943826995
6.29300e-06;-0.005100430195228278
6.29325e-06;-0.005113959446629516
6.29350e-06;-0.0051253454638302415
6.29375e-06;-0.005127687562157519
6.29400e-06;-0.005130029660484796
6.29425e-06;-0.00513237175881208
6.29450e-06;-0.005134713857139358
6.29475e-06;-0.005137055955466634
6.29500e-06;-0.00513939805379392
6.29525e-06;-0.005141740152121196
6.29550e-06;-0.005144082250448473
6.29575e-06;-0.005146424348775758
6.29600e-06;-0.005144865732334464
6.29625e-06;-0.005138000236425643
6.29650e-06;-0.005131134740516799
6.29675e-06;-0.005124269244607978
6.29700e-06;-0.005117403748699157
6.29725e-06;-0.0051105382527903125
6.29750e-06;-0.005103672756881492
6.29775e-06;-0.005096807260972671
6.29800e-06;-0.005089941765063827
6.29825e-06;-0.005083076269155006
6.29850e-06;-0.00507402630252601
6.29875e-06;-0.005063829308008586
6.29900e-06;-0.005053632313491163
6.29925e-06;-0.005043435318973706
6.29950e-06;-0.005033238324456283
6.29975e-06;-0.005023041329938859
6.30000e-06;-0.005013771792556753
6.30025e-06;-0.00500473296537544
6.30050e-06;-0.004995694138194127
6.30075e-06;-0.004986655311012784
6.30100e-06;-0.004977616483831471
6.30125e-06;-0.004968577656650159
6.30150e-06;-0.004959910831709045
6.30175e-06;-0.004951265286370799
6.30200e-06;-0.0049426197410325536
6.30225e-06;-0.004933974195694279
6.30250e-06;-0.0049253286503560334
6.30275e-06;-0.004916683105017758
6.30300e-06;-0.004908037559679513
6.30325e-06;-0.0048990572716935046
6.30350e-06;-0.004884851619171721
6.30375e-06;-0.004870645966649986
6.30400e-06;-0.00485644031412825
6.30425e-06;-0.0048422346616064675
6.30450e-06;-0.004828029009084732
6.30475e-06;-0.004813823356562997
6.30500e-06;-0.004799617704041213
6.30525e-06;-0.00478443195683038
6.30550e-06;-0.004764610245945804
6.30575e-06;-0.004744788535061162
6.30600e-06;-0.004724966824176586
6.30625e-06;-0.00470514511329201
6.30650e-06;-0.004685323402407368
6.30675e-06;-0.004665501691522793
6.30700e-06;-0.0046456799806381495
6.30725e-06;-0.004623849394163488
6.30750e-06;-0.004601049437861645
6.30775e-06;-0.004578249481559725
6.30800e-06;-0.004555449525257882
6.30825e-06;-0.004532649568956039
6.30850e-06;-0.004509849612654118
6.30875e-06;-0.004487049656352275
6.30900e-06;-0.004464313807745629
6.30925e-06;-0.004441881196111219
6.30950e-06;-0.004419448584476885
6.30975e-06;-0.004397300781558563
6.31000e-06;-0.004376500157515744
6.31025e-06;-0.004355699533472994
6.31050e-06;-0.004335231366855743
6.31075e-06;-0.004316335763139306
6.31100e-06;-0.004297706304147579
6.31125e-06;-0.004280547844271153
6.31150e-06;-0.0042648783408784875
6.31175e-06;-0.004251506178521515
6.31200e-06;-0.00423923150761686
6.31225e-06;-0.004232148100944979
6.31250e-06;-0.004226287741023046
6.31275e-06;-0.004226212536725146
6.31300e-06;-0.004227582112270727
6.31325e-06;-0.004235785667169228
6.31350e-06;-0.004243989222067756
6.31375e-06;-0.0042540996463553875
6.31400e-06;-0.004273229788140135
6.31425e-06;-0.004292359929924947
6.31450e-06;-0.004314162701590648
6.31475e-06;-0.004348607328350037
6.31500e-06;-0.004383051955109542
6.31525e-06;-0.0044174965818689306
6.31550e-06;-0.004451941208628436
6.31575e-06;-0.004486385835387824
6.31600e-06;-0.004531602534386741
6.31625e-06;-0.004582017226658766
6.31650e-06;-0.004632431918930621
6.31675e-06;-0.004682846611202477
6.31700e-06;-0.004733261303474502
6.31725e-06;-0.004784989269436725
6.31750e-06;-0.00484292917510999
6.31775e-06;-0.004901290889697512
6.31800e-06;-0.004961647810282548
6.31825e-06;-0.005022271485084018
6.31850e-06;-0.005084156938844852
6.31875e-06;-0.005146055598259755
6.31900e-06;-0.005208016721979567
6.31925e-06;-0.005269732098631644
6.31950e-06;-0.0053302850626186365
6.31975e-06;-0.005390377575915688
6.32000e-06;-0.005448292103048796
6.32025e-06;-0.005505527006263497
6.32050e-06;-0.005559547208051033
6.32075e-06;-0.0056128828693532955
6.32100e-06;-0.005662116842231538
6.32125e-06;-0.005707265265173257
6.32150e-06;-0.0057509880869442975
6.32175e-06;-0.005787967646753267
6.32200e-06;-0.005822687807152672
6.32225e-06;-0.005846720741411053
6.32250e-06;-0.005870753675669435
6.32275e-06;-0.005891930667095457
6.32300e-06;-0.005899598711513554
6.32325e-06;-0.00590726675593165
6.32350e-06;-0.005911996264614912
6.32375e-06;-0.00590282615210439
6.32400e-06;-0.005893656039593836
6.32425e-06;-0.0058806243066331565
6.32450e-06;-0.005849326652719658
6.32475e-06;-0.005818028998806055
6.32500e-06;-0.005786731344892556
6.32525e-06;-0.005755433690979059
6.32550e-06;-0.005720036806939049
6.32575e-06;-0.005665250080106659
6.32600e-06;-0.00561046335327427
6.32625e-06;-0.005555676626441694
6.32650e-06;-0.005500889899609304
6.32675e-06;-0.005443606662119656
6.32700e-06;-0.005374514634276423
6.32725e-06;-0.005305422606433425
6.32750e-06;-0.005235284690771273
6.32775e-06;-0.005160199602160369
6.32800e-06;-0.00508455556899492
6.32825e-06;-0.005006267662049903
6.32850e-06;-0.0049277445725605705
6.32875e-06;-0.004848059388590248
6.32900e-06;-0.0047681697321544534
6.32925e-06;-0.004688534767215118
6.32950e-06;-0.0046096136886718785
6.32975e-06;-0.004531851433924866
6.33000e-06;-0.004455678524263612
6.33025e-06;-0.004381544414477777
6.33050e-06;-0.004309945718820413
6.33075e-06;-0.00424140187149194
6.33100e-06;-0.004176431153504889
6.33125e-06;-0.004115551927137404
6.33150e-06;-0.004059251895618187
6.33175e-06;-0.0040077767610329305
6.33200e-06;-0.003960873338737466
6.33225e-06;-0.003918123184801489
6.33250e-06;-0.0038794675269358185
6.33275e-06;-0.0038454898174072757
6.33300e-06;-0.0038170724881033554
6.33325e-06;-0.0037903208590816186
6.33350e-06;-0.003771448189183645
6.33375e-06;-0.003754519547355357
6.33400e-06;-0.003746786387967226
6.33425e-06;-0.0037390532285791205
6.33450e-06;-0.0037340676281405302
6.33475e-06;-0.003742078306133855
6.33500e-06;-0.0037500889841271525
6.33525e-06;-0.00375809966212045
6.33550e-06;-0.003766110340113775
6.33575e-06;-0.0037770384843907943
6.33600e-06;-0.0038017665888629548
6.33625e-06;-0.003826494693335199
6.33650e-06;-0.003851222797807359
6.33675e-06;-0.003875950902279603
6.33700e-06;-0.003902373648410695
6.33725e-06;-0.003936812249795255
6.33750e-06;-0.003971250851179933
6.33775e-06;-0.004006436581079087
6.33800e-06;-0.004045156317118726
6.33825e-06;-0.004084205666289482
6.33850e-06;-0.004124814124510441
6.33875e-06;-0.0041655813756450956
6.33900e-06;-0.004207099736021594
6.33925e-06;-0.004248610376169293
6.33950e-06;-0.0042900844987233564
6.33975e-06;-0.00433133725387893
6.34000e-06;-0.004371542915086368
6.34025e-06;-0.004411124185870601
6.34050e-06;-0.004447752016187348
6.34075e-06;-0.004484379846503971
6.34100e-06;-0.004519872180171656
6.34125e-06;-0.004549993480541157
6.34150e-06;-0.004580114780910658
6.34175e-06;-0.00460948627100194
6.34200e-06;-0.004635311069893881
6.34225e-06;-0.004661135868785823
6.34250e-06;-0.004686631071784976
6.34275e-06;-0.004710567247272227
6.34300e-06;-0.004734503422759477
6.34325e-06;-0.0047584395982468095
6.34350e-06;-0.00478237577373406
6.34375e-06;-0.004806311949221311
6.34400e-06;-0.004829390699167836
6.34425e-06;-0.00485205570400644
6.34450e-06;-0.004874720708845043
6.34475e-06;-0.004897385713683724
6.34500e-06;-0.004920050718522327
6.34525e-06;-0.00494271787277001
6.34550e-06;-0.004965395193976126
6.34575e-06;-0.004988072515182243
6.34600e-06;-0.005010749836388436
6.34625e-06;-0.005033427157594552
6.34650e-06;-0.005056104478800669
6.34675e-06;-0.005078781800006862
6.34700e-06;-0.005101459121212978
6.34725e-06;-0.005124136442419095
6.34750e-06;-0.005146265425550221
6.34775e-06;-0.005168129811716069
6.34800e-06;-0.0051899941978819164
6.34825e-06;-0.005211858584047838
6.34850e-06;-0.005233722970213686
6.34875e-06;-0.0052555873563795335
6.34900e-06;-0.005277451742545455
6.34925e-06;-0.005299316128711303
6.34950e-06;-0.005320365215110018
6.34975e-06;-0.005337557837291046
6.35000e-06;-0.005354750459472074
6.35025e-06;-0.0053719430816531605
6.35050e-06;-0.005389135703834189
6.35075e-06;-0.005406328326015217
6.35100e-06;-0.005423520948196303
6.35125e-06;-0.005440713570377331
6.35150e-06;-0.0054558394365544546
6.35175e-06;-0.00546118930266903
6.35200e-06;-0.005466539168783586
6.35225e-06;-0.005471889034898143
6.35250e-06;-0.005477238901012718
6.35275e-06;-0.005482588767127275
6.35300e-06;-0.005487938633241832
6.35325e-06;-0.005493288499356407
6.35350e-06;-0.0054957519490167585
6.35375e-06;-0.005484562307851839
6.35400e-06;-0.005473372666686956
6.35425e-06;-0.005462183025522075
6.35450e-06;-0.005450993384357155
6.35475e-06;-0.005439803743192273
6.35500e-06;-0.005428614102027391
6.35525e-06;-0.005415005660980108
6.35550e-06;-0.005389956010736757
6.35575e-06;-0.005364906360493408
6.35600e-06;-0.005339856710249972
6.35625e-06;-0.005314807060006622
6.35650e-06;-0.005289757409763271
6.35675e-06;-0.005264707759519836
6.35700e-06;-0.005238212234132194
6.35725e-06;-0.005204877548499369
6.35750e-06;-0.005171542862866432
6.35775e-06;-0.005138208177233608
6.35800e-06;-0.00510487349160067
6.35825e-06;-0.005071538805967846
6.35850e-06;-0.005038204120335022
6.35875e-06;-0.0050041798727181175
6.35900e-06;-0.004969822881459175
6.35925e-06;-0.004935465890200233
6.35950e-06;-0.0049011088989411745
6.35975e-06;-0.004866751907682232
6.36000e-06;-0.00483239491642329
6.36025e-06;-0.0047987377362831984
6.36050e-06;-0.0047683907454097825
6.36075e-06;-0.004738043754536366
6.36100e-06;-0.004709643407248544
6.36125e-06;-0.004690450914092301
6.36150e-06;-0.004671258420936057
6.36175e-06;-0.004652065927779748
6.36200e-06;-0.004632873434623505
6.36225e-06;-0.004613680941467196
6.36250e-06;-0.0045944884483109525
6.36275e-06;-0.004575295955154708
6.36300e-06;-0.004556103461998399
6.36325e-06;-0.004536910968842156
6.36350e-06;-0.004517718475685912
6.36375e-06;-0.004498525982529603
6.36400e-06;-0.004488025842474168
6.36425e-06;-0.004481720140767447
6.36450e-06;-0.004475414439060704
6.36475e-06;-0.004469108737353983
6.36500e-06;-0.004462803035647262
6.36525e-06;-0.004456497333940519
6.36550e-06;-0.0044501916322337975
6.36575e-06;-0.004443885930527076
6.36600e-06;-0.004437580228820333
6.36625e-06;-0.004431274527113612
6.36650e-06;-0.004424968825406869
6.36675e-06;-0.00441982323949771
6.36700e-06;-0.0044201651383628795
6.36725e-06;-0.004420507037228051
6.36750e-06;-0.004420848936093221
6.36775e-06;-0.004421190834958391
6.36800e-06;-0.0044215327338235615
6.36825e-06;-0.004421874632688731
6.36850e-06;-0.004422216531553902
6.36875e-06;-0.004422558430419073
6.36900e-06;-0.0044232044159986175
6.36925e-06;-0.0044252887676607495
6.36950e-06;-0.004427373119322889
6.36975e-06;-0.004429457470985021
6.37000e-06;-0.004431541822647154
6.37025e-06;-0.004433626174309294
6.37050e-06;-0.004435710525971426
6.37075e-06;-0.004437794877633566
6.37100e-06;-0.004439879229295699
6.37125e-06;-0.004441791586904449
6.37150e-06;-0.0044428903923220695
6.37175e-06;-0.004443989197739687
6.37200e-06;-0.00444413881361954
6.37225e-06;-0.004439798650852694
6.37250e-06;-0.004435458488085863
6.37275e-06;-0.004431118325319032
6.37300e-06;-0.004426778162552185
6.37325e-06;-0.004422437999785355
6.37350e-06;-0.004418097837018523
6.37375e-06;-0.004412192220846564
6.37400e-06;-0.0043988818251332
6.37425e-06;-0.004385571429419837
6.37450e-06;-0.004372261033706428
6.37475e-06;-0.004358950637993065
6.37500e-06;-0.004345640242279656
6.37525e-06;-0.004332329846566293
6.37550e-06;-0.004317660366438217
6.37575e-06;-0.0042965622564729985
6.37600e-06;-0.0042754641465078515
6.37625e-06;-0.004254366036542705
6.37650e-06;-0.004233267926577487
6.37675e-06;-0.004212169816612341
6.37700e-06;-0.004191071706647194
6.37725e-06;-0.00416701645336194
6.37750e-06;-0.0041415342498371
6.37775e-06;-0.004116052046312261
6.37800e-06;-0.004090569842787334
6.37825e-06;-0.004065087639262495
6.37850e-06;-0.004039605435737655
6.37875e-06;-0.004014025032154307
6.37900e-06;-0.003987980130693898
6.37925e-06;-0.0039619352292334
6.37950e-06;-0.003936120295777484
6.37975e-06;-0.003911393138149941
6.38000e-06;-0.0038866659805223145
6.38025e-06;-0.003862263106359503
6.38050e-06;-0.0038393941312938546
6.38075e-06;-0.0038169102737403496
6.38100e-06;-0.0037962480675152524
6.38125e-06;-0.0037762269991925695
6.38150e-06;-0.0037592385888885215
6.38175e-06;-0.0037422501785845316
6.38200e-06;-0.0037261412242242716
6.38225e-06;-0.0037141922003714853
6.38250e-06;-0.0037022431765187398
6.38275e-06;-0.003691224196423914
6.38300e-06;-0.0036846044331737392
6.38325e-06;-0.003677984669923587
6.38350e-06;-0.003672868893693089
6.38375e-06;-0.003674867153737224
6.38400e-06;-0.003676865413781359
6.38425e-06;-0.0036788636738255007
6.38450e-06;-0.003680861933869636
6.38475e-06;-0.003682860193913771
6.38500e-06;-0.003684858453957913
6.38525e-06;-0.003693729356497388
6.38550e-06;-0.003705916607888704
6.38575e-06;-0.003718103859280061
6.38600e-06;-0.003730291110671377
6.38625e-06;-0.003742478362062693
6.38650e-06;-0.00375466561345405
6.38675e-06;-0.0037679562461780665
6.38700e-06;-0.003786466002951777
6.38725e-06;-0.0038049757597255498
6.38750e-06;-0.00382348551649926
6.38775e-06;-0.003841995273273033
6.38800e-06;-0.0038609462776847494
6.38825e-06;-0.0038819844355501548
6.38850e-06;-0.003903022593415631
6.38875e-06;-0.003924060751281036
6.38900e-06;-0.0039450989091464415
6.38925e-06;-0.003966161519820412
6.38950e-06;-0.003987218601121302
6.38975e-06;-0.004007702420268253
6.39000e-06;-0.004028186239415273
6.39025e-06;-0.004048257848658468
6.39050e-06;-0.004066379656361426
6.39075e-06;-0.0040845014640644465
6.39100e-06;-0.004102623271767405
6.39125e-06;-0.004118286513832899
6.39150e-06;-0.00413276339107101
6.39175e-06;-0.004147240268309072
6.39200e-06;-0.004161792598689354
6.39225e-06;-0.0041767018313455155
6.39250e-06;-0.004191611064001677
6.39275e-06;-0.00420688102366534
6.39300e-06;-0.004223857264687688
6.39325e-06;-0.004240833505710036
6.39350e-06;-0.004257809746732442
6.39375e-06;-0.004274785987754791
6.39400e-06;-0.004292467792665253
6.39425e-06;-0.004313486998116336
6.39450e-06;-0.004334506203567347
6.39475e-06;-0.004355525409018359
6.39500e-06;-0.004376544614469442
6.39525e-06;-0.004398417368402398
6.39550e-06;-0.004424327507486266
6.39575e-06;-0.004450237646570222
6.39600e-06;-0.00447614778565409
6.39625e-06;-0.004502057924738046
