Time(s);Current(A)
2.75000e-06;0.005828309768306083
2.75025e-06;0.005782334356788408
2.75050e-06;0.005736358945270656
2.75075e-06;0.005705991221795109
2.75100e-06;0.005691625825078751
2.75125e-06;0.005677260428362369
2.75150e-06;0.005662895031645986
2.75175e-06;0.005648529634929604
2.75200e-06;0.005634164238213246
2.75225e-06;0.005619798841496863
2.75250e-06;0.0056054334447804815
2.75275e-06;0.005591068048064123
2.75300e-06;0.005576702651347741
2.75325e-06;0.005562337254631358
2.75350e-06;0.005566666902947561
2.75375e-06;0.00559016429850365
2.75400e-06;0.005613661694059738
2.75425e-06;0.005637159089615827
2.75450e-06;0.005660656485171876
2.75475e-06;0.0056841538807279645
2.75500e-06;0.005707651276284053
2.75525e-06;0.005731148671840102
2.75550e-06;0.005754646067396191
2.75575e-06;0.005778143462952279
2.75600e-06;0.005801640858508368
2.75625e-06;0.0058347595589782735
2.75650e-06;0.005877742838024358
2.75675e-06;0.005920726117070443
2.75700e-06;0.005963709396116456
2.75725e-06;0.006006692675162541
2.75750e-06;0.006049675954208626
2.75775e-06;0.006092659233254638
2.75800e-06;0.006135642512300724
2.75825e-06;0.0061786257913468085
2.75850e-06;0.006219432355816605
2.75875e-06;0.00625800716771554
2.75900e-06;0.0062965819796145395
2.75925e-06;0.006335156791513539
2.75950e-06;0.006373731603412473
2.75975e-06;0.006412306415311473
2.76000e-06;0.006450881227210473
2.76025e-06;0.006489456039109473
2.76050e-06;0.006528030851008407
2.76075e-06;0.006551582187516897
2.76100e-06;0.006559730181671279
2.76125e-06;0.006567878175825647
2.76150e-06;0.006576026169980029
2.76175e-06;0.00658417416413441
2.76200e-06;0.006592322158288778
2.76225e-06;0.006600470152443159
2.76250e-06;0.0066086181465975415
2.76275e-06;0.006616766140751923
2.76300e-06;0.006624914134906291
2.76325e-06;0.006592339344477528
2.76350e-06;0.006559508753212996
2.76375e-06;0.006526678161948518
2.76400e-06;0.006493847570683986
2.76425e-06;0.006461016979419453
2.76450e-06;0.00642818638815492
2.76475e-06;0.006395355796890443
2.76500e-06;0.00636252520562591
2.76525e-06;0.006329694614361377
2.76550e-06;0.0062834319084464725
2.76575e-06;0.006223397458302897
2.76600e-06;0.006163363008159321
2.76625e-06;0.006103328558015847
2.76650e-06;0.006043294107872271
2.76675e-06;0.005983259657728696
2.76700e-06;0.00592322520758512
2.76725e-06;0.005863190757441647
2.76750e-06;0.005800712964091095
2.76775e-06;0.0057357300478626215
2.76800e-06;0.0056707471316342585
2.76825e-06;0.005605764215405785
2.76850e-06;0.005540781299177312
2.76875e-06;0.005475798382948949
2.76900e-06;0.005410815466720476
2.76925e-06;0.005345832550492003
2.76950e-06;0.005290946324723136
2.76975e-06;0.0052464120831495166
2.77000e-06;0.005201877841575822
2.77025e-06;0.005157343600002126
2.77050e-06;0.005112809358428507
2.77075e-06;0.005068275116854812
2.77100e-06;0.005023740875281117
2.77125e-06;0.004979206633707422
2.77150e-06;0.004934672392133803
2.77175e-06;0.004908428847804213
2.77200e-06;0.004900938479037296
2.77225e-06;0.004893448110270389
2.77250e-06;0.004885957741503471
2.77275e-06;0.004878467372736553
2.77300e-06;0.004870977003969646
2.77325e-06;0.004863486635202728
2.77350e-06;0.00485599626643581
2.77375e-06;0.004848505897668891
2.77400e-06;0.004857677317901124
2.77425e-06;0.0048839318186809704
2.77450e-06;0.004910186319460816
2.77475e-06;0.004936440820240617
2.77500e-06;0.004962695321020462
2.77525e-06;0.004988949821800308
2.77550e-06;0.005015204322580154
2.77575e-06;0.005041458823359955
2.77600e-06;0.005067713324139801
2.77625e-06;0.0051029435663861675
2.77650e-06;0.00514737650075971
2.77675e-06;0.005191809435133327
2.77700e-06;0.0052362423695069445
2.77725e-06;0.005280675303880486
2.77750e-06;0.005325108238254103
2.77775e-06;0.0053695411726277205
2.77800e-06;0.005413974107001338
2.77825e-06;0.005458407041374879
2.77850e-06;0.005500510133236951
2.77875e-06;0.005540224472769298
2.77900e-06;0.005579938812301577
2.77925e-06;0.005619653151833924
2.77950e-06;0.005659367491366271
2.77975e-06;0.005699081830898617
2.78000e-06;0.005738796170430897
2.78025e-06;0.005778510509963244
2.78050e-06;0.0058182248494955905
2.78075e-06;0.00585793918902787
2.78100e-06;0.005875727051881717
2.78125e-06;0.005893377183213965
2.78150e-06;0.0059110273145461835
2.78175e-06;0.0059286774458784325
2.78200e-06;0.005946327577210681
2.78225e-06;0.005963977708542929
2.78250e-06;0.0059816278398751475
2.78275e-06;0.0059992779712073965
2.78300e-06;0.006016928102539645
2.78325e-06;0.006023221731510956
2.78350e-06;0.0060178717101759685
2.78375e-06;0.0060125216888409815
2.78400e-06;0.006007171667505994
2.78425e-06;0.006001821646171015
2.78450e-06;0.005996471624836028
2.78475e-06;0.00599112160350104
2.78500e-06;0.005985771582166062
2.78525e-06;0.005980421560831075
2.78550e-06;0.005975071539496088
2.78575e-06;0.005969721518161109
2.78600e-06;0.0059643714968261215
2.78625e-06;0.005952611965139483
2.78650e-06;0.005934280859318643
2.78675e-06;0.005915949753497835
2.78700e-06;0.005897618647676995
2.78725e-06;0.005879287541856155
2.78750e-06;0.0058609564360353455
2.78775e-06;0.005842625330214506
2.78800e-06;0.005824294224393666
2.78825e-06;0.005805963118572827
2.78850e-06;0.005787632012752017
2.78875e-06;0.0057693009069311775
2.78900e-06;0.005750969801110338
2.78925e-06;0.005734500728312794
2.78950e-06;0.00571994076984401
2.78975e-06;0.005705380811375227
2.79000e-06;0.005690820852906469
2.79025e-06;0.005676260894437685
2.79050e-06;0.005661700935968903
2.79075e-06;0.005647140977500119
2.79100e-06;0.00563258101903136
2.79125e-06;0.0056180210605625775
2.79150e-06;0.005603461102093794
2.79175e-06;0.005588901143625036
2.79200e-06;0.005574341185156252
2.79225e-06;0.005559781226687469
2.79250e-06;0.0055452212682186855
2.79275e-06;0.005530661309749927
2.79300e-06;0.005516101351281144
2.79325e-06;0.00550154139281236
2.79350e-06;0.0054868421592657495
2.79375e-06;0.005472142050860433
2.79400e-06;0.005457441942455117
2.79425e-06;0.005442741834049826
2.79450e-06;0.0054280417256445095
2.79475e-06;0.005413341617239193
2.79500e-06;0.005398641508833877
2.79525e-06;0.005383941400428585
2.79550e-06;0.005369241292023269
2.79575e-06;0.005354541183617952
2.79600e-06;0.005339841075212661
2.79625e-06;0.005325140966807345
2.79650e-06;0.005310440858402029
2.79675e-06;0.0052957407499967125
2.79700e-06;0.005281040641591421
2.79725e-06;0.005266340533186105
2.79750e-06;0.005253157989104561
2.79775e-06;0.005241531380798265
2.79800e-06;0.00522990477249195
2.79825e-06;0.0052182781641856345
2.79850e-06;0.005206651555879339
2.79875e-06;0.005195024947573024
2.79900e-06;0.005183398339266708
2.79925e-06;0.005171771730960393
2.79950e-06;0.0051601451226540975
2.79975e-06;0.005148518514347782
2.80000e-06;0.005136891906041467
2.80025e-06;0.005125265297735171
2.80050e-06;0.005113638689428855
2.80075e-06;0.00510201208112254
2.80100e-06;0.005090385472816225
2.80125e-06;0.005078758864509929
2.80150e-06;0.005067132256203613
2.80175e-06;0.005055505647897298
2.80200e-06;0.005043879039591003
2.80225e-06;0.005032252431284687
2.80250e-06;0.005020625822978372
2.80275e-06;0.005015131840299815
2.80300e-06;0.005009676379809565
2.80325e-06;0.005004220919319315
2.80350e-06;0.0049987654588290655
2.80375e-06;0.004993309998338825
2.80400e-06;0.0049878545378485755
2.80425e-06;0.004982399077358326
2.80450e-06;0.004976943616868085
2.80475e-06;0.004971488156377836
2.80500e-06;0.004966032695887586
2.80525e-06;0.004960577235397336
2.80550e-06;0.004955121774907096
2.80575e-06;0.004949666314416846
2.80600e-06;0.004944210853926596
2.80625e-06;0.004938755393436355
2.80650e-06;0.004933299932946105
2.80675e-06;0.0049278444724558555
2.80700e-06;0.004922389011965615
2.80725e-06;0.0049169335514753654
2.80750e-06;0.004911478090985116
2.80775e-06;0.004906631586599006
2.80800e-06;0.004902751639027786
2.80825e-06;0.004899222547351709
2.80850e-06;0.004895693455675633
2.80875e-06;0.004892164363999562
2.80900e-06;0.004888635272323486
2.80925e-06;0.00488510618064741
2.80950e-06;0.0048815770889713336
2.80975e-06;0.004878047997295264
2.81000e-06;0.004874518905619188
2.81025e-06;0.004870989813943111
2.81050e-06;0.004867460722267041
2.81075e-06;0.004863931630590965
2.81100e-06;0.004857120950854906
2.81125e-06;0.004846945708455747
2.81150e-06;0.004836770466056572
2.81175e-06;0.004826595223657395
2.81200e-06;0.004816419981258219
2.81225e-06;0.00480624473885906
2.81250e-06;0.0047960694964598845
2.81275e-06;0.004785894254060709
2.81300e-06;0.00477571901166155
2.81325e-06;0.004765543769262374
2.81350e-06;0.004755368526863198
2.81375e-06;0.004745193284464022
2.81400e-06;0.004728652178923568
2.81425e-06;0.004705584250072917
2.81450e-06;0.004682516321222266
2.81475e-06;0.004659448392371654
2.81500e-06;0.0046363804635210035
2.81525e-06;0.004613312534670353
2.81550e-06;0.004590244605819741
2.81575e-06;0.00456717667696909
2.81600e-06;0.004544108748118439
2.81625e-06;0.004521040819267789
2.81650e-06;0.004497972890417177
2.81675e-06;0.004472885582251216
2.81700e-06;0.00444572783497983
2.81725e-06;0.00441857008770849
2.81750e-06;0.004391412340437104
2.81775e-06;0.004364254593165718
2.81800e-06;0.0043370968458943315
2.81825e-06;0.004309939098622992
2.81850e-06;0.004282781351351606
2.81875e-06;0.00425562360408022
2.81900e-06;0.00422846585680888
2.81925e-06;0.004201308109537494
2.81950e-06;0.004179488994797247
2.81975e-06;0.004163143499341126
2.82000e-06;0.004146798003884978
2.82025e-06;0.004130452508428831
2.82050e-06;0.004114107012972683
2.82075e-06;0.004097761517516563
2.82100e-06;0.004081416022060415
2.82125e-06;0.004065070526604268
2.82150e-06;0.004048725031148147
2.82175e-06;0.0040323795356919994
2.82200e-06;0.004044246281603632
2.82225e-06;0.004056290243172521
2.82250e-06;0.004068334204741389
2.82275e-06;0.004080378166310276
2.82300e-06;0.004092422127879164
2.82325e-06;0.004104466089448032
2.82350e-06;0.00411651005101692
2.82375e-06;0.004128554012585808
2.82400e-06;0.0041405979741546755
2.82425e-06;0.004166267958744909
2.82450e-06;0.004205908498892435
2.82475e-06;0.00424554903903996
2.82500e-06;0.004285189579187418
2.82525e-06;0.004324830119334943
2.82550e-06;0.004364470659482467
2.82575e-06;0.004404111199629925
2.82600e-06;0.00444375173977745
2.82625e-06;0.004483392279924976
2.82650e-06;0.004536096215926605
2.82675e-06;0.004588882209863704
2.82700e-06;0.0046416682038008935
2.82725e-06;0.004694454197738083
2.82750e-06;0.0047472401916751825
2.82775e-06;0.004800026185612371
2.82800e-06;0.00485281217954956
2.82825e-06;0.00490559817348666
2.82850e-06;0.004954877559810929
2.82875e-06;0.005000561674323399
2.82900e-06;0.0050462457888358694
2.82925e-06;0.005091929903348262
2.82950e-06;0.0051376140178607315
2.82975e-06;0.005183298132373202
2.83000e-06;0.0052289822468855945
2.83025e-06;0.005274666361398064
2.83050e-06;0.005320350475910535
2.83075e-06;0.005355397649187189
2.83100e-06;0.005379538927305043
2.83125e-06;0.005403680205422938
2.83150e-06;0.0054278214835408334
2.83175e-06;0.005451962761658688
2.83200e-06;0.005476104039776583
2.83225e-06;0.005500245317894478
2.83250e-06;0.005524386596012332
2.83275e-06;0.0055485278741302275
2.83300e-06;0.00556191699361961
2.83325e-06;0.005564282087297847
2.83350e-06;0.00556664718097608
2.83375e-06;0.005569012274654317
2.83400e-06;0.0055713773683325534
2.83425e-06;0.005573742462010786
2.83450e-06;0.005576107555689022
2.83475e-06;0.005578472649367259
2.83500e-06;0.005580837743045496
2.83525e-06;0.005583202836723728
2.83550e-06;0.005585567930401965
2.83575e-06;0.005587933024080201
2.83600e-06;0.005590298117758434
2.83625e-06;0.005586329021779155
2.83650e-06;0.005575865576833249
2.83675e-06;0.00556540213188736
2.83700e-06;0.005554938686941453
2.83725e-06;0.005544475241995546
2.83750e-06;0.00553401179704964
2.83775e-06;0.005523548352103751
2.83800e-06;0.005513084907157844
2.83825e-06;0.005502621462211937
2.83850e-06;0.005492158017266048
2.83875e-06;0.005481694572320142
2.83900e-06;0.005471231127374235
2.83925e-06;0.005460767682428328
2.83950e-06;0.0054498985440955385
2.83975e-06;0.005438613454461857
2.84000e-06;0.005427328364828176
2.84025e-06;0.005416043275194513
2.84050e-06;0.005404758185560831
2.84075e-06;0.00539347309592715
2.84100e-06;0.005382188006293488
2.84125e-06;0.005370902916659806
2.84150e-06;0.005359617827026124
2.84175e-06;0.005348332737392443
2.84200e-06;0.005337047647758781
2.84225e-06;0.0053194201925044395
2.84250e-06;0.005295290005591751
2.84275e-06;0.005271159818679104
2.84300e-06;0.0052470296317664155
2.84325e-06;0.005222899444853727
2.84350e-06;0.005198769257941039
2.84375e-06;0.0051746390710283915
2.84400e-06;0.005150508884115703
2.84425e-06;0.005126378697203014
2.84450e-06;0.0051022485102903675
2.84475e-06;0.005078118323377678
2.84500e-06;0.005047217357926809
2.84525e-06;0.005009374415525107
2.84550e-06;0.00497153147312334
2.84575e-06;0.004933688530721573
2.84600e-06;0.004895845588319806
2.84625e-06;0.004858002645918104
2.84650e-06;0.004820159703516337
2.84675e-06;0.004782316761114571
2.84700e-06;0.004744473818712867
2.84725e-06;0.004706630876311101
2.84750e-06;0.004668729004428187
2.84775e-06;0.004630766713038547
2.84800e-06;0.004592804421648843
2.84825e-06;0.00455484213025914
2.84850e-06;0.004516879838869436
2.84875e-06;0.0044789175474797965
2.84900e-06;0.004440955256090093
2.84925e-06;0.0044029929647003896
2.84950e-06;0.00436503067331075
2.84975e-06;0.004327068381921046
2.85000e-06;0.0042982557898849595
2.85025e-06;0.004278824246374513
2.85050e-06;0.0042593927028641
2.85075e-06;0.004239961159353655
2.85100e-06;0.004220529615843209
2.85125e-06;0.0042010980723327955
2.85150e-06;0.004181666528822349
2.85175e-06;0.004162234985311903
2.85200e-06;0.00414280344180149
2.85225e-06;0.004153052582097659
2.85250e-06;0.004166378688058463
2.85275e-06;0.004179704794019266
2.85300e-06;0.0041930308999800475
2.85325e-06;0.00420635700594085
2.85350e-06;0.004219683111901654
2.85375e-06;0.004233009217862435
2.85400e-06;0.004246335323823239
2.85425e-06;0.004269415626720401
2.85450e-06;0.004313378708855119
2.85475e-06;0.004357341790989763
2.85500e-06;0.004401304873124482
2.85525e-06;0.004445267955259201
2.85550e-06;0.004489231037393845
2.85575e-06;0.004533194119528563
2.85600e-06;0.0045771572016632825
2.85625e-06;0.0046334471031994106
2.85650e-06;0.0046924726515979115
2.85675e-06;0.004751498199996413
2.85700e-06;0.004810523748394914
2.85725e-06;0.0048695492967933155
2.85750e-06;0.004928574845191817
2.85775e-06;0.004987600393590318
2.85800e-06;0.0050462984319790995
2.85825e-06;0.005104295303549852
2.85850e-06;0.005162292175120604
2.85875e-06;0.005220289046691358
2.85900e-06;0.005278285918262012
2.85925e-06;0.005336282789832765
2.85950e-06;0.005394279661403517
2.85975e-06;0.0054522765329741716
2.86000e-06;0.005495280494681142
2.86025e-06;0.005534957133622107
2.86050e-06;0.0055746337725630065
2.86075e-06;0.0056143104115039715
2.86100e-06;0.005653987050444937
2.86125e-06;0.005693663689385903
2.86150e-06;0.0057333403283268015
2.86175e-06;0.005765758310394628
2.86200e-06;0.005782636219810388
2.86225e-06;0.005799514129226119
2.86250e-06;0.005816392038641879
2.86275e-06;0.005833269948057639
2.86300e-06;0.005850147857473398
2.86325e-06;0.005867025766889129
2.86350e-06;0.005883903676304889
2.86375e-06;0.005900781585720649
2.86400e-06;0.005917659495136379
2.86425e-06;0.005934537404552139
2.86450e-06;0.005951415313967899
2.86475e-06;0.0059682932233836306
2.86500e-06;0.00598517113279939
2.86525e-06;0.0060020490422151495
2.86550e-06;0.006005533869505336
2.86575e-06;0.006006046418067089
2.86600e-06;0.006006558966628843
2.86625e-06;0.006007071515190597
2.86650e-06;0.0060075840637523505
2.86675e-06;0.006008096612314104
2.86700e-06;0.0060086091608758585
2.86725e-06;0.006009121709437612
2.86750e-06;0.006009634257999366
2.86775e-06;0.006010146806561119
2.86800e-06;0.006010659355122874
2.86825e-06;0.006011171903684626
2.86850e-06;0.006011684452246381
2.86875e-06;0.006012197000808134
2.86900e-06;0.006011319580473817
2.86925e-06;0.006007466373019731
2.86950e-06;0.006003613165565646
2.86975e-06;0.00599975995811156
2.87000e-06;0.005995906750657482
2.87025e-06;0.005992053543203396
2.87050e-06;0.005988200335749311
2.87075e-06;0.005984347128295232
2.87100e-06;0.005980493920841146
2.87125e-06;0.005976640713387061
2.87150e-06;0.005967893284157284
2.87175e-06;0.005948667805985014
2.87200e-06;0.005929442327812712
2.87225e-06;0.0059102168496404095
2.87250e-06;0.00589099137146814
2.87275e-06;0.005871765893295838
2.87300e-06;0.005852540415123535
2.87325e-06;0.005833314936951266
2.87350e-06;0.005814089458778963
2.87375e-06;0.005794863980606661
2.87400e-06;0.005768693483470005
2.87425e-06;0.005727654381690614
2.87450e-06;0.005686615279911152
2.87475e-06;0.005645576178131691
2.87500e-06;0.0056045370763523
2.87525e-06;0.005563497974572839
2.87550e-06;0.005522458872793378
2.87575e-06;0.005481419771013917
2.87600e-06;0.005440380669234526
2.87625e-06;0.005399341567455065
2.87650e-06;0.005355435601627533
2.87675e-06;0.005305391960969358
2.87700e-06;0.005255348320311099
2.87725e-06;0.005205304679652839
2.87750e-06;0.005155261038994665
2.87775e-06;0.005105217398336405
2.87800e-06;0.0050551737576781455
2.87825e-06;0.005005130117019887
2.87850e-06;0.004955086476361712
2.87875e-06;0.004905042835703453
2.87900e-06;0.004859303338391226
2.87925e-06;0.00482277858996162
2.87950e-06;0.004786253841531952
2.87975e-06;0.004749729093102283
2.88000e-06;0.004713204344672615
2.88025e-06;0.0046766795962430085
2.88050e-06;0.00464015484781334
2.88075e-06;0.0046036300993836715
2.88100e-06;0.0045671053509540645
2.88125e-06;0.004530580602524397
2.88150e-06;0.00450432238259606
2.88175e-06;0.004500043793556024
2.88200e-06;0.004495765204515982
2.88225e-06;0.00449148661547594
2.88250e-06;0.004487208026435897
2.88275e-06;0.004482929437395862
2.88300e-06;0.0044786508483558194
2.88325e-06;0.004474372259315777
2.88350e-06;0.004470093670275742
2.88375e-06;0.004465815081235699
2.88400e-06;0.004471234398983961
2.88425e-06;0.004497415984286441
2.88450e-06;0.004523597569588878
2.88475e-06;0.004549779154891358
2.88500e-06;0.004575960740193839
2.88525e-06;0.004602142325496275
2.88550e-06;0.004628323910798756
2.88575e-06;0.004654505496101237
2.88600e-06;0.004680687081403673
2.88625e-06;0.004706868666706154
2.88650e-06;0.004744970679346984
2.88675e-06;0.004785718149716445
2.88700e-06;0.004826465620085837
2.88725e-06;0.004867213090455298
2.88750e-06;0.004907960560824759
2.88775e-06;0.004948708031194151
2.88800e-06;0.004989455501563611
2.88825e-06;0.005030202971933072
2.88850e-06;0.005070950442302533
2.88875e-06;0.005108881662421698
2.88900e-06;0.005140783566888185
2.88925e-06;0.005172685471354672
2.88950e-06;0.005204587375821105
2.88975e-06;0.005236489280287592
2.89000e-06;0.005268391184754079
2.89025e-06;0.005300293089220512
2.89050e-06;0.005332194993687
2.89075e-06;0.005364096898153487
2.89100e-06;0.005395998802619974
2.89125e-06;0.005427900707086407
2.89150e-06;0.005452019864006988
2.89175e-06;0.0054594769215290904
2.89200e-06;0.0054669339790511815
2.89225e-06;0.005474391036573284
2.89250e-06;0.005481848094095387
2.89275e-06;0.00548930515161749
2.89300e-06;0.00549676220913958
2.89325e-06;0.0055042192666616835
2.89350e-06;0.005511676324183787
2.89375e-06;0.005519133381705877
2.89400e-06;0.00552659043922798
2.89425e-06;0.005527532470625166
2.89450e-06;0.0055145264698861106
2.89475e-06;0.005501520469147032
2.89500e-06;0.005488514468407955
2.89525e-06;0.005475508467668877
2.89550e-06;0.005462502466929821
2.89575e-06;0.005449496466190743
2.89600e-06;0.0054364904654516655
2.89625e-06;0.00542348446471261
2.89650e-06;0.005410478463973532
2.89675e-06;0.005397472463234454
2.89700e-06;0.005384466462495376
2.89725e-06;0.005365877889558258
2.89750e-06;0.005346050396375265
2.89775e-06;0.005326222903192273
2.89800e-06;0.005306395410009314
2.89825e-06;0.005286567916826322
2.89850e-06;0.005266740423643329
2.89875e-06;0.0052469129304603705
2.89900e-06;0.005227085437277379
2.89925e-06;0.005207257944094386
2.89950e-06;0.005187430450911394
2.89975e-06;0.005167602957728435
2.90000e-06;0.005149034394166374
2.90025e-06;0.005133161075485024
2.90050e-06;0.005117287756803701
2.90075e-06;0.005101414438122351
