Time(s)	Current(A)
1.37500e-05	0.0013232644302573376
1.37503e-05	0.0013036377505741355
1.37505e-05	0.0012801308269103453
1.37508e-05	0.001249003109956739
1.37510e-05	0.0012178753930029219
1.37513e-05	0.0011867476760491047
1.37515e-05	0.0011556199590954984
1.37518e-05	0.0011244922421416812
1.37520e-05	0.0010933645251878642
1.37523e-05	0.001062236808234258
1.37525e-05	0.0010311090912804408
1.37528e-05	0.0009999813743266236
1.37530e-05	0.0009649476596207602
1.37533e-05	0.0009291554080375715
1.37535e-05	0.0008933631564543826
1.37538e-05	0.0008575709048714365
1.37540e-05	0.0008217786532882476
1.37543e-05	0.0007868334508451578
1.37545e-05	0.0007520527436350911
1.37548e-05	0.0007172720364247888
1.37550e-05	0.0006824913292144864
1.37553e-05	0.0006477106220044198
1.37555e-05	0.0006159761793558862
1.37558e-05	0.0005848333151348001
1.37560e-05	0.000553690450913925
1.37563e-05	0.0005256853969532126
1.37565e-05	0.0004982896994098151
1.37568e-05	0.00047411434054583245
1.37570e-05	0.0004505643649513268
1.37573e-05	0.00042839346043911544
1.37575e-05	0.00040649036874674973
1.37578e-05	0.0003841831607575139
1.37580e-05	0.00036179747419915305
1.37583e-05	0.0003394117876407922
1.37585e-05	0.00031759463650883493
1.37588e-05	0.0002958878938086456
1.37590e-05	0.00027418115110845623
1.37593e-05	0.0002523708315464485
1.37595e-05	0.00023054039756681803
1.37598e-05	0.00020748739105059993
1.37600e-05	0.00018419696341626525
1.37603e-05	0.00016020047668478623
1.37605e-05	0.00013606687470217406
1.37608e-05	0.00011177175678900608
1.37610e-05	8.744527280802072e-05
1.37613e-05	6.281517458083658e-05
1.37615e-05	3.7597123675117415e-05
1.37618e-05	1.1768302244815855e-05
1.37620e-05	-1.4522208483155569e-05
1.37623e-05	-4.110126422311841e-05
1.37625e-05	-6.775989506026977e-05
1.37628e-05	-9.44257558473038e-05
1.37630e-05	-0.00012094431408909731
1.37633e-05	-0.00014743426647421243
1.37635e-05	-0.00017392421885932758
1.37638e-05	-0.00020032677674379493
1.37640e-05	-0.0002267123627928922
1.37643e-05	-0.0002530979488419895
1.37645e-05	-0.00027831868513028405
1.37648e-05	-0.000303313209946956
1.37650e-05	-0.00032830773476362805
1.37653e-05	-0.00035182525759043656
1.37655e-05	-0.00037505594961291663
1.37658e-05	-0.00039692601942016695
1.37660e-05	-0.0004185318591401628
1.37663e-05	-0.00043825805908227896
1.37665e-05	-0.0004576192367744688
1.37668e-05	-0.00047460733451855776
1.37670e-05	-0.000491134584927572
1.37673e-05	-0.0005055032691624865
1.37675e-05	-0.0005194527642042294
1.37678e-05	-0.0005316051153923448
1.37680e-05	-0.0005434084648723777
1.37683e-05	-0.0005526693801422932
1.37685e-05	-0.0005614365598213593
1.37688e-05	-0.0005702037395004849
1.37690e-05	-0.0005758230599331144
1.37693e-05	-0.0005808310724550925
1.37695e-05	-0.0005858390849771045
1.37698e-05	-0.0005883302528667034
1.37700e-05	-0.0005903326546097784
1.37703e-05	-0.0005923350563528672
1.37705e-05	-0.0005918305730896319
1.37708e-05	-0.0005908392578191727
1.37710e-05	-0.0005898479425487068
1.37713e-05	-0.0005867167699286321
1.37715e-05	-0.000583170041331315
1.37718e-05	-0.000579623312733974
1.37720e-05	-0.0005736713900497758
1.37723e-05	-0.0005672523835296534
1.37725e-05	-0.0005608333770094876
1.37728e-05	-0.0005544143704893218
1.37730e-05	-0.0005479953639691994
1.37733e-05	-0.0005415763574490336
1.37735e-05	-0.000534483717608773
1.37738e-05	-0.0005260680629489856
1.37740e-05	-0.0005176524082891413
1.37743e-05	-0.0005092367536292969
1.37745e-05	-0.0005008210989694525
1.37748e-05	-0.0004924054443096651
1.37750e-05	-0.0004839897896498208
1.37753e-05	-0.0004759565283913087
1.37755e-05	-0.00046799752715941323
1.37758e-05	-0.00046003852592746387
1.37760e-05	-0.00045207952469551445
1.37763e-05	-0.000444120523463619
1.37765e-05	-0.00043835952560057623
1.37768e-05	-0.0004330253755544661
1.37770e-05	-0.0004276912255083921
1.37773e-05	-0.0004223570754622819
1.37775e-05	-0.00041702292541617177
1.37778e-05	-0.0004148528779054417
1.37780e-05	-0.00041329729271943926
1.37783e-05	-0.00041378618074768274
1.37785e-05	-0.0004146721013467827
1.37788e-05	-0.00041754383409973143
1.37790e-05	-0.00042080120756403627
1.37793e-05	-0.00042626973987720844
1.37795e-05	-0.0004321676747750112
1.37798e-05	-0.000440389045840066
1.37800e-05	-0.0004490616235182332
1.37803e-05	-0.0004598247112794395
1.37805e-05	-0.00047099377187849836
1.37808e-05	-0.0004844591355687033
1.37810e-05	-0.0004983704366836102
1.37813e-05	-0.000512281737798517
1.37815e-05	-0.0005287864573103251
1.37818e-05	-0.0005457948134394547
1.37820e-05	-0.0005628031695685845
1.37823e-05	-0.0005824005166914549
1.37825e-05	-0.0006025006406389412
1.37828e-05	-0.0006226007645864274
1.37830e-05	-0.0006427008885339137
1.37833e-05	-0.0006628010124812638
1.37835e-05	-0.0006829011364287501
1.37838e-05	-0.0007040388405753145
1.37840e-05	-0.000725378040701798
1.37843e-05	-0.000746717240828426
1.37845e-05	-0.0007680564409550541
1.37848e-05	-0.0007893956410815376
1.37850e-05	-0.0008107348412081656
1.37853e-05	-0.0008292300771818742
1.37855e-05	-0.0008471730210581132
1.37858e-05	-0.0008651159649344736
1.37860e-05	-0.000883058908810834
1.37863e-05	-0.000901001852687073
1.37865e-05	-0.0009189447965634335
1.37868e-05	-0.000936887740439794
1.37870e-05	-0.0009475002625664302
1.37873e-05	-0.000956689231587295
1.37875e-05	-0.0009658782006081597
1.37878e-05	-0.0009750671696289623
1.37880e-05	-0.000984256138649827
1.37883e-05	-0.0009934451076706917
1.37885e-05	-0.0010026340766914944
1.37888e-05	-0.0010053292743339563
1.37890e-05	-0.0010067633946835455
1.37893e-05	-0.001008197515033125
1.37895e-05	-0.0010057810782105573
1.37898e-05	-0.0010026168709581797
1.37900e-05	-0.0009994526637058234
1.37903e-05	-0.0009927409123754337
1.37905e-05	-0.0009853402351464664
1.37908e-05	-0.0009779395579175491
1.37910e-05	-0.0009658150209071849
1.37913e-05	-0.0009527731198632105
1.37915e-05	-0.000939731218819236
1.37918e-05	-0.0009266893177753499
1.37920e-05	-0.0009136474167313756
1.37923e-05	-0.0009006055156874012
1.37925e-05	-0.0008859306904233694
1.37928e-05	-0.0008680488044643907
1.37930e-05	-0.0008501669185054119
1.37933e-05	-0.0008322850325465543
1.37935e-05	-0.0008144031465875755
1.37938e-05	-0.0007965212606285967
1.37940e-05	-0.0007786393746697392
1.37943e-05	-0.0007600507514432872
1.37945e-05	-0.0007413248812661374
1.37948e-05	-0.0007225990110891145
1.37950e-05	-0.0007038731409119648
1.37953e-05	-0.0006851472707348151
1.37955e-05	-0.0006684662661452739
1.37958e-05	-0.0006521823703248946
1.37960e-05	-0.0006358984745045154
1.37963e-05	-0.0006196145786842465
1.37965e-05	-0.0006033306828638672
1.37968e-05	-0.0005895360696693635
1.37970e-05	-0.000576224870136011
1.37973e-05	-0.0005629136706025683
1.37975e-05	-0.000546280903271235
1.37978e-05	-0.0005290030941785772
1.37980e-05	-0.0005078051323863968
1.37983e-05	-0.0004858458848531649
1.37985e-05	-0.0004614563098317108
1.37988e-05	-0.0004352461262622396
1.37990e-05	-0.00040732320720952294
1.37993e-05	-0.0003770004536960161
1.37995e-05	-0.00034354256878875027
1.37998e-05	-0.00030682278423944183
1.38000e-05	-0.0002671055543382481
1.38003e-05	-0.0002247088580714214
1.38005e-05	-0.00017995059859137505
1.38008e-05	-0.0001331484675183344
1.38010e-05	-8.442859889968611e-05
1.38013e-05	-3.3525960115009965e-05
1.38015e-05	1.9854627910407063e-05
1.38018e-05	7.562716831747661e-05
1.38020e-05	0.000133460579759982
1.38023e-05	0.00019299032424910156
1.38025e-05	0.000253851881809107
1.38028e-05	0.0003159686596381961
1.38030e-05	0.000378289011937335
1.38033e-05	0.00044214525764990685
1.38035e-05	0.0005062997707636397
1.38038e-05	0.0005704542838773725
1.38040e-05	0.0006344646384123157
1.38043e-05	0.0006981918657180431
1.38045e-05	0.0007619190930237703
1.38048e-05	0.0008256463203290659
1.38050e-05	0.0008859409326754118
1.38053e-05	0.0009455689381253824
1.38055e-05	0.001005196943574949
1.38058e-05	0.0010607420059935882
1.38060e-05	0.0011154941691169276
1.38063e-05	0.0011654824302380971
1.38065e-05	0.001214545551206737
1.38068e-05	0.0012574666861184416
1.38070e-05	0.0012991950597350927
1.38073e-05	0.0013335704509965672
1.38075e-05	0.0013665179079264
1.38078e-05	0.0013915687136451381
1.38080e-05	0.001415086005638041
1.38083e-05	0.001430476486447408
1.38085e-05	0.0014442887569285005
1.38088e-05	0.0014497556081198627
1.38090e-05	0.0014536017957300549
1.38093e-05	0.0014489887513573717
1.38095e-05	0.0014427329412083788
1.38098e-05	0.0014283220982271797
1.38100e-05	0.0014123275643306793
1.38103e-05	0.001388678627225165
1.38105e-05	0.0013635432204665288
1.38108e-05	0.0013312612539454884
1.38110e-05	0.0012975914399439479
1.38113e-05	0.001257348516429485
1.38115e-05	0.0012158291083152304
1.38118e-05	0.0011685716882769898
1.38120e-05	0.0011201999579046802
1.38123e-05	0.0010660539515209174
1.38125e-05	0.0010107865923912073
1.38128e-05	0.0009555192332611228
1.38130e-05	0.0008952751480800928
1.38133e-05	0.0008340645927456217
1.38135e-05	0.0007728540374107359
1.38138e-05	0.0007095934075879875
1.38140e-05	0.0006453242282178087
1.38143e-05	0.0005809365047247293
1.38145e-05	0.00051654878123165
1.38148e-05	0.000453430950684495
1.38150e-05	0.00039055973078374787
1.38153e-05	0.00032768851088300075
1.38155e-05	0.00026715614588519195
1.38158e-05	0.00020882277667655564
1.38160e-05	0.0001529291839951311
1.38163e-05	9.99005548125222e-05
1.38165e-05	5.016206766711261e-05
1.38168e-05	4.138599418570389e-06
1.38170e-05	-3.8019258977756445e-05
1.38173e-05	-7.676387381022118e-05
1.38175e-05	-0.00011270474672767067
1.38178e-05	-0.00014600839411179093
1.38180e-05	-0.00017652601031096967
1.38183e-05	-0.00020406469667407133
1.38185e-05	-0.00022843159193554745
1.38188e-05	-0.00024943403453094856
1.38190e-05	-0.00026705121649434304
1.38193e-05	-0.0002816399368753591
1.38195e-05	-0.00029365551573068074
1.38198e-05	-0.00030327562279456043
1.38200e-05	-0.0003104804875032133
1.38203e-05	-0.00031522269971670936
1.38205e-05	-0.0003174548980374137
1.38208e-05	-0.0003171298767592563
1.38210e-05	-0.0003143080079122996
1.38213e-05	-0.0003092862573452399
1.38215e-05	-0.00030242319711635786
1.38218e-05	-0.00029390356334065465
1.38220e-05	-0.0002837883189213697
1.38223e-05	-0.0002721211636134773
1.38225e-05	-0.00025894578699938814
1.38228e-05	-0.0002443060079690905
1.38230e-05	-0.00022787449461944944
1.38233e-05	-0.00021114105084760822
1.38235e-05	-0.0001931008265509648
1.38238e-05	-0.0001748068281139625
1.38240e-05	-0.00015558037186951456
1.38243e-05	-0.00013617283420072637
1.38245e-05	-0.00011676529653193818
1.38248e-05	-9.69382553097351e-05
1.38250e-05	-7.702974734399715e-05
1.38253e-05	-5.73000526448339e-05
1.38255e-05	-3.801355370810007e-05
1.38258e-05	-1.936398040129337e-05
1.38260e-05	-1.4944094479982975e-06
1.38263e-05	1.545889096904842e-05
1.38265e-05	3.1359659307172736e-05
1.38268e-05	4.607199592935072e-05
1.38270e-05	5.9858570457775684e-05
1.38273e-05	7.380004434979531e-05
1.38275e-05	8.905101610001174e-05
1.38278e-05	0.0001059830489273483
1.38280e-05	0.00012446123009637376
1.38283e-05	0.00014428132111070084
1.38285e-05	0.00016523907365446962
1.38288e-05	0.00018713050512667503
1.38290e-05	0.00021000129303928088
1.38293e-05	0.000234409454213339
1.38295e-05	0.0002609592803773631
1.38298e-05	0.0002897645458862117
1.38300e-05	0.0003206217424145616
1.38303e-05	0.0003532839239607643
1.38305e-05	0.00038803649303747903
1.38308e-05	0.00042313927778753083
1.38310e-05	0.0004604160190135663
1.38313e-05	0.0004981149381999349
1.38315e-05	0.0005385980034342679
1.38318e-05	0.0005796217442117357
1.38320e-05	0.0006233279307445483
1.38323e-05	0.0006675550428291754
1.38325e-05	0.0007117821549135028
1.38328e-05	0.0007579797912062333
1.38330e-05	0.0008045600993232059
1.38333e-05	0.0008511404074398627
1.38335e-05	0.0008977207155568351
1.38338e-05	0.0009443010236738075
1.38340e-05	0.0009905938511638823
1.38343e-05	0.0010368308504967872
1.38345e-05	0.001083067849829692
1.38348e-05	0.0011293048491625968
1.38350e-05	0.0011755418484951884
1.38353e-05	0.0012183674760487516
1.38355e-05	0.0012605306220876016
1.38358e-05	0.0013026937681261661
1.38360e-05	0.0013403755698436328
1.38363e-05	0.0013771871035380989
1.38365e-05	0.0014139986372323152
1.38368e-05	0.001443942968117244
1.38370e-05	0.0014725537020758262
1.38373e-05	0.0015011644360342145
1.38375e-05	0.0015218672268749768
1.38378e-05	0.0015410343111218507
1.38380e-05	0.0015533238429966856
1.38383e-05	0.0015642777680810454
1.38385e-05	0.0015683148059568916
1.38388e-05	0.0015710085982962969
1.38390e-05	0.0015666158810839588
1.38393e-05	0.0015608469780184664
1.38395e-05	0.001547736254529432
1.38398e-05	0.0015331997643311579
1.38400e-05	0.0015117073445402001
1.38403e-05	0.0014888640972608301
1.38405e-05	0.0014596320341713042
1.38408e-05	0.0014291592759452076
1.38410e-05	0.0013913847957578063
1.38413e-05	0.001352192335901336
1.38415e-05	0.0013129998760448654
1.38418e-05	0.0012662148991410599
1.38420e-05	0.0012179554707492058
1.38423e-05	0.0011696960423573518
1.38425e-05	0.0011158917180556667
1.38428e-05	0.0010610105861582966
1.38430e-05	0.0010061294542609265
1.38433e-05	0.0009473901167526988
1.38435e-05	0.0008879015235016575
1.38438e-05	0.0008284129302502131
1.38440e-05	0.0007689243369987687
1.38443e-05	0.0007089769104350566
1.38445e-05	0.0006489403793676033
1.38448e-05	0.00058890384830015
1.38450e-05	0.0005288673172331034
1.38453e-05	0.00047136824868481255
1.38455e-05	0.0004143619502368534
1.38458e-05	0.0003596440302338447
1.38460e-05	0.0003073355445589639
1.38463e-05	0.0002577066576954926
1.38465e-05	0.00021115492524787687
1.38468e-05	0.0001680776229063029
1.38470e-05	0.00012862525421607063
1.38473e-05	9.240391753869052e-05
1.38475e-05	5.8873533822995455e-05
1.38478e-05	2.7888292298849626e-05
1.38480e-05	-4.1539039991893406e-07
1.38483e-05	-2.5861578678398187e-05
1.38485e-05	-4.82743811442301e-05
1.38488e-05	-6.747808805740072e-05
1.38490e-05	-8.345160484155024e-05
1.38493e-05	-9.651482975446977e-05
1.38495e-05	-0.00010707918866724246
1.38498e-05	-0.00011530911592645964
1.38500e-05	-0.0001211922691987942
1.38503e-05	-0.0001246915558289868
1.38505e-05	-0.00012576989026117548
1.38508e-05	-0.00012439035144377354
1.38510e-05	-0.00012061283980275605
1.38513e-05	-0.00011471084361633593
1.38515e-05	-0.00010701517610398093
1.38518e-05	-9.770190320230715e-05
1.38520e-05	-8.68363487124352e-05
1.38523e-05	-7.446833365915353e-05
1.38525e-05	-6.064768989302554e-05
1.38528e-05	-4.542434183920418e-05
1.38530e-05	-2.8908857644917824e-05
1.38533e-05	-1.1345595489246208e-05
1.38535e-05	6.985211652814969e-06
1.38538e-05	2.590027538317306e-05
1.38540e-05	4.528568389523458e-05
1.38543e-05	6.513983829124553e-05
1.38545e-05	8.507070345574247e-05
1.38548e-05	0.00010514741347317863
1.38550e-05	0.00012525244626659905
1.38553e-05	0.00014535747906015568
1.38555e-05	0.00016461955664056526
1.38558e-05	0.00018371793401955898
1.38560e-05	0.00020145400758362681
1.38563e-05	0.0002189255244959642
1.38565e-05	0.0002350860812528498
1.38568e-05	0.0002499638873346048
1.38570e-05	0.0002635233957673317
1.38573e-05	0.00027514918054971914
1.38575e-05	0.00028644162683799933
1.38578e-05	0.0002954209215336596
1.38580e-05	0.0003039510068579116
1.38583e-05	0.00031006365696797597
1.38585e-05	0.00031570684603779095
1.38588e-05	0.00031882855998196916
1.38590e-05	0.00032146060854507845
1.38593e-05	0.00032160376604474934
1.38595e-05	0.000321263585922457
1.38598e-05	0.0003185890148581111
1.38600e-05	0.00031546110978359346
1.38603e-05	0.00031011142009414124
1.38605e-05	0.0003043302643160657
1.38608e-05	0.00029644005210530697
1.38610e-05	0.00028814026539140134
1.38613e-05	0.0002779297171006012
1.38615e-05	0.00026734810276739625
1.38618e-05	0.0002551303822311655
1.38620e-05	0.00024259493317203598
1.38623e-05	0.000228671743039084
1.38625e-05	0.0002144790563900446
1.38628e-05	0.00019914704253870067
1.38630e-05	0.00018359377364368182
1.38633e-05	0.00016706731483271642
1.38635e-05	0.00015035186450405494
1.38638e-05	0.0001336364141752802
1.38640e-05	0.00011644159550711689
1.38643e-05	9.915368447490752e-05
1.38645e-05	8.191395385690558e-05
1.38648e-05	6.476884949986416e-05
1.38650e-05	4.762374514293892e-05
1.38653e-05	3.0870497643954386e-05
1.38655e-05	1.4566450090810011e-05
1.38658e-05	-1.1933781153035264e-06
1.38660e-05	-1.6293561323119084e-05
1.38663e-05	-3.061915226985677e-05
1.38665e-05	-4.4055213834051503e-05
1.38668e-05	-5.648672780340856e-05
1.38670e-05	-6.770204205829166e-05
1.38673e-05	-7.730906723065967e-05
1.38675e-05	-8.494523250195136e-05
1.38678e-05	-9.048061342773175e-05
1.38680e-05	-9.392292837007562e-05
1.38683e-05	-9.529830410966877e-05
1.38685e-05	-9.463288079576297e-05
1.38688e-05	-9.195275829477044e-05
1.38690e-05	-8.722349056136036e-05
1.38693e-05	-8.029763802124224e-05
1.38695e-05	-7.104624778087748e-05
1.38698e-05	-5.948612014569662e-05
1.38700e-05	-4.5720277409777654e-05
1.38703e-05	-2.9863257949560727e-05
1.38705e-05	-1.2029608733265929e-05
1.38708e-05	7.666166282621269e-06
1.38710e-05	2.914747416656846e-05
1.38713e-05	5.24085158483862e-05
1.38715e-05	7.74318995852965e-05
1.38718e-05	0.00010410893620484741
1.38720e-05	0.000132276948439658
1.38723e-05	0.00016176603658705666
1.38725e-05	0.00019240630585336867
1.38728e-05	0.00022436800904247376
1.38730e-05	0.00025655085013854715
1.38733e-05	0.0002901336036049752
1.38735e-05	0.00032398821722863806
1.38738e-05	0.0003578428308525303
1.38740e-05	0.0003921466532645183
1.38743e-05	0.0004265377111164752
1.38745e-05	0.0004609287689686652
1.38748e-05	0.0004953198268208552
1.38750e-05	0.0005278506015843475
1.38753e-05	0.0005600201131260717
1.38755e-05	0.0005921896246677959
1.38758e-05	0.0006243591362093022
1.38760e-05	0.0006528117412899132
1.38763e-05	0.0006805425306359128
1.38765e-05	0.0007082733199817244
1.38768e-05	0.0007314482546565414
1.38770e-05	0.0007537384515471737
1.38773e-05	0.0007760286484378061
1.38775e-05	0.0007983188453282873
1.38778e-05	0.0008202581202805976
1.38780e-05	0.0008415081850758135
1.38783e-05	0.0008627582498708854
1.38785e-05	0.0008840083146661014
1.38788e-05	0.0009052583794613173
1.38790e-05	0.0009272491609830433
1.38793e-05	0.0009493837881986076
1.38795e-05	0.0009715184154141718
1.38798e-05	0.000993653042629586
1.38800e-05	0.0010157876698451503
1.38803e-05	0.0010379222970607145
1.38805e-05	0.001060056924276129
1.38808e-05	0.0010821915514916932
1.38810e-05	0.0011043261787072574
1.38813e-05	0.0011264608059226716
1.38815e-05	0.0011485954331382359
1.38818e-05	0.0011725046698685493
1.38820e-05	0.0011967585321856977
1.38823e-05	0.0012210123945030106
1.38825e-05	0.0012452662568203233
1.38828e-05	0.001269520119137472
1.38830e-05	0.0012937739814547846
1.38833e-05	0.0013180278437720976
1.38835e-05	0.0013422817060892462
1.38838e-05	0.001366535568406559
1.38840e-05	0.0013907894307238718
1.38843e-05	0.0014150432930410202
1.38845e-05	0.001435768173142998
1.38848e-05	0.0014558077320193175
1.38850e-05	0.001475847290895501
1.38853e-05	0.0014958868497718205
1.38855e-05	0.0015159264086481398
1.38858e-05	0.0015359659675244592
1.38860e-05	0.0015560055264006428
1.38863e-05	0.0015760450852769622
1.38865e-05	0.0015960846441532817
1.38868e-05	0.0016161242030294652
1.38870e-05	0.0016267316970480596
1.38873e-05	0.0016355075031025325
1.38875e-05	0.001644283309156946
1.38878e-05	0.001653059115211419
1.38880e-05	0.001661834921265892
1.38883e-05	0.0016706107273203054
1.38885e-05	0.0016793865333747783
1.38888e-05	0.0016881623394292512
1.38890e-05	0.0016969381454836647
1.38893e-05	0.0017057139515381375
1.38895e-05	0.0017045305766810786
1.38898e-05	0.001701413148985553
1.38900e-05	0.0016982957212900063
1.38903e-05	0.0016951782935944594
1.38905e-05	0.0016920608658989337
1.38908e-05	0.001688943438203387
1.38910e-05	0.0016858260105078401
1.38913e-05	0.0016827085828123145
1.38915e-05	0.0016795911551167678
1.38918e-05	0.0016764737274212209
1.38920e-05	0.0016671718300998546
1.38923e-05	0.0016566689212553466
1.38925e-05	0.0016461660124108388
1.38928e-05	0.001635663103566402
1.38930e-05	0.001625160194721894
1.38933e-05	0.0016146572858773862
1.38935e-05	0.0016041543770329496
1.38938e-05	0.0015936514681884415
1.38940e-05	0.0015831485593439337
1.38943e-05	0.0015726456504994257
