Time(s)	Current(A)
3.25000e-06	-0.004950419201280446
3.25025e-06	-0.004952872498342103
3.25050e-06	-0.004946792300706076
3.25075e-06	-0.004940712103070038
3.25100e-06	-0.0049346319054339996
3.25125e-06	-0.004928551707797972
3.25150e-06	-0.004922471510161934
3.25175e-06	-0.004916391312525896
3.25200e-06	-0.004910311114889858
3.25225e-06	-0.004903364342195561
3.25250e-06	-0.00489146756941976
3.25275e-06	-0.004879570796643958
3.25300e-06	-0.004867674023868177
3.25325e-06	-0.0048557772510923755
3.25350e-06	-0.004843880478316574
3.25375e-06	-0.004831983705540772
3.25400e-06	-0.004820086932764991
3.25425e-06	-0.004808016854910914
3.25450e-06	-0.004794956833781394
3.25475e-06	-0.004781896812651897
3.25500e-06	-0.004768836791522377
3.25525e-06	-0.004755776770392858
3.25550e-06	-0.004742716749263361
3.25575e-06	-0.004731066439498195
3.25600e-06	-0.004720178601275429
3.25625e-06	-0.004709290763052663
3.25650e-06	-0.004698402924829917
3.25675e-06	-0.004687515086607151
3.25700e-06	-0.004677272545679585
3.25725e-06	-0.004670716034754299
3.25750e-06	-0.004664159523829003
3.25775e-06	-0.004658347786909666
3.25800e-06	-0.004656790305124049
3.25825e-06	-0.004655232823338436
3.25850e-06	-0.0046548788791839065
3.25875e-06	-0.004661399713290575
3.25900e-06	-0.004667920547397232
3.25925e-06	-0.004674441381503899
3.25950e-06	-0.004680962215610568
3.25975e-06	-0.004687483049717224
3.26000e-06	-0.004694003883823892
3.26025e-06	-0.004707479514626646
3.26050e-06	-0.004724716791038622
3.26075e-06	-0.004741954067450568
3.26100e-06	-0.004759191343862544
3.26125e-06	-0.004776428620274519
3.26150e-06	-0.004793665896686466
3.26175e-06	-0.004812100826225391
3.26200e-06	-0.004837376920900451
3.26225e-06	-0.004862653015575513
3.26250e-06	-0.004887929110250532
3.26275e-06	-0.0049132052049255925
3.26300e-06	-0.004938481299600654
3.26325e-06	-0.004963757394275672
3.26350e-06	-0.0049890334889507336
3.26375e-06	-0.005015561121887776
3.26400e-06	-0.005042765675173967
3.26425e-06	-0.005069970228460205
3.26450e-06	-0.005097174781746443
3.26475e-06	-0.0051243793350326805
3.26500e-06	-0.005151583888318872
3.26525e-06	-0.005178788441605109
3.26550e-06	-0.00520549762744489
3.26575e-06	-0.0052293772039192785
3.26600e-06	-0.005253256780393707
3.26625e-06	-0.005276503925659249
3.26650e-06	-0.00529613853383858
3.26675e-06	-0.005315773142017878
3.26700e-06	-0.005334366602110105
3.26725e-06	-0.00534701287613038
3.26750e-06	-0.0053596591501506325
3.26775e-06	-0.005370941562264898
3.26800e-06	-0.005374433401037993
3.26825e-06	-0.005377925239811083
3.26850e-06	-0.005380054465445348
3.26875e-06	-0.005374400250874424
3.26900e-06	-0.005368746036303502
3.26925e-06	-0.005361045847024454
3.26950e-06	-0.005341658758985747
3.26975e-06	-0.005322271670947039
3.27000e-06	-0.005302884582908365
3.27025e-06	-0.005283497494869656
3.27050e-06	-0.005264110406830949
3.27075e-06	-0.005234775501753195
3.27100e-06	-0.005200060114121703
3.27125e-06	-0.005165344726490151
3.27150e-06	-0.005130629338858599
3.27175e-06	-0.005095913951227106
3.27200e-06	-0.005059844349151956
3.27225e-06	-0.005016039281414059
3.27250e-06	-0.004972234213676235
3.27275e-06	-0.00492791681607083
3.27300e-06	-0.0048806729173363796
3.27325e-06	-0.004833145825952242
3.27350e-06	-0.004784001097843085
3.27375e-06	-0.004734719525661943
3.27400e-06	-0.004684656280663488
3.27425e-06	-0.004634598030733902
3.27450e-06	-0.004584628947933096
3.27475e-06	-0.004535108894926331
3.27500e-06	-0.004486314651129199
3.27525e-06	-0.0044384903513025944
3.27550e-06	-0.0043918771606694055
3.27575e-06	-0.004346761561814297
3.27600e-06	-0.004304221228166681
3.27625e-06	-0.004267791614338022
3.27650e-06	-0.004231362000509363
3.27675e-06	-0.004194932386680767
3.27700e-06	-0.0041585027728521075
3.27725e-06	-0.004123301141183234
3.27750e-06	-0.004095113918404437
3.27775e-06	-0.0040669266956256875
3.27800e-06	-0.00403873947284689
3.27825e-06	-0.004010552250068093
3.27850e-06	-0.003983406944769277
3.27875e-06	-0.00396221322042452
3.27900e-06	-0.003941019496079764
3.27925e-06	-0.0039198257717350075
3.27950e-06	-0.003898632047390287
3.27975e-06	-0.003877438323045531
3.28000e-06	-0.0038562445987007747
3.28025e-06	-0.003835050874356054
3.28050e-06	-0.003813857150011298
3.28075e-06	-0.0037957979836186345
3.28100e-06	-0.00377943420771322
3.28125e-06	-0.0037630704318077773
3.28150e-06	-0.003746706655902335
3.28175e-06	-0.0037303428799968924
3.28200e-06	-0.0037139791040914777
3.28225e-06	-0.0036976153281860352
3.28250e-06	-0.0036812515522805928
3.28275e-06	-0.0036653632651812073
3.28300e-06	-0.003652191037824092
3.28325e-06	-0.003639018810466977
3.28350e-06	-0.003625846583109862
3.28375e-06	-0.0036126743557527694
3.28400e-06	-0.003599502128395654
3.28425e-06	-0.003586329901038539
3.28450e-06	-0.0035735595190363985
3.28475e-06	-0.003563084534901452
3.28500e-06	-0.0035526095507665053
3.28525e-06	-0.0035421345666315765
3.28550e-06	-0.0035316595824966303
3.28575e-06	-0.0035211845983616837
3.28600e-06	-0.003510709614226737
3.28625e-06	-0.0035005359199549333
3.28650e-06	-0.0034920832362677233
3.28675e-06	-0.003483834743361023
3.28700e-06	-0.0034767526172576934
3.28725e-06	-0.0034699767686531186
3.28750e-06	-0.003464950420717919
3.28775e-06	-0.003460266148274433
3.28800e-06	-0.003457535859731628
3.28825e-06	-0.003455225278374541
3.28850e-06	-0.003455312124204624
3.28875e-06	-0.003455398970034707
3.28900e-06	-0.0034562851367153855
3.28925e-06	-0.0034617371378722933
3.28950e-06	-0.003467189139029192
3.28975e-06	-0.0034726411401861
3.29000e-06	-0.003478093141343008
3.29025e-06	-0.0034835451424999157
3.29050e-06	-0.0034899463107895697
3.29075e-06	-0.00350176925684878
3.29100e-06	-0.0035135922029079906
3.29125e-06	-0.003525415148967181
3.29150e-06	-0.0035372380950263915
3.29175e-06	-0.003549061041085602
3.29200e-06	-0.0035615518556804614
3.29225e-06	-0.0035778576304172946
3.29250e-06	-0.0035941634051541555
3.29275e-06	-0.003610469179891016
3.29300e-06	-0.003626774954627849
3.29325e-06	-0.00364308072936471
3.29350e-06	-0.003659386504101571
3.29375e-06	-0.0036764933587923035
3.29400e-06	-0.0036940334941415244
3.29425e-06	-0.0037115736294907452
3.29450e-06	-0.0037291137648399666
3.29475e-06	-0.0037466539001891576
3.29500e-06	-0.0037641940355383785
3.29525e-06	-0.0037814993341682757
3.29550e-06	-0.0037974632120299475
3.29575e-06	-0.0038134270898916457
3.29600e-06	-0.0038287447962512804
3.29625e-06	-0.003840371479012923
3.29650e-06	-0.003851998161774546
3.29675e-06	-0.0038636248445361888
3.29700e-06	-0.0038752515272978314
3.29725e-06	-0.003886878210059454
3.29750e-06	-0.003898504892821097
3.29775e-06	-0.003910131575582739
3.29800e-06	-0.003921758258344362
3.29825e-06	-0.00393300028226753
3.29850e-06	-0.003942045080151624
3.29875e-06	-0.0039510898780357176
3.29900e-06	-0.0039601346759197955
3.29925e-06	-0.003969179473803889
3.29950e-06	-0.003978224271687982
3.29975e-06	-0.003987269069572061
3.30000e-06	-0.003996313867456153
3.30025e-06	-0.004005358665340247
3.30050e-06	-0.004014352889254107
3.30075e-06	-0.004023058227451201
3.30100e-06	-0.004031763565648295
3.30125e-06	-0.004040468903845389
3.30150e-06	-0.004049174242042469
3.30175e-06	-0.004057879580239563
3.30200e-06	-0.004066584918436657
3.30225e-06	-0.004075290256633737
3.30250e-06	-0.004083995594830831
3.30275e-06	-0.004092700933027926
3.30300e-06	-0.00410140627122502
3.30325e-06	-0.004109488977483489
3.30350e-06	-0.0041172349203826486
3.30375e-06	-0.004124980863281808
3.30400e-06	-0.004132726806180955
3.30425e-06	-0.004140472749080114
3.30450e-06	-0.004148218691979274
3.30475e-06	-0.0041559646348784205
3.30500e-06	-0.00416371057777758
3.30525e-06	-0.00417145652067674
3.30550e-06	-0.0041792024635759
3.30575e-06	-0.004186690863107234
3.30600e-06	-0.004192708138261825
3.30625e-06	-0.004198725413416415
3.30650e-06	-0.004204519251744264
3.30675e-06	-0.0042090367871128655
3.30700e-06	-0.0042135543224814664
3.30725e-06	-0.004217578294178681
3.30750e-06	-0.004218782959928945
3.30775e-06	-0.004219987625679212
3.30800e-06	-0.004220604145205679
3.30825e-06	-0.004217861089782582
3.30850e-06	-0.004215118034359479
3.30875e-06	-0.004211460476656142
3.30900e-06	-0.004202579151753981
3.30925e-06	-0.004193697826851804
3.30950e-06	-0.004184816501949627
3.30975e-06	-0.00417593517704745
3.31000e-06	-0.004167053852145288
3.31025e-06	-0.004157000778920613
3.31050e-06	-0.004140254512486024
3.31075e-06	-0.004123508246051462
3.31100e-06	-0.004106761979616872
3.31125e-06	-0.004090015713182281
3.31150e-06	-0.004073269446747692
3.31175e-06	-0.004055714973559125
3.31200e-06	-0.004033543908347829
3.31225e-06	-0.004011372843136533
3.31250e-06	-0.003989201777925274
3.31275e-06	-0.003967030712713978
3.31300e-06	-0.003944502763713397
3.31325e-06	-0.0039199362437079745
3.31350e-06	-0.00389536972370251
3.31375e-06	-0.0038708032036970453
3.31400e-06	-0.003846236683691581
3.31425e-06	-0.0038216481160075625
3.31450e-06	-0.0037969336088449915
3.31475e-06	-0.0037723296522671978
3.31500e-06	-0.0037483571763659925
3.31525e-06	-0.003724507565281589
3.31550e-06	-0.0037014652269722263
3.31575e-06	-0.0036791537960126873
3.31600e-06	-0.0036577285457395467
3.31625e-06	-0.0036373459730332453
3.31650e-06	-0.0036181628076049767
3.31675e-06	-0.0036003450308707587
3.31700e-06	-0.0035841499531528258
3.31725e-06	-0.00357007885456668
3.31750e-06	-0.0035586834235400984
3.31775e-06	-0.003550184816203015
3.31800e-06	-0.0035447746262988007
3.31825e-06	-0.003542983809403135
3.31850e-06	-0.0035420223647091202
3.31875e-06	-0.0035457984120879017
3.31900e-06	-0.0035506957252189465
3.31925e-06	-0.0035619978679333943
3.31950e-06	-0.0035733000106478612
3.31975e-06	-0.0035862603504664354
3.32000e-06	-0.0036086925481796208
3.32025e-06	-0.0036311247458927685
3.32050e-06	-0.003653556943605954
3.32075e-06	-0.0036759891413191393
3.32100e-06	-0.0037057202663887574
3.32125e-06	-0.0037393991672531528
3.32150e-06	-0.0037730780681175485
3.32175e-06	-0.003806756968981887
3.32200e-06	-0.003841301897604736
3.32225e-06	-0.003881235994899089
3.32250e-06	-0.0039236965432801
3.32275e-06	-0.003966157091661039
3.32300e-06	-0.004009083407080612
3.32325e-06	-0.004054670250124178
3.32350e-06	-0.004100257093167667
3.32375e-06	-0.004146028175623187
3.32400e-06	-0.004192851659825414
3.32425e-06	-0.00423967514402764
3.32450e-06	-0.004286376931241534
3.32475e-06	-0.004332383567935608
3.32500e-06	-0.004378115683974567
3.32525e-06	-0.00442227969895469
3.32550e-06	-0.004466022220318478
3.32575e-06	-0.004507357110147637
3.32600e-06	-0.004548089226989132
3.32625e-06	-0.004585378218723518
3.32650e-06	-0.004621878822101915
3.32675e-06	-0.004653876038967335
3.32700e-06	-0.00468464600674618
3.32725e-06	-0.0047084057530493405
3.32750e-06	-0.004732165499352502
3.32775e-06	-0.00475431075154932
3.32800e-06	-0.004767233783594692
3.32825e-06	-0.004780156815640063
3.32850e-06	-0.0047913979664012014
3.32875e-06	-0.004793031971858362
3.32900e-06	-0.004794665977315526
3.32925e-06	-0.004794071016580186
3.32950e-06	-0.004780743883669713
3.32975e-06	-0.004767416750759219
3.33000e-06	-0.004754089617848725
3.33025e-06	-0.004740762484938253
3.33050e-06	-0.004724992624641824
3.33075e-06	-0.004695269557805219
3.33100e-06	-0.0046655464909686134
3.33125e-06	-0.004635823424132058
3.33150e-06	-0.004606100357295452
3.33175e-06	-0.004574824642704158
3.33200e-06	-0.0045346799831254255
3.33225e-06	-0.004494535323546625
3.33250e-06	-0.004453685526758216
3.33275e-06	-0.00440880788585522
3.33300e-06	-0.004363521273695846
3.33325e-06	-0.004315898559504171
3.33350e-06	-0.004268062930505701
3.33375e-06	-0.004218924867510933
3.33400e-06	-0.0041692503762446416
3.33425e-06	-0.0041193239063775
3.33450e-06	-0.004069429511294851
3.33475e-06	-0.004019851175005827
3.33500e-06	-0.003970872901490214
3.33525e-06	-0.003922783014966456
3.33550e-06	-0.003875883398488781
3.33575e-06	-0.0038304913213836203
3.33600e-06	-0.0037869314436470404
3.33625e-06	-0.0037455277367683636
3.33650e-06	-0.0037066047319767276
3.33675e-06	-0.0036704866582948797
3.33700e-06	-0.0036374923633765844
3.33725e-06	-0.0036078987475491524
3.33750e-06	-0.0035818842038070884
3.33775e-06	-0.003559535417696885
3.33800e-06	-0.003540907361953248
3.33825e-06	-0.0035260538204548004
3.33850e-06	-0.003515321014075786
3.33875e-06	-0.0035095555452623124
3.33900e-06	-0.0035049654612273303
3.33925e-06	-0.003507089342358743
3.33950e-06	-0.0035106273482748127
3.33975e-06	-0.003522243036256047
3.34000e-06	-0.003533858724237302
3.34025e-06	-0.0035475091465488554
3.34050e-06	-0.003572782260991638
3.34075e-06	-0.003598055375434463
3.34100e-06	-0.003623328489877289
3.34125e-06	-0.003648601604320114
3.34150e-06	-0.0036758995115187573
3.34175e-06	-0.003714763323160689
3.34200e-06	-0.0037536271348026203
3.34225e-06	-0.003792490946444486
3.34250e-06	-0.0038313547580864178
3.34275e-06	-0.0038712878798274545
3.34300e-06	-0.003917329053066926
3.34325e-06	-0.003963370226306474
3.34350e-06	-0.004009773461094007
3.34375e-06	-0.004058244842981801
3.34400e-06	-0.0041068079051944225
3.34425e-06	-0.004155894658473393
3.34450e-06	-0.004204901109084121
3.34475e-06	-0.00425344885942295
3.34500e-06	-0.004301741826566076
3.34525e-06	-0.004348579435827351
3.34550e-06	-0.004394974495869859
3.34575e-06	-0.004438841651779324
3.34600e-06	-0.004481869520507147
3.34625e-06	-0.004520103261383265
3.34650e-06	-0.004558337002259319
3.34675e-06	-0.004595248159923906
3.34700e-06	-0.00462460453401879
3.34725e-06	-0.004653960908113624
3.34750e-06	-0.004681973308077445
3.34775e-06	-0.004702308736494174
3.34800e-06	-0.004722644164910903
3.34825e-06	-0.00474082377020518
3.34850e-06	-0.004746689006949468
3.34875e-06	-0.004752554243693756
3.34900e-06	-0.004758419480438034
3.34925e-06	-0.004764284717182322
3.34950e-06	-0.00477014995392661
3.34975e-06	-0.004773368833293966
3.35000e-06	-0.004761471342623696
3.35025e-06	-0.004749573851953405
3.35050e-06	-0.004737676361283115
3.35075e-06	-0.004725778870612845
3.35100e-06	-0.0047138813799425545
3.35125e-06	-0.004699987932527263
3.35150e-06	-0.004674693296066434
3.35175e-06	-0.004649398659605562
3.35200e-06	-0.0046241040231446906
3.35225e-06	-0.004598809386683818
3.35250e-06	-0.0045735147502229895
3.35275e-06	-0.004543174087759712
3.35300e-06	-0.00451010417778614
3.35325e-06	-0.004477034267812623
3.35350e-06	-0.00444396435783905
3.35375e-06	-0.004410894447865477
3.35400e-06	-0.004377508363282616
3.35425e-06	-0.004342316244325037
3.35450e-06	-0.004307145527849603
3.35475e-06	-0.004272097065399098
3.35500e-06	-0.004237202201313641
3.35525e-06	-0.004203184712953236
3.35550e-06	-0.004169378682504522
3.35575e-06	-0.00413696853858669
3.35600e-06	-0.00410598281524467
3.35625e-06	-0.004076999125400061
3.35650e-06	-0.004048596251053043
3.35675e-06	-0.004023511077505817
3.35700e-06	-0.003999113801243104
3.35725e-06	-0.003978645892190136
3.35750e-06	-0.003958904280012995
3.35775e-06	-0.003943311378976851
3.35800e-06	-0.00392866522847705
3.35825e-06	-0.003919427051808361
3.35850e-06	-0.003910188875139688
3.35875e-06	-0.003902129083759353
3.35900e-06	-0.0039008003968862342
3.35925e-06	-0.0038994717100131176
3.35950e-06	-0.00389979851265412
3.35975e-06	-0.003909581707054493
3.36000e-06	-0.003919364901454849
3.36025e-06	-0.003929148095855222
3.36050e-06	-0.003938931290255594
3.36075e-06	-0.003948714484655968
3.36100e-06	-0.003960312698579584
3.36125e-06	-0.003982278562383612
3.36150e-06	-0.00400424442618764
3.36175e-06	-0.004026210289991632
3.36200e-06	-0.004048176153795661
3.36225e-06	-0.00407014201759969
3.36250e-06	-0.004093045474313953
3.36275e-06	-0.0041213045951954625
3.36300e-06	-0.00414956371607702
3.36325e-06	-0.004178167404203111
3.36350e-06	-0.004208739309478245
3.36375e-06	-0.004239311214753431
3.36400e-06	-0.004269980963250872
3.36425e-06	-0.004301209606161538
3.36450e-06	-0.004332438249072257
3.36475e-06	-0.004363513617372458
3.36500e-06	-0.004393713459279085
3.36525e-06	-0.004423913301185661
3.36550e-06	-0.004453685440328032
3.36575e-06	-0.004481014480398406
3.36600e-06	-0.004508343520468735
3.36625e-06	-0.004534959236967003
3.36650e-06	-0.0045575003476812795
3.36675e-06	-0.004580041458395556
3.36700e-06	-0.004601606935050816
3.36725e-06	-0.004617599451081683
3.36750e-06	-0.004633591967112551
3.36775e-06	-0.004648488574303305
3.36800e-06	-0.004657125194199006
3.36825e-06	-0.0046657618140947075
3.36850e-06	-0.004672678476869988
3.36875e-06	-0.004669770499740964
3.36900e-06	-0.004666862522611941
3.36925e-06	-0.004663954545482916
3.36950e-06	-0.004661046568353897
3.36975e-06	-0.004658138591224874
3.37000e-06	-0.004653108854567812
3.37025e-06	-0.004635959325458438
3.37050e-06	-0.004618809796349034
3.37075e-06	-0.004601660267239631
3.37100e-06	-0.004584510738130228
3.37125e-06	-0.004567361209020853
3.37150e-06	-0.004548653405557106
3.37175e-06	-0.004521044517164011
3.37200e-06	-0.004493435628770964
3.37225e-06	-0.004465826740377869
3.37250e-06	-0.004438217851984775
3.37275e-06	-0.004410608963591727
3.37300e-06	-0.0043794663459641005
3.37325e-06	-0.004346412437805663
3.37350e-06	-0.004313358529647226
3.37375e-06	-0.004280304621488844
3.37400e-06	-0.004247250713330407
3.37425e-06	-0.004214065839135687
3.37450e-06	-0.004180132868298986
3.37475e-06	-0.0041463115233742525
3.37500e-06	-0.004113127801548772
3.37525e-06	-0.004080174893526465
3.37550e-06	-0.0040485404268039114
3.37575e-06	-0.004017265188777674
3.37600e-06	-0.003988041916200746
3.37625e-06	-0.003959937196486613
3.37650e-06	-0.003938221809948778
3.37675e-06	-0.003916506423410943
3.37700e-06	-0.0038947910368731446
3.37725e-06	-0.0038730756503353096
3.37750e-06	-0.0038513602637974746
3.37775e-06	-0.0038296448772596396
3.37800e-06	-0.0038079294907218415
3.37825e-06	-0.0037873755443950715
3.37850e-06	-0.003773455909883377
3.37875e-06	-0.0037595362753717067
3.37900e-06	-0.0037456166408600124
3.37925e-06	-0.003731697006348318
3.37950e-06	-0.003717777371836647
3.37975e-06	-0.003703857737324953
3.38000e-06	-0.0036899381028132586
3.38025e-06	-0.003676868250041578
3.38050e-06	-0.0036686524715342996
3.38075e-06	-0.0036604366930270073
3.38100e-06	-0.003652220914519715
3.38125e-06	-0.0036440051360124366
3.38150e-06	-0.0036357893575051444
3.38175e-06	-0.003627573578997852
3.38200e-06	-0.00361935780049056
3.38225e-06	-0.0036111420219832814
3.38250e-06	-0.003602926243475989
3.38275e-06	-0.003594710464968697
3.38300e-06	-0.0035864946864614185
3.38325e-06	-0.0035788379365109414
3.38350e-06	-0.0035743744372542215
3.38375e-06	-0.003569910937997509
3.38400e-06	-0.0035654474387407887
3.38425e-06	-0.0035609839394840684
3.38450e-06	-0.0035565204402273486
3.38475e-06	-0.0035520569409706357
3.38500e-06	-0.003547593441713916
3.38525e-06	-0.0035431299424571955
3.38550e-06	-0.003538666443200483
3.38575e-06	-0.0035342029439437627
3.38600e-06	-0.0035297394446870425
3.38625e-06	-0.0035254495096170516
3.38650e-06	-0.003522178609518604
3.38675e-06	-0.003519180872571851
3.38700e-06	-0.003516842554417633
3.38725e-06	-0.0035150075241308317
3.38750e-06	-0.00351604734578539
3.38775e-06	-0.003517719355832228
3.38800e-06	-0.0035230025159673738
3.38825e-06	-0.0035288581838292983
3.38850e-06	-0.003537984097322641
3.38875e-06	-0.0035478363828488615
3.38900e-06	-0.0035618378088253925
3.38925e-06	-0.003575839234801947
3.38950e-06	-0.0035913188027507713
3.38975e-06	-0.003615241728057719
3.39000e-06	-0.0036391646533647077
3.39025e-06	-0.003663087578671696
3.39050e-06	-0.0036870105039786844
3.39075e-06	-0.0037109334292856322
3.39100e-06	-0.00374165597559475
3.39125e-06	-0.003776056237533327
3.39150e-06	-0.003810456499471846
3.39175e-06	-0.0038448567614104232
3.39200e-06	-0.0038792570233490004
3.39225e-06	-0.003914536533019088
3.39250e-06	-0.003954838430892569
3.39275e-06	-0.003995140328766049
3.39300e-06	-0.004035765102335282
3.39325e-06	-0.004078234187839822
3.39350e-06	-0.004120703273344433
3.39375e-06	-0.00416328641291948
3.39400e-06	-0.004206521045580352
3.39425e-06	-0.004249755678241297
3.39450e-06	-0.00429276356715516
3.39475e-06	-0.004334476263508754
3.39500e-06	-0.004376188959862279
3.39525e-06	-0.004417403814360988
3.39550e-06	-0.004455774925316862
3.39575e-06	-0.004494146036272672
