Time(s)	Current(A)
1.07500e-05	0.0013022371164735193
1.07503e-05	0.0012956890893148045
1.07505e-05	0.0012891410621560897
1.07508e-05	0.001282593034997419
1.07510e-05	0.0012760450078387043
1.07513e-05	0.0012694969806799894
1.07515e-05	0.001262948953521319
1.07518e-05	0.0012563223046103873
1.07520e-05	0.0012496906766986855
1.07523e-05	0.0012430590487870288
1.07525e-05	0.001236427420875327
1.07528e-05	0.0012297957929636252
1.07530e-05	0.0012231641650519683
1.07533e-05	0.0012165325371402665
1.07535e-05	0.0012099009092285647
1.07538e-05	0.0012114214945534666
1.07540e-05	0.0012134583476395104
1.07543e-05	0.0012154952007255543
1.07545e-05	0.0012175320538115842
1.07548e-05	0.0012195689068976278
1.07550e-05	0.0012216057599836717
1.07553e-05	0.0012236426130697016
1.07555e-05	0.0012256794661557454
1.07558e-05	0.0012277163192417893
1.07560e-05	0.0012297531723278192
1.07563e-05	0.0012317900254138628
1.07565e-05	0.001240611261075238
1.07567e-05	0.0012580516530225343
1.07570e-05	0.0012754920449699486
1.07573e-05	0.001292932436917363
1.07575e-05	0.0013103728288646592
1.07578e-05	0.0013278132208120737
1.07580e-05	0.001345253612759488
1.07582e-05	0.0013626940047067842
1.07585e-05	0.0013801343966541985
1.07588e-05	0.001397574788601613
1.07590e-05	0.0014150151805490273
1.07593e-05	0.0014324555724963236
1.07595e-05	0.0014569646077148193
1.07598e-05	0.0014819212897908762
1.07600e-05	0.0015068779718667637
1.07603e-05	0.0015318346539428206
1.07605e-05	0.0015567913360188773
1.07608e-05	0.001581748018094765
1.07610e-05	0.001606704700170822
1.07613e-05	0.001630920044361167
1.07615e-05	0.0016541935626700065
1.07618e-05	0.0016774670809790036
1.07620e-05	0.0017007405992880008
1.07623e-05	0.00172401411759684
1.07625e-05	0.0017472876359058372
1.07628e-05	0.0017705611542148344
1.07630e-05	0.001793834672523674
1.07633e-05	0.0018113695282394612
1.07635e-05	0.0018285409628319169
1.07638e-05	0.0018457123974242563
1.07640e-05	0.001862883832016712
1.07643e-05	0.0018800552666091675
1.07645e-05	0.0018972267012015067
1.07648e-05	0.0019143981357939623
1.07650e-05	0.001931569570386418
1.07652e-05	0.0019508144432825733
1.07655e-05	0.0019701906239993636
1.07658e-05	0.001989566804716154
1.07660e-05	0.0020089429854328127
1.07663e-05	0.002028319166149603
1.07665e-05	0.0020476953468663932
1.07667e-05	0.002067071527583052
1.07670e-05	0.0020864477082998423
1.07673e-05	0.0021109196049533306
1.07675e-05	0.0021357142058573185
1.07678e-05	0.002160508806761138
1.07680e-05	0.002185303407665126
1.07683e-05	0.002210098008569114
1.07685e-05	0.002234892609472934
1.07688e-05	0.002259687210376922
1.07690e-05	0.0022844818112809097
1.07693e-05	0.0023092764121847294
1.07695e-05	0.0023340710130887172
1.07698e-05	0.0023603574593458977
1.07700e-05	0.0023867383819910493
1.07703e-05	0.0024131193046363795
1.07705e-05	0.00243950022728171
1.07708e-05	0.002465881149926862
1.07710e-05	0.002492262072572192
1.07713e-05	0.0025186429952175227
1.07715e-05	0.0025450239178626743
1.07718e-05	0.0025714048405080046
1.07720e-05	0.0025977857631533353
1.07723e-05	0.002618233265698382
1.07725e-05	0.002638305013411173
1.07728e-05	0.002658376761123964
1.07730e-05	0.0026784485088366186
1.07733e-05	0.0026985202565494096
1.07735e-05	0.0027185920042622005
1.07737e-05	0.0027386637519748558
1.07740e-05	0.0027587354996876467
1.07743e-05	0.0027763824950844626
1.07745e-05	0.002793875934456973
1.07748e-05	0.002811369373829602
1.07750e-05	0.002828862813202231
1.07752e-05	0.0028463562525747415
1.07755e-05	0.0028638496919473704
1.07758e-05	0.0028813431313199993
1.07760e-05	0.00289883657069251
1.07763e-05	0.0029216844273758703
1.07765e-05	0.0029448713714905353
1.07768e-05	0.002968058315605201
1.07770e-05	0.002991245259719709
1.07773e-05	0.003014432203834374
1.07775e-05	0.003037619147949039
1.07778e-05	0.003060806092063547
1.07780e-05	0.0030839930361782125
1.07783e-05	0.0031071799802928775
1.07785e-05	0.0031303669244073856
1.07788e-05	0.0031535538685220506
1.07790e-05	0.003176740812636716
1.07793e-05	0.0032028801939993274
1.07795e-05	0.0032292065489028065
1.07798e-05	0.003255532903806286
1.07800e-05	0.003281859258709587
1.07803e-05	0.0033081856136130666
1.07805e-05	0.003334511968516546
1.07808e-05	0.003360838323419847
1.07810e-05	0.0033871646783233266
1.07813e-05	0.0034134910332268057
1.07815e-05	0.003439817388130107
1.07818e-05	0.003466143743033586
1.07820e-05	0.0034924700979370657
1.07822e-05	0.0035107894584971958
1.07825e-05	0.0035286017477947763
1.07828e-05	0.0035464140370923573
1.07830e-05	0.0035642263263898173
1.07833e-05	0.003582038615687398
1.07835e-05	0.003599850904984979
1.07837e-05	0.003617663194282439
1.07840e-05	0.0036354754835800193
1.07843e-05	0.0036532877728776003
1.07845e-05	0.0036711000621750603
1.07848e-05	0.003688912351472641
1.07850e-05	0.0037067246407702214
1.07853e-05	0.0037214437591506972
1.07855e-05	0.003732233187056899
1.07858e-05	0.0037430226149631736
1.07860e-05	0.0037538120428694485
1.07863e-05	0.0037646014707756505
1.07865e-05	0.0037753908986819253
1.07868e-05	0.0037861803265881997
1.07870e-05	0.0037969697544944017
1.07873e-05	0.0038077591824006766
1.07875e-05	0.003818548610306951
1.07878e-05	0.003829338038213153
1.07880e-05	0.003840127466119428
1.07883e-05	0.0038509168940257027
1.07885e-05	0.003859806037446334
1.07888e-05	0.003868574838624585
1.07890e-05	0.0038773436398028363
1.07893e-05	0.003886112440981028
1.07895e-05	0.003894881242159279
1.07898e-05	0.0039036500433375296
1.07900e-05	0.003912418844515721
1.07903e-05	0.003921187645693973
1.07905e-05	0.003929956446872223
1.07907e-05	0.003938725248050415
1.07910e-05	0.003946424496078104
1.07913e-05	0.003952764940166091
1.07915e-05	0.003959105384254034
1.07918e-05	0.003965445828342021
1.07920e-05	0.003971786272430006
1.07922e-05	0.003978126716517949
1.07925e-05	0.003984467160605936
1.07928e-05	0.003990807604693922
1.07930e-05	0.0039971480487818655
1.07933e-05	0.004003488492869852
1.07935e-05	0.004009828936957839
1.07938e-05	0.003999307524923743
1.07940e-05	0.003987718276155646
1.07943e-05	0.003976129027387472
1.07945e-05	0.003964539778619297
1.07948e-05	0.0039529505298512005
1.07950e-05	0.003941361281083026
1.07953e-05	0.00392977203231485
1.07955e-05	0.0039181827835467545
1.07958e-05	0.003906593534778579
1.07960e-05	0.0038587121506718594
1.07963e-05	0.0038085324386117367
1.07965e-05	0.003758352726551274
1.07968e-05	0.003708173014490811
1.07970e-05	0.003657993302430688
1.07973e-05	0.0036078135903702254
1.07975e-05	0.0035576338783097627
1.07978e-05	0.00350745416624964
1.07980e-05	0.0034572744541891774
1.07983e-05	0.003380630804797868
1.07985e-05	0.0033023112328861098
1.07988e-05	0.003223991660973821
1.07990e-05	0.0031456720890615324
1.07992e-05	0.0030673525171497746
1.07995e-05	0.002989032945237486
1.07998e-05	0.0029008917807314565
1.08000e-05	0.002812128629103782
1.08003e-05	0.0027233654774755063
1.08005e-05	0.002634602325847231
1.08007e-05	0.0025458391742195566
1.08010e-05	0.002457076022591281
1.08013e-05	0.0023708772529557397
1.08015e-05	0.002284840881889156
1.08018e-05	0.0021988045108219897
1.08020e-05	0.0021127681397548233
1.08023e-05	0.0020267317686876573
1.08025e-05	0.0019545566492859125
1.08028e-05	0.001883259342718482
1.08030e-05	0.0018119620361510516
1.08033e-05	0.0017406647295841041
1.08035e-05	0.0016693674230166737
1.08038e-05	0.0016142143522039113
1.08040e-05	0.0015600836722765119
1.08043e-05	0.0015156541365089525
1.08045e-05	0.00147183896004061
1.08048e-05	0.0014379049708609366
1.08050e-05	0.0014045967428487622
1.08053e-05	0.0013818332724504284
1.08055e-05	0.001359737586160165
1.08058e-05	0.0013484783722388363
1.08060e-05	0.0013379054162951565
1.08063e-05	0.0013372373504901489
1.08065e-05	0.0013371965469198483
1.08068e-05	0.0013464786272433425
1.08070e-05	0.0013563511121955204
1.08073e-05	0.0013752673019737575
1.08075e-05	0.001394756216377888
1.08077e-05	0.0014227768430938356
1.08080e-05	0.0014513377706972294
1.08083e-05	0.0014887370514122687
1.08085e-05	0.0015266960521286182
1.08088e-05	0.001564655052845225
1.08090e-05	0.0016112537881013223
1.08092e-05	0.001658399665134475
1.08095e-05	0.001705545542167947
1.08098e-05	0.0017604663920165954
1.08100e-05	0.0018158796195445535
1.08103e-05	0.0018712928470728872
1.08105e-05	0.0019267060746012209
1.08108e-05	0.0019821193021295545
1.08110e-05	0.0020381791268819435
1.08113e-05	0.002095060415117781
1.08115e-05	0.002151941703353619
1.08118e-05	0.0022088229915890713
1.08120e-05	0.0022657042798249092
1.08123e-05	0.0023225855680607467
1.08125e-05	0.002359609026697906
1.08128e-05	0.0023953749179717624
1.08130e-05	0.0024311408092456193
1.08133e-05	0.002466906700519234
1.08135e-05	0.0025026725917930907
1.08138e-05	0.0025384384830669476
1.08140e-05	0.002574204374340562
1.08143e-05	0.002609970265614419
1.08145e-05	0.0026457361568882755
1.08148e-05	0.00268150204816189
1.08150e-05	0.002717267939435747
1.08153e-05	0.0027530338307096038
1.08155e-05	0.0027515434213632077
1.08158e-05	0.0027476936248780476
1.08160e-05	0.0027438438283928874
1.08162e-05	0.0027399940319077533
1.08165e-05	0.002736144235422593
1.08168e-05	0.002732294438937433
1.08170e-05	0.002728444642452299
1.08173e-05	0.0027245948459671387
1.08175e-05	0.0027207450494819785
1.08177e-05	0.0027168952529968444
1.08180e-05	0.0027130454565116842
1.08183e-05	0.002709195660026524
1.08185e-05	0.0026827668714229256
1.08188e-05	0.002654908188204367
1.08190e-05	0.0026270495049858086
1.08193e-05	0.00259919082176725
1.08195e-05	0.0025713321385488802
1.08198e-05	0.0025434734553303213
1.08200e-05	0.0025156147721117628
1.08203e-05	0.00248493753233185
1.08205e-05	0.002450679483350422
1.08208e-05	0.002416421434368994
1.08210e-05	0.0023821633853877977
1.08213e-05	0.0023479053364063697
1.08215e-05	0.0023136472874249418
1.08218e-05	0.0022793892384437454
1.08220e-05	0.0022451311894623174
1.08223e-05	0.0022152603663770725
1.08225e-05	0.0021856673799046447
1.08228e-05	0.0021560743934320166
1.08230e-05	0.002126481406959388
1.08233e-05	0.0020968884204869602
1.08235e-05	0.0020697516979936593
1.08238e-05	0.002045735513430673
1.08240e-05	0.002021719328867849
1.08243e-05	0.0019977031443048627
1.08245e-05	0.001973686959741876
1.08247e-05	0.0019496707751790522
1.08250e-05	0.0019218157483355688
1.08253e-05	0.0018937176132133378
1.08255e-05	0.001865619478091297
1.08258e-05	0.001837521342969066
1.08260e-05	0.001809423207846835
1.08262e-05	0.0017813250727247943
1.08265e-05	0.0017532269376025632
1.08268e-05	0.001725128802480332
1.08270e-05	0.0016970306673582914
1.08273e-05	0.0016689325322360603
1.08275e-05	0.0016372375763628855
1.08278e-05	0.0016009730727220978
1.08280e-05	0.0015647085690815555
1.08283e-05	0.0015284440654407675
1.08285e-05	0.0014921795617999795
1.08288e-05	0.0014559150581594375
1.08290e-05	0.0014196505545186495
1.08293e-05	0.0013833860508778615
1.08295e-05	0.0013471215472373192
1.08298e-05	0.0013108570435965312
1.08300e-05	0.0012745925399557435
1.08303e-05	0.0012365326397827492
1.08305e-05	0.0011983590397674339
1.08308e-05	0.0011601854397521188
1.08310e-05	0.0011220118397370622
1.08313e-05	0.0010838382397217472
1.08315e-05	0.0010474656411000015
1.08318e-05	0.0010133811080976663
1.08320e-05	0.0009792965750951002
1.08323e-05	0.0009452120420925338
1.08325e-05	0.0009111275090901987
1.08328e-05	0.0008770429760876325
1.08330e-05	0.0008488670117665117
1.08332e-05	0.0008210652284769397
1.08335e-05	0.0007932634451871793
1.08338e-05	0.0007705216456477781
1.08340e-05	0.0007481002874947061
1.08343e-05	0.000729595017917481
1.08345e-05	0.0007113377485145151
1.08347e-05	0.0006970583155285082
1.08350e-05	0.0006830307931173108
1.08353e-05	0.0006732673751493687
1.08355e-05	0.000663773996692751
1.08358e-05	0.0006586639485635
1.08360e-05	0.0006538314903467866
1.08363e-05	0.000652965099233282
1.08365e-05	0.0006523498733612593
1.08368e-05	0.0006554646987982134
1.08370e-05	0.0006588157429408435
1.08373e-05	0.0006658016438044321
1.08375e-05	0.0006730177348393905
1.08378e-05	0.0006844147513777231
1.08380e-05	0.0006960765398263354
1.08383e-05	0.0007077383282750268
1.08385e-05	0.0007234245650966672
1.08388e-05	0.0007393656643602868
1.08390e-05	0.0007553067636240145
1.08393e-05	0.0007755295848074307
1.08395e-05	0.0007960235611910723
1.08398e-05	0.0008165175375748528
1.08400e-05	0.0008370115139586332
1.08403e-05	0.0008575054903422748
1.08405e-05	0.0008779994667260552
1.08408e-05	0.0009003714788737759
1.08410e-05	0.0009228624242854695
1.08413e-05	0.0009453533696973155
1.08415e-05	0.0009678443151091616
1.08418e-05	0.0009903352605208553
1.08420e-05	0.0010128262059327013
1.08423e-05	0.0010314962886372985
1.08425e-05	0.0010499244016826284
1.08428e-05	0.0010683525147280834
1.08430e-05	0.001086780627773538
1.08432e-05	0.0011052087408188682
1.08435e-05	0.001123636853864323
1.08438e-05	0.0011420649669097779
1.08440e-05	0.0011504532376294802
1.08443e-05	0.0011582056997866616
1.08445e-05	0.0011659581619438428
1.08448e-05	0.0011737106241010242
1.08450e-05	0.001181463086258153
1.08453e-05	0.0011892155484153344
1.08455e-05	0.0011969680105725156
1.08458e-05	0.0011959444539720468
1.08460e-05	0.001194365124911028
1.08463e-05	0.0011927857958500094
1.08465e-05	0.0011860309248013588
1.08468e-05	0.0011789482942316067
1.08470e-05	0.0011718656636618544
1.08473e-05	0.0011600792489879891
1.08475e-05	0.0011479949505312805
1.08478e-05	0.001135910652074572
1.08480e-05	0.0011177254726805678
1.08483e-05	0.0010991539334000615
1.08485e-05	0.0010805823941195552
1.08488e-05	0.0010620108548391749
1.08490e-05	0.0010434393155586686
1.08493e-05	0.0010248677762781622
1.08495e-05	0.0010040199527178667
1.08498e-05	0.0009802802447751013
1.08500e-05	0.0009565405368323357
1.08503e-05	0.0009328008288897311
1.08505e-05	0.0009090611209469656
1.08508e-05	0.0008853214130042001
1.08510e-05	0.0008615817050615954
1.08513e-05	0.0008382178740464367
1.08515e-05	0.0008148778467685773
1.08517e-05	0.0007915378194908761
1.08520e-05	0.0007681977922130167
1.08523e-05	0.0007448577649351575
1.08525e-05	0.0007215177376574562
1.08528e-05	0.0007006088943994969
1.08530e-05	0.0006827887264711359
1.08533e-05	0.0006649685585427749
1.08535e-05	0.0006471483906145347
1.08538e-05	0.0006293282226861737
1.08540e-05	0.0006115080547578127
1.08543e-05	0.0005936878868295725
1.08545e-05	0.0005759371997261997
1.08548e-05	0.0005581909127420806
1.08550e-05	0.0005404446257580817
1.08553e-05	0.0005226983387739625
1.08555e-05	0.0005040979496974858
1.08558e-05	0.0004844124744901679
1.08560e-05	0.0004647269992827166
1.08563e-05	0.00044504152407526525
1.08565e-05	0.00042535604886794734
1.08568e-05	0.00040253191059480775
1.08570e-05	0.00037950900536987353
1.08573e-05	0.00035648610014509533
1.08575e-05	0.0003319329743067195
1.08578e-05	0.00030728294182988706
1.08580e-05	0.00028263290935322163
1.08583e-05	0.00025621285193583255
1.08585e-05	0.00022968070142187434
1.08588e-05	0.00020186687265291454
1.08590e-05	0.00017397187707015888
1.08593e-05	0.00014546442556502798
1.08595e-05	0.00011691818812025064
1.08598e-05	8.819443931807316e-05
1.08600e-05	5.945944898067526e-05
1.08602e-05	3.0462511014195248e-05
1.08605e-05	1.3290365053454252e-06
1.08608e-05	-2.7762808254472594e-05
1.08610e-05	-5.663308147126047e-05
1.08613e-05	-8.510185311031623e-05
1.08615e-05	-0.00011298924896602762
1.08618e-05	-0.00014016320939722236
1.08620e-05	-0.00016659679452457523
1.08623e-05	-0.0001922757018507583
1.08625e-05	-0.00021708339406675844
1.08628e-05	-0.00024084217584698604
1.08630e-05	-0.000263370931454838
1.08633e-05	-0.00028448852038271734
1.08635e-05	-0.0003040138825012204
1.08638e-05	-0.0003213915071142001
1.08640e-05	-0.0003386391646386219
1.08643e-05	-0.000354399249345397
1.08645e-05	-0.0003700651282364106
1.08648e-05	-0.0003839779222436334
1.08650e-05	-0.0003977796959431612
1.08653e-05	-0.00041158146964278256
1.08655e-05	-0.00042267548009090823
1.08658e-05	-0.00043359801184337095
1.08660e-05	-0.00044452054359590766
1.08663e-05	-0.0004538027797203693
1.08665e-05	-0.0004629811383161254
1.08668e-05	-0.00047215949691194366
1.08670e-05	-0.0004798294583039256
1.08673e-05	-0.00048740389510194517
1.08675e-05	-0.000494978331900016
1.08678e-05	-0.0004999841357643716
1.08680e-05	-0.0005048272718530544
1.08683e-05	-0.0005096704079417701
1.08685e-05	-0.0005145135440304858
1.08687e-05	-0.0005193566801191686
1.08690e-05	-0.0005241998162078843
1.08693e-05	-0.0005290429522965999
1.08695e-05	-0.0005338860883852827
1.08698e-05	-0.0005387292244739985
1.08700e-05	-0.0005412515674778488
1.08703e-05	-0.000543626938041995
1.08705e-05	-0.000546002308606125
1.08708e-05	-0.0005483776791702712
1.08710e-05	-0.0005507530497344174
1.08713e-05	-0.0005531284202985474
1.08715e-05	-0.0005555037908626936
1.08718e-05	-0.0005578791614268397
1.08720e-05	-0.0005602545319909699
1.08723e-05	-0.0005617661824307591
1.08725e-05	-0.0005632231347353408
1.08728e-05	-0.0005646800870399127
1.08730e-05	-0.0005661370393444945
1.08733e-05	-0.0005667667457529069
1.08735e-05	-0.000567344063885759
1.08738e-05	-0.000567921382018615
1.08740e-05	-0.0005684987001514709
1.08743e-05	-0.0005648363693812309
1.08745e-05	-0.0005609055478320702
1.08748e-05	-0.0005527236501973596
1.08750e-05	-0.0005442725381170228
1.08753e-05	-0.0005329228904224356
1.08755e-05	-0.0005186963984382047
1.08758e-05	-0.0005042993446917957
1.08760e-05	-0.00048675337002609747
1.08763e-05	-0.0004663810953600339
1.08765e-05	-0.00044321065387661435
1.08768e-05	-0.0004174368578473814
1.08770e-05	-0.0003892673253322845
1.08772e-05	-0.0003589097104285054
1.08775e-05	-0.0003265716142249594
1.08778e-05	-0.00029235468315126243
1.08780e-05	-0.0002561351362624526
1.08783e-05	-0.00021778092512517503
1.08785e-05	-0.00017740377442038976
1.08788e-05	-0.00013525612636592792
1.08790e-05	-9.159841996488489e-05
1.08793e-05	-4.669108785553959e-05
1.08795e-05	-7.945346565447516e-07
1.08798e-05	4.5897237117308154e-05
1.08800e-05	9.3331441703043e-05
1.08803e-05	0.00014168709495452508
1.08805e-05	0.0001900983119484789
1.08808e-05	0.00023872294354915203
1.08810e-05	0.00028736109038546265
1.08813e-05	0.0003359992372214437
1.08815e-05	0.00038326205764790787
1.08818e-05	0.00043043778065951326
1.08820e-05	0.0004755461142486792
1.08823e-05	0.0005205235230824809
1.08825e-05	0.0005626165194786135
1.08828e-05	0.0006045268502432789
1.08830e-05	0.0006423963103386327
1.08833e-05	0.0006800098679902716
1.08835e-05	0.0007124483763245677
1.08838e-05	0.0007445591563364302
1.08840e-05	0.000771155438129555
1.08843e-05	0.0007974024947961389
1.08845e-05	0.0008183012469009355
1.08848e-05	0.0008388612986811295
1.08850e-05	0.0008537671532267225
1.08853e-05	0.0008683149357111645
1.08855e-05	0.0008768879577023364
1.08857e-05	0.0008850826068286893
1.08860e-05	0.0008874798289107221
1.08863e-05	0.0008895099083965776
1.08865e-05	0.0008862365709352706
1.08868e-05	0.0008826273758164884
1.08870e-05	0.0008739130903705277
1.08873e-05	0.0008648755070025981
1.08875e-05	0.000850921853958684
1.08878e-05	0.00083665687339479
1.08880e-05	0.0008179768400992382
1.08883e-05	0.0007990172079559884
1.08885e-05	0.0007755206057646189
1.08888e-05	0.0007517366838796252
1.08890e-05	0.0007279527619947926
1.08893e-05	0.0006997461692565879
1.08895e-05	0.000671259495225966
1.08898e-05	0.0006427728211955372
1.08900e-05	0.0006110627420006781
1.08903e-05	0.0005791485292597204
1.08905e-05	0.0005472343165189788
1.08908e-05	0.0005153201037780211
1.08910e-05	0.0004825004750020554
1.08913e-05	0.0004496235075498117
1.08915e-05	0.0004167465400973452
1.08918e-05	0.00038386957264487873
1.08920e-05	0.00035220662357934
1.08923e-05	0.00032062055652678194
1.08925e-05	0.0002910276911645636
1.08928e-05	0.0002615610523575559
1.08930e-05	0.000234111756018874
1.08933e-05	0.00020841094531975538
1.08935e-05	0.00018464042434537827
1.08938e-05	0.00016316077924010685
1.08940e-05	0.0001446044871024242
1.08942e-05	0.00012954371392986515
1.08945e-05	0.00011816538379108442
1.08948e-05	0.00011045107834496398
1.08950e-05	0.0001063706885604601
1.08953e-05	0.00010589407828765666
1.08955e-05	0.00010899109682494247
1.08958e-05	0.00011571967086276671
1.08960e-05	0.00012630800008107528
1.08963e-05	0.0001409464735613135
1.08965e-05	0.00015958417889435684
1.08968e-05	0.00018204154883463535
