Time(s)	Current(A)
1.35500e-05	0.009119796727024943
1.35503e-05	0.0090265557929158
1.35505e-05	0.008934606315124636
1.35508e-05	0.00884265683733285
1.35510e-05	0.008775765302896029
1.35513e-05	0.00871344864678378
1.35515e-05	0.008651131990671109
1.35518e-05	0.008588815334558438
1.35520e-05	0.00852649867844619
1.35523e-05	0.00846418202233352
1.35525e-05	0.008401865366220848
1.35528e-05	0.008339548710108178
1.35530e-05	0.008277232053995928
1.35533e-05	0.008214915397883257
1.35535e-05	0.008181566584281761
1.35538e-05	0.00815350648703459
1.35540e-05	0.008125446389787227
1.35543e-05	0.008097386292539864
1.35545e-05	0.008069326195292692
1.35548e-05	0.00804126609804533
1.35550e-05	0.008013206000797968
1.35553e-05	0.007985145903550796
1.35555e-05	0.007957085806303435
1.35558e-05	0.007929025709056072
1.35560e-05	0.007914477406983086
1.35563e-05	0.007902395980104315
1.35565e-05	0.007890314553225546
1.35568e-05	0.007886515086462414
1.35570e-05	0.007884227673553467
1.35573e-05	0.00788194026064452
1.35575e-05	0.007879652847735587
1.35578e-05	0.00787736543482664
1.35580e-05	0.007875078021917694
1.35583e-05	0.007872790609008763
1.35585e-05	0.007870503196099816
1.35588e-05	0.007868215783190868
1.35590e-05	0.007865928370281937
1.35593e-05	0.00786364095737299
1.35595e-05	0.00786575846970004
1.35598e-05	0.007868680197947968
1.35600e-05	0.00787160192619592
1.35603e-05	0.007874523654443868
1.35605e-05	0.007877445382691799
1.35608e-05	0.007880367110939748
1.35610e-05	0.007883288839187697
1.35613e-05	0.007886210567435646
1.35615e-05	0.007889132295683577
1.35618e-05	0.007892054023931526
1.35620e-05	0.007894975752179475
1.35623e-05	0.00790026313085086
1.35625e-05	0.00790598241100347
1.35628e-05	0.00791170169115608
1.35630e-05	0.007917420971308651
1.35633e-05	0.007923140251461262
1.35635e-05	0.007928859531613871
1.35638e-05	0.007934578811766442
1.35640e-05	0.007940298091919052
1.35643e-05	0.007946017372071661
1.35645e-05	0.007951736652224232
1.35648e-05	0.007957455932376843
1.35650e-05	0.007963175212529452
1.35653e-05	0.007968894492682024
1.35655e-05	0.007974613772834633
1.35658e-05	0.007980333052987244
1.35660e-05	0.007986052333139815
1.35663e-05	0.007993268933901825
1.35665e-05	0.008003320557340168
1.35668e-05	0.008013372180778444
1.35670e-05	0.008023423804216789
1.35673e-05	0.008033475427655132
1.35675e-05	0.008043527051093407
1.35678e-05	0.008053578674531752
1.35680e-05	0.008063630297970095
1.35683e-05	0.00807368192140837
1.35685e-05	0.008083733544846716
1.35688e-05	0.008093785168285059
1.35690e-05	0.008103836791723334
1.35693e-05	0.008113888415161679
1.35695e-05	0.008123940038600022
1.35698e-05	0.008133991662038367
1.35700e-05	0.008144043285476642
1.35703e-05	0.008154094908914986
1.35705e-05	0.008158555998844137
1.35708e-05	0.008161996414002108
1.35710e-05	0.008165436829160103
1.35713e-05	0.008168877244318097
1.35715e-05	0.008172317659476068
1.35718e-05	0.008175758074634061
1.35720e-05	0.008179198489792056
1.35723e-05	0.008182638904950027
1.35725e-05	0.00818607932010802
1.35728e-05	0.008189519735266014
1.35730e-05	0.008192960150423985
1.35733e-05	0.00819640056558198
1.35735e-05	0.008199840980739974
1.35738e-05	0.008203281395897944
1.35740e-05	0.008206721811055938
1.35743e-05	0.008210162226213931
1.35745e-05	0.008213602641371902
1.35748e-05	0.008208049582927748
1.35750e-05	0.008200854568202031
1.35753e-05	0.008193659553476364
1.35755e-05	0.008186464538750647
1.35758e-05	0.008179269524024932
1.35760e-05	0.008172074509299266
1.35763e-05	0.008164879494573549
1.35765e-05	0.008157684479847833
1.35768e-05	0.008150489465122165
1.35770e-05	0.00814329445039645
1.35773e-05	0.008136099435670733
1.35775e-05	0.008128904420945066
1.35778e-05	0.00812170940621935
1.35780e-05	0.008114514391493634
1.35783e-05	0.008107319376767917
1.35785e-05	0.00810012436204225
1.35788e-05	0.008092929347316535
1.35790e-05	0.008085471677174235
1.35793e-05	0.008077966053512544
1.35795e-05	0.008070460429850802
1.35798e-05	0.00806295480618906
1.35800e-05	0.00805544918252737
1.35803e-05	0.008047943558865627
1.35805e-05	0.008040437935203886
1.35808e-05	0.008032932311542194
1.35810e-05	0.008025426687880453
1.35813e-05	0.008017921064218711
1.35815e-05	0.00801041544055702
1.35818e-05	0.008002909816895278
1.35820e-05	0.007995404193233536
1.35823e-05	0.007987898569571845
1.35825e-05	0.007980392945910103
1.35828e-05	0.007972887322248361
1.35830e-05	0.00796538169858667
1.35833e-05	0.007957876074924928
1.35835e-05	0.007950370451263187
1.35838e-05	0.007942864827601495
1.35840e-05	0.007935359203939753
1.35843e-05	0.00792785358027801
1.35845e-05	0.00792034795661632
1.35848e-05	0.007912842332954579
1.35850e-05	0.00790634831453436
1.35853e-05	0.007901769666665415
1.35855e-05	0.007897191018796441
1.35858e-05	0.007892612370927468
1.35860e-05	0.007888033723058525
1.35863e-05	0.007883455075189552
1.35865e-05	0.007878876427320578
1.35868e-05	0.007874297779451603
1.35870e-05	0.00786971913158266
1.35873e-05	0.007865140483713687
1.35875e-05	0.007860561835844713
1.35878e-05	0.00785598318797577
1.35880e-05	0.007851404540106795
1.35883e-05	0.007846825892237822
1.35885e-05	0.00784224724436888
1.35888e-05	0.007837668596499906
1.35890e-05	0.007833089948630932
1.35893e-05	0.00782851130076199
1.35895e-05	0.007823932652893014
1.35898e-05	0.00781935400502404
1.35900e-05	0.007814775357155098
1.35903e-05	0.007810196709286125
1.35905e-05	0.00780561806141715
1.35908e-05	0.007801039413548208
1.35910e-05	0.007796460765679234
1.35913e-05	0.007796234860858247
1.35915e-05	0.007796803644954268
1.35918e-05	0.007797372429050294
1.35920e-05	0.007797941213146319
1.35923e-05	0.007798509997242341
1.35925e-05	0.007806238238701952
1.35928e-05	0.007827522176828135
1.35930e-05	0.007848806114954174
1.35933e-05	0.007870090053080358
1.35935e-05	0.00789137399120654
1.35938e-05	0.007912657929332578
1.35940e-05	0.007961968802394834
1.35943e-05	0.008016396608463703
1.35945e-05	0.008070824414532203
1.35948e-05	0.008125252220601073
1.35950e-05	0.008179680026669942
1.35953e-05	0.008234107832738811
1.35955e-05	0.00828853563880731
1.35958e-05	0.008342963444876181
1.35960e-05	0.008408319520858243
1.35963e-05	0.008494367152710427
1.35965e-05	0.008580414784563194
1.35968e-05	0.00866646241641596
1.35970e-05	0.008752510048268144
1.35973e-05	0.008838557680120911
1.35975e-05	0.00892460531197368
1.35978e-05	0.009010652943825864
1.35980e-05	0.00909670057567863
1.35983e-05	0.00919004512569925
1.35985e-05	0.0092847218885179
1.35988e-05	0.00937939865133719
1.35990e-05	0.009474075414156478
1.35993e-05	0.009568752176975127
1.35995e-05	0.009663428939794418
1.35998e-05	0.009758105702613708
1.36000e-05	0.009845973403136064
1.36003e-05	0.009920948844035594
1.36005e-05	0.009995924284935126
1.36008e-05	0.010070899725834147
1.36010e-05	0.01014587516673368
1.36013e-05	0.01022085060763321
1.36015e-05	0.010295826048532233
1.36018e-05	0.010370801489431765
1.36020e-05	0.010408227044689721
1.36023e-05	0.010438797042970871
1.36025e-05	0.01046936704125223
1.36028e-05	0.010499937039533586
1.36030e-05	0.010530507037814735
1.36033e-05	0.010561077036096093
1.36035e-05	0.010591647034377451
1.36038e-05	0.010622217032658808
1.36040e-05	0.01065278703093996
1.36043e-05	0.010683357029221316
1.36045e-05	0.010713927027502674
1.36048e-05	0.010744497025783823
1.36050e-05	0.010775067024065181
1.36053e-05	0.01080563702234654
1.36055e-05	0.010803712169604988
1.36058e-05	0.010795854667565991
1.36060e-05	0.010787997165526994
1.36063e-05	0.01078013966348805
1.36065e-05	0.010772282161449053
1.36068e-05	0.010764424659410054
1.36070e-05	0.01075656715737111
1.36073e-05	0.010748709655332114
1.36075e-05	0.010740852153293116
1.36078e-05	0.010732994651254171
1.36080e-05	0.010725137149215174
1.36083e-05	0.010717279647176177
1.36085e-05	0.010709422145137234
1.36088e-05	0.010701564643098236
1.36090e-05	0.010684899081477036
1.36093e-05	0.010666625414976115
1.36095e-05	0.01064835174847507
1.36098e-05	0.010630078081974024
1.36100e-05	0.010611804415473103
1.36103e-05	0.010594718201576607
1.36105e-05	0.010577848783253567
1.36108e-05	0.010560979364930641
1.36110e-05	0.0105441099466076
1.36113e-05	0.010527240528284562
1.36115e-05	0.010508119242711078
1.36118e-05	0.010488586829274263
1.36120e-05	0.010469054415837446
1.36123e-05	0.01044952200240063
1.36125e-05	0.010429989588963946
1.36128e-05	0.010410457175527129
1.36130e-05	0.010384079246634462
1.36133e-05	0.010344740037802575
1.36135e-05	0.010305400828970421
1.36138e-05	0.010266061620138267
1.36140e-05	0.010226722411306378
1.36143e-05	0.010187383202474224
1.36145e-05	0.010148043993642072
1.36148e-05	0.010085471955003467
1.36150e-05	0.010018658252618837
1.36153e-05	0.009951844550234207
1.36155e-05	0.009885030847850028
1.36158e-05	0.009818217145465397
1.36160e-05	0.009751403443080765
1.36163e-05	0.009684589740696588
1.36165e-05	0.009617776038311958
1.36168e-05	0.009550962335927327
1.36170e-05	0.009468386723233486
1.36173e-05	0.009382933427360214
1.36175e-05	0.009297480131486943
1.36178e-05	0.009212026835614251
1.36180e-05	0.00912657353974098
1.36183e-05	0.009041120243867709
1.36185e-05	0.008955666947995017
1.36188e-05	0.008870213652121746
1.36190e-05	0.008784760356248474
1.36193e-05	0.008701436235646717
1.36195e-05	0.008618500842790118
1.36198e-05	0.008535565449933521
1.36200e-05	0.008452630057077486
1.36203e-05	0.008369694664220887
1.36205e-05	0.008299273279776757
1.36208e-05	0.0082311366026308
1.36210e-05	0.008162999925485304
1.36213e-05	0.008094863248339345
1.36215e-05	0.008026726571193387
1.36218e-05	0.007981153401801278
1.36220e-05	0.007939699696703658
1.36223e-05	0.007898245991606037
1.36225e-05	0.007856792286508698
1.36228e-05	0.007815338581411077
1.36230e-05	0.0077738848763134576
1.36233e-05	0.007732431171216118
1.36235e-05	0.007690977466118498
1.36238e-05	0.0076495237610208775
1.36240e-05	0.007608070055923538
1.36243e-05	0.007566616350825918
1.36245e-05	0.007525162645728297
1.36248e-05	0.007483708940630958
1.36250e-05	0.007459393708306595
1.36253e-05	0.007438207480897855
1.36255e-05	0.007417021253489259
1.36258e-05	0.0073958350260805205
1.36260e-05	0.007374648798671781
1.36263e-05	0.007353462571263185
1.36265e-05	0.007332276343854446
1.36268e-05	0.0073110901164457065
1.36270e-05	0.007289903889037111
1.36273e-05	0.007268717661628372
1.36275e-05	0.007247531434219633
1.36278e-05	0.007226345206811037
1.36280e-05	0.007205158979402298
1.36283e-05	0.00719280687568173
1.36285e-05	0.007182067635418613
1.36288e-05	0.007171328395155423
1.36290e-05	0.007160589154892234
1.36293e-05	0.007149849914629044
1.36295e-05	0.007139110674365927
1.36298e-05	0.007128371434102738
1.36300e-05	0.007117632193839548
1.36303e-05	0.007106892953576431
1.36305e-05	0.007096153713313242
1.36308e-05	0.007085414473050052
1.36310e-05	0.0070746752327869354
1.36313e-05	0.007063935992523746
1.36315e-05	0.007053196752260556
1.36318e-05	0.0070424575119974395
1.36320e-05	0.00703171827173425
1.36323e-05	0.00702097903147106
1.36325e-05	0.007010382392613166
1.36328e-05	0.007000055754859747
1.36330e-05	0.006989729117106328
1.36333e-05	0.00697940247935298
1.36335e-05	0.006969075841599562
1.36338e-05	0.006958749203846143
1.36340e-05	0.006948422566092794
1.36343e-05	0.006938095928339376
1.36345e-05	0.0069277692905859575
1.36348e-05	0.0069174426528326085
1.36350e-05	0.00690711601507919
1.36353e-05	0.006896789377325772
1.36355e-05	0.006886462739572424
1.36358e-05	0.006876136101819004
1.36360e-05	0.006865809464065586
1.36363e-05	0.006855482826312238
1.36365e-05	0.006845156188558819
1.36368e-05	0.006834829550805401
1.36370e-05	0.0068218825169562795
1.36373e-05	0.006808457072201995
1.36375e-05	0.00679503162744771
1.36378e-05	0.006781606182693426
1.36380e-05	0.006768180737939233
1.36383e-05	0.006754755293184948
1.36385e-05	0.006741329848430664
1.36388e-05	0.0067279044036764706
1.36390e-05	0.006714478958922186
1.36393e-05	0.006701053514167901
1.36395e-05	0.0066876280694137084
1.36398e-05	0.006674202624659424
1.36400e-05	0.006660777179905139
1.36403e-05	0.006653110923293103
1.36405e-05	0.006646496133066695
1.36408e-05	0.006639881342840287
1.36410e-05	0.006633266552613924
1.36413e-05	0.006626651762387516
1.36415e-05	0.006620036972161108
1.36418e-05	0.006613422181934745
1.36420e-05	0.006606807391708337
1.36423e-05	0.006600192601481929
1.36425e-05	0.006593577811255566
1.36428e-05	0.006586963021029158
1.36430e-05	0.00658034823080275
1.36433e-05	0.006573733440576387
1.36435e-05	0.006584956819574691
1.36438e-05	0.006599436948459007
1.36440e-05	0.006613917077343224
1.36443e-05	0.00662839720622754
1.36445e-05	0.006642877335111855
1.36448e-05	0.0066573574639960725
1.36450e-05	0.006671837592880388
1.36453e-05	0.006686317721764703
1.36455e-05	0.006700797850648921
1.36458e-05	0.006715277979533236
1.36460e-05	0.006729758108417552
1.36463e-05	0.006744238237301868
1.36465e-05	0.006763837806293323
1.36468e-05	0.006793130508968205
1.36470e-05	0.006822423211643086
1.36473e-05	0.0068517159143177695
1.36475e-05	0.006881008616992651
1.36478e-05	0.006910301319667533
1.36480e-05	0.006939594022342216
1.36483e-05	0.006968886725017097
1.36485e-05	0.006998179427691979
1.36488e-05	0.007027472130366662
1.36490e-05	0.007056764833041544
1.36493e-05	0.007086057535716425
1.36495e-05	0.007115350238391108
1.36498e-05	0.007142785882694108
1.36500e-05	0.007169882480171902
1.36503e-05	0.007196979077649513
1.36505e-05	0.007224075675127306
1.36508e-05	0.0072511722726051
1.36510e-05	0.00727826887008271
1.36513e-05	0.007300676717734814
1.36515e-05	0.007322228531044205
1.36518e-05	0.0073437803443534505
1.36520e-05	0.0073653321576628425
1.36523e-05	0.0073868839709722335
1.36525e-05	0.007408435784281479
1.36528e-05	0.007437733931554068
1.36530e-05	0.0074684463423616764
1.36533e-05	0.007499158753169078
1.36535e-05	0.007529871163976688
1.36538e-05	0.0075605835747842975
1.36540e-05	0.007591295985591699
1.36543e-05	0.007622008396399309
1.36545e-05	0.007652720807206918
1.36548e-05	0.007683433218014319
1.36550e-05	0.007714145628821929
1.36553e-05	0.007758208966649321
1.36555e-05	0.007804709809667614
1.36558e-05	0.007851210652685592
1.36560e-05	0.007897711495703886
1.36563e-05	0.00794421233872218
1.36565e-05	0.007990713181740158
1.36568e-05	0.008037214024758451
1.36570e-05	0.008083714867776745
1.36573e-05	0.008130215710794723
1.36575e-05	0.008176716553813017
1.36578e-05	0.008228156433387692
1.36580e-05	0.008280498042649267
1.36583e-05	0.008332839651911197
1.36585e-05	0.008385181261173127
1.36588e-05	0.008437522870434703
1.36590e-05	0.008489864479696633
1.36593e-05	0.008542206088958563
1.36595e-05	0.008594547698220137
1.36598e-05	0.008639061555023359
1.36600e-05	0.008682146283554898
1.36603e-05	0.008725231012086146
1.36605e-05	0.008768315740617686
1.36608e-05	0.008811400469149225
1.36610e-05	0.008854485197680471
1.36613e-05	0.008897569926212011
1.36615e-05	0.00894065465474355
1.36618e-05	0.008973494454406285
1.36620e-05	0.009004463817112231
1.36623e-05	0.009035433179818177
1.36625e-05	0.009066402542523914
1.36628e-05	0.00909737190522986
1.36630e-05	0.009128341267935805
1.36633e-05	0.009159310630641541
1.36635e-05	0.009190279993347487
1.36638e-05	0.009221249356053434
1.36640e-05	0.00925221871875938
1.36643e-05	0.009284752923170906
1.36645e-05	0.009317572823832613
1.36648e-05	0.00935039272449432
1.36650e-05	0.009383212625155804
1.36653e-05	0.00941603252581751
1.36655e-05	0.009448852426479219
1.36658e-05	0.009481672327140703
1.36660e-05	0.00951449222780241
1.36663e-05	0.009547312128464117
1.36665e-05	0.009580132029125601
1.36668e-05	0.009615331630698358
1.36670e-05	0.009650965698980385
1.36673e-05	0.009686599767262171
1.36675e-05	0.009722233835544197
1.36678e-05	0.009757867903826224
1.36680e-05	0.00979350197210801
1.36683e-05	0.009829136040390037
1.36685e-05	0.009864770108672065
1.36688e-05	0.009900404176953849
1.36690e-05	0.009934050018221225
1.36693e-05	0.009963931355976828
1.36695e-05	0.009993812693732231
1.36698e-05	0.010023694031487836
1.36700e-05	0.010053575369243442
1.36703e-05	0.010083456706998842
1.36705e-05	0.010113338044754448
1.36708e-05	0.010143219382510053
1.36710e-05	0.010173100720265456
1.36713e-05	0.01020298205802106
1.36715e-05	0.01021529046815141
1.36718e-05	0.010224390554074016
1.36720e-05	0.010233490639996684
1.36723e-05	0.010242590725919352
1.36725e-05	0.01025169081184202
1.36728e-05	0.010260790897764625
1.36730e-05	0.010269890983687293
1.36733e-05	0.010248554454036975
1.36735e-05	0.01022166105118818
1.36738e-05	0.010194767648339204
1.36740e-05	0.010167874245490226
1.36743e-05	0.010140980842641431
1.36745e-05	0.010114087439792455
1.36748e-05	0.010087194036943477
1.36750e-05	0.010026599978310142
1.36753e-05	0.00995985312419031
1.36755e-05	0.00989310627007048
1.36758e-05	0.009826359415951101
1.36760e-05	0.009759612561831272
1.36763e-05	0.00969286570771144
1.36765e-05	0.009626118853592061
1.36768e-05	0.009559371999472231
1.36770e-05	0.009492625145352401
1.36773e-05	0.009405195131839515
1.36775e-05	0.009313988952942559
1.36778e-05	0.0092227827740456
1.36780e-05	0.009131576595149262
1.36783e-05	0.009040370416252306
1.36785e-05	0.008949164237355348
1.36788e-05	0.00885795805845901
1.36790e-05	0.008766751879562053
1.36793e-05	0.008675545700665095
1.36795e-05	0.008585142987436751
1.36798e-05	0.008494886964526473
1.36800e-05	0.008404630941616196
1.36803e-05	0.008325542687380188
1.36805e-05	0.008248493354793985
1.36808e-05	0.008171444022207784
1.36810e-05	0.008094394689621582
1.36813e-05	0.008017345357035901
1.36815e-05	0.007948068280081568
1.36818e-05	0.007893507170376162
1.36820e-05	0.007838946060671127
1.36823e-05	0.007784384950965723
1.36825e-05	0.007729823841260318
1.36828e-05	0.007675262731555283
1.36830e-05	0.007644497130821373
1.36833e-05	0.00761807592330065
1.36835e-05	0.007591654715780105
1.36838e-05	0.007565233508259382
1.36840e-05	0.007538812300738659
1.36843e-05	0.007512391093218114
1.36845e-05	0.007485969885697391
1.36848e-05	0.0074595486781766675
1.36850e-05	0.007433127470656123
1.36853e-05	0.0074067062631354
1.36855e-05	0.007380285055614676
1.36858e-05	0.007353863848094132
1.36860e-05	0.0073274426405734085
1.36863e-05	0.007309174438524658
1.36865e-05	0.007306343114417558
1.36868e-05	0.007303511790310437
1.36870e-05	0.007300680466203318
1.36873e-05	0.007297849142096216
1.36875e-05	0.007295017817989097
1.36878e-05	0.007292186493881977
1.36880e-05	0.0072893551697748755
1.36883e-05	0.007286523845667756
1.36885e-05	0.007283692521560636
1.36888e-05	0.007280861197453535
1.36890e-05	0.007278029873346415
1.36893e-05	0.007275198549239296
1.36895e-05	0.007272367225132175
1.36898e-05	0.007274475776060054
1.36900e-05	0.007277486209759457
1.36903e-05	0.007280496643458861
1.36905e-05	0.007283507077158243
1.36908e-05	0.007286517510857647
1.36910e-05	0.00728952794455705
1.36913e-05	0.0072925383782564334
1.36915e-05	0.007295548811955837
1.36918e-05	0.0072985592456552405
1.36920e-05	0.007301569679354624
1.36923e-05	0.007309549335797577
1.36925e-05	0.00732693770479867
1.36928e-05	0.007344326073799646
1.36930e-05	0.007361714442800739
1.36933e-05	0.007379102811801833
1.36935e-05	0.007396491180802808
1.36938e-05	0.007413879549803901
1.36940e-05	0.007431267918804995
1.36943e-05	0.007448656287805971
1.36945e-05	0.007466044656807063
1.36948e-05	0.007483433025808157
1.36950e-05	0.007521527227506204
1.36953e-05	0.007563401734101664
1.36955e-05	0.007605276240697124
1.36958e-05	0.0076471507472923
1.36960e-05	0.00768902525388776
1.36963e-05	0.007730899760483219
1.36965e-05	0.0077727742670783955
1.36968e-05	0.007814648773673856
1.36970e-05	0.007856523280269315
1.36973e-05	0.007898397786864492
1.36975e-05	0.00794027229345995
1.36978e-05	0.007989615291145512
1.36980e-05	0.00804032182604596
1.36983e-05	0.008091028360946065
1.36985e-05	0.008141734895846514
1.36988e-05	0.008192441430746962
1.36990e-05	0.008243147965647067
1.36993e-05	0.008293854500547516
1.36995e-05	0.008344561035447964
1.36998e-05	0.008395267570348069
1.37000e-05	0.008445974105248518
1.37003e-05	0.008496680640148966
1.37005e-05	0.008534190682811821
1.37008e-05	0.008569291415741885
1.37010e-05	0.00860439214867195
1.37013e-05	0.008639492881601776
1.37015e-05	0.00867459361453184
