Time(s)	Current(A)
1.20000e-05	-0.0013157760398161682
1.20003e-05	-0.0013391529394427724
1.20005e-05	-0.0013623023008110411
1.20008e-05	-0.0013853983453018773
1.20010e-05	-0.0014075062552010823
1.20013e-05	-0.0014295234262833272
1.20015e-05	-0.0014498589129075794
1.20018e-05	-0.0014701058688418968
1.20020e-05	-0.0014886421430304133
1.20023e-05	-0.001505801040742036
1.20025e-05	-0.001521343636356718
1.20028e-05	-0.0015347228516046781
1.20030e-05	-0.0015442801420730108
1.20033e-05	-0.0015535493241329405
1.20035e-05	-0.0015574789233212222
1.20038e-05	-0.0015610564022610555
1.20040e-05	-0.001558107951405138
1.20043e-05	-0.0015551595005492205
1.20045e-05	-0.0015517631783885542
1.20048e-05	-0.0015400663489279665
1.20050e-05	-0.0015283695194673787
1.20052e-05	-0.0015163604531189068
1.20055e-05	-0.0014984197348737092
1.20058e-05	-0.0014776565259947514
1.20060e-05	-0.0014542208798721866
1.20063e-05	-0.0014282614163520263
1.20065e-05	-0.001399897305366077
1.20068e-05	-0.0013691548384931066
1.20070e-05	-0.0013360384403406944
1.20073e-05	-0.0013006781774390923
1.20075e-05	-0.001263293447376889
1.20078e-05	-0.0012241092571320254
1.20080e-05	-0.00118335019569919
1.20083e-05	-0.0011412404297165308
1.20085e-05	-0.0010979850464134754
1.20088e-05	-0.0010537313934126677
1.20090e-05	-0.0010086130040741212
1.20093e-05	-0.0009628420282513992
1.20095e-05	-0.0009166865865224728
1.20098e-05	-0.0008704183191414941
1.20100e-05	-0.0008243085991637361
1.20103e-05	-0.0007786284319195697
1.20105e-05	-0.0007336370119424806
1.20108e-05	-0.0006895572427854374
1.20110e-05	-0.0006466032197858055
1.20113e-05	-0.000605038527902039
1.20115e-05	-0.0005651617632969786
1.20118e-05	-0.0005272735073511227
1.20120e-05	-0.0004916742921778949
1.20123e-05	-0.00045865814639525006
1.20125e-05	-0.00042836926326378887
1.20128e-05	-0.0004004294916678423
1.20130e-05	-0.00037416467644369383
1.20133e-05	-0.0003493346326127808
1.20135e-05	-0.0003260739012297451
1.20137e-05	-0.0003045411765424162
1.20140e-05	-0.0002848949900949387
1.20143e-05	-0.00026728979102917026
1.20145e-05	-0.00025178626532112005
1.20148e-05	-0.00023811780514584017
1.20150e-05	-0.0002258324474512372
1.20153e-05	-0.00021475011577221545
1.20155e-05	-0.00020492543884672012
1.20158e-05	-0.0001964281610243869
1.20160e-05	-0.0001893279714273115
1.20163e-05	-0.0001836919636600006
1.20165e-05	-0.00017952843524403345
1.20168e-05	-0.00017664077293671337
1.20170e-05	-0.00017471621688518716
1.20173e-05	-0.0001736123522999085
1.20175e-05	-0.00017335563342547522
1.20178e-05	-0.0001742991650569641
1.20180e-05	-0.00017533062841277935
1.20183e-05	-0.00017799175170251505
1.20185e-05	-0.0001807224849998814
1.20188e-05	-0.00018474331742067383
1.20190e-05	-0.00018880202510266895
1.20193e-05	-0.0001935626841695969
1.20195e-05	-0.0001983605918436658
1.20198e-05	-0.00020384883697076756
1.20200e-05	-0.0002093370820978321
1.20203e-05	-0.00021485164620001278
1.20205e-05	-0.0002208539862389407
1.20208e-05	-0.0002268563262778279
1.20210e-05	-0.00023283856992862604
1.20213e-05	-0.00023844836235299192
1.20215e-05	-0.00024405815477731977
1.20218e-05	-0.0002492566751233121
1.20220e-05	-0.00025412032100472653
1.20222e-05	-0.0002589518863190034
1.20225e-05	-0.0002631888947164708
1.20228e-05	-0.00026745871510444396
1.20230e-05	-0.00027233664805619657
1.20233e-05	-0.0002772759826789125
1.20235e-05	-0.00028335328933445854
1.20238e-05	-0.00028943059599000455
1.20240e-05	-0.0002955614112313504
1.20243e-05	-0.00030268391404881227
1.20245e-05	-0.0003098064168662742
1.20248e-05	-0.00031701925472008696
1.20250e-05	-0.0003259062936743102
1.20253e-05	-0.00033479333262853334
1.20255e-05	-0.0003437704473653216
1.20258e-05	-0.0003544169583898067
1.20260e-05	-0.00036506346941429167
1.20263e-05	-0.0003757768987018632
1.20265e-05	-0.00038773054036237467
1.20268e-05	-0.00039968418202288616
1.20270e-05	-0.0004117140159799818
1.20273e-05	-0.00042515594021855924
1.20275e-05	-0.0004385978644571367
1.20278e-05	-0.0004520849579520903
1.20280e-05	-0.0004664091842135173
1.20283e-05	-0.00048073341047494435
1.20285e-05	-0.0004950802176395945
1.20288e-05	-0.0005098455221528701
1.20290e-05	-0.0005246108266661457
1.20293e-05	-0.0005393809179374741
1.20295e-05	-0.0005542397233567303
1.20298e-05	-0.0005690985287759866
1.20300e-05	-0.0005839223806295449
1.20303e-05	-0.0005980984295888398
1.20305e-05	-0.0006122744785481347
1.20307e-05	-0.0006263896217462184
1.20310e-05	-0.0006393759837266566
1.20313e-05	-0.0006523623457070949
1.20315e-05	-0.0006652727820944228
1.20318e-05	-0.0006767760710824468
1.20320e-05	-0.0006882192221375542
1.20323e-05	-0.0006985073817137954
1.20325e-05	-0.0007080313010454028
1.20328e-05	-0.0007173255320274525
1.20330e-05	-0.0007274274133713238
1.20333e-05	-0.0007376094180337856
1.20335e-05	-0.0007492763675617447
1.20338e-05	-0.0007609433170897037
1.20340e-05	-0.0007726578481259567
1.20343e-05	-0.0007852542187782747
1.20345e-05	-0.0007979091331018483
1.20348e-05	-0.0008116490514603792
1.20350e-05	-0.0008255150386653746
1.20353e-05	-0.0008417174903266037
1.20355e-05	-0.000857919941987723
1.20358e-05	-0.000874245134660386
1.20360e-05	-0.0008928451162188952
1.20363e-05	-0.0009114450977772783
1.20365e-05	-0.0009300450793357875
1.20368e-05	-0.0009487794422506063
1.20370e-05	-0.000970004327381695
1.20373e-05	-0.0009912292125129273
1.20375e-05	-0.0010124540976441598
1.20378e-05	-0.0010337595975336844
1.20380e-05	-0.001056559150262417
1.20383e-05	-0.0010793587029911493
1.20385e-05	-0.0011021854664382638
1.20388e-05	-0.0011255165327213508
1.20390e-05	-0.0011488475990044376
1.20392e-05	-0.0011721817564663134
1.20395e-05	-0.0011955732034963213
1.20398e-05	-0.001218964650526329
1.20400e-05	-0.0012422965287896528
1.20403e-05	-0.0012645244046780005
1.20405e-05	-0.001286752280566348
1.20408e-05	-0.0013088827783580214
1.20410e-05	-0.001329208544302901
1.20413e-05	-0.0013495343102479184
1.20415e-05	-0.0013697244668082844
1.20418e-05	-0.0013874013418033963
1.20420e-05	-0.0014050782167986278
1.20423e-05	-0.0014210557819286098
1.20425e-05	-0.001435649699804993
1.20428e-05	-0.0014501438469010847
1.20430e-05	-0.0014627889179630337
1.20433e-05	-0.001475433989024897
1.20435e-05	-0.0014879547672779182
1.20438e-05	-0.0014981719968031664
1.20440e-05	-0.0015083892263283453
1.20443e-05	-0.0015186064558535936
1.20445e-05	-0.0015288236853788417
1.20448e-05	-0.0015376880497436154
1.20450e-05	-0.001545450856233679
1.20453e-05	-0.0015532136627237428
1.20455e-05	-0.001560976469213754
1.20458e-05	-0.001568644826545637
1.20460e-05	-0.0015745627347555303
1.20463e-05	-0.0015804806429653836
1.20465e-05	-0.0015863985511752772
1.20468e-05	-0.0015923164593851706
1.20470e-05	-0.0015974912364452804
1.20473e-05	-0.0016020609258780602
1.20475e-05	-0.0016066306153108402
1.20477e-05	-0.0016112003047435892
1.20480e-05	-0.0016156991039528554
1.20483e-05	-0.001618884077481198
1.20485e-05	-0.001622069051009519
1.20488e-05	-0.0016252540245378616
1.20490e-05	-0.0016284389980662042
1.20493e-05	-0.0016316239715945468
1.20495e-05	-0.0016348089451228677
1.20498e-05	-0.0016379358722024293
1.20500e-05	-0.0016399870103884584
1.20503e-05	-0.0016420381485744734
1.20505e-05	-0.0016440892867605026
1.20508e-05	-0.0016461404249465315
1.20510e-05	-0.0016481915631325467
1.20513e-05	-0.0016502427013185758
1.20515e-05	-0.0016522708753258333
1.20518e-05	-0.0016538675245486624
1.20520e-05	-0.0016553476762003962
1.20523e-05	-0.0016566881949836298
1.20525e-05	-0.001657689149558359
1.20528e-05	-0.001657567630129268
1.20530e-05	-0.0016553013140464896
1.20533e-05	-0.0016505010428909436
1.20535e-05	-0.0016432650863001518
1.20538e-05	-0.001633669565146684
1.20540e-05	-0.0016210256388354853
1.20543e-05	-0.0016082254421050126
1.20545e-05	-0.0015924078601242746
1.20548e-05	-0.0015741192206093619
1.20550e-05	-0.0015516595618152568
1.20553e-05	-0.0015289787744628715
1.20555e-05	-0.0015020669366197237
1.20558e-05	-0.0014725718714445077
1.20560e-05	-0.0014407124278227263
1.20562e-05	-0.0014067041346035984
1.20565e-05	-0.001370693068722851
1.20568e-05	-0.0013325968597577942
1.20570e-05	-0.0012922390658461848
1.20573e-05	-0.0012496916857401771
1.20575e-05	-0.0012052182110216688
1.20578e-05	-0.0011590937370559932
1.20580e-05	-0.001111593463704422
1.20583e-05	-0.0010629905374585392
1.20585e-05	-0.0010135145749902417
1.20588e-05	-0.0009632521745814988
1.20590e-05	-0.0009122308323365174
1.20593e-05	-0.0008606337675267789
1.20595e-05	-0.0008087640040720417
1.20598e-05	-0.0007569320186549851
1.20600e-05	-0.0007054482297516838
1.20603e-05	-0.0006546217818197996
1.20605e-05	-0.000604734510966926
1.20608e-05	-0.0005559785108076319
1.20610e-05	-0.0005085090051058954
1.20613e-05	-0.0004625788022668611
1.20615e-05	-0.000418515628905126
1.20618e-05	-0.00037665185076477355
1.20620e-05	-0.00033731982464928054
1.20623e-05	-0.0003008471540801761
1.20625e-05	-0.00026745681453636404
1.20628e-05	-0.00023699456965690005
1.20630e-05	-0.00020906269549789843
1.20633e-05	-0.00018352775890605422
1.20635e-05	-0.00016050385435031932
1.20638e-05	-0.00014012139535016214
1.20640e-05	-0.0001225107771481524
1.20643e-05	-0.00010779943539667512
1.20645e-05	-9.604921222657156e-05
1.20647e-05	-8.70857086048485e-05
1.20650e-05	-8.058197516918991e-05
1.20653e-05	-7.637668562698279e-05
1.20655e-05	-7.446353078187031e-05
1.20658e-05	-7.484643163002325e-05
1.20660e-05	-7.752929349825625e-05
1.20663e-05	-8.251418284940122e-05
1.20665e-05	-8.976203679428997e-05
1.20668e-05	-9.908584936509497e-05
1.20670e-05	-0.0001102030776702846
1.20673e-05	-0.00012293491976911368
1.20675e-05	-0.00013719969218730282
1.20678e-05	-0.00015292211935725409
1.20680e-05	-0.00017002695034526897
1.20683e-05	-0.0001884639141127381
1.20685e-05	-0.00020853724798428896
1.20688e-05	-0.00022869048788752268
1.20690e-05	-0.00025032464563455294
1.20693e-05	-0.00027200418470934386
1.20695e-05	-0.0002945247869242727
1.20698e-05	-0.0003170651073247736
1.20700e-05	-0.00033997086963211945
1.20703e-05	-0.00036286787020519014
1.20705e-05	-0.0003856024874375352
1.20708e-05	-0.00040828617769560584
1.20710e-05	-0.00043002602600279244
1.20713e-05	-0.0004516774337637515
1.20715e-05	-0.00047168975145474984
1.20718e-05	-0.0004915816725933847
1.20720e-05	-0.0005092422552643266
1.20723e-05	-0.0005267574606442911
1.20725e-05	-0.0005415783534736386
1.20728e-05	-0.0005562628013471388
1.20730e-05	-0.0005684184817986809
1.20732e-05	-0.0005804033209754234
1.20735e-05	-0.0005892219174216891
1.20738e-05	-0.0005980405138679549
1.20740e-05	-0.0006066355610614263
1.20743e-05	-0.000611087515798742
1.20745e-05	-0.0006155394705360577
1.20748e-05	-0.0006197841762282813
1.20750e-05	-0.0006201878851618216
1.20753e-05	-0.0006205915940953647
1.20755e-05	-0.0006208064917933722
1.20758e-05	-0.0006175221051237836
1.20760e-05	-0.0006142377184541727
1.20763e-05	-0.0006108027584919987
1.20765e-05	-0.0006045771872228715
1.20768e-05	-0.0005982505174170253
1.20770e-05	-0.0005900501639398751
1.20773e-05	-0.0005817642284126514
1.20775e-05	-0.0005718921800178969
1.20778e-05	-0.0005619452758248437
1.20780e-05	-0.0005506110509880197
1.20783e-05	-0.0005392277601420932
1.20785e-05	-0.0005269082768504413
1.20788e-05	-0.0005140707243476299
1.20790e-05	-0.000500835304726304
1.20793e-05	-0.00048730173038633837
1.20795e-05	-0.00047354866163079053
1.20798e-05	-0.0004596535348125332
1.20800e-05	-0.0004456936280513429
1.20803e-05	-0.0004317466033804111
1.20805e-05	-0.0004178957965936921
1.20808e-05	-0.00040424610316472154
1.20810e-05	-0.0003909175013966455
1.20813e-05	-0.0003780170871242602
1.20815e-05	-0.0003656388501249377
1.20817e-05	-0.0003538759458001885
1.20820e-05	-0.00034282142356571954
1.20823e-05	-0.00033257539169116143
1.20825e-05	-0.00032339397205494635
1.20828e-05	-0.0003160403239632139
1.20830e-05	-0.00031146472111192897
1.20833e-05	-0.0003100334240713069
1.20835e-05	-0.00031167251605833895
1.20838e-05	-0.00031628123961205976
1.20840e-05	-0.0003237588372713455
1.20843e-05	-0.0003340089216399875
1.20845e-05	-0.00034703283653876506
1.20848e-05	-0.0003631495116097765
1.20850e-05	-0.00038279504779787363
1.20853e-05	-0.0004060397412144469
1.20855e-05	-0.00043267808603305826
1.20858e-05	-0.0004624877871964582
1.20860e-05	-0.0004952465556078983
1.20863e-05	-0.0005308016375044219
1.20865e-05	-0.0005700306614729569
1.20868e-05	-0.0006095334186729936
1.20870e-05	-0.0006541093401656447
1.20873e-05	-0.0006989243934520551
1.20875e-05	-0.0007481713342138597
1.20878e-05	-0.0007975965894136087
1.20880e-05	-0.0008503265892926264
1.20883e-05	-0.000903180539288487
1.20885e-05	-0.0009583316868235578
1.20888e-05	-0.0010135775945873367
1.20890e-05	-0.0010705797166356253
1.20893e-05	-0.0011276223567686266
1.20895e-05	-0.001185415928381964
1.20898e-05	-0.0012431957565665049
1.20900e-05	-0.0013002060977990576
1.20902e-05	-0.001346207882782745
1.20905e-05	-0.001390681543522933
1.20908e-05	-0.004899248682747847
1.20910e-05	-0.011539870722732657
1.20913e-05	-0.01304507600818393
1.20915e-05	-0.011586885053901728
1.20918e-05	-0.008466432472721773
1.20920e-05	-0.0036440398684573646
1.20923e-05	-0.0013407530512246793
1.20925e-05	-0.0018864087133955516
1.20928e-05	-0.003933213395450871
1.20930e-05	-0.007303080838028147
1.20933e-05	-0.009294749621697256
1.20935e-05	-0.008214969590758035
1.20938e-05	-0.0060453228586652835
1.20940e-05	-0.0035177916272248646
1.20943e-05	-0.0016686602427694488
1.20945e-05	-0.0014822391579020656
1.20948e-05	-0.002973823323983549
1.20950e-05	-0.004592455156919745
1.20953e-05	-0.00547118421676072
1.20955e-05	-0.005099870262878258
1.20958e-05	-0.003899148875691064
1.20960e-05	-0.0026180485784660563
1.20963e-05	-0.001815457667436487
1.20965e-05	-0.0018728519133301036
1.20968e-05	-0.002616276579928724
1.20970e-05	-0.003520298747618829
1.20973e-05	-0.00403993274118257
1.20975e-05	-0.0038120390296972986
1.20978e-05	-0.0030643408390317577
1.20980e-05	-0.0022660862454936094
1.20983e-05	-0.0017673780651128131
1.20985e-05	-0.001807158408846507
1.20987e-05	-0.0022764395434438484
1.20990e-05	-0.00284608530949117
1.20993e-05	-0.003174740159323596
1.20995e-05	-0.003034981024288724
1.20998e-05	-0.002569502073935247
1.21000e-05	-0.0020722667103419993
1.21003e-05	-0.001762581454994997
1.21005e-05	-0.0017901033335362753
1.21008e-05	-0.002086541788887748
1.21010e-05	-0.002445717301720395
1.21013e-05	-0.002653814470505253
1.21015e-05	-0.0025684002218580144
1.21018e-05	-0.002278884281262001
1.21020e-05	-0.001969418307226855
1.21023e-05	-0.0017773727149601986
1.21025e-05	-0.0017963916469558056
1.21028e-05	-0.001983408749441454
1.21030e-05	-0.0022089564225623724
1.21033e-05	-0.002338972475580271
1.21035e-05	-0.0022842661978653453
1.21038e-05	-0.00210090884998926
1.21040e-05	-0.0019043090107606002
1.21043e-05	-0.0017805625020908935
1.21045e-05	-0.0017883684931471583
1.21048e-05	-0.001900789105922593
1.21050e-05	-0.0020367694351096613
1.21053e-05	-0.002112384189981542
1.21055e-05	-0.002071821674629565
1.21058e-05	-0.0019502627734484445
1.21060e-05	-0.0018200525946597355
1.21063e-05	-0.0017351686869150219
1.21065e-05	-0.0017324229942764704
1.21068e-05	-0.0017949837915408238
1.21070e-05	-0.0018721234755123871
1.21072e-05	-0.0019113210727098081
1.21075e-05	-0.0018776699942175776
1.21078e-05	-0.001793261788270248
1.21080e-05	-0.0017034643858262369
1.21083e-05	-0.0016421366856107101
1.21085e-05	-0.0016323826157555556
1.21088e-05	-0.001663703017463539
1.21090e-05	-0.0017043683278360265
1.21093e-05	-0.0017215285691982904
1.21095e-05	-0.0016933699686821867
1.21098e-05	-0.0016337825465254697
1.21100e-05	-0.001571234647280082
1.21103e-05	-0.001526983217271793
1.21105e-05	-0.0015155465844913594
1.21108e-05	-0.0015303936846670504
1.21110e-05	-0.0015516961493202304
1.21113e-05	-0.0015589254730389052
1.21115e-05	-0.0015384677941598893
1.21118e-05	-0.0014990743162425436
1.21120e-05	-0.0014586268874644326
1.21123e-05	-0.0014304864304126932
1.21125e-05	-0.0014235629547233815
1.21128e-05	-0.0014330790531261364
1.21130e-05	-0.0014457974307361594
1.21133e-05	-0.0014484719280635988
1.21135e-05	-0.001432559997026916
1.21138e-05	-0.0014036164842508437
1.21140e-05	-0.0013729147018698281
1.21143e-05	-0.001348895180497224
1.21145e-05	-0.0013372099457537201
1.21148e-05	-0.0013349368472216445
1.21150e-05	-0.0013338552225872122
1.21153e-05	-0.0013257394957680777
1.21155e-05	-0.0013053110747051474
1.21158e-05	-0.0012761219061689587
1.21160e-05	-0.0012453057488825677
1.21163e-05	-0.001218221154024134
1.21165e-05	-0.0011984795158108794
1.21168e-05	-0.0011843214989159295
1.21170e-05	-0.0011706688977137435
1.21173e-05	-0.0011524410263257284
1.21175e-05	-0.0011264035165469437
1.21178e-05	-0.0010948534265946106
1.21180e-05	-0.001062331117645496
1.21183e-05	-0.0010322648743785617
1.21185e-05	-0.0010069881478444117
1.21188e-05	-0.0009854698822567016
1.21190e-05	-0.0009646006294312043
1.21193e-05	-0.0009412694419285415
1.21195e-05	-0.0009135222036063549
1.21198e-05	-0.0008828697956333063
1.21200e-05	-0.0008522280315299312
1.21203e-05	-0.0008238158028669501
1.21205e-05	-0.000799166067372278
1.21208e-05	-0.0007777043991340539
1.21210e-05	-0.0007571651869478825
1.21213e-05	-0.0007366124693331029
1.21215e-05	-0.0007144054286847189
1.21218e-05	-0.000691272403276267
1.21220e-05	-0.0006693378008482526
1.21223e-05	-0.0006500636295325872
1.21225e-05	-0.0006345530656456359
1.21228e-05	-0.0006227238915888809
1.21230e-05	-0.0006140457967387938
1.21233e-05	-0.0006064694002828055
1.21235e-05	-0.0005996782450798298
1.21238e-05	-0.0005944865162147426
1.21240e-05	-0.0005917461394133223
1.21243e-05	-0.0005922610256028601
1.21245e-05	-0.0005966101018618272
1.21248e-05	-0.000604629767461133
1.21250e-05	-0.0006162233700505194
1.21253e-05	-0.0006291546093761163
1.21255e-05	-0.000644184401395697
1.21258e-05	-0.0006604345833388751
1.21260e-05	-0.0006798216450003067
1.21263e-05	-0.0007010329240908006
1.21265e-05	-0.0007259010377074297
1.21268e-05	-0.0007528957426746114
1.21270e-05	-0.0007824162263425641
1.21273e-05	-0.0008134055484554373
1.21275e-05	-0.000845825256951127
1.21278e-05	-0.0008790767907015716
1.21280e-05	-0.0009146173524210216
1.21283e-05	-0.0009514890728366222
1.21285e-05	-0.0009883607932524726
1.21288e-05	-0.0010269478462046362
1.21290e-05	-0.0010670147539317985
1.21293e-05	-0.0011073621507935603
1.21295e-05	-0.0011475891235087317
1.21298e-05	-0.0011877460649037126
1.21300e-05	-0.0012277298045771292
1.21303e-05	-0.0012676128207201234
1.21305e-05	-0.0013070664761983934
1.21308e-05	-0.001346270441769171
1.21310e-05	-0.001384141055878279
1.21313e-05	-0.0014212362743092322
1.21315e-05	-0.0014561084674109832
1.21318e-05	-0.0014896878849153534
1.21320e-05	-0.0015207286421630752
1.21323e-05	-0.0015502930698406171
1.21325e-05	-0.0015768936723041121
1.21328e-05	-0.001601770695255785
1.21330e-05	-0.0016221204278688349
1.21333e-05	-0.001639837365256818
1.21335e-05	-0.001657554302644681
1.21338e-05	-0.0016695464311735355
1.21340e-05	-0.0016782093609319848
1.21343e-05	-0.0016868722906904338
1.21345e-05	-0.0016898998463929088
1.21348e-05	-0.0016896502131378034
1.21350e-05	-0.001689400579882698
1.21353e-05	-0.0016843896904269796
1.21355e-05	-0.0016766099455075636
1.21358e-05	-0.0016652740446237682
1.21360e-05	-0.0016518701008840276
1.21363e-05	-0.001636025359909125
1.21365e-05	-0.0016172377172843208
1.21368e-05	-0.0015960871475632766
1.21370e-05	-0.00157266408166527
1.21373e-05	-0.001547082223609681
1.21375e-05	-0.0015194800410377471
1.21378e-05	-0.001490048393008422
1.21380e-05	-0.0014589987585999806
1.21383e-05	-0.0014265322699703595
1.21385e-05	-0.0013928420501733525
1.21388e-05	-0.001358100630118051
1.21390e-05	-0.00132247986871375
1.21393e-05	-0.0012861662916144913
1.21395e-05	-0.0012493621181206237
1.21398e-05	-0.0012123020100327528
1.21400e-05	-0.0011752339236062654
1.21403e-05	-0.0011383991386568189
1.21405e-05	-0.001102033810686614
1.21408e-05	-0.0010663612784161673
1.21410e-05	-0.0010316044783178907
1.21413e-05	-0.0009979955180815807
1.21415e-05	-0.0009657762242635378
1.21418e-05	-0.0009352087951936486
1.21420e-05	-0.0009065636620796288
1.21423e-05	-0.0008801073144285451
1.21425e-05	-0.0008561104215994349
1.21427e-05	-0.0008348239548745
