Time(s)	Current(A)
1.20000e-05	-0.012777237283160409
1.20003e-05	-0.01271764260814702
1.20005e-05	-0.012659001477424742
1.20008e-05	-0.012601600002939618
1.20010e-05	-0.012545752915374407
1.20013e-05	-0.01249182381167488
1.20015e-05	-0.012440191642171628
1.20018e-05	-0.012391234682180032
1.20020e-05	-0.0123453327529601
1.20023e-05	-0.012302847939031891
1.20025e-05	-0.012263752083119547
1.20028e-05	-0.012227443219098535
1.20030e-05	-0.012193427920541337
1.20033e-05	-0.012161691055707127
1.20035e-05	-0.012132399464262854
1.20038e-05	-0.012105730335024075
1.20040e-05	-0.012083224906906165
1.20043e-05	-0.012061085506662406
1.20045e-05	-0.012044049189774008
1.20048e-05	-0.012027487014768334
1.20050e-05	-0.012015764041542795
1.20052e-05	-0.01200449069221801
1.20055e-05	-0.011993217342893148
1.20058e-05	-0.011989594798141205
1.20060e-05	-0.011986683111243939
1.20063e-05	-0.011983771424346654
1.20065e-05	-0.011980859737449369
1.20068e-05	-0.011977948050552082
1.20070e-05	-0.011982502706769366
1.20073e-05	-0.011987751082006368
1.20075e-05	-0.01199299945724337
1.20078e-05	-0.011998247832480336
1.20080e-05	-0.012003496207717339
1.20083e-05	-0.012013179384090297
1.20085e-05	-0.012023274610358202
1.20088e-05	-0.012033369836626175
1.20090e-05	-0.012045271898953387
1.20093e-05	-0.012057341839520322
1.20095e-05	-0.012069411780087339
1.20098e-05	-0.012082377611383926
1.20100e-05	-0.012095426682417634
1.20103e-05	-0.012108475753451428
1.20105e-05	-0.012121631058832991
1.20108e-05	-0.012134796234747667
1.20110e-05	-0.012146945083132198
1.20113e-05	-0.012158999501656305
1.20115e-05	-0.012171053920180329
1.20118e-05	-0.012181837503218065
1.20120e-05	-0.012191705399587149
1.20123e-05	-0.012200637666988236
1.20125e-05	-0.012209351840217673
1.20128e-05	-0.012219610912067441
1.20130e-05	-0.012232719431680503
1.20133e-05	-0.012248849584477908
1.20135e-05	-0.012268919690515771
1.20137e-05	-0.012289331953044767
1.20140e-05	-0.012313881390106437
1.20143e-05	-0.01233881522373533
1.20145e-05	-0.012369999982963061
1.20148e-05	-0.012401765533338046
1.20150e-05	-0.01243353108371303
1.20153e-05	-0.012477614591925758
1.20155e-05	-0.012522842596381019
1.20158e-05	-0.012568070600836584
1.20160e-05	-0.012613298605292152
1.20163e-05	-0.01265852660974741
1.20165e-05	-0.012716008661002448
1.20168e-05	-0.012774629270345499
1.20170e-05	-0.012833249879688154
1.20173e-05	-0.012891870489031206
1.20175e-05	-0.012950491098374258
1.20178e-05	-0.013016380352686286
1.20180e-05	-0.013082944957326292
1.20183e-05	-0.013150584765704573
1.20185e-05	-0.013219740309746692
1.20188e-05	-0.013288895853789279
1.20190e-05	-0.013359426592942125
1.20193e-05	-0.013430416022507921
1.20195e-05	-0.013501436198521233
1.20198e-05	-0.013572456374534544
1.20200e-05	-0.013641155017594926
1.20203e-05	-0.013709637960474126
1.20205e-05	-0.013778120903353326
1.20208e-05	-0.01384165798403119
1.20210e-05	-0.013904735530687322
1.20213e-05	-0.013967813077343454
1.20215e-05	-0.014010738392118608
1.20218e-05	-0.014051791306128252
1.20220e-05	-0.014092844220137898
1.20222e-05	-0.014133897134147264
1.20225e-05	-0.014174950048156908
1.20228e-05	-0.014216002962166551
1.20230e-05	-0.014257055876175918
1.20233e-05	-0.014298108790185563
1.20235e-05	-0.014339161704195207
1.20238e-05	-0.014380214618204852
1.20240e-05	-0.014421267532214219
1.20243e-05	-0.014462320446223862
1.20245e-05	-0.014503373360233506
1.20248e-05	-0.014526864307574211
1.20250e-05	-0.014548723523003407
1.20253e-05	-0.014570582738432604
1.20255e-05	-0.01459244195386165
1.20258e-05	-0.014614301169290847
1.20260e-05	-0.014636160384720043
1.20263e-05	-0.014658019600149091
1.20265e-05	-0.014679878815578288
1.20268e-05	-0.014701738031007484
1.20270e-05	-0.01472359724643653
1.20273e-05	-0.014745456461865727
1.20275e-05	-0.014767315677294923
1.20278e-05	-0.014789174892723972
1.20280e-05	-0.014804416151970473
1.20283e-05	-0.014819042518221128
1.20285e-05	-0.014833668884471685
1.20288e-05	-0.01484829525072234
1.20290e-05	-0.014862921616972996
1.20293e-05	-0.014877547983223553
1.20295e-05	-0.014892174349474208
1.20298e-05	-0.014906800715724863
1.20300e-05	-0.014919434406210309
1.20303e-05	-0.014929258982833609
1.20305e-05	-0.014939083559456908
1.20307e-05	-0.01494890813608014
1.20310e-05	-0.01495873271270344
1.20313e-05	-0.01496855728932674
1.20315e-05	-0.014978381865949972
1.20318e-05	-0.014988206442573272
1.20320e-05	-0.014998031019196572
1.20323e-05	-0.014999390954773218
1.20325e-05	-0.014999964416648534
1.20328e-05	-0.015000537878523856
1.20330e-05	-0.015001111340399177
1.20333e-05	-0.015001684802274493
1.20335e-05	-0.015002258264149812
1.20338e-05	-0.015002831726025134
1.20340e-05	-0.01500340518790045
1.20343e-05	-0.014989033799149213
1.20345e-05	-0.014973273842126236
1.20348e-05	-0.014957513885103364
1.20350e-05	-0.014941753928080385
1.20353e-05	-0.014925993971057407
1.20355e-05	-0.014910234014034535
1.20358e-05	-0.014894474057011556
1.20360e-05	-0.01487871409998858
1.20363e-05	-0.014850052254322378
1.20365e-05	-0.014820191657750729
1.20368e-05	-0.014790331061179078
1.20370e-05	-0.014760470464607631
1.20373e-05	-0.01473060986803598
1.20375e-05	-0.014700749271464331
1.20378e-05	-0.014670888674892885
1.20380e-05	-0.014634069566230454
1.20383e-05	-0.014596603922560576
1.20385e-05	-0.014559138278890953
1.20388e-05	-0.014521672635221075
1.20390e-05	-0.014484206991551197
1.20392e-05	-0.014446741347881573
1.20395e-05	-0.014409275704211695
1.20398e-05	-0.014370938395139301
1.20400e-05	-0.01433252009717324
1.20403e-05	-0.014294101799206918
1.20405e-05	-0.014257451422578364
1.20408e-05	-0.014220965308513512
1.20410e-05	-0.014184479194448906
1.20413e-05	-0.014151823928295641
1.20415e-05	-0.01411952459703932
1.20418e-05	-0.014087225265783217
1.20420e-05	-0.01405710394813725
1.20423e-05	-0.014030053018727133
1.20425e-05	-0.0140030020893172
1.20428e-05	-0.013975951159907083
1.20430e-05	-0.013945796751066402
1.20433e-05	-0.013915353989188436
1.20435e-05	-0.013884911227310264
1.20438e-05	-0.0138505892074454
1.20440e-05	-0.013815906754766953
1.20443e-05	-0.013781224302088273
1.20445e-05	-0.013742402686534755
1.20448e-05	-0.013703196489670574
1.20450e-05	-0.013663990292806127
1.20453e-05	-0.013616452937067258
1.20455e-05	-0.013568141509831983
1.20458e-05	-0.01351983008259638
1.20460e-05	-0.013471518655360776
1.20463e-05	-0.013419797563744496
1.20465e-05	-0.013363269801795063
1.20468e-05	-0.01330674203984563
1.20470e-05	-0.01325021427789658
1.20473e-05	-0.013193686515947147
1.20475e-05	-0.013131429389812703
1.20477e-05	-0.013068639932273411
1.20480e-05	-0.013005850474733694
1.20483e-05	-0.012941465939708196
1.20485e-05	-0.012876933201529665
1.20488e-05	-0.012811700424447006
1.20490e-05	-0.012745874273524922
1.20493e-05	-0.012679745946143878
1.20495e-05	-0.012613698065624653
1.20498e-05	-0.012548120003977939
1.20500e-05	-0.012483401054040374
1.20503e-05	-0.012419924543618358
1.20505e-05	-0.012357940311329996
1.20508e-05	-0.012297515414997394
1.20510e-05	-0.012238789700668683
1.20513e-05	-0.012182091903833367
1.20515e-05	-0.012127817821850316
1.20518e-05	-0.012076367071279794
1.20520e-05	-0.01202813918950559
1.20523e-05	-0.011983526896735187
1.20525e-05	-0.01194277400616445
1.20528e-05	-0.01190585491031645
1.20530e-05	-0.011872700649710024
1.20533e-05	-0.011843356335845398
1.20535e-05	-0.011817928976907087
1.20538e-05	-0.011796523514426872
1.20540e-05	-0.011779250221563446
1.20543e-05	-0.01176815387371488
1.20545e-05	-0.011757598729315439
1.20548e-05	-0.011754487090483259
1.20550e-05	-0.011752067048773112
1.20553e-05	-0.011758245598124923
1.20555e-05	-0.01176522306685391
1.20558e-05	-0.011772200535582944
1.20560e-05	-0.011791780068013322
1.20562e-05	-0.01181253049376916
1.20565e-05	-0.011833280919525136
1.20568e-05	-0.011854031345281114
1.20570e-05	-0.011874781771036952
1.20573e-05	-0.01190763882212703
1.20575e-05	-0.01194162073396513
1.20578e-05	-0.011975602645803232
1.20580e-05	-0.012009584557641102
1.20583e-05	-0.012043566469479202
1.20585e-05	-0.012083878585006112
1.20588e-05	-0.012124778857633505
1.20590e-05	-0.012165679130261177
1.20593e-05	-0.01220864273524676
1.20595e-05	-0.012251798050268142
1.20598e-05	-0.012294953365289815
1.20600e-05	-0.012337987675412746
1.20603e-05	-0.012381010742628535
1.20605e-05	-0.012424033809844613
1.20608e-05	-0.012465188402356652
1.20610e-05	-0.012506169389607179
1.20613e-05	-0.012541023779534151
1.20615e-05	-0.012575308930002499
1.20618e-05	-0.012609594080470616
1.20620e-05	-0.012643879230938966
1.20623e-05	-0.012678164381407316
1.20625e-05	-0.012704515530395179
1.20628e-05	-0.012730129508900312
1.20630e-05	-0.012755743487405448
1.20633e-05	-0.012781357465910408
1.20635e-05	-0.012806971444415543
1.20638e-05	-0.012827407906541178
1.20640e-05	-0.012847363310998634
1.20643e-05	-0.012867318715456226
1.20645e-05	-0.012887274119913817
1.20647e-05	-0.012907229524371275
1.20650e-05	-0.012927184928828866
1.20653e-05	-0.012947140333286459
1.20655e-05	-0.012967095737743914
1.20658e-05	-0.012987051142201507
1.20660e-05	-0.013007006546659098
1.20663e-05	-0.013025585362003973
1.20665e-05	-0.013042223572845447
1.20668e-05	-0.013058861783687035
1.20670e-05	-0.013075499994528622
1.20673e-05	-0.013092138205370097
1.20675e-05	-0.013108776416211686
1.20678e-05	-0.013125414627053272
1.20680e-05	-0.013142052837894748
1.20683e-05	-0.013158691048736335
1.20685e-05	-0.013175329259577923
1.20688e-05	-0.013191967470419397
1.20690e-05	-0.01320605718833818
1.20693e-05	-0.013219910118582458
1.20695e-05	-0.013233763048826641
1.20698e-05	-0.013247615979070919
1.20700e-05	-0.013261468909315196
1.20703e-05	-0.01327532183955938
1.20705e-05	-0.013289174769803657
1.20708e-05	-0.013303027700047935
1.20710e-05	-0.013314803473260537
1.20713e-05	-0.013323651037719384
1.20715e-05	-0.01333249860217823
1.20718e-05	-0.013341346166637017
1.20720e-05	-0.013350193731095864
1.20723e-05	-0.013359041295554711
1.20725e-05	-0.013367888860013498
1.20728e-05	-0.013376736424472345
1.20730e-05	-0.013385583988931192
1.20732e-05	-0.013390630150668837
1.20735e-05	-0.013395323113344222
1.20738e-05	-0.013400016076019605
1.20740e-05	-0.013404709038694958
1.20743e-05	-0.01340940200137034
1.20745e-05	-0.013414094964045725
1.20748e-05	-0.013418787926721108
1.20750e-05	-0.013423480889396459
1.20753e-05	-0.013428173852071843
1.20755e-05	-0.013432866814747226
1.20758e-05	-0.013437559777422578
1.20760e-05	-0.013442252740097962
1.20763e-05	-0.013446945702773347
1.20765e-05	-0.013451638665448698
1.20768e-05	-0.01345633162812408
1.20770e-05	-0.013461024590799465
1.20773e-05	-0.013464859484535985
1.20775e-05	-0.013467484741764344
1.20778e-05	-0.013470109998992705
1.20780e-05	-0.013472735256221047
1.20783e-05	-0.013475360513449407
1.20785e-05	-0.013477985770677768
1.20788e-05	-0.01348061102790611
1.20790e-05	-0.01348323628513447
1.20793e-05	-0.01348586154236283
1.20795e-05	-0.013488486799591172
1.20798e-05	-0.013491112056819533
1.20800e-05	-0.013493737314047892
1.20803e-05	-0.013496362571276234
1.20805e-05	-0.013498987828504595
1.20808e-05	-0.013501613085732955
1.20810e-05	-0.013504238342961297
1.20813e-05	-0.013506863600189658
1.20815e-05	-0.013506421927543857
1.20817e-05	-0.013505695297781922
1.20820e-05	-0.013504968668019982
1.20823e-05	-0.013504242038258042
1.20825e-05	-0.013503515408496107
1.20828e-05	-0.013502788778734167
1.20830e-05	-0.013502062148972229
1.20833e-05	-0.013501335519210289
1.20835e-05	-0.013500608889448354
1.20838e-05	-0.013499882259686414
1.20840e-05	-0.013499155629924474
1.20843e-05	-0.01349842900016254
1.20845e-05	-0.0134977023704006
1.20848e-05	-0.01349697574063866
1.20850e-05	-0.013496249110876725
1.20853e-05	-0.013495522481114785
1.20855e-05	-0.013494795851352846
1.20858e-05	-0.013494069221590911
1.20860e-05	-0.013493342591828971
1.20863e-05	-0.013492615962067031
1.20865e-05	-0.013491889332305097
1.20868e-05	-0.013491162702543157
1.20870e-05	-0.013490436072781217
1.20873e-05	-0.01348882651189952
1.20875e-05	-0.013485972265808183
1.20878e-05	-0.013483118019716848
1.20880e-05	-0.013480263773625531
1.20883e-05	-0.013477409527534194
1.20885e-05	-0.01347455528144286
1.20888e-05	-0.013471701035351542
1.20890e-05	-0.013468846789260205
1.20893e-05	-0.013465992543168869
1.20895e-05	-0.013463138297077553
1.20898e-05	-0.013460284050986216
1.20900e-05	-0.01345742980489488
1.20902e-05	-0.013454575558803564
1.20905e-05	-0.013451721312712227
1.20908e-05	-0.01344886706662089
1.20910e-05	-0.013446012820529573
1.20913e-05	-0.013443158574438238
1.20915e-05	-0.013440304328346902
1.20918e-05	-0.013437450082255565
1.20920e-05	-0.013434595836164248
1.20923e-05	-0.013431741590072913
1.20925e-05	-0.013428887343981576
1.20928e-05	-0.013426033097890259
1.20930e-05	-0.013423178851798924
1.20933e-05	-0.013418250304653472
1.20935e-05	-0.013413129028338737
1.20938e-05	-0.013408007752023969
1.20940e-05	-0.013402886475709199
1.20943e-05	-0.013397765199394463
1.20945e-05	-0.013392643923079693
1.20948e-05	-0.013387522646764925
1.20950e-05	-0.01338240137045019
1.20953e-05	-0.01337728009413542
1.20955e-05	-0.013372158817820652
1.20958e-05	-0.013367037541505917
1.20960e-05	-0.013361916265191147
1.20963e-05	-0.013356794988876377
1.20965e-05	-0.013351673712561643
1.20968e-05	-0.013344205988135727
1.20970e-05	-0.013336520248588713
1.20973e-05	-0.013328834509041751
1.20975e-05	-0.013321148769494737
1.20978e-05	-0.013313463029947722
1.20980e-05	-0.01330577729040076
1.20983e-05	-0.013298091550853746
1.20985e-05	-0.013290405811306732
1.20987e-05	-0.01328272007175977
1.20990e-05	-0.013275034332212755
1.20993e-05	-0.013267348592665741
1.20995e-05	-0.013259662853118779
1.20998e-05	-0.013251977113571765
1.21000e-05	-0.01324429137402475
1.21003e-05	-0.013236699022061206
1.21005e-05	-0.013229115347001852
1.21008e-05	-0.013221531671942448
1.21010e-05	-0.013213947996883042
1.21013e-05	-0.013206364321823687
1.21015e-05	-0.0131991884947799
1.21018e-05	-0.01319258761903378
1.21020e-05	-0.013185986743287704
1.21023e-05	-0.013179385867541584
1.21025e-05	-0.013172784991795463
1.21028e-05	-0.013166184116049388
1.21030e-05	-0.01315626978221942
1.21033e-05	-0.01314604758564044
1.21035e-05	-0.01313582538906153
1.21038e-05	-0.01312560319248255
1.21040e-05	-0.01311538099590357
1.21043e-05	-0.01310515879932466
1.21045e-05	-0.013094936602745681
1.21048e-05	-0.013084714406166702
1.21050e-05	-0.01307169095988186
1.21053e-05	-0.013054718537282068
1.21055e-05	-0.013037746114682275
1.21058e-05	-0.013020773692082597
1.21060e-05	-0.013003801269482805
1.21063e-05	-0.012986828846883012
1.21065e-05	-0.012969856424283334
1.21068e-05	-0.012952884001683542
1.21070e-05	-0.01293591157908375
1.21072e-05	-0.012914219006769615
1.21075e-05	-0.012892087872013706
1.21078e-05	-0.012869956737257797
1.21080e-05	-0.012847825602502038
1.21083e-05	-0.012825694467746129
1.21085e-05	-0.01280356333299022
1.21088e-05	-0.01278143219823431
1.21090e-05	-0.01275930106347855
1.21093e-05	-0.012736900756734098
1.21095e-05	-0.012714475440459932
1.21098e-05	-0.012692050124185918
1.21100e-05	-0.012669624807911752
1.21103e-05	-0.012647199491637586
1.21105e-05	-0.012624774175363571
1.21108e-05	-0.012602348859089405
1.21110e-05	-0.012579923542815239
1.21113e-05	-0.012559793484953957
1.21115e-05	-0.012539876686034518
1.21118e-05	-0.01252168250262699
1.21120e-05	-0.012503648372292257
1.21123e-05	-0.012487991306498806
1.21125e-05	-0.012472555100485842
1.21128e-05	-0.012461565398425965
1.21130e-05	-0.01245098883360731
1.21133e-05	-0.012447382690646087
1.21135e-05	-0.012444424189267406
1.21138e-05	-0.012441465687888703
1.21140e-05	-0.01244651481350251
1.21143e-05	-0.01245230795035745
1.21145e-05	-0.01245810108721243
1.21148e-05	-0.012477162297588495
1.21150e-05	-0.01249745628215054
1.21153e-05	-0.01251775026671272
1.21155e-05	-0.012538044251274902
1.21158e-05	-0.012558338235836946
1.21160e-05	-0.012578632220399129
1.21163e-05	-0.012614273943659987
1.21165e-05	-0.012651341668672435
1.21168e-05	-0.012688409393685136
1.21170e-05	-0.012725477118697835
1.21173e-05	-0.012762544843710534
1.21175e-05	-0.012799612568722984
1.21178e-05	-0.012847201978072143
1.21180e-05	-0.012895768986831438
1.21183e-05	-0.012944335995590403
1.21185e-05	-0.012992903004349696
1.21188e-05	-0.01304147001310899
1.21190e-05	-0.013090037021867956
1.21193e-05	-0.01313860403062725
1.21195e-05	-0.01318820420696712
1.21198e-05	-0.013237900377824758
1.21200e-05	-0.013287596548682733
1.21203e-05	-0.013337292719540707
1.21205e-05	-0.013386988890398346
1.21208e-05	-0.01343668506125632
1.21210e-05	-0.013486381232114295
1.21213e-05	-0.0135295040614087
1.21215e-05	-0.013572016142972173
1.21218e-05	-0.013614528224535646
1.21220e-05	-0.013649188622039675
1.21223e-05	-0.01368311949740064
1.21225e-05	-0.013717050372761606
1.21228e-05	-0.013740481942794348
1.21230e-05	-0.013762937992713477
1.21233e-05	-0.013785394042632605
1.21235e-05	-0.013796310031475464
1.21238e-05	-0.013806153800648315
1.21240e-05	-0.013815997569821164
1.21243e-05	-0.013807902646814533
1.21245e-05	-0.01379814098924869
1.21248e-05	-0.013788379331682846
1.21250e-05	-0.01377861767411707
1.21253e-05	-0.013768856016551227
1.21255e-05	-0.013759094358985383
1.21258e-05	-0.013727557500639294
1.21260e-05	-0.013693997446883606
1.21263e-05	-0.01366043739312769
1.21265e-05	-0.013626877339371775
1.21268e-05	-0.013593317285616087
1.21270e-05	-0.01355975723186017
1.21273e-05	-0.013510616299686815
1.21275e-05	-0.01346002770409093
1.21278e-05	-0.013409439108494703
1.21280e-05	-0.013358850512898477
1.21283e-05	-0.013308261917302593
1.21285e-05	-0.013254245543244439
1.21288e-05	-0.013195396963068259
1.21290e-05	-0.013136548382892478
1.21293e-05	-0.013077699802716298
1.21295e-05	-0.013018851222540118
1.21298e-05	-0.012960002642364335
1.21300e-05	-0.012900537262570221
1.21303e-05	-0.012841014574181396
1.21305e-05	-0.012783093070332414
1.21308e-05	-0.012725320337061292
1.21310e-05	-0.01267042487872227
1.21313e-05	-0.012615796756124707
1.21315e-05	-0.012565418717555722
1.21318e-05	-0.012515435566298683
1.21320e-05	-0.012472630334735262
1.21323e-05	-0.012430492023965069
1.21325e-05	-0.012388353713194876
1.21328e-05	-0.012359071405975853
1.21330e-05	-0.012330983586359827
1.21333e-05	-0.012302895766743803
1.21335e-05	-0.012274807947127968
1.21338e-05	-0.012246720127511943
1.21340e-05	-0.012218632307895917
1.21343e-05	-0.012190544488279892
1.21345e-05	-0.012169900026115914
1.21348e-05	-0.012159748610052605
1.21350e-05	-0.012149597193989297
1.21353e-05	-0.012139445777926056
1.21355e-05	-0.012129294361862747
1.21358e-05	-0.012119142945799438
1.21360e-05	-0.012108991529736199
1.21363e-05	-0.01209884011367289
1.21365e-05	-0.012101460572930486
1.21368e-05	-0.01210526770320017
1.21370e-05	-0.012109074833469879
1.21373e-05	-0.012112881963739589
1.21375e-05	-0.012116689094009273
1.21378e-05	-0.012120496224278982
1.21380e-05	-0.01212430335454869
1.21383e-05	-0.012128110484818374
1.21385e-05	-0.012138700280517
1.21388e-05	-0.012149920272819378
1.21390e-05	-0.012161140265121679
1.21393e-05	-0.012172360257424056
1.21395e-05	-0.012183580249726433
1.21398e-05	-0.012194800242028734
1.21400e-05	-0.012206020234331112
1.21403e-05	-0.012217240226633489
1.21405e-05	-0.012227841591416634
1.21408e-05	-0.01223838547776963
1.21410e-05	-0.012248929364122627
1.21413e-05	-0.012259473250475552
1.21415e-05	-0.012270017136828548
1.21418e-05	-0.012280561023181544
1.21420e-05	-0.012291104909534467
1.21423e-05	-0.012301648795887464
1.21425e-05	-0.012308994488796372
1.21427e-05	-0.01231183162606072
1.21430e-05	-0.012314668763325085
1.21433e-05	-0.012317505900589451
1.21435e-05	-0.012320343037853818
1.21438e-05	-0.012323180175118164
1.21440e-05	-0.012326017312382531
1.21443e-05	-0.012328854449646896
1.21445e-05	-0.012331691586911244
1.21448e-05	-0.012326032137364372
1.21450e-05	-0.012319583245936589
1.21453e-05	-0.012313134354508851
1.21455e-05	-0.01230668546308107
1.21458e-05	-0.012300236571653288
1.21460e-05	-0.01229378768022555
1.21463e-05	-0.012287338788797769
1.21465e-05	-0.012280889897369985
1.21468e-05	-0.012274441005942247
1.21470e-05	-0.012261764054871414
1.21473e-05	-0.012248508437186617
