Time(s)	Current(A)
7.05000e-06	-0.00013893541823861689
7.05025e-06	-0.00017726591989112512
7.05050e-06	-0.00021606567691260443
7.05075e-06	-0.0002548654339340837
7.05100e-06	-0.0002935733414823395
7.05125e-06	-0.00033160618185055964
7.05150e-06	-0.00036963902221877977
7.05175e-06	-0.00040767186258712875
7.05200e-06	-0.0004457047029553489
7.05225e-06	-0.0004826742072271137
7.05250e-06	-0.0005189913379849532
7.05275e-06	-0.0005553084687426695
7.05300e-06	-0.0005916255995003859
7.05325e-06	-0.0006275010881209592
7.05350e-06	-0.0006601306342094363
7.05375e-06	-0.0006927601802980237
7.05400e-06	-0.0007249306368403068
7.05425e-06	-0.0007537269174193274
7.05450e-06	-0.0007825231979984456
7.05475e-06	-0.0008107612037067052
7.05500e-06	-0.0008348960498780694
7.05525e-06	-0.0008584321590689339
7.05550e-06	-0.0008775677238674231
7.05575e-06	-0.0008960021235826415
7.05600e-06	-0.0009092831618464992
7.05625e-06	-0.0009218455965257701
7.05650e-06	-0.0009291265017911312
7.05675e-06	-0.0009356801452194843
7.05700e-06	-0.0009368886235715392
7.05725e-06	-0.0009373466851867384
7.05750e-06	-0.0009322893998797461
7.05775e-06	-0.0009264781181155688
7.05800e-06	-0.0009151251795156843
7.05825e-06	-0.000903067893471499
7.05850e-06	-0.0008858338565397309
7.05875e-06	-0.0008679506319242324
7.05900e-06	-0.0008452960647775586
7.05925e-06	-0.000822038372268632
7.05950e-06	-0.0007943478820264444
7.05975e-06	-0.0007661125946011694
7.06000e-06	-0.0007338732047625186
7.06025e-06	-0.0007011806718262065
7.06050e-06	-0.0006651576676128584
7.06075e-06	-0.0006287059021361124
7.06100e-06	-0.0005891028648419779
7.06125e-06	-0.0005494998275479775
7.06150e-06	-0.0005095526859653459
7.06175e-06	-0.0004670764769515916
7.06200e-06	-0.00042460026793798123
7.06225e-06	-0.0003821240589243709
7.06250e-06	-0.0003394339996015331
7.06275e-06	-0.00029661273973175905
7.06300e-06	-0.00025379147986183994
7.06325e-06	-0.00021112178049072423
7.06350e-06	-0.00016968593648525147
7.06375e-06	-0.0001292830667615256
7.06400e-06	-9.017917230093066e-05
7.06425e-06	-5.2656310486117975e-05
7.06450e-06	-1.6997856295368183e-05
7.06475e-06	1.6512830639818897e-05
7.06500e-06	4.760280344241309e-05
7.06525e-06	7.613174661463514e-05
7.06550e-06	0.00010241818008150126
7.06575e-06	0.00012706503522975443
7.06600e-06	0.00015031011718980765
7.06625e-06	0.00017204218912242572
7.06650e-06	0.00019211396177015982
7.06675e-06	0.00021037818953128354
7.06700e-06	0.00022669416066338724
7.06725e-06	0.0002410042191694196
7.06750e-06	0.00025353818737185017
7.06775e-06	0.0002647039330835975
7.06800e-06	0.00027468066901252937
7.06825e-06	0.00028334831527304714
7.06850e-06	0.00029029446828049486
7.06875e-06	0.0002969056037326258
7.06900e-06	0.0003010544566276398
7.06925e-06	0.0003049058197753921
7.06950e-06	0.0003065707189485904
7.06975e-06	0.00030803121678824817
7.07000e-06	0.0003079894236877123
7.07025e-06	0.00030775210361386164
7.07050e-06	0.00030607771659194006
7.07075e-06	0.00030420492522656765
7.07100e-06	0.00030087391907120706
7.07125e-06	0.00029735938340832654
7.07150e-06	0.0002924959587160071
7.07175e-06	0.0002876325340237042
7.07200e-06	0.00028262941232384494
7.07225e-06	0.000276599557846961
7.07250e-06	0.0002705697033700975
7.07275e-06	0.00026453984889323397
7.07300e-06	0.00025850999441635
7.07325e-06	0.00025225580123954975
7.07350e-06	0.00024586397272201435
7.07375e-06	0.00023947214420445728
7.07400e-06	0.00023308031568692187
7.07425e-06	0.00022676043904448954
7.07450e-06	0.0002210099081673365
7.07475e-06	0.0002156031712683893
7.07500e-06	0.0002106020560737164
7.07525e-06	0.00020627066737273633
7.07550e-06	0.00020353622931676893
7.07575e-06	0.00020362676746004497
7.07600e-06	0.00020705221899700778
7.07625e-06	0.00021372151053298413
7.07650e-06	0.00022348458446098547
7.07675e-06	0.0002361913924974089
7.07700e-06	0.00025170203174727074
7.07725e-06	0.0002700033655419883
7.07750e-06	0.00029149755671643694
7.07775e-06	0.0003167751647314202
7.07800e-06	0.0003459769372789393
7.07825e-06	0.0003788670617064654
7.07850e-06	0.0004151728351227163
7.07875e-06	0.0004546215581220637
7.07900e-06	0.0004969469320953389
7.07925e-06	0.0005419620906616987
7.07950e-06	0.0005899140783726427
7.07975e-06	0.0006417500958918783
7.08000e-06	0.0006942023342066473
7.08025e-06	0.0007511836179123288
7.08050e-06	0.0008086943121621361
7.08075e-06	0.0008700960214556699
7.08100e-06	0.0009314977307489957
7.08125e-06	0.000993354511843833
7.08150e-06	0.0010585559396316209
7.08175e-06	0.001123757367419188
7.08200e-06	0.0011889587952067548
7.08225e-06	0.0012541602229945426
7.08250e-06	0.0013189054216720803
7.08275e-06	0.0013833707165745793
7.08300e-06	0.0014478360114772968
7.08325e-06	0.0015123013063797958
7.08350e-06	0.0015760874513039943
7.08375e-06	0.001634882039465205
7.08400e-06	0.0016936766276262165
7.08425e-06	0.001751478105397769
7.08450e-06	0.0018019805077952626
7.08475e-06	0.0018524829101927561
7.08500e-06	0.0019016395747681342
7.08525e-06	0.00194090545388757
7.08550e-06	0.0019801713330070063
7.08575e-06	0.0020181798461082843
7.08600e-06	0.002046947081064509
7.08625e-06	0.002075714316020734
7.08650e-06	0.0021031308171152855
7.08675e-06	0.0021206198133031317
7.08700e-06	0.0021381088094909774
7.08725e-06	0.0021542440416610796
7.08750e-06	0.0021604294981506025
7.08775e-06	0.002166614954640126
7.08800e-06	0.0021716241157265607
7.08825e-06	0.0021679878443441893
7.08850e-06	0.0021643515729618053
7.08875e-06	0.0021595808427779216
7.08900e-06	0.0021464721670993504
7.08925e-06	0.002133363491420735
7.08950e-06	0.0021188777306770366
7.08975e-06	0.00209427079127184
7.09000e-06	0.00206966385186656
7.09025e-06	0.002045056912461364
7.09050e-06	0.0020204499730561674
7.09075e-06	0.0019958430336508874
7.09100e-06	0.001971236094245691
7.09125e-06	0.0019409231145109081
7.09150e-06	0.001907109388783676
7.09175e-06	0.0018732956630565583
7.09200e-06	0.0018394819373294406
7.09225e-06	0.0018056682116022085
7.09250e-06	0.0017718544858750908
7.09275e-06	0.0017380384297948804
7.09300e-06	0.001704205246291481
7.09325e-06	0.0016703720627880816
7.09350e-06	0.0016365388792845678
7.09375e-06	0.0016027056957811684
7.09400e-06	0.0015688725122777693
7.09425e-06	0.0015359222265349365
7.09450e-06	0.0015094609850785671
7.09475e-06	0.0014829997436221975
7.09500e-06	0.0014565385021657383
7.09525e-06	0.0014300772607093687
7.09550e-06	0.0014036160192529993
7.09575e-06	0.0013768457576547489
7.09600e-06	0.001347804287005407
7.09625e-06	0.0013187628163560654
7.09650e-06	0.0012892133344770038
7.09675e-06	0.0012559301163564685
7.09700e-06	0.0012226468982358206
7.09725e-06	0.0011889047044315228
7.09750e-06	0.0011517891715266595
7.09775e-06	0.00111382673325827
7.09800e-06	0.001069639784459673
7.09825e-06	0.0010254528356610762
7.09850e-06	0.0009806090796365937
7.09875e-06	0.0009309379796497127
7.09900e-06	0.0008808900783705145
7.09925e-06	0.0008280727961034206
7.09950e-06	0.0007747519479200324
7.09975e-06	0.0007177300352670332
7.10000e-06	0.0006601590660157162
7.10025e-06	0.0005985526888853419
7.10050e-06	0.0005369463117549676
7.10075e-06	0.0004750262890795338
7.10100e-06	0.0004108010619731712
7.10125e-06	0.000346575834866591
7.10150e-06	0.0002821689703571671
7.10175e-06	0.00021642712324315046
7.10200e-06	0.00015068527612891112
7.10225e-06	8.493825695223457e-05
7.10250e-06	1.9230707947308402e-05
7.10275e-06	-4.578151202112308e-05
7.10300e-06	-0.00010969887368975044
7.10325e-06	-0.0001721760254656086
7.10350e-06	-0.00023304873597553046
7.10375e-06	-0.00029224670449363316
7.10400e-06	-0.0003495238509735502
7.10425e-06	-0.00040448029986665996
7.10450e-06	-0.0004567008663841265
7.10475e-06	-0.0005057704565347682
7.10500e-06	-0.0005512966899451257
7.10525e-06	-0.0005930886982907071
7.10550e-06	-0.0006316469953829328
7.10575e-06	-0.0006699741756918465
7.10600e-06	-0.0007066027142016774
7.10625e-06	-0.0007428341709847951
7.10650e-06	-0.0007761471914277179
7.10675e-06	-0.0008094602118706408
7.10700e-06	-0.0008421880775878413
7.10725e-06	-0.0008706152245839023
7.10750e-06	-0.0008990423715799633
7.10775e-06	-0.0009269099100069353
7.10800e-06	-0.0009506644866074686
7.10825e-06	-0.0009744190632080017
7.10850e-06	-0.0009981736398086154
7.10875e-06	-0.0010219282164091485
7.10900e-06	-0.0010456827930096818
7.10925e-06	-0.0010694373696102954
7.10950e-06	-0.0010931919462108285
7.10975e-06	-0.0011169465228114423
7.11000e-06	-0.0011407010994119754
7.11025e-06	-0.0011644556760125086
7.11050e-06	-0.0011882102526131221
7.11075e-06	-0.0012119648292136555
7.11100e-06	-0.0012357194058141886
7.11125e-06	-0.0012552443273086405
7.11150e-06	-0.0012721742884977182
7.11175e-06	-0.001289104249686796
7.11200e-06	-0.0013060342108759313
7.11225e-06	-0.0013229641720650092
7.11250e-06	-0.0013398941332540871
7.11275e-06	-0.0013568240944432223
7.11300e-06	-0.0013737540556323002
7.11325e-06	-0.0013906840168213782
7.11350e-06	-0.0014076139780105133
7.11375e-06	-0.0014245439391995913
7.11400e-06	-0.0014414739003887264
7.11425e-06	-0.0014584038615778044
7.11450e-06	-0.0014746886561834737
7.11475e-06	-0.0014862316621988333
7.11500e-06	-0.001497774668214154
7.11525e-06	-0.0015087061845664002
7.11550e-06	-0.0015151434279945032
7.11575e-06	-0.0015205843031492444
7.11600e-06	-0.0015187021584336074
7.11625e-06	-0.001515835893874247
7.11650e-06	-0.0015057366318751168
7.11675e-06	-0.0014947228227857798
7.11700e-06	-0.0014769873559590124
7.11725e-06	-0.0014582410486107837
7.11750e-06	-0.001432065354536302
7.11775e-06	-0.0014047077741405592
7.11800e-06	-0.00136866366965013
7.11825e-06	-0.0013315527178742975
7.11850e-06	-0.001286600745788315
7.11875e-06	-0.001240732881167015
7.11900e-06	-0.001188133470174721
7.11925e-06	-0.001134665187511238
7.11950e-06	-0.0010748109482858505
7.11975e-06	-0.0010140880744102729
7.12000e-06	-0.0009469809860120846
7.12025e-06	-0.0008791846637680639
7.12050e-06	-0.0008063226712466055
7.12075e-06	-0.0007329733348322853
7.12100e-06	-0.0006560421611519351
7.12125e-06	-0.0005787604118999844
7.12150e-06	-0.0004989020331599568
7.12175e-06	-0.0004187887683981539
7.12200e-06	-0.0003368021647797423
7.12225e-06	-0.0002548155611616084
7.12250e-06	-0.0001728289575431969
7.12275e-06	-9.095992669393315e-05
7.12300e-06	-1.0116880196453486e-05
7.12325e-06	6.933327171531199e-05
7.12350e-06	0.00014704914426292486
7.12375e-06	0.000222738059024989
7.12400e-06	0.00029598234991574
7.12425e-06	0.00036626093650431705
7.12450e-06	0.00043304266918056585
7.12475e-06	0.0004957965706906152
7.12500e-06	0.0005540232549010802
7.12525e-06	0.0006075376110238614
7.12550e-06	0.0006572259113747106
7.12575e-06	0.0007067253788635275
7.12600e-06	0.0007548369791992149
7.12625e-06	0.0008025674514398244
7.12650e-06	0.0008474967419406043
7.12675e-06	0.0008924260324415365
7.12700e-06	0.0009367414624311539
7.12725e-06	0.0009765451944483907
7.12750e-06	0.0010163489264657622
7.12775e-06	0.001056152658482999
7.12800e-06	0.0010959563905002358
7.12825e-06	0.0011357601225176074
7.12850e-06	0.0011742220070402418
7.12875e-06	0.0012118606469021173
7.12900e-06	0.0012494992867641203
7.12925e-06	0.0012871379266259958
7.12950e-06	0.0013247765664878715
7.12975e-06	0.0013622032625983025
7.13000e-06	0.0013980722331720789
7.13025e-06	0.001433941203745855
7.13050e-06	0.0014698101743197529
7.13075e-06	0.0015056791448935293
7.13100e-06	0.001541548115467427
7.13125e-06	0.0015774170860412033
7.13150e-06	0.0016132860566149796
7.13175e-06	0.0016491550271888775
7.13200e-06	0.0016843563069159134
7.13225e-06	0.0017146502512076838
7.13250e-06	0.0017449441954995569
7.13275e-06	0.0017752381397913273
7.13300e-06	0.0018055320840830978
7.13325e-06	0.0018358260283749708
7.13350e-06	0.0018661199726667413
7.13375e-06	0.0018964139169585117
7.13400e-06	0.001926707861250385
7.13425e-06	0.001955274020032644
7.13450e-06	0.001971141452906141
7.13475e-06	0.001987008885779692
7.13500e-06	0.002002876318653189
7.13525e-06	0.00201874375152674
7.13550e-06	0.0020346111844002372
7.13575e-06	0.0020504786172737344
7.13600e-06	0.0020663460501472854
7.13625e-06	0.0020822134830207825
7.13650e-06	0.00209808091589428
7.13675e-06	0.002097056628933715
7.13700e-06	0.002085669004695046
7.13725e-06	0.0020742813804563776
7.13750e-06	0.00206289375621767
7.13775e-06	0.0020515061319790013
7.13800e-06	0.0020401185077403325
7.13825e-06	0.0020287308835016254
7.13850e-06	0.0020173432592629566
7.13875e-06	0.0020059556350242877
7.13900e-06	0.001992441481891346
7.13925e-06	0.0019632979538098693
7.13950e-06	0.0019341544257282942
7.13975e-06	0.0019038826362556126
7.14000e-06	0.0018653184504884885
7.14025e-06	0.0018267542647212337
7.14050e-06	0.0017881900789541096
7.14075e-06	0.0017496258931869856
7.14100e-06	0.001711061707419731
7.14125e-06	0.0016717172495111544
7.14150e-06	0.0016266380160758613
7.14175e-06	0.0015815587826404156
7.14200e-06	0.0015364795492051225
7.14225e-06	0.0014914003157698295
7.14250e-06	0.0014463210823343836
7.14275e-06	0.001401397321927826
7.14300e-06	0.0013576162435072466
7.14325e-06	0.0013138351650865189
7.14350e-06	0.0012700540866659392
7.14375e-06	0.0012262730082452115
7.14400e-06	0.0011834811902454365
7.14425e-06	0.0011479601514375079
7.14450e-06	0.0011124391126294592
7.14475e-06	0.0010769180738215305
7.14500e-06	0.001041397035013602
7.14525e-06	0.0010070212717835367
7.14550e-06	0.0009810629542187364
7.14575e-06	0.0009558466356479584
7.14600e-06	0.0009360837959915682
7.14625e-06	0.000917091077221873
7.14650e-06	0.0009037585251781518
7.14675e-06	0.000891226516415493
7.14700e-06	0.0008845782702166004
7.14725e-06	0.0008787387689365512
7.14750e-06	0.0008788433098955521
7.14775e-06	0.0008797174488998895
7.14800e-06	0.0008862479118969458
7.14825e-06	0.0008935069438370033
7.14850e-06	0.0009061207476837649
7.14875e-06	0.0009194235378989692
7.14900e-06	0.0009377901794967915
7.14925e-06	0.0009569339294652995
7.14950e-06	0.000981789202154597
7.14975e-06	0.0010066444748438104
7.15000e-06	0.0010322648874846454
7.15025e-06	0.0010635088584128442
7.15050e-06	0.001094752829340937
7.15075e-06	0.0011267266508599428
7.15100e-06	0.0011640646640281435
7.15125e-06	0.0012014026771962178
7.15150e-06	0.0012387406903642919
7.15175e-06	0.0012760787035324926
7.15200e-06	0.0013134167167005667
7.15225e-06	0.0013521510441273747
7.15250e-06	0.0013917420324355782
7.15275e-06	0.0014313330207437816
7.15300e-06	0.0014709240090521193
7.15325e-06	0.0015105149973603227
7.15350e-06	0.001548978303866208
7.15375e-06	0.0015791534738942114
7.15400e-06	0.0016093286439221128
7.15425e-06	0.0016395038139500142
7.15450e-06	0.0016696789839780177
7.15475e-06	0.0016998541540059191
7.15500e-06	0.0017300293240338205
7.15525e-06	0.001760204494061824
7.15550e-06	0.0017903796640897254
7.15575e-06	0.0018205548341176268
7.15600e-06	0.0018372376626875583
7.15625e-06	0.0018456427263810176
7.15650e-06	0.0018540477900745051
7.15675e-06	0.0018624528537679644
7.15700e-06	0.0018708579174614235
7.15725e-06	0.0018792629811549113
7.15750e-06	0.0018876680448483704
7.15775e-06	0.0018960731085418295
7.15800e-06	0.0019044781722353172
7.15825e-06	0.0019110527203506915
7.15850e-06	0.0019041735061532943
7.15875e-06	0.0018972942919558736
7.15900e-06	0.0018904150777584764
7.15925e-06	0.0018826460921773757
7.15950e-06	0.0018683375431792395
7.15975e-06	0.0018540289941811519
7.16000e-06	0.0018397204451830642
7.16025e-06	0.00182497144767318
7.16050e-06	0.001806494030683294
7.16075e-06	0.0017844060693809475
7.16100e-06	0.0017623181080786755
7.16125e-06	0.0017402301467764037
7.16150e-06	0.0017181421854740569
7.16175e-06	0.0016960542241717849
7.16200e-06	0.001673966262869513
7.16225e-06	0.0016516497571628299
7.16250e-06	0.001627653515905171
7.16275e-06	0.0016036572746475119
7.16300e-06	0.0015796610333897716
7.16325e-06	0.0015556647921321125
7.16350e-06	0.0015316685508744536
7.16375e-06	0.0015076723096167132
7.16400e-06	0.0014844268344215675
7.16425e-06	0.001466699273564808
7.16450e-06	0.0014489717127079884
7.16475e-06	0.001431244151851229
7.16500e-06	0.0014135165909944093
7.16525e-06	0.00139578903013765
7.16550e-06	0.0013780614692808903
7.16575e-06	0.0013603339084240708
7.16600e-06	0.0013426063475673112
7.16625e-06	0.0013286130125704711
7.16650e-06	0.0013169106841979016
7.16675e-06	0.0013052083558253717
7.16700e-06	0.001293506027452842
7.16725e-06	0.0012818036990802724
7.16750e-06	0.0012701013707077423
7.16775e-06	0.0012583990423352125
7.16800e-06	0.001246696713962643
7.16825e-06	0.0012354252136163972
7.16850e-06	0.0012273201751839928
7.16875e-06	0.0012192151367515609
7.16900e-06	0.0012111100983191565
7.16925e-06	0.0012030050598867245
7.16950e-06	0.0011949000214543201
7.16975e-06	0.0011867949830219157
7.17000e-06	0.001178689944589484
7.17025e-06	0.0011705849061570796
7.17050e-06	0.0011624798677246752
7.17075e-06	0.0011543748292922433
7.17100e-06	0.0011462697908598389
7.17125e-06	0.0011381647524274345
7.17150e-06	0.0011300597139950025
7.17175e-06	0.0011219546755625981
7.17200e-06	0.0011138496371301937
7.17225e-06	0.00110618042180671
7.17250e-06	0.0011017143808154633
7.17275e-06	0.0010972483398242166
7.17300e-06	0.0010927822988329547
7.17325e-06	0.001088316257841708
7.17350e-06	0.0010838502168504464
7.17375e-06	0.0010793841758591997
7.17400e-06	0.001074918134867953
7.17425e-06	0.001070452093876691
7.17450e-06	0.0010659860528854444
7.17475e-06	0.0010615200118941977
7.17500e-06	0.0010570539709029358
7.17525e-06	0.0010525879299116891
7.17550e-06	0.0010481218889204424
7.17575e-06	0.0010436558479291805
7.17600e-06	0.0010391898069379338
7.17625e-06	0.0010355086383857463
7.17650e-06	0.001037596056213753
7.17675e-06	0.001039683474041753
7.17700e-06	0.0010417708918697528
7.17725e-06	0.0010438583096977596
7.17750e-06	0.0010459457275257594
7.17775e-06	0.0010480331453537662
7.17800e-06	0.001050120563181766
7.17825e-06	0.001052207981009766
7.17850e-06	0.0010542953988377727
7.17875e-06	0.0010563828166657726
7.17900e-06	0.0010584702344937724
7.17925e-06	0.0010639948954679112
7.17950e-06	0.0010716283594738906
7.17975e-06	0.0010792618234798698
7.18000e-06	0.001086895287485875
7.18025e-06	0.0010945287514918544
7.18050e-06	0.0011021622154978338
7.18075e-06	0.0011097956795038388
7.18100e-06	0.0011174291435098183
7.18125e-06	0.0011250626075157977
7.18150e-06	0.0011326960715218027
7.18175e-06	0.001140329535527782
7.18200e-06	0.0011479608974464097
7.18225e-06	0.0011555768096282006
7.18250e-06	0.0011631927218099915
7.18275e-06	0.0011708086339918082
7.18300e-06	0.0011784245461735992
7.18325e-06	0.00118604045835539
7.18350e-06	0.0011936563705372068
7.18375e-06	0.0012012722827189977
7.18400e-06	0.0012088881949007886
7.18425e-06	0.0012165041070826053
7.18450e-06	0.0012241200192643963
7.18475e-06	0.0012317359314461872
7.18500e-06	0.001239351843628004
7.18525e-06	0.0012469677558097948
7.18550e-06	0.0012545836679915857
7.18575e-06	0.0012621995801734025
7.18600e-06	0.0012693469010367142
7.18625e-06	0.0012730502106672362
7.18650e-06	0.0012767535202977457
7.18675e-06	0.0012804568299282552
7.18700e-06	0.0012841601395587772
7.18725e-06	0.0012878634491892867
7.18750e-06	0.0012915667588197961
7.18775e-06	0.0012952700684503182
7.18800e-06	0.0012989733780808276
7.18825e-06	0.001302676687711337
7.18850e-06	0.0013063799973418591
7.18875e-06	0.0013100833069723686
7.18900e-06	0.001313786616602878
7.18925e-06	0.0013174899262334001
7.18950e-06	0.0013211932358639096
7.18975e-06	0.001324896545494419
7.19000e-06	0.0013284414162493886
7.19025e-06	0.0013308218069009125
7.19050e-06	0.0013332021975524446
7.19075e-06	0.0013355825882039687
7.19100e-06	0.0013379629788554928
7.19125e-06	0.001340343369507025
7.19150e-06	0.001342723760158549
7.19175e-06	0.0013451041508100732
7.19200e-06	0.001347484541461605
7.19225e-06	0.0013498649321131292
7.19250e-06	0.0013521527742712818
7.19275e-06	0.0013537604116580562
7.19300e-06	0.0013553680490448253
7.19325e-06	0.0013569756864315944
7.19350e-06	0.0013585833238183688
7.19375e-06	0.0013601909612051379
7.19400e-06	0.001361798598591907
7.19425e-06	0.0013634062359786814
7.19450e-06	0.0013650138733654505
7.19475e-06	0.0013666215107522252
7.19500e-06	0.001367613420688534
7.19525e-06	0.001364079911200246
7.19550e-06	0.0013605464017119456
7.19575e-06	0.0013570128922236575
