Time(s)	Current(A)
1.37500e-05	0.00944069053883647
1.37503e-05	0.009425695723844503
1.37505e-05	0.009410700908852536
1.37508e-05	0.00939570609386067
1.37510e-05	0.009380711278868702
1.37513e-05	0.009365716463876735
1.37515e-05	0.009350721648884869
1.37518e-05	0.009334825636626368
1.37520e-05	0.009313846521030183
1.37523e-05	0.009292867405434141
1.37525e-05	0.009271888289837956
1.37528e-05	0.009250909174241772
1.37530e-05	0.00922993005864573
1.37533e-05	0.009208950943049545
1.37535e-05	0.00918797182745336
1.37538e-05	0.00916699271185732
1.37540e-05	0.009146013596261136
1.37543e-05	0.009125034480664951
1.37545e-05	0.009104055365068909
1.37548e-05	0.009083076249472724
1.37550e-05	0.009063531256369129
1.37553e-05	0.009052075272299457
1.37555e-05	0.009040619288229705
1.37558e-05	0.009029163304159954
1.37560e-05	0.00901770732009028
1.37563e-05	0.00900625133602053
1.37565e-05	0.00899479535195078
1.37568e-05	0.008983339367881106
1.37570e-05	0.008971883383811356
1.37573e-05	0.008960427399741604
1.37575e-05	0.008948971415671855
1.37578e-05	0.008937515431602181
1.37580e-05	0.00892605944753243
1.37583e-05	0.008916939118529484
1.37585e-05	0.008920992793167732
1.37588e-05	0.008925046467806006
1.37590e-05	0.008929100142444281
1.37593e-05	0.00893315381708253
1.37595e-05	0.008937207491720804
1.37598e-05	0.008941261166359078
1.37600e-05	0.008945314840997327
1.37603e-05	0.008949368515635601
1.37605e-05	0.008953422190273877
1.37608e-05	0.008957475864912124
1.37610e-05	0.008961529539550398
1.37613e-05	0.008965583214188675
1.37615e-05	0.008969636888826921
1.37618e-05	0.008973690563465196
1.37620e-05	0.00897861575907812
1.37623e-05	0.008988456672194995
1.37625e-05	0.008998297585311935
1.37628e-05	0.009008138498428875
1.37630e-05	0.00901797941154575
1.37633e-05	0.00902782032466269
1.37635e-05	0.009037661237779632
1.37638e-05	0.009047502150896506
1.37640e-05	0.009057343064013446
1.37643e-05	0.009067183977130387
1.37645e-05	0.00907702489024726
1.37648e-05	0.009086865803364203
1.37650e-05	0.009096706716481143
1.37653e-05	0.009106547629598017
1.37655e-05	0.009116388542714958
1.37658e-05	0.009126610590950672
1.37660e-05	0.009138982389599226
1.37663e-05	0.009151354188247696
1.37665e-05	0.00916372598689625
1.37668e-05	0.009176097785544804
1.37670e-05	0.009188469584193273
1.37673e-05	0.009200841382841827
1.37675e-05	0.009213213181490381
1.37678e-05	0.00922558498013885
1.37680e-05	0.009248649423426673
1.37683e-05	0.00927745643590051
1.37685e-05	0.00930626344837415
1.37688e-05	0.009335070460847986
1.37690e-05	0.009363877473321822
1.37693e-05	0.009392684485795461
1.37695e-05	0.009421491498269298
1.37698e-05	0.009450298510743133
1.37700e-05	0.009481628636167869
1.37703e-05	0.009527190100671276
1.37705e-05	0.009572751565174684
1.37708e-05	0.009618313029677783
1.37710e-05	0.00966387449418119
1.37713e-05	0.009709435958684598
1.37715e-05	0.009754997423187696
1.37718e-05	0.009800558887691104
1.37720e-05	0.009846120352194511
1.37723e-05	0.00989168181669761
1.37725e-05	0.009937243281201017
1.37728e-05	0.009982804745704425
1.37730e-05	0.01002788142023748
1.37733e-05	0.010070223690651513
1.37735e-05	0.010112565961065549
1.37738e-05	0.010154908231479296
1.37740e-05	0.01019725050189333
1.37743e-05	0.010239592772307364
1.37745e-05	0.0102819350427214
1.37748e-05	0.010324277313135148
1.37750e-05	0.010366619583549182
1.37753e-05	0.010408961853963216
1.37755e-05	0.010451304124376963
1.37758e-05	0.010493646394790999
1.37760e-05	0.010531286883883335
1.37763e-05	0.010542407496305901
1.37765e-05	0.010553528108728543
1.37768e-05	0.010564648721151185
1.37770e-05	0.010575769333573752
1.37773e-05	0.010586889945996394
1.37775e-05	0.010598010558419036
1.37778e-05	0.010609131170841602
1.37780e-05	0.010620251783264244
1.37783e-05	0.010626004873072798
1.37785e-05	0.010601483046203015
1.37788e-05	0.010576961219333067
1.37790e-05	0.010552439392463118
1.37793e-05	0.010527917565593336
1.37795e-05	0.010503395738723388
1.37798e-05	0.01047887391185344
1.37800e-05	0.010454352084983657
1.37803e-05	0.010429830258113709
1.37805e-05	0.010401300321240283
1.37808e-05	0.010350163083918867
1.37810e-05	0.010299025846597105
1.37813e-05	0.010247888609275342
1.37815e-05	0.010196751371953925
1.37818e-05	0.010145614134632162
1.37820e-05	0.0100944768973104
1.37823e-05	0.010043339659988984
1.37825e-05	0.009992202422667221
1.37828e-05	0.009941065185345458
1.37830e-05	0.009889927948023694
1.37833e-05	0.009838441589696111
1.37835e-05	0.009786767733176594
1.37838e-05	0.009735093876657077
1.37840e-05	0.00968342002013791
1.37843e-05	0.009631746163618393
1.37845e-05	0.009580072307098874
1.37848e-05	0.009528398450579708
1.37850e-05	0.00947672459406019
1.37853e-05	0.009425050737540673
1.37855e-05	0.009373376881021505
1.37858e-05	0.009324176769591356
1.37860e-05	0.009288929543296638
1.37863e-05	0.009253682317002158
1.37865e-05	0.00921843509070744
1.37868e-05	0.00918318786441272
1.37870e-05	0.009147940638118243
1.37873e-05	0.009112693411823523
1.37875e-05	0.009077446185528805
1.37878e-05	0.009042198959234327
1.37880e-05	0.009006951732939607
1.37883e-05	0.008973066342801369
1.37885e-05	0.00893991233751879
1.37888e-05	0.008906758332235986
1.37890e-05	0.008873604326953182
1.37893e-05	0.008840450321670603
1.37895e-05	0.008807296316387799
1.37898e-05	0.008774142311104996
1.37900e-05	0.008740988305822418
1.37903e-05	0.008707834300539613
1.37905e-05	0.008674652169672616
1.37908e-05	0.008641311399563895
1.37910e-05	0.00860797062945495
1.37913e-05	0.008574629859346003
1.37915e-05	0.008541289089237056
1.37918e-05	0.008507948319128336
1.37920e-05	0.00847460754901939
1.37923e-05	0.008441266778910442
1.37925e-05	0.008407926008801723
1.37928e-05	0.008374585238692776
1.37930e-05	0.008341244468583829
1.37933e-05	0.00830790369847511
1.37935e-05	0.008274562928366163
1.37938e-05	0.008241222158257216
1.37940e-05	0.008207881388148496
1.37943e-05	0.00818345171034868
1.37945e-05	0.00816380780500089
1.37948e-05	0.008144163899653232
1.37950e-05	0.00812451999430544
1.37953e-05	0.008104876088957649
1.37955e-05	0.008085232183609991
1.37958e-05	0.0080655882782622
1.37960e-05	0.008045944372914409
1.37963e-05	0.008026300467566751
1.37965e-05	0.00800665656221896
1.37968e-05	0.007987012656871169
1.37970e-05	0.007967368751523509
1.37973e-05	0.00794772484617572
1.37975e-05	0.007928080940827928
1.37978e-05	0.007912252987782852
1.37980e-05	0.007917948490987918
1.37983e-05	0.007923643994192984
1.37985e-05	0.007929339497398012
1.37988e-05	0.007935035000603078
1.37990e-05	0.007940730503808145
1.37993e-05	0.007946426007013173
1.37995e-05	0.00795212151021824
1.37998e-05	0.007957817013423307
1.38000e-05	0.007963512516628373
1.38003e-05	0.0079692080198334
1.38005e-05	0.007974903523038467
1.38008e-05	0.007980599026243533
1.38010e-05	0.007986294529448561
1.38013e-05	0.007993965340609002
1.38015e-05	0.008012777657478007
1.38018e-05	0.008031589974346883
1.38020e-05	0.008050402291215888
1.38023e-05	0.008069214608084893
1.38025e-05	0.00808802692495377
1.38028e-05	0.008106839241822775
1.38030e-05	0.00812565155869178
1.38033e-05	0.008144463875560656
1.38035e-05	0.008163276192429661
1.38038e-05	0.008182088509298666
1.38040e-05	0.008200900826167543
1.38043e-05	0.008219713143036548
1.38045e-05	0.008238525459905553
1.38048e-05	0.008256810093751695
1.38050e-05	0.008272118389961584
1.38053e-05	0.00828742668617147
1.38055e-05	0.008302734982381255
1.38058e-05	0.008318043278591142
1.38060e-05	0.008333351574801029
1.38063e-05	0.008348659871010813
1.38065e-05	0.0083639681672207
1.38068e-05	0.008379276463430589
1.38070e-05	0.008394584759640372
1.38073e-05	0.008415231910249165
1.38075e-05	0.008438746334748877
1.38078e-05	0.00846226075924843
1.38080e-05	0.008485775183748143
1.38083e-05	0.008509289608247856
1.38085e-05	0.008532804032747409
1.38088e-05	0.00855631845724712
1.38090e-05	0.008579832881746834
1.38093e-05	0.008603347306246546
1.38095e-05	0.008628795876027245
1.38098e-05	0.008665153778017659
1.38100e-05	0.008701511680008073
1.38103e-05	0.00873786958199824
1.38105e-05	0.008774227483988654
1.38108e-05	0.008810585385979067
1.38110e-05	0.008846943287969235
1.38113e-05	0.008883301189959648
1.38115e-05	0.008919659091950062
1.38118e-05	0.008956647486846126
1.38120e-05	0.00899719210713788
1.38123e-05	0.009037736727429633
1.38125e-05	0.009078281347721111
1.38128e-05	0.009118825968012865
1.38130e-05	0.009159370588304617
1.38133e-05	0.009199915208596096
1.38135e-05	0.00924045982888785
1.38138e-05	0.009281004449179602
1.38140e-05	0.009321549069471082
1.38143e-05	0.009362093689762834
1.38145e-05	0.00940042047953903
1.38148e-05	0.009426237841961149
1.38150e-05	0.009452055204383442
1.38153e-05	0.009477872566805734
1.38155e-05	0.009503689929227852
1.38158e-05	0.009529507291650145
1.38160e-05	0.009555324654072437
1.38163e-05	0.009581142016494557
1.38165e-05	0.00960695937891685
1.38168e-05	0.009632776741339142
1.38170e-05	0.00965859410376126
1.38173e-05	0.009680141115596431
1.38175e-05	0.009677601687966596
1.38178e-05	0.00967506226033676
1.38180e-05	0.009672522832706943
1.38183e-05	0.009669983405077109
1.38185e-05	0.009667443977447274
1.38188e-05	0.009664904549817456
1.38190e-05	0.00966236512218762
1.38193e-05	0.009659825694557787
1.38195e-05	0.009657286266927969
1.38198e-05	0.009654746839298133
1.38200e-05	0.009652207411668298
1.38203e-05	0.00964966798403848
1.38205e-05	0.009647128556408646
1.38208e-05	0.00964458912877881
1.38210e-05	0.009630040223092268
1.38213e-05	0.009609041532429537
1.38215e-05	0.009588042841766804
1.38218e-05	0.009567044151104214
1.38220e-05	0.009546045460441481
1.38223e-05	0.009525046769778748
1.38225e-05	0.009504048079116159
1.38228e-05	0.009483049388453426
1.38230e-05	0.009462050697790693
1.38233e-05	0.009441052007128104
1.38235e-05	0.00942005331646537
1.38238e-05	0.009399054625802638
1.38240e-05	0.009378055935140048
1.38243e-05	0.009357057244477315
1.38245e-05	0.009336752988844548
1.38248e-05	0.009320365617077707
1.38250e-05	0.009303978245310755
1.38253e-05	0.009287590873543803
1.38255e-05	0.009271203501776962
1.38258e-05	0.009254816130010012
1.38260e-05	0.00923842875824306
1.38263e-05	0.009222041386476108
1.38265e-05	0.009205654014709267
1.38268e-05	0.009189266642942315
1.38270e-05	0.009172879271175364
1.38273e-05	0.009156491899408523
1.38275e-05	0.00914010452764157
1.38278e-05	0.009123717155874619
1.38280e-05	0.009107329784107778
1.38283e-05	0.009090942412340828
1.38285e-05	0.009076266215627116
1.38288e-05	0.009062509018981627
1.38290e-05	0.009048751822336044
1.38293e-05	0.00903499462569046
1.38295e-05	0.009021237429044971
1.38298e-05	0.009007480232399388
1.38300e-05	0.008993723035753807
1.38303e-05	0.008979965839108315
1.38305e-05	0.008966208642462734
1.38308e-05	0.00895245144581715
1.38310e-05	0.008938694249171661
1.38313e-05	0.008924937052526078
1.38315e-05	0.008911179855880495
1.38318e-05	0.008897422659235005
1.38320e-05	0.008883665462589422
1.38323e-05	0.008869985832210636
1.38325e-05	0.008856743705768234
1.38328e-05	0.008843501579325742
1.38330e-05	0.00883025945288325
1.38333e-05	0.008817017326440848
1.38335e-05	0.008803775199998356
1.38338e-05	0.008790533073555864
1.38340e-05	0.008777290947113462
1.38343e-05	0.008764525587102015
1.38345e-05	0.0087544493753366
1.38348e-05	0.008744373163571182
1.38350e-05	0.008734296951805833
1.38353e-05	0.008724220740040416
1.38355e-05	0.008714144528274998
1.38358e-05	0.00870406831650965
1.38360e-05	0.008693992104744233
1.38363e-05	0.008686599806216931
1.38365e-05	0.008694345823030535
1.38368e-05	0.00870209183984419
1.38370e-05	0.008709837856657843
1.38373e-05	0.008717583873471447
1.38375e-05	0.008725329890285101
1.38378e-05	0.008733075907098757
1.38380e-05	0.008740821923912359
1.38383e-05	0.008748567940726013
1.38385e-05	0.008760391823581822
1.38388e-05	0.008795216458173376
1.38390e-05	0.008830041092765167
1.38393e-05	0.008864865727356957
1.38395e-05	0.008899690361948513
1.38398e-05	0.008934514996540304
1.38400e-05	0.008969339631132094
1.38403e-05	0.00900416426572365
1.38405e-05	0.00903898890031544
1.38408e-05	0.009076760787030496
1.38410e-05	0.009131156322902224
1.38413e-05	0.00918555185877432
1.38415e-05	0.009239947394646416
1.38418e-05	0.009294342930518144
1.38420e-05	0.00934873846639024
1.38423e-05	0.009403134002262335
1.38425e-05	0.009457529538134063
1.38428e-05	0.00951192507400616
1.38430e-05	0.009566320609878255
1.38433e-05	0.00962071614575035
1.38435e-05	0.0096714811116902
1.38438e-05	0.009720296251392589
1.38440e-05	0.009769111391094976
1.38443e-05	0.009817926530797034
1.38445e-05	0.009866741670499422
1.38448e-05	0.009915556810201811
1.38450e-05	0.009964371949903867
1.38453e-05	0.010013187089606256
1.38455e-05	0.010062002229308644
1.38458e-05	0.010110817369010702
1.38460e-05	0.01015501850344543
1.38463e-05	0.01017319485221581
1.38465e-05	0.010191371200986067
1.38468e-05	0.010209547549756448
1.38470e-05	0.010227723898526829
1.38473e-05	0.010245900247297086
1.38475e-05	0.010264076596067467
1.38478e-05	0.010282252944837847
1.38480e-05	0.010300429293608105
1.38483e-05	0.010318605642378484
1.38485e-05	0.010336781991148864
1.38488e-05	0.010354958339919122
1.38490e-05	0.010373134688689502
1.38493e-05	0.010391311037459883
1.38495e-05	0.01040948738623014
1.38498e-05	0.01042766373500052
1.38500e-05	0.010445840083770901
1.38503e-05	0.010460843397591011
1.38505e-05	0.010457949559216957
1.38508e-05	0.010455055720842902
1.38510e-05	0.010452161882468867
1.38513e-05	0.010449268044094812
1.38515e-05	0.010446374205720756
1.38518e-05	0.010443480367346701
1.38520e-05	0.010440586528972666
1.38523e-05	0.010437692690598611
1.38525e-05	0.010434798852224557
1.38528e-05	0.010431905013850521
1.38530e-05	0.010429011175476467
1.38533e-05	0.010426117337102412
1.38535e-05	0.010423223498728377
1.38538e-05	0.010420329660354322
1.38540e-05	0.010417435821980266
1.38543e-05	0.01041454198360623
1.38545e-05	0.010411620836260582
1.38548e-05	0.010408545655685327
1.38550e-05	0.010405470475110095
1.38553e-05	0.010402395294534841
1.38555e-05	0.010399320113959587
1.38558e-05	0.010396244933384355
1.38560e-05	0.0103931697528091
1.38563e-05	0.010390094572233848
1.38565e-05	0.010387019391658614
1.38568e-05	0.01038394421108336
1.38570e-05	0.010380869030508107
1.38573e-05	0.010377793849932874
1.38575e-05	0.010374718669357621
1.38578e-05	0.010371643488782367
1.38580e-05	0.010368568308207133
1.38583e-05	0.01036549312763188
1.38585e-05	0.010362417947056626
1.38588e-05	0.010359342766481395
1.38590e-05	0.01035626758590614
1.38593e-05	0.010353192405330886
1.38595e-05	0.010351022434064995
1.38598e-05	0.010353958195650829
1.38600e-05	0.010356893957236662
1.38603e-05	0.010359829718822497
1.38605e-05	0.01036276548040831
1.38608e-05	0.010365701241994143
1.38610e-05	0.010368637003579978
1.38613e-05	0.010371572765165791
1.38615e-05	0.010374508526751624
1.38618e-05	0.01037744428833746
1.38620e-05	0.010380380049923272
1.38623e-05	0.010383315811509105
1.38625e-05	0.010386251573094939
1.38628e-05	0.010389187334680753
1.38630e-05	0.010392123096266586
1.38633e-05	0.01039505885785242
1.38635e-05	0.010397994619438234
1.38638e-05	0.010400930381024067
1.38640e-05	0.0104038661426099
1.38643e-05	0.010406801904195715
1.38645e-05	0.01040933925355398
1.38648e-05	0.010409629402868818
1.38650e-05	0.010409919552183653
1.38653e-05	0.010410209701498491
1.38655e-05	0.010410499850813328
1.38658e-05	0.010410790000128163
1.38660e-05	0.010411080149443001
1.38663e-05	0.010411370298757838
1.38665e-05	0.010411660448072674
1.38668e-05	0.01041195059738751
1.38670e-05	0.010412240746702349
1.38673e-05	0.01041029304783523
1.38675e-05	0.010395723014149484
1.38678e-05	0.010381152980463739
1.38680e-05	0.010366582946778093
1.38683e-05	0.010352012913092346
1.38685e-05	0.0103374428794066
1.38688e-05	0.010322872845720855
1.38690e-05	0.010308302812035208
1.38693e-05	0.010293732778349463
1.38695e-05	0.010279162744663718
1.38698e-05	0.010264592710978071
1.38700e-05	0.01024775514881761
1.38703e-05	0.010218127843433743
1.38705e-05	0.010188500538050078
1.38708e-05	0.010158873232666213
1.38710e-05	0.010129245927282347
1.38713e-05	0.010099618621898683
1.38715e-05	0.010069991316514816
1.38718e-05	0.010040364011130952
1.38720e-05	0.010010736705747286
1.38723e-05	0.009981109400363421
1.38725e-05	0.009951482094979555
1.38728e-05	0.00992185478959589
1.38730e-05	0.009892227484212025
1.38733e-05	0.009862986840603922
1.38735e-05	0.009835927119918257
1.38738e-05	0.009808867399232408
1.38740e-05	0.00978180767854656
1.38743e-05	0.009754747957860894
1.38745e-05	0.009727688237175045
1.38748e-05	0.009700628516489196
1.38750e-05	0.009673568795803531
1.38753e-05	0.009646509075117682
1.38755e-05	0.009619449354431833
1.38758e-05	0.009592389633746168
1.38760e-05	0.00956532991306032
1.38763e-05	0.00953827019237447
1.38765e-05	0.009513429104288729
1.38768e-05	0.009501101967665836
1.38770e-05	0.009488774831042943
1.38773e-05	0.00947644769442005
1.38775e-05	0.009464120557797242
1.38778e-05	0.009451793421174349
1.38780e-05	0.009439466284551456
1.38783e-05	0.009427139147928646
1.38785e-05	0.009414812011305753
1.38788e-05	0.00940248487468286
1.38790e-05	0.009390157738060052
1.38793e-05	0.009377830601437159
1.38795e-05	0.009365503464814266
1.38798e-05	0.009353176328191456
1.38800e-05	0.009340849191568563
1.38803e-05	0.00932852205494567
1.38805e-05	0.009316194918322862
1.38808e-05	0.009303867781699969
1.38810e-05	0.009291540645077076
1.38813e-05	0.009284137906639615
1.38815e-05	0.009279379855118546
1.38818e-05	0.009274621803597477
1.38820e-05	0.009269863752076439
1.38823e-05	0.00926510570055537
1.38825e-05	0.0092603476490343
1.38828e-05	0.009255589597513264
1.38830e-05	0.009250831545992195
1.38833e-05	0.009246073494471124
1.38835e-05	0.009241315442950088
1.38838e-05	0.009236557391429019
1.38840e-05	0.00923179933990795
1.38843e-05	0.009227041288386912
1.38845e-05	0.009222283236865842
1.38848e-05	0.009217525185344773
1.38850e-05	0.009212767133823737
1.38853e-05	0.009208009082302668
1.38855e-05	0.009203251030781599
1.38858e-05	0.009199797739584724
1.38860e-05	0.009203703804496595
1.38863e-05	0.009207609869408493
1.38865e-05	0.009211515934320392
1.38868e-05	0.009215421999232263
1.38870e-05	0.009219328064144161
1.38873e-05	0.00922323412905606
1.38875e-05	0.00922714019396793
1.38878e-05	0.009231046258879829
1.38880e-05	0.009234952323791727
1.38883e-05	0.009250647659898846
1.38885e-05	0.00927267451716204
1.38888e-05	0.009294701374425235
1.38890e-05	0.009316728231688281
1.38893e-05	0.009338755088951475
1.38895e-05	0.009360781946214671
1.38898e-05	0.009382808803477716
1.38900e-05	0.009404835660740912
1.38903e-05	0.009426862518004106
1.38905e-05	0.00945109093467843
1.38908e-05	0.009487737003395474
1.38910e-05	0.009524383072112516
1.38913e-05	0.00956102914082931
1.38915e-05	0.009597675209546354
1.38918e-05	0.009634321278263396
1.38920e-05	0.00967096734698019
1.38923e-05	0.009707613415697234
1.38925e-05	0.009744259484414276
1.38928e-05	0.00978090555313107
1.38930e-05	0.009817551621848112
1.38933e-05	0.009854197690565156
1.38935e-05	0.009889908552579405
1.38938e-05	0.009920344484758698
1.38940e-05	0.009950780416937989
1.38943e-05	0.009981216349117281
1.38945e-05	0.010011652281296368
1.38948e-05	0.010042088213475658
1.38950e-05	0.010072524145654951
1.38953e-05	0.010102960077834037
1.38955e-05	0.010133396010013328
1.38958e-05	0.01016383194219262
1.38960e-05	0.010194267874371707
1.38963e-05	0.010224703806551
1.38965e-05	0.010251931547903999
1.38968e-05	0.010261063844192992
1.38970e-05	0.010270196140482048
1.38973e-05	0.010279328436771103
1.38975e-05	0.010288460733060096
1.38978e-05	0.01029759302934915
1.38980e-05	0.010290853207122608
1.38983e-05	0.010283884027158676
1.38985e-05	0.010276914847194698
1.38988e-05	0.01026994566723072
1.38990e-05	0.01026297648726679
1.38993e-05	0.009861034825438708
1.38995e-05	0.005717265193697001
1.38998e-05	0.00107530618836383
1.39000e-05	0.00013793920403101703
1.39003e-05	0.0016819394308374707
1.39005e-05	0.004917266307957341
1.39008e-05	0.008403998513769146
1.39010e-05	0.009892246519480405
1.39013e-05	0.009342964004791711
1.39015e-05	0.007019809024928266
1.39018e-05	0.004303829388683936
1.39020e-05	0.003357468738459038
