Time(s)	Current(A)
1.35000e-05	0.0002669751005432671
1.35003e-05	0.0002977204015894675
1.35005e-05	0.0003278945774313678
1.35008e-05	0.00035585650454821635
1.35010e-05	0.000383256246341262
1.35013e-05	0.00040847836796257316
1.35015e-05	0.0004334961085037251
1.35018e-05	0.00045772218063165593
1.35020e-05	0.000481633542483346
1.35023e-05	0.0005043258767006758
1.35025e-05	0.0005270182109180056
1.35028e-05	0.0005488940463820603
1.35030e-05	0.0005676071807230021
1.35033e-05	0.0005863203150639441
1.35035e-05	0.0006050334494047591
1.35038e-05	0.0006237465837457011
1.35040e-05	0.000642459718086643
1.35043e-05	0.0006611728524274581
1.35045e-05	0.0006798859867683999
1.35048e-05	0.0006953046823469198
1.35050e-05	0.0007093461241500018
1.35053e-05	0.0007233875659531791
1.35055e-05	0.0007374290077563563
1.35058e-05	0.0007514704495594382
1.35060e-05	0.0007655118913626155
1.35063e-05	0.0007795533331657927
1.35065e-05	0.000792917862569632
1.35068e-05	0.000803660377429517
1.35070e-05	0.0008142257966566359
1.35073e-05	0.0008241052374242595
1.35075e-05	0.000834404705278999
1.35078e-05	0.0008463311445593103
1.35080e-05	0.0008582575838395408
1.35083e-05	0.0008706308101303528
1.35085e-05	0.0008847346621875614
1.35088e-05	0.0008988385142446744
1.35090e-05	0.0009134059780444322
1.35093e-05	0.0009297692380702115
1.35095e-05	0.0009461324980958801
1.35098e-05	0.0009634033965463249
1.35100e-05	0.0009841900248803836
1.35103e-05	0.0010049766532144423
1.35105e-05	0.00102576328154836
1.35108e-05	0.0010465499098824187
1.35110e-05	0.0010701774671294584
1.35113e-05	0.0010949926864802773
1.35115e-05	0.0011198079058312642
1.35118e-05	0.0011446231251822513
1.35120e-05	0.0011700648222829856
1.35123e-05	0.0011979331757342774
1.35125e-05	0.001225801529185569
1.35128e-05	0.0012538547516459525
1.35130e-05	0.0012826240626754165
1.35133e-05	0.0013114721903685336
1.35135e-05	0.0013406843291209366
1.35138e-05	0.001370154644522697
1.35140e-05	0.001399737354798872
1.35143e-05	0.0014292499893650468
1.35145e-05	0.0014585099403565881
1.35148e-05	0.001487335191050759
1.35150e-05	0.0015155580058255468
1.35153e-05	0.0015430775028268163
1.35155e-05	0.0015698537045401185
1.35158e-05	0.0015957994101244383
1.35160e-05	0.0016207493706901761
1.35163e-05	0.0016445155516049473
1.35165e-05	0.0016669098257085359
1.35168e-05	0.0016877406738223062
1.35170e-05	0.0017066963264541382
1.35173e-05	0.001722913124600494
1.35175e-05	0.0017350832584330594
1.35178e-05	0.0017424066678349472
1.35180e-05	0.0017448052037580583
1.35183e-05	0.0017424057589031892
1.35185e-05	0.00173533522597108
1.35188e-05	0.0017237184194538503
1.35190e-05	0.0017076048846159464
1.35193e-05	0.0016861177154646485
1.35195e-05	0.0016581757099197476
1.35198e-05	0.0016279954496749096
1.35200e-05	0.001589145328474825
1.35203e-05	0.0015483066003854039
1.35205e-05	0.0014997650200588776
1.35208e-05	0.0014494773144165
1.35210e-05	0.0013924260068947395
1.35213e-05	0.0013336518046096165
1.35215e-05	0.0012682039837934274
1.35218e-05	0.0012011757568931624
1.35220e-05	0.001128025840177738
1.35223e-05	0.0010536528140125201
1.35225e-05	0.0009745420835730956
1.35228e-05	0.0008943894061571322
1.35230e-05	0.0008102007557949386
1.35233e-05	0.0007260121054327451
1.35235e-05	0.0006410500190331965
1.35238e-05	0.000553092034575783
1.35240e-05	0.0004651340501183697
1.35243e-05	0.0003771607946094992
1.35245e-05	0.0002891283868069696
1.35248e-05	0.0002014095287479818
1.35250e-05	0.00011524068293406893
1.35253e-05	3.077640526918209e-05
1.35255e-05	-5.163074098628225e-05
1.35258e-05	-0.00013155001017072166
1.35260e-05	-0.00020843956107029874
1.35263e-05	-0.0002817260618500373
1.35265e-05	-0.0003508362661158434
1.35268e-05	-0.000415201799949552
1.35270e-05	-0.00047443243102870193
1.35273e-05	-0.0005289885034195778
1.35275e-05	-0.0005801716045698065
1.35278e-05	-0.0006288277663987462
1.35280e-05	-0.0006745869006710423
1.35283e-05	-0.0007168460990513902
1.35285e-05	-0.0007576827635502084
1.35288e-05	-0.0007930092548930659
1.35290e-05	-0.0008269334450297982
1.35293e-05	-0.0008554258331124664
1.35295e-05	-0.0008830306469077035
1.35298e-05	-0.0009071974490847454
1.35300e-05	-0.0009302540518493354
1.35303e-05	-0.000949010306425482
1.35305e-05	-0.0009677665610015016
1.35308e-05	-0.0009850441342288416
1.35310e-05	-0.0009965940475532573
1.35313e-05	-0.0010081439608775947
1.35315e-05	-0.0010187274593636097
1.35318e-05	-0.0010255675580128731
1.35320e-05	-0.00103240765666209
1.35323e-05	-0.001038376205526289
1.35325e-05	-0.001040968813548494
1.35328e-05	-0.001043561421570681
1.35330e-05	-0.0010451358426731836
1.35333e-05	-0.0010427663252127158
1.35335e-05	-0.001040396807752264
1.35338e-05	-0.001038027290291796
1.35340e-05	-0.0010356577728313282
1.35343e-05	-0.0010332882553708762
1.35345e-05	-0.0010309187379104084
1.35348e-05	-0.0010266509918789252
1.35350e-05	-0.0010215896835271074
1.35353e-05	-0.0010165283751752553
1.35355e-05	-0.0010114670668234032
1.35358e-05	-0.001006405758471551
1.35360e-05	-0.001001344450119733
1.35363e-05	-0.0009963840497352438
1.35365e-05	-0.000991814515522893
1.35368e-05	-0.000987244981310573
1.35370e-05	-0.000982675447098222
1.35373e-05	-0.0009781059128858712
1.35375e-05	-0.0009735363786735514
1.35378e-05	-0.0009689668444612005
1.35380e-05	-0.0009623198680360027
1.35383e-05	-0.0009548044082847731
1.35385e-05	-0.0009472889485334928
1.35388e-05	-0.0009397734887822123
1.35390e-05	-0.0009322580290309827
1.35393e-05	-0.0009247425692797023
1.35395e-05	-0.0009161167681694814
1.35398e-05	-0.0009031900690415671
1.35400e-05	-0.0008902633699135651
1.35403e-05	-0.0008773366707855632
1.35405e-05	-0.0008644099716576489
1.35408e-05	-0.000851483272529647
1.35410e-05	-0.000838556573401645
1.35413e-05	-0.0008256298742737307
1.35415e-05	-0.0008117651983248872
1.35418e-05	-0.000794267276962368
1.35420e-05	-0.0007767693555999672
1.35423e-05	-0.0007592714342374479
1.35425e-05	-0.0007417735128749287
1.35428e-05	-0.000724275591512528
1.35430e-05	-0.0007067776701500087
1.35433e-05	-0.0006892797487874895
1.35435e-05	-0.00067153173570595
1.35438e-05	-0.0006528149944302869
1.35440e-05	-0.0006340982531546236
1.35443e-05	-0.0006153815118789605
1.35445e-05	-0.0005966647706034241
1.35448e-05	-0.0005779480293277609
1.35450e-05	-0.0005596949206955898
1.35453e-05	-0.0005432376892520154
1.35455e-05	-0.0005267804578083297
1.35458e-05	-0.0005103232263646439
1.35460e-05	-0.0004938659949210696
1.35463e-05	-0.0004774087634773838
1.35465e-05	-0.0004616979802214058
1.35468e-05	-0.0004488785578125542
1.35470e-05	-0.0004360591354036158
1.35473e-05	-0.0004231603409477486
1.35475e-05	-0.00040995409952829926
1.35478e-05	-0.00039619351682955277
1.35480e-05	-0.0003802856977959524
1.35483e-05	-0.00036394252687721766
1.35485e-05	-0.00034591302405140615
1.35488e-05	-0.0003275543162403633
1.35490e-05	-0.000307920435656927
1.35493e-05	-0.0002878875927425586
1.35495e-05	-0.0002659138798799604
1.35498e-05	-0.00024202443562365051
1.35500e-05	-0.00021630787151057906
1.35503e-05	-0.0001889751783679883
1.35505e-05	-0.00016023730075922997
1.35508e-05	-0.00013030385301431092
1.35510e-05	-9.933693838565855e-05
1.35513e-05	-6.727620787710218e-05
1.35515e-05	-3.3860040759854873e-05
1.35518e-05	1.0149480342019299e-06
1.35520e-05	3.719231739505035e-05
1.35523e-05	7.443900855094767e-05
1.35525e-05	0.00011252200512377787
1.35528e-05	0.00015128069626816758
1.35530e-05	0.00019065212042848807
1.35533e-05	0.00023002354458907538
1.35535e-05	0.00026957708174335233
1.35538e-05	0.00030983603206408334
1.35540e-05	0.00035008291324756583
1.35543e-05	0.00039028304472721656
1.35545e-05	0.000430268819127553
1.35548e-05	0.0004694242831648745
1.35550e-05	0.0005082094110024672
1.35553e-05	0.000545560044649507
1.35555e-05	0.0005825881379120983
1.35558e-05	0.0006181004329838874
1.35560e-05	0.0006522618463631535
1.35563e-05	0.0006848170553621322
1.35565e-05	0.0007155106925394146
1.35568e-05	0.0007440848523393066
1.35570e-05	0.0007701875824250075
1.35573e-05	0.0007930404010434363
1.35575e-05	0.0008115413069073631
1.35578e-05	0.0008250224747395023
1.35580e-05	0.0008334023418121134
1.35583e-05	0.0008367630167583292
1.35585e-05	0.0008351867231155747
1.35588e-05	0.0008287539197713738
1.35590e-05	0.0008174862870763718
1.35593e-05	0.0008011383358808659
1.35595e-05	0.000779261952047617
1.35598e-05	0.0007516810592425892
1.35600e-05	0.0007185867479762488
1.35603e-05	0.0006802726878418118
1.35605e-05	0.0006370325827528376
1.35608e-05	0.000589159039309931
1.35610e-05	0.0005369078192978756
1.35613e-05	0.00048036728883414317
1.35615e-05	0.0004194989288876453
1.35618e-05	0.0003544346692334304
1.35620e-05	0.00028553634129121835
1.35623e-05	0.00021323007438926698
1.35625e-05	0.0001379419527056206
1.35628e-05	6.0097358554904955e-05
1.35630e-05	-1.990142634735155e-05
1.35633e-05	-0.0001017570065642069
1.35635e-05	-0.00018534892651333808
1.35638e-05	-0.0002704376928673633
1.35640e-05	-0.0003556657365314517
1.35643e-05	-0.00044143326969592306
1.35645e-05	-0.0005272008028598133
1.35648e-05	-0.0006125058868055489
1.35650e-05	-0.0006960196775471117
1.35653e-05	-0.0007787504195406423
1.35655e-05	-0.0008584480287212268
1.35658e-05	-0.0009369743821511664
1.35660e-05	-0.0010109638861676008
1.35663e-05	-0.0010833253644580644
1.35665e-05	-0.0011493806986312073
1.35668e-05	-0.0012134473542556765
1.35670e-05	-0.0012698108800560835
1.35673e-05	-0.001324841760476347
1.35675e-05	-0.001374710650094674
1.35678e-05	-0.0014235043931543647
1.35680e-05	-0.001468133564955475
1.35683e-05	-0.0015127627367562825
1.35685e-05	-0.001555625566494101
1.35688e-05	-0.001591646484932933
1.35690e-05	-0.0016276674033715208
1.35693e-05	-0.0016623625918490658
1.35695e-05	-0.0016919225763418247
1.35698e-05	-0.0017214825608345837
1.35700e-05	-0.0017491393387535326
1.35703e-05	-0.001769424061830088
1.35705e-05	-0.0017897087849066435
1.35708e-05	-0.0018099935079830616
1.35710e-05	-0.001830278231059617
1.35713e-05	-0.0018505629541361725
1.35715e-05	-0.0018708476772125904
1.35718e-05	-0.001891132400289146
1.35720e-05	-0.0019114171233657014
1.35723e-05	-0.001929677594162957
1.35725e-05	-0.0019400971405825046
1.35728e-05	-0.0019505166870020523
1.35730e-05	-0.0019609362334215294
1.35733e-05	-0.0019713557798410773
1.35735e-05	-0.0019817753262606247
1.35738e-05	-0.001992194872680102
1.35740e-05	-0.0020026144190996493
1.35743e-05	-0.002013033965519197
1.35745e-05	-0.002022546284911255
1.35748e-05	-0.002028544467953066
1.35750e-05	-0.002034542650994877
1.35753e-05	-0.0020405408340366474
1.35755e-05	-0.0020465390170784584
1.35758e-05	-0.0020514446782946994
1.35760e-05	-0.002055893606233607
1.35763e-05	-0.0020603425341725453
1.35765e-05	-0.0020647914621114835
1.35768e-05	-0.0020689001211918133
1.35770e-05	-0.00207169075167644
1.35773e-05	-0.002074481382161067
1.35775e-05	-0.002075782281819423
1.35778e-05	-0.0020713127215034426
1.35780e-05	-0.002066843161187462
1.35783e-05	-0.0020623736008714816
1.35785e-05	-0.0020579040405555313
1.35788e-05	-0.002053434480239551
1.35790e-05	-0.0020489649199235704
1.35793e-05	-0.0020365709831323083
1.35795e-05	-0.002020864227911402
1.35798e-05	-0.0020051574726904953
1.35800e-05	-0.0019894507174696954
1.35803e-05	-0.001973743962248789
1.35805e-05	-0.0019580372070278824
1.35808e-05	-0.0019401008348163373
1.35810e-05	-0.0019135280597206363
1.35813e-05	-0.001886955284624935
1.35815e-05	-0.0018603825095294137
1.35818e-05	-0.0018338097344337127
1.35820e-05	-0.0018072369593380114
1.35823e-05	-0.0017806641842424901
1.35825e-05	-0.001754091409146789
1.35828e-05	-0.0017230133415633197
1.35830e-05	-0.001690051817782323
1.35833e-05	-0.001657090294001103
1.35835e-05	-0.0016241287702198827
1.35838e-05	-0.001591167246438886
1.35840e-05	-0.001558205722657666
1.35843e-05	-0.0015252441988764457
1.35845e-05	-0.0014923003120009945
1.35848e-05	-0.00145942474153239
1.35850e-05	-0.0014265491710637854
1.35853e-05	-0.0013941497890826294
1.35855e-05	-0.0013635949192495377
1.35858e-05	-0.0013330400494164457
1.35860e-05	-0.0013032950599161663
1.35863e-05	-0.001276687135154295
1.35865e-05	-0.0012500792103924234
1.35868e-05	-0.0012243706085635993
1.35870e-05	-0.0012021455266431262
1.35873e-05	-0.001179992170792542
1.35875e-05	-0.0011581166452782573
1.35878e-05	-0.0011362411197641206
1.35880e-05	-0.0011140563360876907
1.35883e-05	-0.0010906736434898841
1.35885e-05	-0.0010672909508922363
1.35888e-05	-0.0010439082582944298
1.35890e-05	-0.0010205255656966232
1.35893e-05	-0.0009965033772177405
1.35895e-05	-0.0009700041067562408
1.35898e-05	-0.0009435048362947411
1.35900e-05	-0.0009170055658334211
1.35903e-05	-0.0008905062953719214
1.35905e-05	-0.0008631881976396166
1.35908e-05	-0.0008326983792774733
1.35910e-05	-0.0008022085609151236
1.35913e-05	-0.0007717187425527737
1.35915e-05	-0.0007412289241906305
1.35918e-05	-0.0007107391058282808
1.35920e-05	-0.0006779454596431548
1.35923e-05	-0.0006441886886878155
1.35925e-05	-0.0006104319177322474
1.35928e-05	-0.0005766751467766795
1.35930e-05	-0.0005429183758213402
1.35933e-05	-0.0005090058916871544
1.35935e-05	-0.0004744902538492719
1.35938e-05	-0.0004399746160116232
1.35940e-05	-0.00040545897817374066
1.35943e-05	-0.0003715640204726597
1.35945e-05	-0.00033792854067567766
1.35948e-05	-0.0003042930608784676
1.35950e-05	-0.0002711030972918489
1.35953e-05	-0.00023963883704570987
1.35955e-05	-0.00020845312693950943
1.35958e-05	-0.00017856959781039223
1.35960e-05	-0.00014981779850818146
1.35963e-05	-0.00012241152091494646
1.35965e-05	-9.656447576145766e-05
1.35968e-05	-7.248561271933223e-05
1.35970e-05	-5.0212652399391345e-05
1.35973e-05	-2.8978907841913176e-05
1.35975e-05	-7.281781854215399e-06
1.35978e-05	1.582613197273813e-05
1.35980e-05	4.036411437430258e-05
1.35983e-05	6.607652089885582e-05
1.35985e-05	9.270776035583092e-05
1.35988e-05	0.00012000523144679755
1.35990e-05	0.00014782361591295822
1.35993e-05	0.00017652146911330602
1.35995e-05	0.00020691825126240503
1.35998e-05	0.0002394855694338502
1.36000e-05	0.0002741136570889906
1.36003e-05	0.0003105205447528569
1.36005e-05	0.00034852688905789235
1.36008e-05	0.0003879422939566711
1.36010e-05	0.00042781774439844993
1.36013e-05	0.00046947517742864547
1.36015e-05	0.0005117890288109707
1.36018e-05	0.0005566455112292247
1.36020e-05	0.0006020891572863541
1.36023e-05	0.000649807176821175
1.36025e-05	0.0006975251963563191
1.36028e-05	0.000745494358658127
1.36030e-05	0.000794436320380244
1.36033e-05	0.0008434834167715011
1.36035e-05	0.000893026206681307
1.36038e-05	0.0009429541827797856
1.36040e-05	0.0009930262151823155
1.36043e-05	0.0010429336167200242
1.36045e-05	0.0010923676539590875
1.36048e-05	0.001141020405639224
1.36050e-05	0.0011886105778184841
1.36053e-05	0.0012349805094861162
1.36055e-05	0.001280085836324968
1.36058e-05	0.0013237967088999866
1.36060e-05	0.0013658404612247718
1.36063e-05	0.0014059020047977925
1.36065e-05	0.0014436664122865863
1.36068e-05	0.0014788213392251648
1.36070e-05	0.0015111506080129665
1.36073e-05	0.0015408963358133118
1.36075e-05	0.001568755147579196
1.36078e-05	0.0015951805740390304
1.36080e-05	0.0016199644115396004
1.36083e-05	0.0016427743058294217
1.36085e-05	0.0016647867293210124
1.36088e-05	0.0016837101562993024
1.36090e-05	0.0017017149911303382
1.36093e-05	0.0017161616669076755
1.36095e-05	0.0017306083426851108
1.36098e-05	0.0017440210642319595
1.36100e-05	0.001753428772653258
1.36103e-05	0.0017628364810746203
1.36105e-05	0.0017722441894959826
1.36108e-05	0.001781651897917281
1.36110e-05	0.0017898693851438805
1.36113e-05	0.0017934765604568168
1.36115e-05	0.0017970837357697287
1.36118e-05	0.001800690911082665
1.36120e-05	0.0018042980863956011
1.36123e-05	0.0018070182471866258
1.36125e-05	0.0018063025645931445
1.36128e-05	0.001805586881999658
1.36130e-05	0.0018048711994061717
1.36133e-05	0.0018041555168126903
1.36135e-05	0.001803439834219204
1.36138e-05	0.0018021770134113864
1.36140e-05	0.0017987948572740285
1.36143e-05	0.0017954127011366476
1.36145e-05	0.0017920305449992669
1.36148e-05	0.001788648388861909
1.36150e-05	0.001785266232724528
1.36153e-05	0.0017817546981404554
1.36155e-05	0.0017777420172175372
1.36158e-05	0.001773729336294592
1.36160e-05	0.0017699749620226574
1.36163e-05	0.001767221136418436
1.36165e-05	0.001764467310814196
1.36168e-05	0.001761713485209956
1.36170e-05	0.0017589596596057347
1.36173e-05	0.0017562058340014947
1.36175e-05	0.0017534520083972546
1.36178e-05	0.0017506981827930333
1.36180e-05	0.0017479443571887935
1.36183e-05	0.0017451905315845535
1.36185e-05	0.0017424367059803321
1.36188e-05	0.0017400596811179196
1.36190e-05	0.0017391421908001794
1.36193e-05	0.0017382247004824453
1.36195e-05	0.001737307210164705
1.36198e-05	0.0017363897198469649
1.36200e-05	0.001735472229529231
1.36203e-05	0.0017345547392114908
1.36205e-05	0.0017336372488937506
1.36208e-05	0.0017327197585760104
1.36210e-05	0.0017318022682582762
1.36213e-05	0.001730884777940536
1.36215e-05	0.00173019516503196
1.36218e-05	0.0017303882333756912
1.36220e-05	0.0017305813017194235
1.36223e-05	0.001730774370063156
1.36225e-05	0.0017309674384068869
1.36228e-05	0.0017311605067506194
1.36230e-05	0.0017313535750943516
1.36233e-05	0.0017315466434380828
1.36235e-05	0.001731739711781815
1.36238e-05	0.0017320067940830106
1.36240e-05	0.0017325605688339022
1.36243e-05	0.0017331143435847978
1.36245e-05	0.001733668118335693
1.36248e-05	0.0017342218930865847
1.36250e-05	0.00173477566783748
1.36253e-05	0.0017353294425883755
1.36255e-05	0.0017358832173392672
1.36258e-05	0.0017364369920901625
1.36260e-05	0.0017369763175839252
1.36263e-05	0.001737450381779497
1.36265e-05	0.0017378778227173078
1.36268e-05	0.0017382469614486884
1.36270e-05	0.0017383593507835258
1.36273e-05	0.0017371475006816661
1.36275e-05	0.0017327925431000744
1.36278e-05	0.0017241649398622848
1.36280e-05	0.0017111976992402046
1.36283e-05	0.0016941328217784353
1.36285e-05	0.0016732118006297016
1.36288e-05	0.0016486730653076194
1.36290e-05	0.0016201573143977091
1.36293e-05	0.0015868217869925664
1.36295e-05	0.0015513882003796
1.36298e-05	0.0015078277988430757
1.36300e-05	0.0014623161504072842
1.36303e-05	0.0014092463633076865
1.36305e-05	0.0013545503659316207
1.36308e-05	0.0012935552565523291
1.36310e-05	0.001231078193248304
1.36313e-05	0.0011628607937181912
1.36315e-05	0.0010930493662880396
1.36318e-05	0.0010170634850214392
1.36320e-05	0.0009397773378247492
1.36323e-05	0.0008574546213446282
1.36325e-05	0.0007742369553286372
1.36328e-05	0.0006875527097124397
1.36330e-05	0.0006002655536474031
1.36333e-05	0.0005106430289646467
1.36335e-05	0.00042050862693925186
1.36338e-05	0.0003283914722789276
1.36340e-05	0.00023627431761922757
1.36343e-05	0.0001441473561626256
1.36345e-05	5.216744935929011e-05
1.36348e-05	-3.879752075218842e-05
1.36350e-05	-0.00012822183761125624
1.36353e-05	-0.0002157135705612315
1.36355e-05	-0.00030099652821766377
1.36358e-05	-0.0003836883308763045
1.36360e-05	-0.00046324301860612614
1.36363e-05	-0.0005390672523706064
1.36365e-05	-0.000610567790878968
1.36368e-05	-0.0006771546199120219
1.36370e-05	-0.0007383600539161541
1.36373e-05	-0.0007943081060827439
1.36375e-05	-0.0008457431318649998
1.36378e-05	-0.0008931664214753172
1.36380e-05	-0.0009360425821921558
1.36383e-05	-0.0009737140273625732
1.36385e-05	-0.0010094231597701274
1.36388e-05	-0.001037531289979085
1.36390e-05	-0.0010636678450641087
1.36393e-05	-0.0010821675202709487
1.36395e-05	-0.0010990617672895133
1.36398e-05	-0.001109737401547045
1.36400e-05	-0.001118878254769477
1.36403e-05	-0.00112207414639192
1.36405e-05	-0.00112370555292691
1.36408e-05	-0.0011192769394616157
1.36410e-05	-0.0011133768825526257
1.36413e-05	-0.0011017772016780898
1.36415e-05	-0.001089034243239604
1.36418e-05	-0.0010718628086472648
1.36420e-05	-0.0010534576466361893
1.36423e-05	-0.001030273651709677
1.36425e-05	-0.001007089656783322
1.36428e-05	-0.0009826370189390586
1.36430e-05	-0.0009532703032830861
1.36433e-05	-0.0009239035876273125
1.36435e-05	-0.0008938969489038955
1.36438e-05	-0.0008614115734902244
1.36440e-05	-0.0008286556248550429
1.36443e-05	-0.0007948516130910381
1.36445e-05	-0.0007609259007071505
1.36448e-05	-0.000726528781982501
1.36450e-05	-0.0006922069565210479
