Time(s)	Current(A)
1.45000e-05	-0.0009651850030393186
1.45003e-05	-0.0009772003370593768
1.45005e-05	-0.0009892156710794352
1.45008e-05	-0.0010012310050994935
1.45010e-05	-0.0010132463391194703
1.45013e-05	-0.0010252616731395287
1.45015e-05	-0.0010306696138765042
1.45018e-05	-0.0010353809698904906
1.45020e-05	-0.0010400923259045092
1.45023e-05	-0.0010448036819185275
1.45025e-05	-0.0010495150379325141
1.45028e-05	-0.0010542263939465324
1.45030e-05	-0.0010589377499605507
1.45033e-05	-0.0010636491059745374
1.45035e-05	-0.0010683604619885557
1.45038e-05	-0.0010730718180025742
1.45040e-05	-0.0010777831740165606
1.45043e-05	-0.001082494530030579
1.45045e-05	-0.0010820780628578645
1.45048e-05	-0.0010741165307568748
1.45050e-05	-0.0010661549986558311
1.45053e-05	-0.0010581934665547872
1.45055e-05	-0.0010502319344537975
1.45058e-05	-0.0010422704023527536
1.45060e-05	-0.00103430887025171
1.45063e-05	-0.0010263473381507203
1.45065e-05	-0.0010183858060496763
1.45068e-05	-0.0010104242739486327
1.45070e-05	-0.001002462741847643
1.45073e-05	-0.000994501209746599
1.45075e-05	-0.0009865396776455554
1.45078e-05	-0.0009727588394662301
1.45080e-05	-0.0009583645006913362
1.45083e-05	-0.0009439701619164422
1.45085e-05	-0.0009295758231416459
1.45088e-05	-0.0009151814843667518
1.45090e-05	-0.0009007871455918579
1.45093e-05	-0.0008863928068169639
1.45095e-05	-0.0008718993537247762
1.45098e-05	-0.0008573954515012829
1.45100e-05	-0.0008428915492777895
1.45103e-05	-0.0008283876470543944
1.45105e-05	-0.0008138837448309011
1.45108e-05	-0.0007993798426074077
1.45110e-05	-0.0007848759403840126
1.45113e-05	-0.0007761189785506498
1.45115e-05	-0.0007679678881571768
1.45118e-05	-0.0007598167977637591
1.45120e-05	-0.000751665707370286
1.45123e-05	-0.0007435146169768131
1.45125e-05	-0.0007353635265833953
1.45128e-05	-0.0007272124361899224
1.45130e-05	-0.0007190613457964494
1.45133e-05	-0.0007109102554030317
1.45135e-05	-0.0007027591650095587
1.45138e-05	-0.0006946080746160858
1.45140e-05	-0.000686456984222668
1.45143e-05	-0.0006874096522029746
1.45145e-05	-0.0006893220843048424
1.45148e-05	-0.0006912345164066972
1.45150e-05	-0.0006931469485085649
1.45153e-05	-0.0006950593806104328
1.45155e-05	-0.0006969718127122876
1.45158e-05	-0.0006988842448141554
1.45160e-05	-0.0007007966769160231
1.45163e-05	-0.0007027091090178779
1.45165e-05	-0.0007046215411197457
1.45168e-05	-0.0007065339732216134
1.45170e-05	-0.0007084464053234683
1.45173e-05	-0.0007154835370876491
1.45175e-05	-0.0007230609405361713
1.45178e-05	-0.0007306383439846933
1.45180e-05	-0.000738215747433164
1.45183e-05	-0.0007457931508816862
1.45185e-05	-0.0007533705543302083
1.45188e-05	-0.0007609479577786791
1.45190e-05	-0.0007689607753020393
1.45193e-05	-0.0007776142598973579
1.45195e-05	-0.0007862677444926179
1.45198e-05	-0.0007949212290879366
1.45200e-05	-0.0008035747136832552
1.45203e-05	-0.0008122281982785153
1.45205e-05	-0.0008208816828738338
1.45208e-05	-0.0008295351674691524
1.45210e-05	-0.0008370553695615592
1.45213e-05	-0.0008444560952969231
1.45215e-05	-0.0008518568210322871
1.45218e-05	-0.0008592575467676009
1.45220e-05	-0.0008631814519248405
1.45223e-05	-0.000866738813121573
1.45225e-05	-0.0008702961743182816
1.45228e-05	-0.0008738535355150141
1.45230e-05	-0.0008712393604957367
1.45233e-05	-0.0008679745510027723
1.45235e-05	-0.0008604499208332615
1.45238e-05	-0.0008524761988838509
1.45240e-05	-0.0008404443037951165
1.45243e-05	-0.0008279845756267929
1.45245e-05	-0.0008105893666768818
1.45248e-05	-0.0007926738344512603
1.45250e-05	-0.0007695837352336966
1.45253e-05	-0.0007459481070661568
1.45255e-05	-0.0007178012767516074
1.45258e-05	-0.0006891788527544586
1.45260e-05	-0.0006566531443058892
1.45263e-05	-0.0006237159319243772
1.45265e-05	-0.0005868074557287517
1.45268e-05	-0.0005494803088726374
1.45270e-05	-0.0005085138439062984
1.45273e-05	-0.00046716370367026045
1.45275e-05	-0.00042307129910153864
1.45278e-05	-0.0003786897911963385
1.45280e-05	-0.00033242829320994527
1.45283e-05	-0.0002859685971871516
1.45285e-05	-0.00023806768338075415
1.45288e-05	-0.00019001482912716928
1.45290e-05	-0.0001412387704616339
1.45293e-05	-9.238646793954583e-05
1.45295e-05	-4.353416541778878e-05
1.45298e-05	4.8508879909038e-06
1.45300e-05	5.251680021413331e-05
1.45303e-05	9.923692466278847e-05
1.45305e-05	0.00014484290693480594
1.45308e-05	0.0001891238218207094
1.45310e-05	0.000231790265335155
1.45313e-05	0.000272528251885943
1.45315e-05	0.0003110220457924147
1.45318e-05	0.0003469559404777993
1.45320e-05	0.00038005189460441947
1.45323e-05	0.00040992313962249756
1.45325e-05	0.00043948321627718595
1.45328e-05	0.00046729390379174633
1.45330e-05	0.0004949201618800221
1.45333e-05	0.0005206770927999575
1.45335e-05	0.0005462369498219747
1.45338e-05	0.0005691815496561473
1.45340e-05	0.0005918504358872523
1.45343e-05	0.0006118954468394892
1.45345e-05	0.0006316638356261529
1.45348e-05	0.0006514322244128164
1.45350e-05	0.0006681077963665499
1.45353e-05	0.0006844573079710869
1.45355e-05	0.0007008068195756238
1.45358e-05	0.00071715633118005
1.45360e-05	0.0007335058427845871
1.45363e-05	0.0007498553543891241
1.45365e-05	0.0007662048659935502
1.45368e-05	0.0007825543775980872
1.45370e-05	0.0007971985363136507
1.45373e-05	0.0008093334434781246
1.45375e-05	0.0008214683506426808
1.45378e-05	0.0008336032578072369
1.45380e-05	0.0008457381649717108
1.45383e-05	0.0008578730721362669
1.45385e-05	0.0008700079793008231
1.45388e-05	0.000882142886465297
1.45390e-05	0.0008942777936298531
1.45393e-05	0.0009041009558610102
1.45395e-05	0.0009136804022816961
1.45398e-05	0.0009232598487024469
1.45400e-05	0.0009328392951231978
1.45403e-05	0.0009424187415438837
1.45405e-05	0.0009511232842282072
1.45408e-05	0.0009585404959606109
1.45410e-05	0.0009659577076929645
1.45413e-05	0.0009733749194253682
1.45415e-05	0.000980792131157772
1.45418e-05	0.0009882093428901257
1.45420e-05	0.0009929353198897726
1.45423e-05	0.0009973775733502794
1.45425e-05	0.001001819826810756
1.45428e-05	0.0010007592096411846
1.45430e-05	0.0009991184520953503
1.45433e-05	0.0009925206246603968
1.45435e-05	0.0009854001979161982
1.45438e-05	0.0009737253644806824
1.45440e-05	0.0009615703825210713
1.45443e-05	0.0009445427124920782
1.45445e-05	0.000927001339110687
1.45448e-05	0.0009035273840836466
1.45450e-05	0.000879427986377942
1.45453e-05	0.00084986383247186
1.45455e-05	0.0008197235564049011
1.45458e-05	0.0007849161890329528
1.45460e-05	0.0007496167933562505
1.45463e-05	0.0007099963639833459
1.45465e-05	0.0006699203894446952
1.45468e-05	0.0006254048517394517
1.45470e-05	0.0005804212728935932
1.45473e-05	0.0005318366176211147
1.45475e-05	0.0004828723187087906
1.45478e-05	0.00043135182988261506
1.45480e-05	0.00037956185462351296
1.45483e-05	0.0003259776664960582
1.45485e-05	0.00027220432339863964
1.45488e-05	0.0002169810445993488
1.45490e-05	0.00016160490626495344
1.45493e-05	0.00010622876793055808
1.45495e-05	5.085262959653796e-05
1.45498e-05	-4.0888439832136985e-06
1.45500e-05	-5.8214411266221e-05
1.45503e-05	-0.00011125738735696585
1.45505e-05	-0.00016303117496358822
1.45508e-05	-0.00021329981554214244
1.45510e-05	-0.00026173569116112483
1.45513e-05	-0.00030798239782067776
1.45515e-05	-0.0003516814622529012
1.45518e-05	-0.0003924744389062404
1.45520e-05	-0.0004300316353780162
1.45523e-05	-0.0004644522222726293
1.45525e-05	-0.0004964073537309977
1.45528e-05	-0.0005263968824651191
1.45530e-05	-0.0005544222306115776
1.45533e-05	-0.0005792637172895081
1.45535e-05	-0.0006037893405922486
1.45538e-05	-0.0006237889916396156
1.45540e-05	-0.0006433114918640271
1.45543e-05	-0.0006584211783540513
1.45545e-05	-0.0006730656437632706
1.45548e-05	-0.0006845106823086146
1.45550e-05	-0.0006956184211368259
1.45553e-05	-0.0007035808375128873
1.45555e-05	-0.0007112116581318296
1.45558e-05	-0.0007154605975936854
1.45560e-05	-0.0007193530020866431
1.45563e-05	-0.0007195266739007893
1.45565e-05	-0.0007193082981595961
1.45568e-05	-0.0007190899224184014
1.45570e-05	-0.0007157006156810541
1.45573e-05	-0.0007119770134047755
1.45575e-05	-0.0007082534111284716
1.45578e-05	-0.0007015540749887784
1.45580e-05	-0.0006945410219764349
1.45583e-05	-0.000687527968964044
1.45585e-05	-0.0006790722194022267
1.45588e-05	-0.0006704643734936333
1.45590e-05	-0.0006618565275849816
1.45593e-05	-0.0006560991374751426
1.45595e-05	-0.0033754317829785174
1.45598e-05	-0.010548951159426875
1.45600e-05	-0.012649644716445082
1.45603e-05	-0.011177865197455197
1.45605e-05	-0.00829564522585735
1.45608e-05	-0.0031568318967276432
1.45610e-05	-0.00011939792709092071
1.45613e-05	-0.0003802670307763415
1.45615e-05	-0.0020779296130163114
1.45618e-05	-0.005587377208275176
1.45620e-05	-0.00798924340726203
1.45623e-05	-0.00717030115857856
1.45625e-05	-0.005070814860226278
1.45628e-05	-0.0023868749033655328
1.45630e-05	-7.773262863435511e-05
1.45633e-05	0.0005119104512533231
1.45635e-05	-0.0009232111989937294
1.45638e-05	-0.002000971094107976
1.45640e-05	-0.003679290260690125
1.45643e-05	-0.003922638894041206
1.45645e-05	-0.0027740260125532577
1.45648e-05	-0.0014687902646346627
1.45650e-05	-2.122933340982782e-05
1.45653e-05	0.0004463320505585038
1.45655e-05	-6.011973499286839e-05
1.45658e-05	-0.0008475588500980972
1.45660e-05	-0.0018778358269283253
1.45663e-05	-0.002007969611015009
1.45665e-05	-0.0012651884626539809
1.45668e-05	-0.0004235512188115643
1.45670e-05	0.0005077836825644321
1.45673e-05	0.0008256291982523701
1.45675e-05	0.0005336073988826674
1.45678e-05	6.568500568231259e-05
1.45680e-05	-0.0005544021012026104
1.45683e-05	-0.0006108835707841004
1.45685e-05	-0.0001210358460888768
1.45688e-05	0.00043007673543759244
1.45690e-05	0.001036546904692576
1.45693e-05	0.0012577511104324168
1.45695e-05	0.0010958320029098346
1.45698e-05	0.0008224884935432186
1.45700e-05	0.000452439729852673
1.45703e-05	0.0004338742305074726
1.45705e-05	0.0007557823289519161
1.45708e-05	0.0011141477048909865
1.45710e-05	0.0015051125519658611
1.45713e-05	0.001652526482265028
1.45715e-05	0.0015576010066864284
1.45718e-05	0.001390389696057481
1.45720e-05	0.0011599864519761425
1.45723e-05	0.0011473325415875912
1.45725e-05	0.0013462034986699424
1.45728e-05	0.0015667503288106061
1.45730e-05	0.0018067463917651836
1.45733e-05	0.0018932710038977944
1.45735e-05	0.0018271500504880777
1.45738e-05	0.001714967734257252
1.45740e-05	0.0015624780539145934
1.45743e-05	0.0015457116621174557
1.45745e-05	0.0016608113541817665
1.45748e-05	0.0017889037985655196
1.45750e-05	0.001928647102029059
1.45753e-05	0.00197178250232808
1.45755e-05	0.0019188904368534247
1.45758e-05	0.0018367954055787943
1.45760e-05	0.0017291588297104717
1.45763e-05	0.0017062982489085498
1.45765e-05	0.0017658445092965794
1.45768e-05	0.001833386237045152
1.45770e-05	0.0019081370334646155
1.45773e-05	0.0019223409110160094
1.45775e-05	0.0018764222556588595
1.45778e-05	0.0018122982028256753
1.45780e-05	0.0017323187601258616
1.45783e-05	0.0017056401351868162
1.45785e-05	0.001730828394797524
1.45788e-05	0.0017613247714894469
1.45790e-05	0.0017966915584322948
1.45793e-05	0.001794542828356768
1.45795e-05	0.0017552031006660368
1.45798e-05	0.001704986398772608
1.45800e-05	0.0016454210380142727
1.45803e-05	0.0016198802270651017
1.45805e-05	0.0016275179009116025
1.45808e-05	0.0016392233317768143
1.45810e-05	0.0016547769025917851
1.45813e-05	0.0016476843544075517
1.45815e-05	0.0016182061886011693
1.45818e-05	0.0015828817221551275
1.45820e-05	0.0015427141222414931
1.45823e-05	0.0015247445367463962
1.45825e-05	0.0015280724318251487
1.45828e-05	0.0015341608337468764
1.45830e-05	0.0015427911776999621
1.45833e-05	0.0015373612592086635
1.45835e-05	0.001517975770109297
1.45838e-05	0.001493469762788035
1.45840e-05	0.0014693391738201677
1.45843e-05	0.0014575350783297913
1.45845e-05	0.001459193500622448
1.45848e-05	0.00146357164804573
1.45850e-05	0.0014677133158945452
1.45853e-05	0.0014640856025667256
1.45855e-05	0.001451780732949605
1.45858e-05	0.0014363490089265834
1.45860e-05	0.001421154563467571
1.45863e-05	0.001413767393274518
1.45865e-05	0.0014153569862864093
1.45868e-05	0.0014170032221461335
1.45870e-05	0.0014202788319044352
1.45873e-05	0.0014180755149523759
1.45875e-05	0.0014098499575580779
1.45878e-05	0.0014016472665705274
1.45880e-05	0.0013941696776189143
1.45883e-05	0.001386964041720298
1.45885e-05	0.0013883821355605856
1.45888e-05	0.0013898002294008731
1.45890e-05	0.0013910816183113392
1.45893e-05	0.0013880280444198082
1.45895e-05	0.0013849094599397763
1.45898e-05	0.0013797293661695737
1.45900e-05	0.0013745492723993362
1.45903e-05	0.0013695174389537822
1.45905e-05	0.001369186994062778
1.45908e-05	0.0013688565491717718
1.45910e-05	0.0013685261042807653
1.45913e-05	0.0013680920879130722
1.45915e-05	0.0013643737825339074
1.45918e-05	0.0013606554771547425
1.45920e-05	0.0013569371717756028
1.45923e-05	0.001353301542940114
1.45925e-05	0.0013522876172271429
1.45928e-05	0.0013512736915141787
1.45930e-05	0.0013502597658012075
1.45933e-05	0.0013492458400882364
1.45935e-05	0.0013478513220979474
1.45938e-05	0.0013461200710419468
1.45940e-05	0.0013443888199859459
1.45943e-05	0.0013426575689299567
1.45945e-05	0.0013409839047221976
1.45948e-05	0.00134113634031419
1.45950e-05	0.0013412887759061823
1.45953e-05	0.0013414412114981739
1.45955e-05	0.0013415936470901663
1.45958e-05	0.0013417460826821586
1.45960e-05	0.0013418985182741502
1.45963e-05	0.0013420509538661426
1.45965e-05	0.001342203389458135
1.45968e-05	0.001342915074694351
1.45970e-05	0.0013441215620020076
1.45973e-05	0.0013453280493096642
1.45975e-05	0.0013465345366173126
1.45978e-05	0.0013477410239249692
1.45980e-05	0.0013489475112326258
1.45983e-05	0.001350153998540274
1.45985e-05	0.0013513604858479307
1.45988e-05	0.001352577563375669
1.45990e-05	0.0013541304606150299
1.45993e-05	0.0013556833578544016
1.45995e-05	0.001357236255093773
1.45998e-05	0.001358789152333134
1.46000e-05	0.0013603420495725055
1.46003e-05	0.001361894946811877
1.46005e-05	0.001363420514182838
1.46008e-05	0.0013640794415351394
1.46010e-05	0.0013647383688874407
1.46013e-05	0.0013653972962397376
1.46015e-05	0.001366056223592039
1.46018e-05	0.0013667151509443403
1.46020e-05	0.0013673740782966372
1.46023e-05	0.0013679065322604969
1.46025e-05	0.0013644284693004802
1.46028e-05	0.0013609504063404872
1.46030e-05	0.001357287438081941
1.46033e-05	0.0013477610558814996
1.46035e-05	0.0013382346736810582
1.46038e-05	0.0013285430210407214
1.46040e-05	0.0013136105829304097
1.46043e-05	0.001298678144820098
1.46045e-05	0.001283540514074301
1.46048e-05	0.0012618961505840571
1.46050e-05	0.0012402517870938135
1.46053e-05	0.0012184158808190965
1.46055e-05	0.0011905060835132346
1.46058e-05	0.0011625962862073724
1.46060e-05	0.0011345302997767086
1.46063e-05	0.0011015114996571495
1.46065e-05	0.0010684926995375907
1.46068e-05	0.001035323838846213
1.46070e-05	0.0009973965030971432
1.46073e-05	0.0009594691673480733
1.46075e-05	0.0009214449634499164
1.46078e-05	0.000880349035471361
1.46080e-05	0.0008392531074928057
1.46083e-05	0.0007980985105726256
1.46085e-05	0.0007550835002669453
1.46088e-05	0.000712068489961265
1.46090e-05	0.0006690534796558761
1.46093e-05	0.0006260544853996716
1.46095e-05	0.0005835633658700854
1.46098e-05	0.0005410722463407869
1.46100e-05	0.0004985811268112006
1.46103e-05	0.00045615282294700224
1.46105e-05	0.0004157510705128227
1.46108e-05	0.0003764899686211595
1.46110e-05	0.000338612704430866
1.46113e-05	0.00030236306340712926
1.46115e-05	0.0002680087515988543
1.46118e-05	0.00023583168379429586
1.46120e-05	0.000206074896174999
1.46123e-05	0.00017857718307631425
1.46125e-05	0.00015256261352727723
1.46128e-05	0.00012743143010535168
1.46130e-05	0.00010316514718748944
1.46133e-05	7.991679105383192e-05
1.46135e-05	5.785439813838678e-05
1.46138e-05	3.7154878267138707e-05
1.46140e-05	1.797076897016241e-05
1.46143e-05	2.013983682187705e-07
1.46145e-05	-1.663895905766982e-05
1.46148e-05	-3.292561622570579e-05
1.46150e-05	-4.866976448833903e-05
1.46153e-05	-6.377517399686086e-05
1.46155e-05	-7.813620570437069e-05
1.46158e-05	-9.164168676732874e-05
1.46160e-05	-0.00010419570738601122
1.46163e-05	-0.00011586097754413119
1.46165e-05	-0.00012693616211269373
1.46168e-05	-0.0001375060112223649
1.46170e-05	-0.00014805117706926733
1.46173e-05	-0.0001578136277144794
1.46175e-05	-0.0001675432323679294
1.46178e-05	-0.0001762312787320431
1.46180e-05	-0.00018488275767832916
1.46183e-05	-0.00019237467056508917
1.46185e-05	-0.00019986658345189998
1.46188e-05	-0.0002073349381564757
1.46190e-05	-0.00021405625437232278
1.46193e-05	-0.00022077757058821542
1.46195e-05	-0.00022746795131405232
1.46198e-05	-0.00023317735644875608
1.46200e-05	-0.00023888676158349855
1.46203e-05	-0.0002445705377322794
1.46205e-05	-0.00024944160945603483
1.46208e-05	-0.00025431268117975727
1.46210e-05	-0.0002591837529035127
1.46213e-05	-0.0002640269151547026
1.46215e-05	-0.0002679850579246711
1.46218e-05	-0.0002719432006946665
1.46220e-05	-0.0002759013434646618
1.46223e-05	-0.0002798006859816438
1.46225e-05	-0.0002817801714236079
1.46228e-05	-0.0002819496403770006
1.46230e-05	-0.0002802547335113093
1.46233e-05	-0.00027677969103229833
1.46235e-05	-0.00027160731396972445
1.46238e-05	-0.0002648193608128048
1.46240e-05	-0.0002564875737398341
1.46243e-05	-0.00024649919695886075
1.46245e-05	-0.00023451257567177458
1.46248e-05	-0.00022031860446048996
1.46250e-05	-0.00020398288667408635
1.46253e-05	-0.00018565785470162896
1.46255e-05	-0.0001654950335034324
1.46258e-05	-0.00014364526790463928
1.46260e-05	-0.00012025312383700512
1.46263e-05	-9.53475889264003e-05
1.46265e-05	-6.881428986124768e-05
1.46268e-05	-4.0621898593230976e-05
1.46270e-05	-1.0911147090539585e-05
1.46273e-05	2.012284346654453e-05
1.46275e-05	5.228554571356916e-05
1.46278e-05	8.538285462323715e-05
1.46280e-05	0.00011922462566554888
1.46283e-05	0.00015370111598919423
1.46285e-05	0.00018901461247175277
1.46288e-05	0.00022434769532173586
1.46290e-05	0.0002603018689760537
1.46293e-05	0.0002962560426301279
1.46295e-05	0.00033218088707796567
1.46298e-05	0.0003671756917663846
1.46300e-05	0.00040217049645456635
1.46303e-05	0.000437104312491945
1.46305e-05	0.0004701041563165998
1.46308e-05	0.000503030205709126
1.46310e-05	0.0005336162069395297
1.46313e-05	0.0005640996189707929
1.46315e-05	0.0005913298903416899
1.46318e-05	0.0006184648692996761
1.46320e-05	0.000642499767209225
1.46323e-05	0.0006639549561468622
1.46325e-05	0.000682257490690825
1.46328e-05	0.000697033648530705
1.46330e-05	0.0007082086547513982
1.46333e-05	0.0007157933502138814
1.46335e-05	0.0007197990218657597
1.46338e-05	0.0007202366912780251
1.46340e-05	0.0007171112775212201
1.46343e-05	0.0007103274368043903
1.46345e-05	0.0006996865358080989
1.46348e-05	0.0006851148538329802
1.46350e-05	0.0006667258436597991
1.46353e-05	0.0006446866865882108
1.46355e-05	0.0006191648424993676
1.46358e-05	0.000590327594357016
1.46360e-05	0.0005583382807623121
1.46363e-05	0.0005232974686674507
1.46365e-05	0.00048524112280927243
1.46368e-05	0.0004442833852920061
1.46370e-05	0.00040065564796247657
1.46373e-05	0.00035462304226770435
1.46375e-05	0.0003064505657019457
1.46378e-05	0.0002564033960955866
1.46380e-05	0.00020474407476485493
1.46383e-05	0.00015169584448469417
1.46385e-05	9.744148469944214e-05
1.46388e-05	4.221268128555036e-05
1.46390e-05	-1.3682881068529143e-05
1.46393e-05	-6.984125881830442e-05
1.46395e-05	-0.00012599963656846025
1.46398e-05	-0.0001821189345571844
1.46400e-05	-0.0002369991181543735
1.46403e-05	-0.0002918055213336195
1.46405e-05	-0.00034427232072225915
1.46408e-05	-0.00039665947783997944
1.46410e-05	-0.00044645334236058875
1.46413e-05	-0.000494018062594646
1.46415e-05	-0.000538989209274321
1.46418e-05	-0.0005810029235504091
1.46420e-05	-0.0006196716394986827
1.46423e-05	-0.000653754465958232
1.46425e-05	-0.0006876833819273733
1.46428e-05	-0.0007167317404832565
1.46430e-05	-0.0007456223279515235
1.46433e-05	-0.0007695099370831577
1.46435e-05	-0.0007932206278484042
1.46438e-05	-0.000811321173124238
1.46440e-05	-0.0008292440321852516
1.46443e-05	-0.000841532396999846
1.46445e-05	-0.0008536775309144047
1.46448e-05	-0.0008612807611020999
