Time(s)	Current(A)
4.50000e-06	0.013282733662535833
4.50025e-06	0.01329204301398011
4.50050e-06	0.013301352365424356
4.50075e-06	0.0133106617168686
4.50100e-06	0.013319971068312878
4.50125e-06	0.013329280419757124
4.50150e-06	0.01333858977120137
4.50175e-06	0.013347899122645647
4.50200e-06	0.013357208474089893
4.50225e-06	0.013366517825534139
4.50250e-06	0.013375827176978416
4.50275e-06	0.013382892049761603
4.50300e-06	0.013388568077368117
4.50325e-06	0.013394244104974652
4.50350e-06	0.013399920132581167
4.50375e-06	0.013405596160187683
4.50400e-06	0.013411272187794218
4.50425e-06	0.013416948215400733
4.50450e-06	0.013422624243007268
4.50475e-06	0.013428300270613782
4.50500e-06	0.013433976298220298
4.50525e-06	0.013439652325826832
4.50550e-06	0.013445328353433348
4.50575e-06	0.013451004381039864
4.50600e-06	0.013456680408646398
4.50625e-06	0.013462356436252912
4.50650e-06	0.013468032463859428
4.50675e-06	0.013473708491465963
4.50700e-06	0.013479106130575355
4.50725e-06	0.013484331507623118
4.50750e-06	0.013489556884670899
4.50775e-06	0.013494782261718663
4.50800e-06	0.013500007638766425
4.50825e-06	0.013505233015814206
4.50850e-06	0.01351045839286197
4.50875e-06	0.013515683769909751
4.50900e-06	0.013520909146957513
4.50925e-06	0.013526134524005277
4.50950e-06	0.013531359901053058
4.50975e-06	0.01353658527810082
4.51000e-06	0.013541810655148584
4.51025e-06	0.013547036032196366
4.51050e-06	0.013552261409244128
4.51075e-06	0.013557486786291892
4.51100e-06	0.013562712163339673
4.51125e-06	0.013564932741655752
4.51150e-06	0.013565294001682446
4.51175e-06	0.013565655261709142
4.51200e-06	0.013566016521735834
4.51225e-06	0.013566377781762527
4.51250e-06	0.013566739041789223
4.51275e-06	0.013567100301815916
4.51300e-06	0.01356746156184261
4.51325e-06	0.013567822821869304
4.51350e-06	0.013568184081895997
4.51375e-06	0.013560877901362999
4.51400e-06	0.013548827239173278
4.51425e-06	0.013536776576983555
4.51450e-06	0.013524725914793792
4.51475e-06	0.01351267525260407
4.51500e-06	0.013500624590414349
4.51525e-06	0.013488573928224584
4.51550e-06	0.013476523266034863
4.51575e-06	0.01346447260384514
4.51600e-06	0.013452421941655378
4.51625e-06	0.013432506772325572
4.51650e-06	0.013407725179894968
4.51675e-06	0.01338294358746428
4.51700e-06	0.013358161995033676
4.51725e-06	0.013333380402602988
4.51750e-06	0.013308598810172384
4.51775e-06	0.01328381721774178
4.51800e-06	0.013259035625311092
4.51825e-06	0.013234254032880487
4.51850e-06	0.013209472440449883
4.51875e-06	0.013184690848019194
4.51900e-06	0.01315990925558859
4.51925e-06	0.013135127663157985
4.51950e-06	0.013110346070727297
4.51975e-06	0.013085564478296693
4.52000e-06	0.013061493576657524
4.52025e-06	0.013042747675534289
4.52050e-06	0.013024001774411117
4.52075e-06	0.013005255873287946
4.52100e-06	0.01298650997216471
4.52125e-06	0.012967764071041537
4.52150e-06	0.012949018169918301
4.52175e-06	0.01293027226879513
4.52200e-06	0.012911526367671958
4.52225e-06	0.012892780466548723
4.52250e-06	0.012874034565425551
4.52275e-06	0.012855288664302378
4.52300e-06	0.012836542763179143
4.52325e-06	0.012817796862055971
4.52350e-06	0.0127990509609328
4.52375e-06	0.012780305059809564
4.52400e-06	0.012775078676188859
4.52425e-06	0.012778217939785886
4.52450e-06	0.012781357203382925
4.52475e-06	0.012784496466979952
4.52500e-06	0.01278763573057698
4.52525e-06	0.012790774994174019
4.52550e-06	0.012793914257771046
4.52575e-06	0.012797053521368085
4.52600e-06	0.012800192784965112
4.52625e-06	0.01280333204856214
4.52650e-06	0.012806471312159179
4.52675e-06	0.012809610575756206
4.52700e-06	0.012812749839353233
4.52725e-06	0.012815889102950272
4.52750e-06	0.012820335031324572
4.52775e-06	0.012834571420887574
4.52800e-06	0.012848807810450627
4.52825e-06	0.01286304420001363
4.52850e-06	0.012877280589576632
4.52875e-06	0.012891516979139685
4.52900e-06	0.012905753368702687
4.52925e-06	0.01291998975826569
4.52950e-06	0.01293422614782874
4.52975e-06	0.012948462537391745
4.53000e-06	0.012962698926954796
4.53025e-06	0.012976935316517798
4.53050e-06	0.012991171706080802
4.53075e-06	0.013005408095643853
4.53100e-06	0.013019644485206856
4.53125e-06	0.013030017463870936
4.53150e-06	0.013037999829657991
4.53175e-06	0.01304598219544502
4.53200e-06	0.01305396456123205
4.53225e-06	0.013061946927019107
4.53250e-06	0.013069929292806136
4.53275e-06	0.013077911658593165
4.53300e-06	0.013085894024380222
4.53325e-06	0.013083095993592668
4.53350e-06	0.013073627236976552
4.53375e-06	0.013064158480360404
4.53400e-06	0.013054689723744288
4.53425e-06	0.013045220967128141
4.53450e-06	0.013035752210512026
4.53475e-06	0.01302628345389591
4.53500e-06	0.013016814697279763
4.53525e-06	0.012993650488620202
4.53550e-06	0.012962011767446742
4.53575e-06	0.012930373046273175
4.53600e-06	0.012898734325099715
4.53625e-06	0.012867095603926255
4.53650e-06	0.012835456882752687
4.53675e-06	0.012803818161579229
4.53700e-06	0.012772179440405769
4.53725e-06	0.012740540719232201
4.53750e-06	0.012708901998058741
4.53775e-06	0.012677263276885281
4.53800e-06	0.01263853647556036
4.53825e-06	0.012595423690936261
4.53850e-06	0.012552310906312016
4.53875e-06	0.012509198121687916
4.53900e-06	0.012466085337063816
4.53925e-06	0.012422972552439569
4.53950e-06	0.01237985976781547
4.53975e-06	0.01233674698319137
4.54000e-06	0.012293634198567124
4.54025e-06	0.012250521413943024
4.54050e-06	0.012207408629318925
4.54075e-06	0.012171058302663759
4.54100e-06	0.012138892469846204
4.54125e-06	0.01210672663702865
4.54150e-06	0.012074560804210986
4.54175e-06	0.012042394971393432
4.54200e-06	0.012010229138575877
4.54225e-06	0.011978063305758214
4.54250e-06	0.01194589747294066
4.54275e-06	0.011913731640122997
4.54300e-06	0.011881565807305441
4.54325e-06	0.011859651131720267
4.54350e-06	0.011844079697669416
4.54375e-06	0.011828508263618618
4.54400e-06	0.011812936829567819
4.54425e-06	0.011797365395516969
4.54450e-06	0.01178179396146617
4.54475e-06	0.011766222527415372
4.54500e-06	0.01175065109336452
4.54525e-06	0.01173507965931372
4.54550e-06	0.011719508225262923
4.54575e-06	0.01171155430527057
4.54600e-06	0.01170831397326316
4.54625e-06	0.011705073641255753
4.54650e-06	0.011701833309248334
4.54675e-06	0.011698592977240924
4.54700e-06	0.011695352645233505
4.54725e-06	0.011692112313226097
4.54750e-06	0.011688871981218688
4.54775e-06	0.011685631649211268
4.54800e-06	0.011682391317203859
4.54825e-06	0.011679150985196451
4.54850e-06	0.011675910653189032
4.54875e-06	0.011673270660340558
4.54900e-06	0.01167512883514143
4.54925e-06	0.011676987009942309
4.54950e-06	0.011678845184743181
4.54975e-06	0.011680703359544055
4.55000e-06	0.011682561534344934
4.55025e-06	0.011684419709145806
4.55050e-06	0.011686277883946678
4.55075e-06	0.011688136058747557
4.55100e-06	0.01168999423354843
4.55125e-06	0.011691852408349308
4.55150e-06	0.01169371058315018
4.55175e-06	0.011695568757951054
4.55200e-06	0.011699520281588388
4.55225e-06	0.011704767133839047
4.55250e-06	0.011710013986089706
4.55275e-06	0.011715260838340383
4.55300e-06	0.011720507690591042
4.55325e-06	0.011725754542841702
4.55350e-06	0.011731001395092379
4.55375e-06	0.011736248247343036
4.55400e-06	0.01174303189449929
4.55425e-06	0.011761330301310676
4.55450e-06	0.011779628708122
4.55475e-06	0.011797927114933326
4.55500e-06	0.011816225521744713
4.55525e-06	0.011834523928556039
4.55550e-06	0.011852822335367426
4.55575e-06	0.011871120742178751
4.55600e-06	0.011889419148990076
4.55625e-06	0.011916344408350243
4.55650e-06	0.0119486078171644
4.55675e-06	0.01198087122597856
4.55700e-06	0.012013134634792826
4.55725e-06	0.012045398043606983
4.55750e-06	0.01207766145242114
4.55775e-06	0.012109924861235409
4.55800e-06	0.012142188270049566
4.55825e-06	0.012174451678863723
4.55850e-06	0.012206715087677992
4.55875e-06	0.012238978496492149
4.55900e-06	0.012271241905306306
4.55925e-06	0.012303505314120573
4.55950e-06	0.012335768722934732
4.55975e-06	0.012364376819034146
4.56000e-06	0.012390723069870485
4.56025e-06	0.012417069320706823
4.56050e-06	0.012443415571543251
4.56075e-06	0.012469761822379589
4.56100e-06	0.012496108073215927
4.56125e-06	0.012522454324052355
4.56150e-06	0.012548800574888693
4.56175e-06	0.012575146825725032
4.56200e-06	0.012601493076561459
4.56225e-06	0.012627839327397798
4.56250e-06	0.012654185578234136
4.56275e-06	0.012680531829070564
4.56300e-06	0.012706878079906902
4.56325e-06	0.01271691998978986
4.56350e-06	0.012716873051132099
4.56375e-06	0.012716826112474338
4.56400e-06	0.012716779173816577
4.56425e-06	0.012716732235158816
4.56450e-06	0.012716685296501055
4.56475e-06	0.012716638357843296
4.56500e-06	0.012716591419185535
4.56525e-06	0.012716544480527774
4.56550e-06	0.012716497541870013
4.56575e-06	0.012716450603212252
4.56600e-06	0.01271640366455449
4.56625e-06	0.012716356725896731
4.56650e-06	0.01271630978723897
4.56675e-06	0.01271626284858121
4.56700e-06	0.012705656283839854
4.56725e-06	0.012688515602294913
4.56750e-06	0.012671374920749974
4.56775e-06	0.012654234239204976
4.56800e-06	0.012637093557660036
4.56825e-06	0.012619952876115038
4.56850e-06	0.0126028121945701
4.56875e-06	0.012585671513025158
4.56900e-06	0.012568530831480162
4.56925e-06	0.012551390149935221
4.56950e-06	0.012534249468390282
4.56975e-06	0.012517108786845284
4.57000e-06	0.012499968105300345
4.57025e-06	0.012482827423755404
4.57050e-06	0.012465686742210408
4.57075e-06	0.012450144492261466
4.57100e-06	0.012435591324564807
4.57125e-06	0.012421038156868099
4.57150e-06	0.01240648498917144
4.57175e-06	0.01239193182147478
4.57200e-06	0.012377378653778073
4.57225e-06	0.012362825486081416
4.57250e-06	0.012348272318384708
4.57275e-06	0.012333719150688049
4.57300e-06	0.01231916598299139
4.57325e-06	0.012304612815294682
4.57350e-06	0.012290059647598023
4.57375e-06	0.012275506479901365
4.57400e-06	0.012260953312204658
4.57425e-06	0.012246521876228602
4.57450e-06	0.012233002540818914
4.57475e-06	0.012219483205409179
4.57500e-06	0.01220596386999949
4.57525e-06	0.0121924445345898
4.57550e-06	0.012178925199180065
4.57575e-06	0.012165405863770377
4.57600e-06	0.012151886528360687
4.57625e-06	0.012138367192950953
4.57650e-06	0.012124847857541263
4.57675e-06	0.012111328522131528
4.57700e-06	0.01209780918672184
4.57725e-06	0.01208428985131215
4.57750e-06	0.012070770515902416
4.57775e-06	0.012057251180492726
4.57800e-06	0.012043576457458006
4.57825e-06	0.01202980558320694
4.57850e-06	0.01201603470895592
4.57875e-06	0.012002263834704902
4.57900e-06	0.011988492960453836
4.57925e-06	0.011974722086202818
4.57950e-06	0.011960951211951799
4.57975e-06	0.011947180337700734
4.58000e-06	0.011933409463449715
4.58025e-06	0.011919638589198695
4.58050e-06	0.01190586771494763
4.58075e-06	0.011894066117964853
4.58100e-06	0.011883483076221018
4.58125e-06	0.011872900034477218
4.58150e-06	0.011862316992733421
4.58175e-06	0.011851733950989585
4.58200e-06	0.011841150909245788
4.58225e-06	0.011830567867501989
4.58250e-06	0.011819984825758153
4.58275e-06	0.011809401784014356
4.58300e-06	0.011798818742270557
4.58325e-06	0.011788235700526723
4.58350e-06	0.011777089818851188
4.58375e-06	0.011765595661410453
4.58400e-06	0.011754101503969681
4.58425e-06	0.011742607346528948
4.58450e-06	0.011731113189088213
4.58475e-06	0.011719619031647442
4.58500e-06	0.011708124874206709
4.58525e-06	0.011696630716765936
4.58550e-06	0.011685136559325203
4.58575e-06	0.01167364240188447
4.58600e-06	0.011662148244443697
4.58625e-06	0.011650654087002964
4.58650e-06	0.011639159929562229
4.58675e-06	0.011627665772121458
4.58700e-06	0.011616171614680725
4.58725e-06	0.01160467745723999
4.58750e-06	0.01159304180335806
4.58775e-06	0.011580345957577108
4.58800e-06	0.011567650111796156
4.58825e-06	0.011554954266015162
4.58850e-06	0.01154225842023421
4.58875e-06	0.011529562574453258
4.58900e-06	0.011516866728672264
4.58925e-06	0.011504170882891311
4.58950e-06	0.011491475037110316
4.58975e-06	0.011478779191329364
4.59000e-06	0.011466083345548413
4.59025e-06	0.011453387499767417
4.59050e-06	0.011440691653986465
4.59075e-06	0.011427995808205513
4.59100e-06	0.011415299962424519
4.59125e-06	0.011402604116643567
4.59150e-06	0.011389908270862614
4.59175e-06	0.01138213177175709
4.59200e-06	0.011377399280602673
4.59225e-06	0.011372666789448253
4.59250e-06	0.011367934298293818
4.59275e-06	0.011363201807139399
4.59300e-06	0.01135846931598498
4.59325e-06	0.011353736824830546
4.59350e-06	0.011349004333676126
4.59375e-06	0.011344271842521693
4.59400e-06	0.01134136381699493
4.59425e-06	0.011352125984599278
4.59450e-06	0.011362888152203663
4.59475e-06	0.01137365031980801
4.59500e-06	0.011384412487412359
4.59525e-06	0.011395174655016743
4.59550e-06	0.011405936822621091
4.59575e-06	0.01141669899022544
4.59600e-06	0.011427461157829824
4.59625e-06	0.011438223325434172
4.59650e-06	0.011456707392259671
4.59675e-06	0.011479969638826405
4.59700e-06	0.01150323188539306
4.59725e-06	0.011526494131959716
4.59750e-06	0.011549756378526451
4.59775e-06	0.011573018625093107
4.59800e-06	0.01159628087165984
4.59825e-06	0.011619543118226496
4.59850e-06	0.011643224787408113
4.59875e-06	0.01167004906890437
4.59900e-06	0.011696873350400535
4.59925e-06	0.0117236976318967
4.59950e-06	0.011750521913392957
4.59975e-06	0.011777346194889122
4.60000e-06	0.011804170476385288
4.60025e-06	0.011830994757881545
4.60050e-06	0.01185781903937771
4.60075e-06	0.011883323902888801
4.60100e-06	0.011902916215464663
4.60125e-06	0.011919355137280136
4.60150e-06	0.011935794059095612
4.60175e-06	0.01195223298091114
4.60200e-06	0.011968671902726614
4.60225e-06	0.011985110824542143
4.60250e-06	0.012001549746357617
4.60275e-06	0.01201798866817309
4.60300e-06	0.012034427589988619
4.60325e-06	0.012048301612379228
4.60350e-06	0.01204295758541213
4.60375e-06	0.012037613558445015
4.60400e-06	0.012032269531477917
4.60425e-06	0.01202692550451082
4.60450e-06	0.012021581477543702
4.60475e-06	0.012016237450576605
4.60500e-06	0.012010893423609507
4.60525e-06	0.012005549396642392
4.60550e-06	0.012000205369675294
4.60575e-06	0.011980672673161065
4.60600e-06	0.0119523602695527
4.60625e-06	0.01192404786594443
4.60650e-06	0.011895735462336066
4.60675e-06	0.011867423058727797
4.60700e-06	0.011839110655119528
4.60725e-06	0.011810798251511163
4.60750e-06	0.011782485847902894
4.60775e-06	0.011754173444294625
4.60800e-06	0.01172586104068626
4.60825e-06	0.011697548637077991
4.60850e-06	0.011669236233469722
4.60875e-06	0.011640923829861358
4.60900e-06	0.011609952577122643
4.60925e-06	0.011577128946400363
4.60950e-06	0.011544305315677973
4.60975e-06	0.011511481684955693
4.61000e-06	0.011478658054233414
4.61025e-06	0.011445834423511022
4.61050e-06	0.011413010792788742
4.61075e-06	0.011380187162066352
4.61100e-06	0.011347363531344072
4.61125e-06	0.011314539900621793
4.61150e-06	0.011281716269899402
4.61175e-06	0.011248892639177123
4.61200e-06	0.011216069008454843
4.61225e-06	0.01120137610937094
4.61250e-06	0.009356045683338914
4.61275e-06	-0.020608849150585706
4.61300e-06	-0.011873583117016187
4.61325e-06	-0.005361042961110082
4.61350e-06	0.0010371245251634656
4.61375e-06	0.024950150975386845
4.61400e-06	0.020761884609255696
4.61425e-06	0.018042293123024158
4.61450e-06	0.012344368916241126
4.61475e-06	0.004727142473541397
4.61500e-06	0.0016955574667317879
4.61525e-06	0.003767694489876993
4.61550e-06	0.008841193304856788
4.61575e-06	0.014702107482316942
4.61600e-06	0.01742701950196641
4.61625e-06	0.016598845102228744
4.61650e-06	0.012855562778038523
4.61675e-06	0.007980148743773924
4.61700e-06	0.006007008679418692
4.61725e-06	0.0072520640938009175
4.61750e-06	0.010392183119464302
4.61775e-06	0.01403613786653693
4.61800e-06	0.01572326688233001
4.61825e-06	0.015190256754657475
4.61850e-06	0.012835294631113407
4.61875e-06	0.009774164041858878
4.61900e-06	0.008533091327198946
4.61925e-06	0.009309150136685778
4.61950e-06	0.011272906294540369
4.61975e-06	0.013552463214648562
4.62000e-06	0.014606226909398506
4.62025e-06	0.014269156300091958
4.62050e-06	0.012790613491998538
4.62075e-06	0.01086944767286824
4.62100e-06	0.01008792563036926
4.62125e-06	0.010569275587086596
4.62150e-06	0.011793750896871201
4.62175e-06	0.013215063210667911
4.62200e-06	0.013867513939091483
4.62225e-06	0.013648007646436927
4.62250e-06	0.012713512580152322
4.62275e-06	0.011502532752991606
4.62300e-06	0.011006442736167507
4.62325e-06	0.011302360329478803
4.62350e-06	0.012064609537769529
4.62375e-06	0.01295091963480052
4.62400e-06	0.013356345491298383
4.62425e-06	0.013216307172255769
4.62450e-06	0.012629125161793427
4.62475e-06	0.011869458107655297
4.62500e-06	0.011558241127964178
4.62525e-06	0.01174368999918684
4.62550e-06	0.012221717726487166
4.62575e-06	0.01277786078352177
4.62600e-06	0.013033146345964485
4.62625e-06	0.012947103297164163
4.62650e-06	0.012581299534066934
4.62675e-06	0.012107751878333847
4.62700e-06	0.011915358501363967
4.62725e-06	0.012034247015807265
4.62750e-06	0.012336507922585522
4.62775e-06	0.012687744190355616
4.62800e-06	0.01285052697122027
4.62825e-06	0.012799475424663571
4.62850e-06	0.012573128618102948
4.62875e-06	0.012279200367063479
4.62900e-06	0.012161244924308768
4.62925e-06	0.012238070267564736
4.62950e-06	0.012429493306925736
4.62975e-06	0.01265127437347825
4.63000e-06	0.012754645983507831
4.63025e-06	0.012723674984198229
4.63050e-06	0.012582466330988203
4.63075e-06	0.01239845343308832
4.63100e-06	0.012324147876677044
4.63125e-06	0.01237127451176804
4.63150e-06	0.012489550743324456
4.63175e-06	0.012626159659505072
4.63200e-06	0.012687875634583613
4.63225e-06	0.012664811824542266
4.63250e-06	0.012572386296301622
4.63275e-06	0.012453166602816
4.63300e-06	0.012402817878684715
4.63325e-06	0.012428693221676676
4.63350e-06	0.012499285076790911
4.63375e-06	0.012581497916708288
4.63400e-06	0.0126169293553034
4.63425e-06	0.012599386173499604
4.63450e-06	0.012538523224429094
4.63475e-06	0.012461000486434157
4.63500e-06	0.012426735907508112
4.63525e-06	0.012440324106072697
4.63550e-06	0.01248201789582963
4.63575e-06	0.012531079048235727
4.63600e-06	0.012550919566753011
4.63625e-06	0.012537655751040022
4.63650e-06	0.01249733164676476
4.63675e-06	0.012446643565716963
4.63700e-06	0.012423115596136194
4.63725e-06	0.012429617490704098
4.63750e-06	0.012453770695246806
4.63775e-06	0.012482578300612975
4.63800e-06	0.01249311594904614
4.63825e-06	0.01248294586717893
4.63850e-06	0.012455849856791705
4.63875e-06	0.012422281108445801
4.63900e-06	0.012405738345491574
4.63925e-06	0.012408011835431765
4.63950e-06	0.01242133983229754
4.63975e-06	0.012437573870314167
4.64000e-06	0.012442349474572435
4.64025e-06	0.012434134687142372
4.64050e-06	0.012415292276249233
4.64075e-06	0.012392366030580845
4.64100e-06	0.012380069373072887
4.64125e-06	0.012379515213637806
4.64150e-06	0.012385828982392507
4.64175e-06	0.012393918915936905
4.64200e-06	0.012394761360694985
4.64225e-06	0.012387246645082978
4.64250e-06	0.012373751073050459
4.64275e-06	0.012358536987471488
4.64300e-06	0.01234332290189257
4.64325e-06	0.012335269848275095
4.64350e-06	0.012330224056097247
4.64375e-06	0.012325008339238542
4.64400e-06	0.012319792622379836
4.64425e-06	0.01230737491477074
4.64450e-06	0.012288398511264778
4.64475e-06	0.012267930524601595
4.64500e-06	0.012247462537938344
4.64525e-06	0.012230734257600266
4.64550e-06	0.012214983937081198
4.64575e-06	0.012198866158164044
4.64600e-06	0.012182748379246891
4.64625e-06	0.012161702455744265
4.64650e-06	0.012136127436227554
4.64675e-06	0.012109512410131052
4.64700e-06	0.01208289738403446
4.64725e-06	0.012058536991475268
4.64750e-06	0.012033696352782387
4.64775e-06	0.012008130927227379
4.64800e-06	0.011982565501672458
4.64825e-06	0.011957000076117536
4.64850e-06	0.011931036515697867
4.64875e-06	0.011903260337311402
4.64900e-06	0.011875484158924936
4.64925e-06	0.011847707980538375
4.64950e-06	0.01181993180215191
4.64975e-06	0.011793123334971721
4.65000e-06	0.011766770072606857
4.65025e-06	0.011740416810241993
4.65050e-06	0.011714063547877039
4.65075e-06	0.011687710285512175
4.65100e-06	0.011664454647675222
4.65125e-06	0.011642656111493697
4.65150e-06	0.011620857575312248
4.65175e-06	0.011599059039130798
