Time(s)	Current(A)
9.00000e-06	-0.004806482542469311
9.00025e-06	-0.004776862410060275
9.00050e-06	-0.004747242277651238
9.00075e-06	-0.0047176221452424035
9.00100e-06	-0.004688002012833367
9.00125e-06	-0.004671946922759684
9.00150e-06	-0.0046576500735015375
9.00175e-06	-0.0046433532242432934
9.00200e-06	-0.004629056374985049
9.00225e-06	-0.0046147595257269025
9.00250e-06	-0.0046004626764686585
9.00275e-06	-0.0045861658272104144
9.00300e-06	-0.0045718689779522675
9.00325e-06	-0.0045575721286940235
9.00350e-06	-0.0045432752794357795
9.00375e-06	-0.004528978430177632
9.00400e-06	-0.004514681580919388
9.00425e-06	-0.004516333184067653
9.00450e-06	-0.004520051955108071
9.00475e-06	-0.0045237707261485145
9.00500e-06	-0.0045274894971889575
9.00525e-06	-0.0045312082682293755
9.00550e-06	-0.004534927039269819
9.00575e-06	-0.0045386458103102625
9.00600e-06	-0.00454236458135068
9.00625e-06	-0.004546083352391124
9.00650e-06	-0.004549802123431567
9.00675e-06	-0.004553520894471985
9.00700e-06	-0.004557239665512429
9.00725e-06	-0.004560958436552872
9.00750e-06	-0.004568054364874383
9.00775e-06	-0.004580539123414831
9.00800e-06	-0.00459302388195528
9.00825e-06	-0.004605508640495729
9.00850e-06	-0.004617993399036092
9.00875e-06	-0.004630478157576542
9.00900e-06	-0.00464296291611699
9.00925e-06	-0.0046554476746573535
9.00950e-06	-0.004667932433197803
9.00975e-06	-0.004680417191738251
9.01000e-06	-0.0046929019502786155
9.01025e-06	-0.004705386708819064
9.01050e-06	-0.004717871467359512
9.01075e-06	-0.004730356225899877
9.01100e-06	-0.004737560705271238
9.01125e-06	-0.004744080778200802
9.01150e-06	-0.004750600851130321
9.01175e-06	-0.004757120924059885
9.01200e-06	-0.004763640996989449
9.01225e-06	-0.004770161069918969
9.01250e-06	-0.004776681142848533
9.01275e-06	-0.004783201215778097
9.01300e-06	-0.004789721288707616
9.01325e-06	-0.00479624136163718
9.01350e-06	-0.004802761434566745
9.01375e-06	-0.004809281507496264
9.01400e-06	-0.004815801580425828
9.01425e-06	-0.0048223216533553916
9.01450e-06	-0.004828841726284911
9.01475e-06	-0.004835361799214476
9.01500e-06	-0.004831064264624144
9.01525e-06	-0.004825364599571362
9.01550e-06	-0.004819664934518541
9.01575e-06	-0.00481396526946572
9.01600e-06	-0.004808265604412937
9.01625e-06	-0.004802565939360116
9.01650e-06	-0.004796866274307295
9.01675e-06	-0.004791166609254474
9.01700e-06	-0.004785466944201691
9.01725e-06	-0.0047797672791488706
9.01750e-06	-0.004774067614096049
9.01775e-06	-0.004768367949043267
9.01800e-06	-0.004762668283990445
9.01825e-06	-0.0047569686189376246
9.01850e-06	-0.004751268953884842
9.01875e-06	-0.004745569288832021
9.01900e-06	-0.00473991830984489
9.01925e-06	-0.004734273641330394
9.01950e-06	-0.00472862897281586
9.01975e-06	-0.004722984304301326
9.02000e-06	-0.00471733963578683
9.02025e-06	-0.004711694967272296
9.02050e-06	-0.004706050298757761
9.02075e-06	-0.004700405630243266
9.02100e-06	-0.0046947609617287315
9.02125e-06	-0.004689116293214198
9.02150e-06	-0.0046834716246997015
9.02175e-06	-0.004677826956185168
9.02200e-06	-0.004672182287670633
9.02225e-06	-0.004666537619156138
9.02250e-06	-0.0046608929506416034
9.02275e-06	-0.00465524828212707
9.02300e-06	-0.0046496036136125735
9.02325e-06	-0.00464395894509804
9.02350e-06	-0.004649653483714672
9.02375e-06	-0.004656817760230073
9.02400e-06	-0.004663982036745523
9.02425e-06	-0.004671146313260972
9.02450e-06	-0.004678310589776373
9.02475e-06	-0.004685474866291822
9.02500e-06	-0.004692639142807272
9.02525e-06	-0.004699803419322721
9.02550e-06	-0.004706967695838123
9.02575e-06	-0.004714131972353572
9.02600e-06	-0.004721296248869022
9.02625e-06	-0.004728460525384423
9.02650e-06	-0.004735624801899872
9.02675e-06	-0.004742789078415322
9.02700e-06	-0.004749953354930722
9.02725e-06	-0.004757117631446172
9.02750e-06	-0.004764281907961621
9.02775e-06	-0.004771446184477023
9.02800e-06	-0.004783862916854287
9.02825e-06	-0.0047969604493399475
9.02850e-06	-0.004810057981825519
9.02875e-06	-0.0048231555143111796
9.02900e-06	-0.004836253046796841
9.02925e-06	-0.0048493505792824125
9.02950e-06	-0.004862448111768073
9.02975e-06	-0.004875545644253734
9.03000e-06	-0.004888643176739306
9.03025e-06	-0.004901223737296919
9.03050e-06	-0.004912979381003492
9.03075e-06	-0.004924735024709985
9.03100e-06	-0.004936490668416557
9.03125e-06	-0.00494824631212313
9.03150e-06	-0.004960001955829623
9.03175e-06	-0.004971757599536196
9.03200e-06	-0.004983513243242769
9.03225e-06	-0.004995268886949262
9.03250e-06	-0.005007024530655835
9.03275e-06	-0.005026553262218231
9.03300e-06	-0.005047089507064973
9.03325e-06	-0.005067625751911853
9.03350e-06	-0.005088161996758734
9.03375e-06	-0.005108698241605614
9.03400e-06	-0.005129234486452356
9.03425e-06	-0.005149770731299236
9.03450e-06	-0.005170306976146117
9.03475e-06	-0.005190843220992857
9.03500e-06	-0.005211379465839738
9.03525e-06	-0.005231915710686618
9.03550e-06	-0.00525245195553336
9.03575e-06	-0.005284958325331551
9.03600e-06	-0.00531901620980863
9.03625e-06	-0.005353074094285478
9.03650e-06	-0.005387131978762557
9.03675e-06	-0.005421189863239636
9.03700e-06	-0.005455247747716484
9.03725e-06	-0.005489305632193563
9.03750e-06	-0.005523363516670642
9.03775e-06	-0.00555742140114749
9.03800e-06	-0.005591479285624569
9.03825e-06	-0.005625537170101648
9.03850e-06	-0.005659595054578496
9.03875e-06	-0.005694675627389196
9.03900e-06	-0.005729888756540654
9.03925e-06	-0.005765101885691873
9.03950e-06	-0.005800315014843331
9.03975e-06	-0.005835528143994789
9.04000e-06	-0.005870741273146008
9.04025e-06	-0.005905954402297466
9.04050e-06	-0.005941167531448924
9.04075e-06	-0.005976380660600143
9.04100e-06	-0.006011593789751601
9.04125e-06	-0.00603973269470234
9.04150e-06	-0.006056583468834296
9.04175e-06	-0.006073434242966366
9.04200e-06	-0.0060902850170984355
9.04225e-06	-0.006107135791230506
9.04250e-06	-0.006123986565362461
9.04275e-06	-0.006140837339494532
9.04300e-06	-0.006157688113626602
9.04325e-06	-0.006174538887758558
9.04350e-06	-0.006191389661890628
9.04375e-06	-0.006208240436022698
9.04400e-06	-0.006197904964080316
9.04425e-06	-0.006184045731103985
9.04450e-06	-0.006170186498127652
9.04475e-06	-0.006156327265151414
9.04500e-06	-0.006142468032175082
9.04525e-06	-0.00612860879919875
9.04550e-06	-0.006114749566222512
9.04575e-06	-0.00610089033324618
9.04600e-06	-0.006087031100269848
9.04625e-06	-0.00607317186729361
9.04650e-06	-0.006051015266168581
9.04675e-06	-0.006015618799516006
9.04700e-06	-0.00598022233286367
9.04725e-06	-0.005944825866211095
9.04750e-06	-0.00590942939955852
9.04775e-06	-0.005874032932906185
9.04800e-06	-0.00583863646625361
9.04825e-06	-0.005803239999601035
9.04850e-06	-0.005767843532948699
9.04875e-06	-0.005732447066296124
9.04900e-06	-0.005697050599643549
9.04925e-06	-0.005660439016734299
9.04950e-06	-0.005623669935827192
9.04975e-06	-0.005586900854920086
9.05000e-06	-0.005550131774013228
9.05025e-06	-0.005513362693106122
9.05050e-06	-0.0054765936121990155
9.05075e-06	-0.005439824531291909
9.05100e-06	-0.005403055450385052
9.05125e-06	-0.005376982807176266
9.05150e-06	-0.005352296588936899
9.05175e-06	-0.005327610370697699
9.05200e-06	-0.005302924152458332
9.05225e-06	-0.005278237934218965
9.05250e-06	-0.0052535517159797655
9.05275e-06	-0.0052288654977403985
9.05300e-06	-0.0052041792795010314
9.05325e-06	-0.005187469377857437
9.05350e-06	-0.005171793331110629
9.05375e-06	-0.0051561172843638215
9.05400e-06	-0.0051404412376171195
9.05425e-06	-0.005124765190870312
9.05450e-06	-0.005109089144123503
9.05475e-06	-0.005093413097376802
9.05500e-06	-0.005077737050629993
9.05525e-06	-0.005062061003883185
9.05550e-06	-0.005046384957136483
9.05575e-06	-0.005030708910389675
9.05600e-06	-0.005015032863642867
9.05625e-06	-0.004999356816896165
9.05650e-06	-0.0049836807701493565
9.05675e-06	-0.004968004723402549
9.05700e-06	-0.004952328676655847
9.05725e-06	-0.004936652629909039
9.05750e-06	-0.004920976583162231
9.05775e-06	-0.004907796057279379
9.05800e-06	-0.004898597560406065
9.05825e-06	-0.00488939906353275
9.05850e-06	-0.004880200566659498
9.05875e-06	-0.004871002069786185
9.05900e-06	-0.00486180357291287
9.05925e-06	-0.004852605076039556
9.05950e-06	-0.004843406579166304
9.05975e-06	-0.00483420808229299
9.06000e-06	-0.004825009585419675
9.06025e-06	-0.004815811088546423
9.06050e-06	-0.004806612591673109
9.06075e-06	-0.004797414094799795
9.06100e-06	-0.004788215597926543
9.06125e-06	-0.004779017101053228
9.06150e-06	-0.004769818604179914
9.06175e-06	-0.004760620107306662
9.06200e-06	-0.0047514216104333476
9.06225e-06	-0.004742223113560033
9.06250e-06	-0.004743716248694521
9.06275e-06	-0.0047465951859073825
9.06300e-06	-0.004749474123120245
9.06325e-06	-0.0047523530603330874
9.06350e-06	-0.00475523199754595
9.06375e-06	-0.004758110934758812
9.06400e-06	-0.004760989871971655
9.06425e-06	-0.004763868809184517
9.06450e-06	-0.004766747746397379
9.06475e-06	-0.004769626683610221
9.06500e-06	-0.004772505620823084
9.06525e-06	-0.004775384558035946
9.06550e-06	-0.004778263495248789
9.06575e-06	-0.004781142432461651
9.06600e-06	-0.004784021369674513
9.06625e-06	-0.004786900306887356
9.06650e-06	-0.0047897792441002176
9.06675e-06	-0.004799471807646008
9.06700e-06	-0.004810047523317512
9.06725e-06	-0.004820623238989088
9.06750e-06	-0.004831198954660663
9.06775e-06	-0.0048417746703322394
9.06800e-06	-0.004852350386003744
9.06825e-06	-0.004862926101675319
9.06850e-06	-0.004873501817346895
9.06875e-06	-0.004884077533018399
9.06900e-06	-0.0048946532486899745
9.06925e-06	-0.004905228964361551
9.06950e-06	-0.004915804680033055
9.06975e-06	-0.004926380395704631
9.07000e-06	-0.004936956111376206
9.07025e-06	-0.0049475318270477105
9.07050e-06	-0.004958107542719286
9.07075e-06	-0.004968683258390862
9.07100e-06	-0.004978392376199067
9.07125e-06	-0.0049879891694230485
9.07150e-06	-0.004997585962647031
9.07175e-06	-0.005007182755870948
9.07200e-06	-0.005016779549094931
9.07225e-06	-0.005026376342318913
9.07250e-06	-0.00503597313554283
9.07275e-06	-0.005045569928766812
9.07300e-06	-0.005055166721990794
9.07325e-06	-0.005064763515214712
9.07350e-06	-0.005074360308438694
9.07375e-06	-0.005083957101662677
9.07400e-06	-0.0050935538948865934
9.07425e-06	-0.005103150688110576
9.07450e-06	-0.005112747481334558
9.07475e-06	-0.005122344274558475
9.07500e-06	-0.005131941067782458
9.07525e-06	-0.00514153786100644
9.07550e-06	-0.005151134654230357
9.07575e-06	-0.005160731447454339
9.07600e-06	-0.005170328240678322
9.07625e-06	-0.005179925033902304
9.07650e-06	-0.005189521827126222
9.07675e-06	-0.005199437148581029
9.07700e-06	-0.0052093937562571
9.07725e-06	-0.005219350363933103
9.07750e-06	-0.005229306971609174
9.07775e-06	-0.005239263579285244
9.07800e-06	-0.0052492201869612475
9.07825e-06	-0.005259176794637319
9.07850e-06	-0.005269133402313389
9.07875e-06	-0.005279090009989392
9.07900e-06	-0.0052890466176654626
9.07925e-06	-0.005299003225341534
9.07950e-06	-0.005308959833017536
9.07975e-06	-0.005318916440693607
9.08000e-06	-0.005328873048369678
9.08025e-06	-0.005338829656045681
9.08050e-06	-0.005348786263721752
9.08075e-06	-0.0053587428713978225
9.08100e-06	-0.005368699479073826
9.08125e-06	-0.005378656086749896
9.08150e-06	-0.005388612694425967
9.08175e-06	-0.00539856930210197
9.08200e-06	-0.005408525909778041
9.08225e-06	-0.005418482517454111
9.08250e-06	-0.005435186575388675
9.08275e-06	-0.005452765207999971
9.08300e-06	-0.005470343840611265
9.08325e-06	-0.005487922473222442
9.08350e-06	-0.005505501105833737
9.08375e-06	-0.005523079738445033
9.08400e-06	-0.00554065837105621
9.08425e-06	-0.005558237003667504
9.08450e-06	-0.0055758156362788
9.08475e-06	-0.005593394268890096
9.08500e-06	-0.005610972901501272
9.08525e-06	-0.005634109883844742
9.08550e-06	-0.005666116160859122
9.08575e-06	-0.005698122437873285
9.08600e-06	-0.005730128714887665
9.08625e-06	-0.005762134991902045
9.08650e-06	-0.005794141268916208
9.08675e-06	-0.0058261475459305875
9.08700e-06	-0.005858153822944968
9.08725e-06	-0.005890160099959131
9.08750e-06	-0.005922166376973511
9.08775e-06	-0.0059541726539878905
9.08800e-06	-0.005986178931002053
9.08825e-06	-0.006021629893711587
9.08850e-06	-0.006057527341354542
9.08875e-06	-0.006093424788997254
9.08900e-06	-0.006129322236640209
9.08925e-06	-0.0061652196842831635
9.08950e-06	-0.0062011171319258755
9.08975e-06	-0.00623701457956883
9.09000e-06	-0.006272912027211785
9.09025e-06	-0.006308809474854496
9.09050e-06	-0.006344706922497452
9.09075e-06	-0.006380604370140407
9.09100e-06	-0.006402960666052972
9.09125e-06	-0.006423561817733377
9.09150e-06	-0.006444162969413782
9.09175e-06	-0.006464764121094047
9.09200e-06	-0.006485365272774451
9.09225e-06	-0.006505966424454856
9.09250e-06	-0.00652656757613512
9.09275e-06	-0.006547168727815525
9.09300e-06	-0.006567769879495929
9.09325e-06	-0.006588371031176334
9.09350e-06	-0.006608972182856599
9.09375e-06	-0.006604854832121547
9.09400e-06	-0.0065975335783639575
9.09425e-06	-0.006590212324606417
9.09450e-06	-0.006582891070848827
9.09475e-06	-0.006575569817091238
9.09500e-06	-0.006568248563333698
9.09525e-06	-0.006560927309576108
9.09550e-06	-0.006553606055818518
9.09575e-06	-0.006546284802060979
9.09600e-06	-0.006538963548303389
9.09625e-06	-0.006531642294545799
9.09650e-06	-0.006506530923328683
9.09675e-06	-0.0064791136757217
9.09700e-06	-0.006451696428114717
9.09725e-06	-0.006424279180507919
9.09750e-06	-0.006396861932900936
9.09775e-06	-0.006369444685293953
9.09800e-06	-0.006342027437687156
9.09825e-06	-0.006314610190080172
9.09850e-06	-0.006287192942473189
9.09875e-06	-0.006259775694866392
9.09900e-06	-0.006232358447259409
9.09925e-06	-0.006204977663258517
9.09950e-06	-0.006177601605509258
9.09975e-06	-0.006150225547759814
9.10000e-06	-0.006122849490010369
9.10025e-06	-0.006095473432261109
9.10050e-06	-0.0060680973745116645
9.10075e-06	-0.0060407213167622195
9.10100e-06	-0.00601334525901296
9.10125e-06	-0.005985969201263515
9.10150e-06	-0.005958593143514071
9.10175e-06	-0.005931217085764626
9.10200e-06	-0.005918686624965085
9.10225e-06	-0.005908080384822603
9.10250e-06	-0.005897474144680121
9.10275e-06	-0.005886867904537711
9.10300e-06	-0.005876261664395229
9.10325e-06	-0.005865655424252747
9.10350e-06	-0.0058550491841103365
9.10375e-06	-0.0058444429439678544
9.10400e-06	-0.005833836703825373
9.10425e-06	-0.005823230463682962
9.10450e-06	-0.005812624223540481
9.10475e-06	-0.005816796400262253
9.10500e-06	-0.00582288409005575
9.10525e-06	-0.005828971779849289
9.10550e-06	-0.005835059469642827
9.10575e-06	-0.005841147159436325
9.10600e-06	-0.005847234849229863
9.10625e-06	-0.005853322539023402
9.10650e-06	-0.005859410228816899
9.10675e-06	-0.005865497918610438
9.10700e-06	-0.005871585608403976
9.10725e-06	-0.005877673298197474
9.10750e-06	-0.005883760987991012
9.10775e-06	-0.005889848677784551
9.10800e-06	-0.005895936367578048
9.10825e-06	-0.0059080336916884375
9.10850e-06	-0.005920909958035961
9.10875e-06	-0.005933786224383396
9.10900e-06	-0.005946662490730919
9.10925e-06	-0.005959538757078442
9.10950e-06	-0.005972415023425878
9.10975e-06	-0.005985291289773401
9.11000e-06	-0.005998167556120923
9.11025e-06	-0.006011043822468359
9.11050e-06	-0.006023920088815882
9.11075e-06	-0.006036796355163405
9.11100e-06	-0.006049672621510928
9.11125e-06	-0.006062548887858364
9.11150e-06	-0.0060754251542058865
9.11175e-06	-0.006088492135759745
9.11200e-06	-0.006101583836975587
9.11225e-06	-0.006114675538191518
9.11250e-06	-0.00612776723940745
9.11275e-06	-0.006140858940623293
9.11300e-06	-0.006153950641839224
9.11325e-06	-0.006167042343055155
9.11350e-06	-0.006180134044270998
9.11375e-06	-0.006193225745486929
9.11400e-06	-0.006206317446702861
9.11425e-06	-0.006219409147918703
9.11450e-06	-0.006232500849134634
9.11475e-06	-0.006245592550350566
9.11500e-06	-0.006258684251566409
9.11525e-06	-0.006277820273298191
9.11550e-06	-0.0062977397331392725
9.11575e-06	-0.006317659192980218
9.11600e-06	-0.0063375786528213
9.11625e-06	-0.006357498112662381
9.11650e-06	-0.006377417572503327
9.11675e-06	-0.006397337032344408
9.11700e-06	-0.006417256492185489
9.11725e-06	-0.006437175952026435
9.11750e-06	-0.006457095411867516
9.11775e-06	-0.006477014871708597
9.11800e-06	-0.006496934331549543
9.11825e-06	-0.0065168537913906244
9.11850e-06	-0.006536773251231705
9.11875e-06	-0.006556872073896566
9.11900e-06	-0.0065769941447780195
9.11925e-06	-0.006597116215659473
9.11950e-06	-0.0066172382865409265
9.11975e-06	-0.006637360357422243
9.12000e-06	-0.0066574824283036965
9.12025e-06	-0.00667760449918515
9.12050e-06	-0.006697726570066467
9.12075e-06	-0.006717848640947921
9.12100e-06	-0.006737970711829374
9.12125e-06	-0.006758092782710691
9.12150e-06	-0.006773787542229649
9.12175e-06	-0.006788908453218262
9.12200e-06	-0.006804029364206772
9.12225e-06	-0.006819150275195385
9.12250e-06	-0.006834271186183997
9.12275e-06	-0.006849392097172507
9.12300e-06	-0.00686451300816112
9.12325e-06	-0.0068796339191497325
9.12350e-06	-0.006894754830138243
9.12375e-06	-0.006909875741126855
9.12400e-06	-0.0069249966521154685
9.12425e-06	-0.006940860768594765
9.12450e-06	-0.00695682121608498
9.12475e-06	-0.006972781663575196
9.12500e-06	-0.006988742111065303
9.12525e-06	-0.007004702558555518
9.12550e-06	-0.007020663006045733
9.12575e-06	-0.0070366234535358405
9.12600e-06	-0.007052583901026055
9.12625e-06	-0.007068544348516271
9.12650e-06	-0.007084504796006378
9.12675e-06	-0.007100465243496594
9.12700e-06	-0.007116425690986809
9.12725e-06	-0.007132386138476916
9.12750e-06	-0.0071483465859671315
9.12775e-06	-0.007164307033457346
9.12800e-06	-0.007179767033881554
9.12825e-06	-0.007195162168568873
9.12850e-06	-0.007210557303256297
9.12875e-06	-0.00722595243794372
9.12900e-06	-0.007241347572631039
9.12925e-06	-0.007256742707318463
9.12950e-06	-0.0072721378420058875
9.12975e-06	-0.0072875329766932066
9.13000e-06	-0.007302928111380631
9.13025e-06	-0.007318323246068054
9.13050e-06	-0.007333718380755374
9.13075e-06	-0.007349113515442797
9.13100e-06	-0.007364508650130221
9.13125e-06	-0.00737990378481754
9.13150e-06	-0.007395298919504964
9.13175e-06	-0.0074004825655982175
9.13200e-06	-0.007404342643672911
9.13225e-06	-0.007408202721747631
9.13250e-06	-0.007412062799822351
9.13275e-06	-0.007415922877897046
9.13300e-06	-0.007419782955971766
9.13325e-06	-0.007423643034046486
9.13350e-06	-0.00742750311212118
9.13375e-06	-0.0074313631901959
9.13400e-06	-0.00743522326827062
9.13425e-06	-0.0074390833463453135
9.13450e-06	-0.007426408659356061
9.13475e-06	-0.007411590809199778
9.13500e-06	-0.0073967729590435965
9.13525e-06	-0.007381955108887315
9.13550e-06	-0.007367137258731032
9.13575e-06	-0.0073523194085748506
9.13600e-06	-0.007337501558418569
9.13625e-06	-0.0073226837082622865
9.13650e-06	-0.007307865858106004
9.13675e-06	-0.007293048007949823
9.13700e-06	-0.0072782301577935405
9.13725e-06	-0.007253882860114005
9.13750e-06	-0.007228300397564969
9.13775e-06	-0.007202717935015759
9.13800e-06	-0.00717713547246655
9.13825e-06	-0.007151553009917514
9.13850e-06	-0.007125970547368304
9.13875e-06	-0.007100388084819094
9.13900e-06	-0.0070748056222700575
9.13925e-06	-0.007049223159720848
9.13950e-06	-0.007023640697171638
9.13975e-06	-0.006998058234622602
9.14000e-06	-0.006972475772073393
9.14025e-06	-0.0069501722107689606
9.14050e-06	-0.006933100695447345
9.14075e-06	-0.006916029180125613
9.14100e-06	-0.006898957664803882
9.14125e-06	-0.006881886149482265
9.14150e-06	-0.006864814634160534
9.14175e-06	-0.006847743118838802
9.14200e-06	-0.006830671603517187
9.14225e-06	-0.006813600088195455
9.14250e-06	-0.006796528572873724
9.14275e-06	-0.006779457057552108
9.14300e-06	-0.006762385542230376
9.14325e-06	-0.006745314026908644
9.14350e-06	-0.0067401663442319135
9.14375e-06	-0.006736564176042421
9.14400e-06	-0.006732962007852929
9.14425e-06	-0.00672935983966346
9.14450e-06	-0.006725757671473968
9.14475e-06	-0.006722155503284475
9.14500e-06	-0.006718553335094983
9.14525e-06	-0.006714951166905515
9.14550e-06	-0.006711348998716023
9.14575e-06	-0.00670774683052653
9.14600e-06	-0.006710940928583826
9.14625e-06	-0.006714232732103124
9.14650e-06	-0.006717524535622423
