Time(s)	Current(A)
8.00000e-06	0.0007697774937807511
8.00025e-06	0.000732961821004851
8.00050e-06	0.0006919708978599052
8.00075e-06	0.0006470125094351031
8.00100e-06	0.0005983554585984322
8.00125e-06	0.0005463019062289146
8.00150e-06	0.0004911594240741245
8.00175e-06	0.0004332355498439126
8.00200e-06	0.00037283769069270637
8.00225e-06	0.0003102708029794214
8.00250e-06	0.0002458425425296533
8.00275e-06	0.0001798861997400761
8.00300e-06	0.00011277327831940478
8.00325e-06	4.489614080560508e-05
8.00350e-06	-2.329494142314495e-05
8.00375e-06	-9.149706871822552e-05
8.00400e-06	-0.00015936359650370414
8.00425e-06	-0.00022634251311925665
8.00450e-06	-0.00029210897874544213
8.00475e-06	-0.00035625132329273934
8.00500e-06	-0.00041833393152335824
8.00525e-06	-0.0004779081353415911
8.00550e-06	-0.0005345232214826781
8.00575e-06	-0.0005877285626794992
8.00600e-06	-0.0006370752117849513
8.00625e-06	-0.0006821632957492347
8.00650e-06	-0.0007227456301910474
8.00675e-06	-0.0007587341565882376
8.00700e-06	-0.0007900753420648174
8.00725e-06	-0.0008166830462392236
8.00750e-06	-0.0008384578833121986
8.00775e-06	-0.0008553003839551446
8.00800e-06	-0.0008671122285169553
8.00825e-06	-0.0008738258972822173
8.00850e-06	-0.0008754694026505803
8.00875e-06	-0.0008721705320191531
8.00900e-06	-0.0008640786933257321
8.00925e-06	-0.0008513228129534162
8.00950e-06	-0.000834023522497583
8.00975e-06	-0.0008123014357954662
8.01000e-06	-0.0007862778858902741
8.01025e-06	-0.0007560935076625901
8.01050e-06	-0.000721948712541775
8.01075e-06	-0.0006841064080121426
8.01100e-06	-0.0006428430538596191
8.01125e-06	-0.0005984222551700999
8.01150e-06	-0.0005511024033146073
8.01175e-06	-0.000501141887197253
8.01200e-06	-0.00044879953244157
8.01225e-06	-0.0003943461465160748
8.01250e-06	-0.0003380900743634409
8.01275e-06	-0.00028037875285872167
8.01300e-06	-0.0002215680713901602
8.01325e-06	-0.0001620058724573708
8.01350e-06	-0.00010203667959978511
8.01375e-06	-4.2004986000348005e-05
8.01400e-06	1.7744462412222047e-05
8.01425e-06	7.685940055624115e-05
8.01450e-06	0.00013496410462685758
8.01475e-06	0.00019165839511467455
8.01500e-06	0.00024653680985578665
8.01525e-06	0.0002991989645686951
8.01550e-06	0.0003492465878851863
8.01575e-06	0.0003962814400903686
8.01600e-06	0.0004399068292257776
8.01625e-06	0.00047976891482960225
8.01650e-06	0.0005156476044598635
8.01675e-06	0.0005474630570906601
8.01700e-06	0.0005751671117088494
8.01725e-06	0.0005986837642812335
8.01750e-06	0.0006179253389428781
8.01775e-06	0.0006328042660497821
8.01800e-06	0.0006432339812680918
8.01825e-06	0.0006491547676872809
8.01850e-06	0.0006505906174664691
8.01875e-06	0.0006476535118408911
8.01900e-06	0.0006404751797253053
8.01925e-06	0.0006291698670003124
8.01950e-06	0.000613844617554432
8.01975e-06	0.0005946065005978154
8.02000e-06	0.0005715631753073269
8.02025e-06	0.0005448391037237819
8.02050e-06	0.0005146112826910742
8.02075e-06	0.00048111170535062133
8.02100e-06	0.00044458474327622083
8.02125e-06	0.0004052638603424118
8.02150e-06	0.00036337792529016655
8.02175e-06	0.00031915582708540933
8.02200e-06	0.0002728268307389546
8.02225e-06	0.00022463072578500428
8.02250e-06	0.00017484013510533827
8.02275e-06	0.0001237621577123548
8.02300e-06	7.17116222753139e-05
8.02325e-06	1.8996480731157545e-05
8.02350e-06	-3.4052542113984974e-05
8.02375e-06	-8.717401034087599e-05
8.02400e-06	-0.0001400856268844746
8.02425e-06	-0.0001924012957041998
8.02450e-06	-0.00024382190902916886
8.02475e-06	-0.00029399350050917695
8.02500e-06	-0.0003425573072158188
8.02525e-06	-0.00038915886931561376
8.02550e-06	-0.0004334455610167695
8.02575e-06	-0.0004750648020739577
8.02600e-06	-0.0005136691563606121
8.02625e-06	-0.0005490338845122527
8.02650e-06	-0.0005812538937802989
8.02675e-06	-0.0006106151957036192
8.02700e-06	-0.0006372413124910155
8.02725e-06	-0.0006603975047609315
8.02750e-06	-0.0006810706540262804
8.02775e-06	-0.0006990088027219344
8.02800e-06	-0.0007133949716357527
8.02825e-06	-0.0007250309088860719
8.02850e-06	-0.0007330950855405423
8.02875e-06	-0.0007387833381470662
8.02900e-06	-0.0007413859481856684
8.02925e-06	-0.0007417193911042219
8.02950e-06	-0.0007391058380253856
8.02975e-06	-0.000734242716939903
8.03000e-06	-0.0007264580534731399
8.03025e-06	-0.0007165737273634464
8.03050e-06	-0.0007039625428614259
8.03075e-06	-0.0006896456151064871
8.03100e-06	-0.0006731134170462952
8.03125e-06	-0.0006547674484923147
8.03150e-06	-0.0006340659132909936
8.03175e-06	-0.0006133643780898129
8.03200e-06	-0.0005908844470220358
8.03225e-06	-0.0005660948907819938
8.03250e-06	-0.0005413053345421197
8.03275e-06	-0.0005156173547741317
8.03300e-06	-0.000488762581023603
8.03325e-06	-0.00046156016356766556
8.03350e-06	-0.0004339062568404559
8.03375e-06	-0.0004061714404657636
8.03400e-06	-0.0003783315457100202
8.03425e-06	-0.00035072853054910624
8.03450e-06	-0.000323433153909293
8.03475e-06	-0.0002967881120629551
8.03500e-06	-0.0002709876682266421
8.03525e-06	-0.0002458949321697012
8.03550e-06	-0.0002223017199739897
8.03575e-06	-0.00020012416874534803
8.03600e-06	-0.00017955760830842056
8.03625e-06	-0.0001609730562750729
8.03650e-06	-0.00014514390909959525
8.03675e-06	-0.00013293222958256235
8.03700e-06	-0.00012474472198518595
8.03725e-06	-0.00012059099382368414
8.03750e-06	-0.00012039277762194121
8.03775e-06	-0.00012407179324301444
8.03800e-06	-0.0001315548021468879
8.03825e-06	-0.00014287862197776815
8.03850e-06	-0.000158332109563965
8.03875e-06	-0.0001782596080948019
8.03900e-06	-0.00020272020430920512
8.03925e-06	-0.00023152422949284393
8.03950e-06	-0.0002644270020698627
8.03975e-06	-0.0003011838328196415
8.04000e-06	-0.00034155318706395295
8.04025e-06	-0.00038536250902335405
8.04050e-06	-0.00043259709317257117
8.04075e-06	-0.0004832770275385664
8.04100e-06	-0.0005378473045731528
8.04125e-06	-0.0005949665113313688
8.04150e-06	-0.0006541967122610045
8.04175e-06	-0.0007161684879823432
8.04200e-06	-0.0007799699532017613
8.04225e-06	-0.000846147659280698
8.04250e-06	-0.0009123253653591861
8.04275e-06	-0.0009798437622119528
8.04300e-06	-0.001049103331105614
8.04325e-06	-0.001118362899999275
8.04350e-06	-0.0011874939098500722
8.04375e-06	-0.0012564579584492756
8.04400e-06	-0.0013254220070484791
8.04425e-06	-0.0013927594136398781
8.04450e-06	-0.001457984279712215
8.04475e-06	-0.0015232091457845517
8.04500e-06	-0.0015853610531902334
8.04525e-06	-0.0016435220703647556
8.04550e-06	-0.0017016830875392778
8.04575e-06	-0.0017551533835693737
8.04600e-06	-0.0018025317808056415
8.04625e-06	-0.0018499101780419093
8.04650e-06	-0.001894002018349862
8.04675e-06	-0.0019338255656659565
8.04700e-06	-0.001973649112982051
8.04725e-06	-0.0020109993689066364
8.04750e-06	-0.002045137530063495
8.04775e-06	-0.002079275691220354
8.04800e-06	-0.0021134138523769812
8.04825e-06	-0.002141110003161081
8.04850e-06	-0.002168358506003099
8.04875e-06	-0.0021956070088449318
8.04900e-06	-0.002219813738119193
8.04925e-06	-0.0022400700776425463
8.04950e-06	-0.002260326417165762
8.04975e-06	-0.002280582756689115
8.05000e-06	-0.0023008390962124684
8.05025e-06	-0.002321095435735684
8.05050e-06	-0.0023413517752590373
8.05075e-06	-0.0023616081147823905
8.05100e-06	-0.002381864454305606
8.05125e-06	-0.002402120793828959
8.05150e-06	-0.002415354409951153
8.05175e-06	-0.002428100025046053
8.05200e-06	-0.002440845640140867
8.05225e-06	-0.002453591255235767
8.05250e-06	-0.0024663368703306673
8.05275e-06	-0.002479082485425481
8.05300e-06	-0.0024918281005203813
8.05325e-06	-0.0025045737156152814
8.05350e-06	-0.002517319330710095
8.05375e-06	-0.0025284625283696644
8.05400e-06	-0.0025375246462666385
8.05425e-06	-0.0025465867641635514
8.05450e-06	-0.0025556488820605255
8.05475e-06	-0.00256397841345864
8.05500e-06	-0.0025713565255176766
8.05525e-06	-0.002578734637576763
8.05550e-06	-0.0025861127496358497
8.05575e-06	-0.002592909598583326
8.05600e-06	-0.0025989515537861644
8.05625e-06	-0.0026036882181645327
8.05650e-06	-0.002606729684862573
8.05675e-06	-0.0026066617800719243
8.05700e-06	-0.002602555695255752
8.05725e-06	-0.002594473893989422
8.05750e-06	-0.0025812287795536396
8.05775e-06	-0.0025679836651178577
8.05800e-06	-0.002550232408958525
8.05825e-06	-0.0025266289696274703
8.05850e-06	-0.0025030255302964156
8.05875e-06	-0.002473801652706152
8.05900e-06	-0.002437278440958744
8.05925e-06	-0.002400755229211336
8.05950e-06	-0.002359957030486516
8.05975e-06	-0.002313606852177731
8.06000e-06	-0.0022644116118710196
8.06025e-06	-0.002211521453612641
8.06050e-06	-0.0021557124961238553
8.06075e-06	-0.002096112857207303
8.06100e-06	-0.0020343913990283125
8.06125e-06	-0.001968720837847447
8.06150e-06	-0.001900483174568959
8.06175e-06	-0.0018300840205624075
8.06200e-06	-0.0017579257709962241
8.06225e-06	-0.0016843381012423618
8.06250e-06	-0.001609479877185586
8.06275e-06	-0.0015334566517423828
8.06300e-06	-0.0014565417268255255
8.06325e-06	-0.0013791624932052104
8.06350e-06	-0.0013017810032942918
8.06375e-06	-0.0012248593095040491
8.06400e-06	-0.0011488574891428867
8.06425e-06	-0.001074190108565177
8.06450e-06	-0.001001164455144912
8.06475e-06	-0.0009300546299071194
8.06500e-06	-0.0008612397584483712
8.06525e-06	-0.0007951953308454261
8.06550e-06	-0.0007324186480317505
8.06575e-06	-0.0006734069527330607
8.06600e-06	-0.0006186542642347345
8.06625e-06	-0.0005685720870796496
8.06650e-06	-0.0005233361156694487
8.06675e-06	-0.0004829240253460855
8.06700e-06	-0.0004473391530692307
8.06725e-06	-0.00041668027927016824
8.06750e-06	-0.00039107440928262086
8.06775e-06	-0.00037064850536119886
8.06800e-06	-0.00035552746865938334
8.06825e-06	-0.0003457845399484223
8.06850e-06	-0.0003413451980513626
8.06875e-06	-0.00034201090345209836
8.06900e-06	-0.00034759921146163686
8.06925e-06	-0.0003579874355554829
8.06950e-06	-0.00037307059821713564
8.06975e-06	-0.00039274370926908696
8.07000e-06	-0.00041690045801583023
8.07025e-06	-0.00044540216271885257
8.07050e-06	-0.0004780176436907695
8.07075e-06	-0.0005144380167636203
8.07100e-06	-0.0005543644903943209
8.07125e-06	-0.0005981563581330773
8.07150e-06	-0.0006445076132835892
8.07175e-06	-0.0006931231990789709
8.07200e-06	-0.0007446794996833375
8.07225e-06	-0.0007983171003667041
8.07250e-06	-0.0008546577117512647
8.07275e-06	-0.0009109983231354436
8.07300e-06	-0.0009685825328722051
8.07325e-06	-0.0010277818194969943
8.07350e-06	-0.0010869811061213824
8.07375e-06	-0.0011460723359632983
8.07400e-06	-0.0012050232310964163
8.07425e-06	-0.0012639741262291345
8.07450e-06	-0.0013217533623914694
8.07475e-06	-0.0013780109502490138
8.07500e-06	-0.0014319080013053243
8.07525e-06	-0.0014827393934023006
8.07550e-06	-0.0015335707854992771
8.07575e-06	-0.0015802865157118215
8.07600e-06	-0.0016216571838498885
8.07625e-06	-0.0016630278519879553
8.07650e-06	-0.0017011835733966357
8.07675e-06	-0.0017351640028795924
8.07700e-06	-0.001769144432362549
8.07725e-06	-0.001799447639387292
8.07750e-06	-0.0018249751911573295
8.07775e-06	-0.0018505027429275398
8.07800e-06	-0.00187603029469775
8.07825e-06	-0.0019015578464677873
8.07850e-06	-0.0019270853982379975
8.07875e-06	-0.0019437067511312795
8.07900e-06	-0.001959709222435924
8.07925e-06	-0.0019757116937406762
8.07950e-06	-0.001991714165045429
8.07975e-06	-0.002007716636350073
8.08000e-06	-0.002019570163649663
8.08025e-06	-0.002026035404962652
8.08050e-06	-0.0020325006462755977
8.08075e-06	-0.002038965887588587
8.08100e-06	-0.0020454311289015764
8.08125e-06	-0.0020518963702145223
8.08150e-06	-0.0020583616115275117
8.08175e-06	-0.002064826852840501
8.08200e-06	-0.0020712920941534465
8.08225e-06	-0.002077757335466436
8.08250e-06	-0.002081376299333621
8.08275e-06	-0.0020812987667292848
8.08300e-06	-0.002081221234124948
8.08325e-06	-0.0020811437015206113
8.08350e-06	-0.002081066168916275
8.08375e-06	-0.0020809886363119382
8.08400e-06	-0.0020809111037076015
8.08425e-06	-0.002080833571103265
8.08450e-06	-0.0020807560384989284
8.08475e-06	-0.0020806785058945913
8.08500e-06	-0.0020800801872019855
8.08525e-06	-0.002078805517038195
8.08550e-06	-0.0020775308468744045
8.08575e-06	-0.002076306634720917
8.08600e-06	-0.002075147953022781
8.08625e-06	-0.002073274182225812
8.08650e-06	-0.0020704717161834723
8.08675e-06	-0.0020652294897066338
8.08700e-06	-0.0020568187155352814
8.08725e-06	-0.0020453030771663285
8.08750e-06	-0.0020297551124445158
8.08775e-06	-0.0020142071477225977
8.08800e-06	-0.001995231380784711
8.08825e-06	-0.001971803883810203
8.08850e-06	-0.001948376386835536
8.08875e-06	-0.0019204039550622892
8.08900e-06	-0.00188652895905603
8.08925e-06	-0.0018526539630495413
8.08950e-06	-0.0018147697919878867
8.08975e-06	-0.0017716788546394751
8.09000e-06	-0.0017285879172907715
8.09025e-06	-0.0016826900442139631
8.09050e-06	-0.0016331467682507838
8.09075e-06	-0.0015812026768612234
8.09100e-06	-0.0015261406161511807
8.09125e-06	-0.0014691377367778207
8.09150e-06	-0.0014096142916894044
8.09175e-06	-0.00134902335328881
8.09200e-06	-0.0012865379902023953
8.09225e-06	-0.001222968766511724
8.09250e-06	-0.00115842550634325
8.09275e-06	-0.00109296058450321
8.09300e-06	-0.0010267881474891284
8.09325e-06	-0.000960273182198656
8.09350e-06	-0.0008938149527363424
8.09375e-06	-0.0008278126952535524
8.09400e-06	-0.0007626635316913603
8.09425e-06	-0.0006987194097844362
8.09450e-06	-0.0006362247092287082
8.09475e-06	-0.0005753878869562782
8.09500e-06	-0.0005165187577154535
8.09525e-06	-0.0004600215399224888
8.09550e-06	-0.0004063219150798253
8.09575e-06	-0.0003558455253932929
8.09600e-06	-0.00030899934971175864
8.09625e-06	-0.00026576612313239096
8.09650e-06	-0.00022508654271283932
8.09675e-06	-0.000185452659432361
8.09700e-06	-0.0001461738540177782
8.09725e-06	-0.00010738189234352491
8.09750e-06	-6.940124699352734e-05
8.09775e-06	-3.25563305962916e-05
8.09800e-06	2.8401483307140394e-06
8.09825e-06	3.6741251780601955e-05
8.09850e-06	6.975274384957196e-05
8.09875e-06	0.00010276135966414439
8.09900e-06	0.00013614179033319767
8.09925e-06	0.00016963856192406992
8.09950e-06	0.00020303331077355373
8.09975e-06	0.00023642805962281125
8.10000e-06	0.00026921196732792923
8.10025e-06	0.00030120256792255906
8.10050e-06	0.0003331931685169721
8.10075e-06	0.00036535608712755143
8.10100e-06	0.0003977427973222153
8.10125e-06	0.0004301295075166597
8.10150e-06	0.0004625162177113236
8.10175e-06	0.0004949029279059875
8.10200e-06	0.0005261930392151505
8.10225e-06	0.0005574069491201404
8.10250e-06	0.0005886208590251304
8.10275e-06	0.0006198347689301203
8.10300e-06	0.000650694340313417
8.10325e-06	0.0006810937277829322
8.10350e-06	0.0007110047200332947
8.10375e-06	0.000740281427242743
8.10400e-06	0.00076898089751574
8.10425e-06	0.0007964972940695292
8.10450e-06	0.0008230767880417281
8.10475e-06	0.0008488204511266844
8.10500e-06	0.0008737034573285944
8.10525e-06	0.0008975743856139
8.10550e-06	0.0009202522025935271
8.10575e-06	0.0009415559153276787
8.10600e-06	0.0009612932297666773
8.10625e-06	0.0009790246871099588
8.10650e-06	0.000993738046288154
8.10675e-06	0.0010042742644946023
8.10700e-06	0.0010100885281455524
8.10725e-06	0.001011181962784308
8.10750e-06	0.001007677502990759
8.10775e-06	0.0009996980327009932
8.10800e-06	0.0009873595838232466
8.10825e-06	0.0009706233437489398
8.10850e-06	0.0009490914948631385
8.10875e-06	0.0009222745597624969
8.10900e-06	0.0008900677323410012
8.10925e-06	0.000852708191097241
8.10950e-06	0.0008105094678149507
8.10975e-06	0.0007637850765201007
8.11000e-06	0.0007128441101075387
8.11025e-06	0.000657898643872144
8.11050e-06	0.0005989359772286564
8.11075e-06	0.000535885906079475
8.11100e-06	0.00046891926545378063
8.11125e-06	0.00039842114866941796
8.11150e-06	0.00032482430058195774
8.11175e-06	0.0002485614913673103
8.11200e-06	0.00017006271969358672
8.11225e-06	8.969716538395614e-05
8.11250e-06	7.693222575293038e-06
8.11275e-06	-7.57567741379125e-05
8.11300e-06	-0.00016038327702925048
8.11325e-06	-0.00024558353773301286
8.11350e-06	-0.0003307837984367752
8.11375e-06	-0.0004154336910176073
8.11400e-06	-0.0004993688470165227
8.11425e-06	-0.0005819327234460861
8.11450e-06	-0.0006627157017753462
8.11475e-06	-0.0007414511298363711
8.11500e-06	-0.0008175273784970548
8.11525e-06	-0.000890647971973704
8.11550e-06	-0.0009599300187257546
8.11575e-06	-0.0010252979528769593
8.11600e-06	-0.0010855825795467325
8.11625e-06	-0.0011416300754120148
8.11650e-06	-0.0011921747559738851
8.11675e-06	-0.001239280627756289
8.11700e-06	-0.0012819204751354668
8.11725e-06	-0.0013210042482392455
8.11750e-06	-0.001355469702757807
8.11775e-06	-0.0013859824921563803
8.11800e-06	-0.0014113619054295658
8.11825e-06	-0.001432790198215387
8.11850e-06	-0.0014490871209102787
8.11875e-06	-0.0014621368452796936
8.11900e-06	-0.001470969392161995
8.11925e-06	-0.0014758960433846912
8.11950e-06	-0.0014757500585711196
8.11975e-06	-0.001475604073757548
8.12000e-06	-0.0014708493093184695
8.12025e-06	-0.001460109064557336
8.12050e-06	-0.0014493688197962024
8.12075e-06	-0.0014350816925920579
8.12100e-06	-0.0014161881843514773
8.12125e-06	-0.0013972946761108967
8.12150e-06	-0.0013759401877254183
8.12175e-06	-0.0013513895933359797
8.12200e-06	-0.0013251061233318078
8.12225e-06	-0.0012965721458756102
8.12250e-06	-0.0012668280371156743
8.12275e-06	-0.0012355123155442288
8.12300e-06	-0.0012035008254476346
8.12325e-06	-0.0011705857319772698
8.12350e-06	-0.001137297039903594
8.12375e-06	-0.0011035231506043408
8.12400e-06	-0.0010697086450543705
8.12425e-06	-0.0010358413906667832
8.12450e-06	-0.0010024643040280608
8.12475e-06	-0.0009697238044366059
8.12500e-06	-0.000937998913682153
8.12525e-06	-0.0009075930069548216
8.12550e-06	-0.0008790441584240286
8.12575e-06	-0.0008529070948338399
8.12600e-06	-0.0008267700312438282
8.12625e-06	-0.0008030252074110786
8.12650e-06	-0.0007823872155729214
8.12675e-06	-0.0007617492237349041
8.12700e-06	-0.000742881626055225
8.12725e-06	-0.0007263132616349401
8.12750e-06	-0.0007097448972147675
8.12775e-06	-0.0006952548237910854
8.12800e-06	-0.0006834638531402735
8.12825e-06	-0.0006716728824894615
8.12850e-06	-0.000661679408819327
8.12875e-06	-0.0006540203671861184
8.12900e-06	-0.0006463613255529099
8.12925e-06	-0.0006401938422853911
8.12950e-06	-0.0006359634647106198
8.12975e-06	-0.0006317330871358485
8.13000e-06	-0.000629051951105431
8.13025e-06	-0.0006283828346406755
8.13050e-06	-0.0006277137181759201
8.13075e-06	-0.0006281547454619245
8.13100e-06	-0.00063003753046184
8.13125e-06	-0.0006319203154617556
8.13150e-06	-0.0006350901871750292
8.13175e-06	-0.0006399316146631125
8.13200e-06	-0.0006447730421511956
8.13225e-06	-0.000649614469639246
8.13250e-06	-0.0006544558971273292
8.13275e-06	-0.0006592973246154123
8.13300e-06	-0.0006658253842092253
8.13325e-06	-0.0006724706459425948
8.13350e-06	-0.0006791159076759641
8.13375e-06	-0.0006857611694092885
8.13400e-06	-0.0006924064311426578
8.13425e-06	-0.0006972500216761641
8.13450e-06	-0.0007054397325533848
8.13475e-06	-0.009357313837721527
8.13500e-06	-0.01842061838296307
8.13525e-06	-0.015574501077136817
8.13550e-06	-0.012952859777293314
8.13575e-06	-0.005781883450601957
8.13600e-06	0.002114749739194173
8.13625e-06	0.0016644994778132974
8.13650e-06	0.0009108963681245981
8.13675e-06	-0.003859457288615931
8.13700e-06	-0.013613134906124218
8.13725e-06	-0.009209904394574274
8.13750e-06	-0.005991441884411397
8.13775e-06	-0.0019791070365353888
8.13800e-06	0.001496896794813267
8.13825e-06	0.0023928097032774914
8.13850e-06	0.0008349980804882057
8.13875e-06	-0.002304357366050478
8.13900e-06	-0.0049891026787686485
8.13925e-06	-0.005332234333303019
8.13950e-06	-0.003652047455846092
8.13975e-06	-0.0010397211725488957
8.14000e-06	0.0010933100519487362
8.14025e-06	0.0016153460353971452
8.14050e-06	0.0006048042091348316
8.14075e-06	-0.0013925933140242596
8.14100e-06	-0.003101966594054399
8.14125e-06	-0.0033418681863817902
8.14150e-06	-0.002312201964022053
8.14175e-06	-0.0006968901415879635
8.14200e-06	0.00061967072072627
8.14225e-06	0.0009284336981988085
8.14250e-06	0.0002784406195777204
8.14275e-06	-0.000988529869835139
8.14300e-06	-0.0020739785715121325
8.14325e-06	-0.002237977395916893
8.14350e-06	-0.0016058827955695103
8.14375e-06	-0.0006061977840815497
