Time(s)	Current(A)
7.75000e-06	-0.0021001629601013275
7.75025e-06	-0.002087759118142092
7.75050e-06	-0.0020734057639519
7.75075e-06	-0.0020572574970779338
7.75100e-06	-0.0020394654134696538
7.75125e-06	-0.002020149313233222
7.75150e-06	-0.0019994199995920035
7.75175e-06	-0.0019773881395900974
7.75200e-06	-0.00195416514708906
7.75225e-06	-0.001929866282167871
7.75250e-06	-0.001904635299269467
7.75275e-06	-0.0018786529913886458
7.75300e-06	-0.0018520979768733396
7.75325e-06	-0.0018251293932404497
7.75350e-06	-0.0017979003628824756
7.75375e-06	-0.0017705643091123979
7.75400e-06	-0.001743274647559671
7.75425e-06	-0.0017161874286504004
7.75450e-06	-0.001689476870226966
7.75475e-06	-0.0016633398668423338
7.75500e-06	-0.0016379722246126524
7.75525e-06	-0.0016135572482306312
7.75550e-06	-0.0015902748114495395
7.75575e-06	-0.0015683048802757151
7.75600e-06	-0.0015478225321580077
7.75625e-06	-0.0015288929181866116
7.75650e-06	-0.0015109099547307109
7.75675e-06	-0.0014926373363423108
7.75700e-06	-0.001473351935442714
7.75725e-06	-0.0014530821132407294
7.75750e-06	-0.0014320307453983302
7.75775e-06	-0.0014104004308193227
7.75800e-06	-0.001388391061066674
7.75825e-06	-0.0013661334707741192
7.75850e-06	-0.0013433380746360234
7.75875e-06	-0.001319320585871296
7.75900e-06	-0.0012937182061757307
7.75925e-06	-0.0012666388366419546
7.75950e-06	-0.0012382997884318736
7.75975e-06	-0.0012088844191239178
7.76000e-06	-0.0011784183547788262
7.76025e-06	-0.00114784500180546
7.76050e-06	-0.0011161701487589098
7.76075e-06	-0.0010829843314576365
7.76100e-06	-0.001049621413317247
7.76125e-06	-0.0010146396616569947
7.76150e-06	-0.0009788199107221896
7.76175e-06	-0.0009423782735773207
7.76200e-06	-0.000905482940253693
7.76225e-06	-0.0008685627917912542
7.76250e-06	-0.0008313996843810861
7.76275e-06	-0.0007939587182319672
7.76300e-06	-0.000756244138487624
7.76325e-06	-0.0007184450494273293
7.76350e-06	-0.0006807931817901211
7.76375e-06	-0.000643520318482006
7.76400e-06	-0.0006068574933631446
7.76425e-06	-0.0005710187185107395
7.76450e-06	-0.0005361147405992478
7.76475e-06	-0.0005021592085667361
7.76500e-06	-0.00046924489062841727
7.76525e-06	-0.0004375801439909756
7.76550e-06	-0.00040740023797871403
7.76575e-06	-0.00037894038068857027
7.76600e-06	-0.0003524335937674747
7.76625e-06	-0.0003280632961209733
7.76650e-06	-0.0003057028124187216
7.76675e-06	-0.0002849055577467914
7.76700e-06	-0.00026540245364228105
7.76725e-06	-0.0002472343538956501
7.76750e-06	-0.0002305171875749404
7.76775e-06	-0.00021536682856055348
7.76800e-06	-0.0002018977987191083
7.76825e-06	-0.00019019350683254434
7.76850e-06	-0.00018014315380761756
7.76875e-06	-0.00017143553517929717
7.76900e-06	-0.00016387067373433684
7.76925e-06	-0.00015744274743837813
7.76950e-06	-0.00015219292516982575
7.76975e-06	-0.0001481623843182592
7.77000e-06	-0.00014539142953333507
7.77025e-06	-0.00014390085399347628
7.77050e-06	-0.0001435898325641207
7.77075e-06	-0.00014423199017444416
7.77100e-06	-0.00014567064572649555
7.77125e-06	-0.00014790973169977607
7.77150e-06	-0.00015116319797482003
7.77175e-06	-0.00015457107400613422
7.77200e-06	-0.0001593124226815864
7.77225e-06	-0.00016418380165869376
7.77250e-06	-0.000170178113891054
7.77275e-06	-0.0001762460817208289
7.77300e-06	-0.00018295013451457686
7.77325e-06	-0.00018970480599374498
7.77350e-06	-0.00019689661715812038
7.77375e-06	-0.00020412440211913343
7.77400e-06	-0.00021166285445616375
7.77425e-06	-0.00021920899281133922
7.77450e-06	-0.00022682150712087274
7.77475e-06	-0.00023437728629858436
7.77500e-06	-0.00024144310455559336
7.77525e-06	-0.0002485089228125545
7.77550e-06	-0.00025550299080528364
7.77575e-06	-0.000261832355586921
7.77600e-06	-0.00026772697501789274
7.77625e-06	-0.0002732553254028527
7.77650e-06	-0.00027919355210080253
7.77675e-06	-0.000286956002044313
7.77700e-06	-0.00029736274126051815
7.77725e-06	-0.0003104087747254473
7.77750e-06	-0.00032590044253077955
7.77775e-06	-0.0003436440617053918
7.77800e-06	-0.0003634491678639946
7.77825e-06	-0.0003851983441738084
7.77850e-06	-0.0004092174039466315
7.77875e-06	-0.00043623184530293277
7.77900e-06	-0.0004665949510089777
7.77925e-06	-0.0005002806132973185
7.77950e-06	-0.0005377822376170209
7.77975e-06	-0.0005757765584276836
7.78000e-06	-0.0006180257741941848
7.78025e-06	-0.0006607305211298742
7.78050e-06	-0.0007073692057099767
7.78075e-06	-0.0007545153139736856
7.78100e-06	-0.0008060435002781803
7.78125e-06	-0.0008579746245168943
7.78150e-06	-0.0009133854946345854
7.78175e-06	-0.0009690600769506482
7.78200e-06	-0.0010270120607135532
7.78225e-06	-0.001085137910527429
7.78250e-06	-0.0011447652562905758
7.78275e-06	-0.0012045324016551023
7.78300e-06	-0.0012655068473143563
7.78325e-06	-0.0013264890794185713
7.78350e-06	-0.001387538554753156
7.78375e-06	-0.0014484420750267
7.78400e-06	-0.0015080851368582935
7.78425e-06	-0.0015674594425189427
7.78450e-06	-0.0016245127873084485
7.78475e-06	-0.0016812095262276146
7.78500e-06	-0.0017348266399631414
7.78525e-06	-0.0017880847980006596
7.78550e-06	-0.0018377821879088092
7.78575e-06	-0.0018834997071511257
7.78600e-06	-0.0019285028306772723
7.78625e-06	-0.0019673364791093187
7.78650e-06	-0.0020057318576335924
7.78675e-06	-0.0020400333482987944
7.78700e-06	-0.002071666185206682
7.78725e-06	-0.0021028374049547774
7.78750e-06	-0.002130022128831194
7.78775e-06	-0.002156661668694207
7.78800e-06	-0.0021785930347578615
7.78825e-06	-0.0022001031112827804
7.78850e-06	-0.0022177598860665297
7.78875e-06	-0.0022332984348082787
7.78900e-06	-0.002246584100581134
7.78925e-06	-0.002259505295509848
7.78950e-06	-0.0022692789438538284
7.78975e-06	-0.002278653145780517
7.79000e-06	-0.002284577754338893
7.79025e-06	-0.0022902058618546797
7.79050e-06	-0.002293122750870395
7.79075e-06	-0.0022946178301383466
7.79100e-06	-0.002294954175212026
7.79125e-06	-0.0022941732823851886
7.79150e-06	-0.0022922628116337274
7.79175e-06	-0.0022892104954217573
7.79200e-06	-0.0022850055379131404
7.79225e-06	-0.002279658436877617
7.79250e-06	-0.002273317567696002
7.79275e-06	-0.0022662709898583844
7.79300e-06	-0.002258725190502913
7.79325e-06	-0.002250747782597902
7.79350e-06	-0.0022423729680852737
7.79375e-06	-0.002233634740239063
7.79400e-06	-0.00222456776888998
7.79425e-06	-0.0022152211201817732
7.79450e-06	-0.002205728553604068
7.79475e-06	-0.002196312527641452
7.79500e-06	-0.002187164477864077
7.79525e-06	-0.002178481757500937
7.79550e-06	-0.002169866016266697
7.79575e-06	-0.002161882077951233
7.79600e-06	-0.002154413984780528
7.79625e-06	-0.002147405318289708
7.79650e-06	-0.0021401063844386364
7.79675e-06	-0.0021311386042884117
7.79700e-06	-0.0021197029027143813
7.79725e-06	-0.0021058057867471545
7.79750e-06	-0.0020896387156641256
7.79775e-06	-0.0020713936780954647
7.79800e-06	-0.0020512587593307517
7.79825e-06	-0.0020293509394097423
7.79850e-06	-0.0020053523188276385
7.79875e-06	-0.0019785514719515
7.79900e-06	-0.0019486003249867738
7.79925e-06	-0.0019156549332704665
7.79950e-06	-0.0018799874758245463
7.79975e-06	-0.0018417688052009933
7.80000e-06	-0.0018006980617373382
7.80025e-06	-0.0017592031533683584
7.80050e-06	-0.001714045184370403
7.80075e-06	-0.0016685210772995674
7.80100e-06	-0.0016196124866779684
7.80125e-06	-0.0015685930153927225
7.80150e-06	-0.0015157853425535564
7.80175e-06	-0.0014614670200584733
7.80200e-06	-0.0014057061763791644
7.80225e-06	-0.0013498252921836788
7.80250e-06	-0.0012928279000762476
7.80275e-06	-0.001235070276787171
7.80300e-06	-0.0011766630156698043
7.80325e-06	-0.0011179149470355698
7.80350e-06	-0.0010591799976259614
7.80375e-06	-0.001000812302849977
7.80400e-06	-0.0009431652007464177
7.80425e-06	-0.0008865741975888336
7.80450e-06	-0.0008312680709076362
7.80475e-06	-0.0007773789134917862
7.80500e-06	-0.0007251278826757195
7.80525e-06	-0.0006748602928086327
7.80550e-06	-0.0006269498249925259
7.80575e-06	-0.0005817700680758771
7.80600e-06	-0.0005396929513617015
7.80625e-06	-0.0005010482027526973
7.80650e-06	-0.00046589584177082175
7.80675e-06	-0.00043398527240366924
7.80700e-06	-0.00040515430838292875
7.80725e-06	-0.0003794693844483705
7.80750e-06	-0.00035705617396044736
7.80775e-06	-0.0003380403522002645
7.80800e-06	-0.00032254631053853477
7.80825e-06	-0.00031067224674411896
7.80850e-06	-0.0003023472859243055
7.80875e-06	-0.0002973059865213349
7.80900e-06	-0.00029533832722379984
7.80925e-06	-0.0002963775053221207
7.80950e-06	-0.0003003938318889423
7.80975e-06	-0.0003073575828522782
7.81000e-06	-0.0003172382732922003
7.81025e-06	-0.00032998894315874866
7.81050e-06	-0.00034545681262432423
7.81075e-06	-0.000363367175702307
7.81100e-06	-0.0003835806697773338
7.81125e-06	-0.0004065139934121222
7.81150e-06	-0.00042982331351960754
7.81175e-06	-0.0004563797148002938
7.81200e-06	-0.0004832552183507034
7.81225e-06	-0.000512886468422974
7.81250e-06	-0.0005427419880318416
7.81275e-06	-0.0005745342848270161
7.81300e-06	-0.0006064534541547849
7.81325e-06	-0.0006394682864519012
7.81350e-06	-0.0006725311814691155
7.81375e-06	-0.0007060091430205136
7.81400e-06	-0.0007394545996391608
7.81425e-06	-0.0007726193457671835
7.81450e-06	-0.0008056958374696022
7.81475e-06	-0.0008379130233557537
7.81500e-06	-0.0008691696186567127
7.81525e-06	-0.0008991464080377354
7.81550e-06	-0.0009271428086415702
7.81575e-06	-0.0009547556528540678
7.81600e-06	-0.0009790561289245614
7.81625e-06	-0.0010027988623960641
7.81650e-06	-0.0010217249669267562
7.81675e-06	-0.0010406510714574483
7.81700e-06	-0.0010588977558468218
7.81725e-06	-0.0010712770119239326
7.81750e-06	-0.0010836562680010433
7.81775e-06	-0.0010953079153694404
7.81800e-06	-0.0011006759810793215
7.81825e-06	-0.0011060440467892028
7.81850e-06	-0.0011108107944035129
7.81875e-06	-0.001110384597910303
7.81900e-06	-0.0011095139518882385
7.81925e-06	-0.0011048050685356769
7.81950e-06	-0.0010997745790490663
7.81975e-06	-0.001091758267829535
7.82000e-06	-0.0010817380746266933
7.82025e-06	-0.0010697637254333536
7.82050e-06	-0.001055925397367762
7.82075e-06	-0.0010403664306506374
7.82100e-06	-0.0010232294405066033
7.82125e-06	-0.0010046300767323805
7.82150e-06	-0.0009846763727467396
7.82175e-06	-0.0009634763438464278
7.82200e-06	-0.0009411380119253514
7.82225e-06	-0.0009177733203116352
7.82250e-06	-0.0008935197556713364
7.82275e-06	-0.0008685481157610165
7.82300e-06	-0.0008430284915205102
7.82325e-06	-0.0008171143787225564
7.82350e-06	-0.0007909542590691055
7.82375e-06	-0.0007646965681363486
7.82400e-06	-0.0007384899023998039
7.82425e-06	-0.0007124853437556735
7.82450e-06	-0.0006868497390800138
7.82475e-06	-0.000661770852563441
7.82500e-06	-0.000637436151260141
7.82525e-06	-0.0006140225271379657
7.82550e-06	-0.0005917038283581484
7.82575e-06	-0.0005706537586619305
7.82600e-06	-0.0005510471167974902
7.82625e-06	-0.0005330801054363857
7.82650e-06	-0.0005170706690299074
7.82675e-06	-0.0005034121527468945
7.82700e-06	-0.0004923238049634139
7.82725e-06	-0.00048383821160952883
7.82750e-06	-0.00047794889653322826
7.82775e-06	-0.0004746492652464297
7.82800e-06	-0.00047393343770419326
7.82825e-06	-0.0004758088640218481
7.82850e-06	-0.00048035935556858274
7.82875e-06	-0.0004877158653596175
7.82900e-06	-0.0004979002555503155
7.82925e-06	-0.000510947545077601
7.82950e-06	-0.0005274712157154692
7.82975e-06	-0.0005444904582094694
7.83000e-06	-0.0005657894271411295
7.83025e-06	-0.0005875479201336743
7.83050e-06	-0.0006132748331425132
7.83075e-06	-0.0006394301395359977
7.83100e-06	-0.0006692850234412956
7.83125e-06	-0.0006994970085527669
7.83150e-06	-0.0007327928965408276
7.83175e-06	-0.0007663670336371776
7.83200e-06	-0.0008023441120060649
7.83225e-06	-0.0008385289718584928
7.83250e-06	-0.0008765082191395633
7.83275e-06	-0.0009146278670701012
7.83300e-06	-0.0009539600059102103
7.83325e-06	-0.000993340017188255
7.83350e-06	-0.0010331334517411034
7.83375e-06	-0.0010728775157655699
7.83400e-06	-0.001112195219105506
7.83425e-06	-0.0011513715643477528
7.83450e-06	-0.0011893271502149193
7.83475e-06	-0.0012270513475966427
7.83500e-06	-0.0012627772890125189
7.83525e-06	-0.0012981660574463397
7.83550e-06	-0.0013306430218527887
7.83575e-06	-0.0013626753917546002
7.83600e-06	-0.001390868272318038
7.83625e-06	-0.0014186208533043493
7.83650e-06	-0.0014425710356714655
7.83675e-06	-0.0014661743316331498
7.83700e-06	-0.0014867819390721705
7.83725e-06	-0.0015073895465113308
7.83750e-06	-0.001527517885906866
7.83775e-06	-0.0015435072975291519
7.83800e-06	-0.0015594967091513293
7.83825e-06	-0.001575060536308335
7.83850e-06	-0.0015869490435962844
7.83875e-06	-0.001598558747039452
7.83900e-06	-0.0016077607185430475
7.83925e-06	-0.0016169626900466429
7.83950e-06	-0.0016258096463947645
7.83975e-06	-0.0016315907148613683
7.84000e-06	-0.001637371783327972
7.84025e-06	-0.001642856459485205
7.84050e-06	-0.0016457815108614285
7.84075e-06	-0.0016485534308423573
7.84100e-06	-0.0016500029180144195
7.84125e-06	-0.0016513092771675514
7.84150e-06	-0.001651379592021935
7.84175e-06	-0.0016512995723187353
7.84200e-06	-0.0016499212731159608
7.84225e-06	-0.0016484128998171261
7.84250e-06	-0.0016457812150519153
7.84275e-06	-0.0016430788663394577
7.84300e-06	-0.0016397662683568723
7.84325e-06	-0.001636398748455334
7.84350e-06	-0.0016325569264197233
7.84375e-06	-0.0016286651660312563
7.84400e-06	-0.0016243421412629033
7.84425e-06	-0.001619991359541411
7.84450e-06	-0.0016154008705711314
7.84475e-06	-0.0016108293131114467
7.84500e-06	-0.0016064212469504699
7.84525e-06	-0.0016020403276332943
7.84550e-06	-0.0015979161005884653
7.84575e-06	-0.0015940094275604946
7.84600e-06	-0.0015903472629524775
7.84625e-06	-0.0015868863180932438
7.84650e-06	-0.0015831579312947633
7.84675e-06	-0.0015783094475452899
7.84700e-06	-0.0015718466171051669
7.84725e-06	-0.0015637722916338266
7.84750e-06	-0.0015542024811985521
7.84775e-06	-0.0015432536692110562
7.84800e-06	-0.0015310400128904504
7.84825e-06	-0.0015176318445458217
7.84850e-06	-0.001502833004107372
7.84875e-06	-0.0014861052851749756
7.84900e-06	-0.0014666641010528602
7.84925e-06	-0.0014469358212376138
7.84950e-06	-0.0014245603671899842
7.84975e-06	-0.0014005184942650155
7.85000e-06	-0.0013746025227735297
7.85025e-06	-0.0013484083233164697
7.85050e-06	-0.0013198113651709704
7.85075e-06	-0.0012909773704989286
7.85100e-06	-0.0012599523700244795
7.85125e-06	-0.0012275612509681753
7.85150e-06	-0.0011940082859759138
7.85175e-06	-0.0011594974588545197
7.85200e-06	-0.0011242322009515425
7.85225e-06	-0.001088398618154988
7.85250e-06	-0.0010520780831488183
7.85275e-06	-0.0010152579619556255
7.85300e-06	-0.000978013322206335
7.85325e-06	-0.0009405418652642288
7.85350e-06	-0.0009030687043162943
7.85375e-06	-0.0008658191491368092
7.85400e-06	-0.0008290179339925696
7.85425e-06	-0.0007928790008418618
7.85450e-06	-0.0007575507695534054
7.85475e-06	-0.0007231226099926162
7.85500e-06	-0.0006897389467325167
7.85525e-06	-0.0006576207405372905
7.85550e-06	-0.0006270065544058179
7.85575e-06	-0.0005981346965427487
7.85600e-06	-0.0005712402895113385
7.85625e-06	-0.000546483002502082
7.85650e-06	-0.00052355571235436
7.85675e-06	-0.0005016917420273507
7.85700e-06	-0.0004804367952857785
7.85725e-06	-0.00045983131634860634
7.85750e-06	-0.00044003279510318867
7.85775e-06	-0.00042119879062672925
7.85800e-06	-0.0004034847480346932
7.85825e-06	-0.00038699879085322655
7.85850e-06	-0.00037155670645706336
7.85875e-06	-0.0003566864076575475
7.85900e-06	-0.0003421116012620259
7.85925e-06	-0.0003278657696839828
7.85950e-06	-0.0003140890181765124
7.85975e-06	-0.00030107493479756414
7.86000e-06	-0.000288170068535223
7.86025e-06	-0.00027627566027872496
7.86050e-06	-0.000264998374303199
7.86075e-06	-0.00025405069987804833
7.86100e-06	-0.00024328138233304899
7.86125e-06	-0.00023279609440269824
7.86150e-06	-0.0002224043724227021
7.86175e-06	-0.00021282067992953944
7.86200e-06	-0.0002032369874363118
7.86225e-06	-0.0001937589961286089
7.86250e-06	-0.00018519383341269918
7.86275e-06	-0.00017666589491523708
7.86300e-06	-0.00016845942235773335
7.86325e-06	-0.00016031609888201773
7.86350e-06	-0.00015271812678643566
7.86375e-06	-0.0001451201546908021
7.86400e-06	-0.0001376141666408076
7.86425e-06	-0.00013090254685114096
7.86450e-06	-0.00012424763022764887
7.86475e-06	-0.00011808239847497384
7.86500e-06	-0.00011196493382596172
7.86525e-06	-0.00010625998278993875
7.86550e-06	-0.00010060120864689634
7.86575e-06	-9.537793498202434e-05
7.86600e-06	-9.051399420101671e-05
7.86625e-06	-8.607710820725275e-05
7.86650e-06	-8.227717999652708e-05
7.86675e-06	-7.944214116472635e-05
7.86700e-06	-7.775958381003374e-05
7.86725e-06	-7.723827484440483e-05
7.86750e-06	-7.784713789778346e-05
7.86775e-06	-7.955508932417122e-05
7.86800e-06	-8.233169814651533e-05
7.86825e-06	-8.616143060459287e-05
7.86850e-06	-9.111781081269596e-05
7.86875e-06	-9.734827715276309e-05
7.86900e-06	-0.00010491234241524239
7.86925e-06	-0.00011375751016290702
7.86950e-06	-0.0001238063335926651
7.86975e-06	-0.00013498135437007034
7.87000e-06	-0.00014720553947904282
7.87025e-06	-0.0001604111806242989
7.87050e-06	-0.00017458634673767933
7.87075e-06	-0.00018981230819418573
7.87100e-06	-0.00020633255185601758
7.87125e-06	-0.00022301820083219371
7.87150e-06	-0.0002411322793893125
7.87175e-06	-0.0002593902037999479
7.87200e-06	-0.00027889037168499014
7.87225e-06	-0.0002983905395701645
7.87250e-06	-0.0003179911288293744
7.87275e-06	-0.0003384589505707124
7.87300e-06	-0.0003589673340097936
7.87325e-06	-0.00037982600564238895
7.87350e-06	-0.0004006740728502344
7.87375e-06	-0.0004214305609340962
7.87400e-06	-0.00044212617702320994
7.87425e-06	-0.00046229610650791
7.87450e-06	-0.0004823656458289428
7.87475e-06	-0.0005015682221970587
7.87500e-06	-0.0005206237456105981
7.87525e-06	-0.0005384093292333517
7.87550e-06	-0.0005559917827015826
7.87575e-06	-0.0005718200173106917
7.87600e-06	-0.0005874636304278847
7.87625e-06	-0.0006014181584185169
7.87650e-06	-0.0006145421875452085
7.87675e-06	-0.0006276153957469387
7.87700e-06	-0.0006411912849171085
7.87725e-06	-0.000654816278825218
7.87750e-06	-0.0006688653380709534
7.87775e-06	-0.0006829100419819465
7.87800e-06	-0.0006969171335040684
7.87825e-06	-0.0007109418155044668
7.87850e-06	-0.0007251184077352636
7.87875e-06	-0.0007394595200678668
7.87900e-06	-0.0007552214173461956
7.87925e-06	-0.0007709833146245243
7.87950e-06	-0.0007868881430955926
7.87975e-06	-0.0008040273160919869
7.88000e-06	-0.0008211664890883812
7.88025e-06	-0.0008383056620847756
7.88050e-06	-0.0008556029319199553
7.88075e-06	-0.0008742655158177769
7.88100e-06	-0.0008929280997155985
7.88125e-06	-0.0009115906836132937
7.88150e-06	-0.00093035799237059
7.88175e-06	-0.0009500296982324764
7.88200e-06	-0.0009697014040942294
7.88225e-06	-0.0009893853040879648
7.88250e-06	-0.0010091745118146818
7.88275e-06	-0.0010289637195412646
7.88300e-06	-0.0010487505552918726
7.88325e-06	-0.0010685169068104042
7.88350e-06	-0.001088283258328802
7.88375e-06	-0.001107941844005775
7.88400e-06	-0.0011266697708536104
7.88425e-06	-0.001145397697701319
7.88450e-06	-0.0011639591311565064
7.88475e-06	-0.0011810827384542448
7.88500e-06	-0.0011982063457518673
7.88525e-06	-0.0012151864303729689
7.88550e-06	-0.001230834156698982
7.88575e-06	-0.001245573758375733
7.88600e-06	-0.001259279787955046
7.88625e-06	-0.0012717990366209568
7.88650e-06	-0.0012828141444984592
7.88675e-06	-0.0012917710110284947
7.88700e-06	-0.0012977730357759461
7.88725e-06	-0.0013033199431448483
7.88750e-06	-0.0013049364863037425
7.88775e-06	-0.0013061078429721861
7.88800e-06	-0.0013034345979370833
7.88825e-06	-0.0013001705174133476
7.88850e-06	-0.001291804019869378
7.88875e-06	-0.001283437522325465
7.88900e-06	-0.001274570610310822
7.88925e-06	-0.0012611473981851775
7.88950e-06	-0.001245474406696814
7.88975e-06	-0.0012276699939840448
7.89000e-06	-0.0012078517460907998
7.89025e-06	-0.001186126555046892
7.89050e-06	-0.0011625368078263545
7.89075e-06	-0.0011370772375198148
7.89100e-06	-0.0011098175762468195
7.89125e-06	-0.0010809152527668296
7.89150e-06	-0.001050547101953299
7.89175e-06	-0.0010188899103547888
7.89200e-06	-0.0009861198055566465
7.89225e-06	-0.0009524065697807943
7.89250e-06	-0.0009178792206797596
