Time(s)	Current(A)
3.00000e-06	-0.0030532897647723533
3.00025e-06	-0.0030557638813994816
3.00050e-06	-0.0030582379980266094
3.00075e-06	-0.0030648996101806866
3.00100e-06	-0.003073633525893589
3.00125e-06	-0.003082367441606492
3.00150e-06	-0.00309110135731938
3.00175e-06	-0.0030998352730322826
3.00200e-06	-0.003108569188745185
3.00225e-06	-0.0031173031044580877
3.00250e-06	-0.0031260370201709755
3.00275e-06	-0.003135139526760352
3.00300e-06	-0.003146055092996134
3.00325e-06	-0.003156970659231897
3.00350e-06	-0.0031678862254676788
3.00375e-06	-0.003178801791703461
3.00400e-06	-0.0031897173579392424
3.00425e-06	-0.0032006329241750058
3.00450e-06	-0.0032115484904107878
3.00475e-06	-0.0032224640566465694
3.00500e-06	-0.0032315809745960124
3.00525e-06	-0.003239807779297362
3.00550e-06	-0.003248034583998711
3.00575e-06	-0.0032562613887000464
3.00600e-06	-0.003264488193401396
3.00625e-06	-0.003272714998102745
3.00650e-06	-0.0032809418028040944
3.00675e-06	-0.00328475563682899
3.00700e-06	-0.0032863855843806495
3.00725e-06	-0.003288015531932309
3.00750e-06	-0.003289645479483966
3.00775e-06	-0.0032912754270356254
3.00800e-06	-0.003292905374587285
3.00825e-06	-0.0032945353221389448
3.00850e-06	-0.003290658739309017
3.00875e-06	-0.0032840570902829404
3.00900e-06	-0.0032774554412568634
3.00925e-06	-0.003270853792230798
3.00950e-06	-0.003264252143204721
3.00975e-06	-0.0032576504941786446
3.01000e-06	-0.003251048845152579
3.01025e-06	-0.0032432827100918583
3.01050e-06	-0.003229788591043738
3.01075e-06	-0.003216294471995618
3.01100e-06	-0.0032028003529475206
3.01125e-06	-0.0031893062338994005
3.01150e-06	-0.0031758121148512805
3.01175e-06	-0.0031623179958031834
3.01200e-06	-0.0031488238767550633
3.01225e-06	-0.003133109599211118
3.01250e-06	-0.003116296611872082
3.01275e-06	-0.0030994836245330747
3.01300e-06	-0.0030826706371940384
3.01325e-06	-0.0030658576498550027
3.01350e-06	-0.003049044662515995
3.01375e-06	-0.0030323499580474688
3.01400e-06	-0.003016237074543846
3.01425e-06	-0.0030001241910402507
3.01450e-06	-0.0029840113075366285
3.01475e-06	-0.002967898424033006
3.01500e-06	-0.002951785540529383
3.01525e-06	-0.002935672657025788
3.01550e-06	-0.0029212452156557565
3.01575e-06	-0.0029076518641873127
3.01600e-06	-0.0028954038999460066
3.01625e-06	-0.002883821739577445
3.01650e-06	-0.0028745638688118277
3.01675e-06	-0.0028664562401385127
3.01700e-06	-0.002861396292012385
3.01725e-06	-0.002857844576958764
3.01750e-06	-0.0028580005163055013
3.01775e-06	-0.0028599912959189552
3.01800e-06	-0.0028619820755324127
3.01825e-06	-0.0028685474520719766
3.01850e-06	-0.0028773767005201793
3.01875e-06	-0.0028862059489683975
3.01900e-06	-0.0029021839363818215
3.01925e-06	-0.002921699684517567
3.01950e-06	-0.002941215432653279
3.01975e-06	-0.0029607311807890247
3.02000e-06	-0.00298024692892477
3.02025e-06	-0.0029997626770604828
3.02050e-06	-0.0030269113976516874
3.02075e-06	-0.0030578375159460856
3.02100e-06	-0.0030887636342404835
3.02125e-06	-0.003119689752534829
3.02150e-06	-0.003150615870829227
3.02175e-06	-0.003181541989123625
3.02200e-06	-0.0032159375388773554
3.02225e-06	-0.003252050037369358
3.02250e-06	-0.0032891961851242314
3.02275e-06	-0.003326853864182779
3.02300e-06	-0.0033651267643049526
3.02325e-06	-0.003403704124405997
3.02350e-06	-0.0034422855340634087
3.02375e-06	-0.0034808689477611224
3.02400e-06	-0.003518840489066953
3.02425e-06	-0.0035565092275811378
3.02450e-06	-0.003593048607125166
3.02475e-06	-0.0036290290906422166
3.02500e-06	-0.0036633232454364438
3.02525e-06	-0.003696782871574654
3.02550e-06	-0.003727486618852413
3.02575e-06	-0.0037568265395818215
3.02600e-06	-0.003785299869590267
3.02625e-06	-0.003809510531239922
3.02650e-06	-0.003833721192889618
3.02675e-06	-0.003856144286907311
3.02700e-06	-0.003877682751259763
3.02725e-06	-0.0038992212156122516
3.02750e-06	-0.003918253333383269
3.02775e-06	-0.0039360451128881545
3.02800e-06	-0.003953836892393009
3.02825e-06	-0.003971628671897895
3.02850e-06	-0.003988861553492519
3.02875e-06	-0.004003345275212339
3.02900e-06	-0.004017828996932185
3.02925e-06	-0.00403231271865203
3.02950e-06	-0.0040467964403718745
3.02975e-06	-0.0040592286914474295
3.03000e-06	-0.004070645712801471
3.03025e-06	-0.004082062734155512
3.03050e-06	-0.004093479755509533
3.03075e-06	-0.004104896776863574
3.03100e-06	-0.004116313798217614
3.03125e-06	-0.004127730819571636
3.03150e-06	-0.004138699264511722
3.03175e-06	-0.004147461209381875
3.03200e-06	-0.004156223154252028
3.03225e-06	-0.004164985099122167
3.03250e-06	-0.0041737470439923196
3.03275e-06	-0.0041825089888624725
3.03300e-06	-0.004191270933732611
3.03325e-06	-0.004200032878602764
3.03350e-06	-0.004206651009098852
3.03375e-06	-0.004212208210901584
3.03400e-06	-0.0042177654127043065
3.03425e-06	-0.004223322614507039
3.03450e-06	-0.00422887981630977
3.03475e-06	-0.004234437018112493
3.03500e-06	-0.004239994219915225
3.03525e-06	-0.004245551421717958
3.03550e-06	-0.0042511086235206795
3.03575e-06	-0.004256665825323412
3.03600e-06	-0.004262223027126144
3.03625e-06	-0.0042677802289288755
3.03650e-06	-0.004273337430731598
3.03675e-06	-0.00427554818937675
3.03700e-06	-0.004276102863610132
3.03725e-06	-0.0042766575378435125
3.03750e-06	-0.004277212212076894
3.03775e-06	-0.004277766886310276
3.03800e-06	-0.004278321560543657
3.03825e-06	-0.004278876234777038
3.03850e-06	-0.00427943090901042
3.03875e-06	-0.004279985583243801
3.03900e-06	-0.004280540257477182
3.03925e-06	-0.004281094931710564
3.03950e-06	-0.004281649605943945
3.03975e-06	-0.004282204280177326
3.04000e-06	-0.0042799512140721105
3.04025e-06	-0.00427630865626236
3.04050e-06	-0.00427266609845261
3.04075e-06	-0.004269023540642866
3.04100e-06	-0.004265380982833116
3.04125e-06	-0.004261738425023366
3.04150e-06	-0.004258095867213621
3.04175e-06	-0.0042544533094038715
3.04200e-06	-0.004250810751594121
3.04225e-06	-0.0042471681937843704
3.04250e-06	-0.004243525635974627
3.04275e-06	-0.004239883078164876
3.04300e-06	-0.004235571305206695
3.04325e-06	-0.004230928351731386
3.04350e-06	-0.004226285398256069
3.04375e-06	-0.004221642444780753
3.04400e-06	-0.004216999491305445
3.04425e-06	-0.004212356537830128
3.04450e-06	-0.004207713584354812
3.04475e-06	-0.004203070630879496
3.04500e-06	-0.004198427677404188
3.04525e-06	-0.004193784723928871
3.04550e-06	-0.004189141770453555
3.04575e-06	-0.004184498816978246
3.04600e-06	-0.0041804544710018696
3.04625e-06	-0.00417670636330033
3.04650e-06	-0.00417295825559879
3.04675e-06	-0.004167404564931247
3.04700e-06	-0.004160957329188043
3.04725e-06	-0.00415451009344484
3.04750e-06	-0.004148062857701646
3.04775e-06	-0.004141615621958442
3.04800e-06	-0.0041351683862152384
3.04825e-06	-0.004128721150472045
3.04850e-06	-0.004121449582270692
3.04875e-06	-0.004110123209647247
3.04900e-06	-0.004098796837023802
3.04925e-06	-0.004087470464400376
3.04950e-06	-0.004076144091776931
3.04975e-06	-0.004064817719153487
3.05000e-06	-0.004053491346530061
3.05025e-06	-0.004042164973906616
3.05050e-06	-0.004027793946909249
3.05075e-06	-0.004011916184428557
3.05100e-06	-0.003996038421947892
3.05125e-06	-0.0039801606594671995
3.05150e-06	-0.003964282896986507
3.05175e-06	-0.0039484051345058425
3.05200e-06	-0.00393252737202515
3.05225e-06	-0.003916649609544458
3.05250e-06	-0.0039005562256125156
3.05275e-06	-0.003883402222502512
3.05300e-06	-0.003866248219392508
3.05325e-06	-0.0038490942162825044
3.05350e-06	-0.0038319402131725294
3.05375e-06	-0.0038147862100625257
3.05400e-06	-0.003797632206952522
3.05425e-06	-0.0037804782038425473
3.05450e-06	-0.0037633242007325436
3.05475e-06	-0.0037486891007043857
3.05500e-06	-0.003735300552890866
3.05525e-06	-0.0037219120050773686
3.05550e-06	-0.0037085234572638488
3.05575e-06	-0.003695134909450329
3.05600e-06	-0.0036817463616368317
3.05625e-06	-0.003668357813823312
3.05650e-06	-0.003654969266009792
3.05675e-06	-0.003644005978035693
3.05700e-06	-0.003634242900202934
3.05725e-06	-0.0036244798223701758
3.05750e-06	-0.0036147167445374174
3.05775e-06	-0.0036049536667046756
3.05800e-06	-0.0035951905888719172
3.05825e-06	-0.0035854275110391584
3.05850e-06	-0.0035756644332064166
3.05875e-06	-0.0035659013553736582
3.05900e-06	-0.0035561382775409
3.05925e-06	-0.0035469984420082937
3.05950e-06	-0.003538167035996131
3.05975e-06	-0.0035293356299839537
3.06000e-06	-0.0035205042239717763
3.06025e-06	-0.0035116728179596136
3.06050e-06	-0.0035028414119474363
3.06075e-06	-0.003494010005935259
3.06100e-06	-0.0034851785999230962
3.06125e-06	-0.003476347193910919
3.06150e-06	-0.003467515787898741
3.06175e-06	-0.00345886502325098
3.06200e-06	-0.0034503036542193268
3.06225e-06	-0.003441742285187659
3.06250e-06	-0.0034331809161559914
3.06275e-06	-0.003424619547124338
3.06300e-06	-0.0034163751960553626
3.06325e-06	-0.003408287730515788
3.06350e-06	-0.0034002002649762136
3.06375e-06	-0.0033921127994366524
3.06400e-06	-0.003384025333897078
3.06425e-06	-0.0033763322951476772
3.06450e-06	-0.0033691626642486402
3.06475e-06	-0.0033621554597202726
3.06500e-06	-0.0033551482551919054
3.06525e-06	-0.003348313997917402
3.06550e-06	-0.003342330449944622
3.06575e-06	-0.0033363469019718423
3.06600e-06	-0.0033303633539990625
3.06625e-06	-0.0033244723450643766
3.06650e-06	-0.003318627131755446
3.06675e-06	-0.003310057241937412
3.06700e-06	-0.003300138966958632
3.06725e-06	-0.0032902206919798354
3.06750e-06	-0.003276994292870722
3.06775e-06	-0.0032621307726309317
3.06800e-06	-0.003247267252391167
3.06825e-06	-0.0032291145578681713
3.06850e-06	-0.0032093341200956985
3.06875e-06	-0.0031895536823232594
3.06900e-06	-0.003164419229165218
3.06925e-06	-0.003136635186277006
3.06950e-06	-0.0031088511433888404
3.06975e-06	-0.0030810671005006285
3.07000e-06	-0.003051986392782249
3.07025e-06	-0.0030165275275171907
3.07050e-06	-0.0029810686622521927
3.07075e-06	-0.0029456097969871343
3.07100e-06	-0.0029101509317220765
3.07125e-06	-0.0028709716663381938
3.07150e-06	-0.0028299512530983967
3.07175e-06	-0.0027889308398585996
3.07200e-06	-0.0027465269320281222
3.07225e-06	-0.0027034383617910358
3.07250e-06	-0.0026597752218062392
3.07275e-06	-0.0026154544013780195
3.07300e-06	-0.002570701177896588
3.07325e-06	-0.002525757803197843
3.07350e-06	-0.0024808928064972515
3.07375e-06	-0.00243637503170505
3.07400e-06	-0.0023924728522843114
3.07425e-06	-0.00234941874481166
3.07450e-06	-0.0023073597040259544
3.07475e-06	-0.0022664167503069536
3.07500e-06	-0.0022267875728941245
3.07525e-06	-0.0021887394204698797
3.07550e-06	-0.0021525556463323895
3.07575e-06	-0.002118520151305053
3.07600e-06	-0.002086916598595163
3.07625e-06	-0.002058090955467616
3.07650e-06	-0.002032507395948449
3.07675e-06	-0.0020105905536090462
3.07700e-06	-0.001992544395348315
3.07725e-06	-0.0019784127607634814
3.07750e-06	-0.0019682042645883004
3.07775e-06	-0.0019619273658044696
3.07800e-06	-0.001959590913571658
3.07825e-06	-0.0019626334816825637
3.07850e-06	-0.001967691960246592
3.07875e-06	-0.001978353467301075
3.07900e-06	-0.001991787795439892
3.07925e-06	-0.0020117687506201083
3.07950e-06	-0.0020349894939832107
3.07975e-06	-0.0020582102373462737
3.08000e-06	-0.002087350757192067
3.08025e-06	-0.002119420850048951
3.08050e-06	-0.002155855897413038
3.08075e-06	-0.0021944510690583216
3.08100e-06	-0.0022360533478105317
3.08125e-06	-0.002280915461603458
3.08150e-06	-0.0023282444169400165
3.08175e-06	-0.002377768577537699
3.08200e-06	-0.0024292162300352835
3.08225e-06	-0.002482331080536163
3.08250e-06	-0.0025368858039601073
3.08275e-06	-0.0025926435429481183
3.08300e-06	-0.0026493131076500524
3.08325e-06	-0.002706563896607286
3.08350e-06	-0.002764056987076546
3.08375e-06	-0.0028214529874625465
3.08400e-06	-0.00287841313236911
3.08425e-06	-0.002934607996744773
3.08450e-06	-0.002989726255201681
3.08475e-06	-0.0030434505935800693
3.08500e-06	-0.0030954296533995456
3.08525e-06	-0.0031452879208155146
3.08550e-06	-0.003189435989437284
3.08575e-06	-0.0032311262952439096
3.08600e-06	-0.003272816601050606
3.08625e-06	-0.0033145069068573024
3.08650e-06	-0.003350567005420296
3.08675e-06	-0.0033838408327048707
3.08700e-06	-0.0034141999139181744
3.08725e-06	-0.0034431165485374103
3.08750e-06	-0.0034720331831565973
3.08775e-06	-0.0034964983169806668
3.08800e-06	-0.0035187604965838458
3.08825e-06	-0.0035410226761869875
3.08850e-06	-0.0035595042834172053
3.08875e-06	-0.0035761149648069744
3.08900e-06	-0.0035927256461967152
3.08925e-06	-0.003603377914182827
3.08950e-06	-0.003611081488557148
3.08975e-06	-0.003618785062931469
3.09000e-06	-0.0036264886373057765
3.09025e-06	-0.003634192211680097
3.09050e-06	-0.0036418957860544178
3.09075e-06	-0.0036495993604287254
3.09100e-06	-0.0036573029348030465
3.09125e-06	-0.003665006509177367
3.09150e-06	-0.0036727100835516877
3.09175e-06	-0.00367447624510633
3.09200e-06	-0.003673304105796983
3.09225e-06	-0.003672131966487636
3.09250e-06	-0.003670959827178291
3.09275e-06	-0.0036697876878689435
3.09300e-06	-0.0036686155485595967
3.09325e-06	-0.0036674434092502516
3.09350e-06	-0.0036662712699409047
3.09375e-06	-0.0036650991306315574
3.09400e-06	-0.00366392699132221
3.09425e-06	-0.0036611493119398666
3.09450e-06	-0.003657577084506543
3.09475e-06	-0.003654004857073219
3.09500e-06	-0.0036504326296399013
3.09525e-06	-0.0036468604022065775
3.09550e-06	-0.0036436495198029235
3.09575e-06	-0.0036406174594628767
3.09600e-06	-0.003637585399122835
3.09625e-06	-0.003634553338782788
3.09650e-06	-0.003631521278442741
3.09675e-06	-0.0036278213216560514
3.09700e-06	-0.003623790836949888
3.09725e-06	-0.0036197603522437247
3.09750e-06	-0.003615729867537568
3.09775e-06	-0.0036116993828314045
3.09800e-06	-0.0036076688981252414
3.09825e-06	-0.0036036384134190778
3.09850e-06	-0.003599607928712921
3.09875e-06	-0.003595577444006758
3.09900e-06	-0.0035915469593005944
3.09925e-06	-0.003585981334501381
3.09950e-06	-0.003579656001122172
3.09975e-06	-0.003573330667742963
3.10000e-06	-0.003567005334363754
3.10025e-06	-0.0035606800009845554
3.10050e-06	-0.0035543546676053465
3.10075e-06	-0.0035480293342261375
3.10100e-06	-0.003541704000846939
3.10125e-06	-0.00353537866746773
3.10150e-06	-0.003529053334088521
3.10175e-06	-0.0035219354184221475
3.10200e-06	-0.003514425270433351
3.10225e-06	-0.003506915122444554
3.10250e-06	-0.003499404974455757
3.10275e-06	-0.003491894826466973
3.10300e-06	-0.0034843846784781765
3.10325e-06	-0.00347687453048938
3.10350e-06	-0.003469364382500596
3.10375e-06	-0.0034618542345117988
3.10400e-06	-0.003454344086523002
3.10425e-06	-0.0034468339385342055
3.10450e-06	-0.0034393237905454214
3.10475e-06	-0.003432263684398883
3.10500e-06	-0.0034274172866115508
3.10525e-06	-0.0034225708888242267
3.10550e-06	-0.0034177244910368948
3.10575e-06	-0.0034128780932495624
3.10600e-06	-0.0034080316954622383
3.10625e-06	-0.003403185297674906
3.10650e-06	-0.003398338899887574
3.10675e-06	-0.0033934925021002417
3.10700e-06	-0.0033886461043129176
3.10725e-06	-0.0033837997065255857
3.10750e-06	-0.0033789533087382534
3.10775e-06	-0.0033741069109509293
3.10800e-06	-0.0033727136508687272
3.10825e-06	-0.0033730292760892643
3.10850e-06	-0.003373344901309802
3.10875e-06	-0.0033736605265303385
3.10900e-06	-0.0033739761517508756
3.10925e-06	-0.0033742917769714127
3.10950e-06	-0.00337460740219195
3.10975e-06	-0.003374923027412487
3.11000e-06	-0.003375238652633024
3.11025e-06	-0.0033755542778535607
3.11050e-06	-0.0033758699030740982
3.11075e-06	-0.0033761855282946353
3.11100e-06	-0.003377056863566946
3.11125e-06	-0.003380661677977151
3.11150e-06	-0.0033842664923873617
3.11175e-06	-0.003387871306797573
3.11200e-06	-0.0033914761212077774
3.11225e-06	-0.0033950809356179884
3.11250e-06	-0.003398685750028199
3.11275e-06	-0.00340229056443841
3.11300e-06	-0.0034058953788486147
3.11325e-06	-0.003409500193258826
3.11350e-06	-0.0034131050076690365
3.11375e-06	-0.0034167098220792415
3.11400e-06	-0.003420314636489452
3.11425e-06	-0.0034234148304890556
3.11450e-06	-0.0034262652984490905
3.11475e-06	-0.00342911576640913
3.11500e-06	-0.00343196623436917
3.11525e-06	-0.00343481670232921
3.11550e-06	-0.0034376671702892447
3.11575e-06	-0.0034405176382492847
3.11600e-06	-0.0034433681062093244
3.11625e-06	-0.0034462185741693592
3.11650e-06	-0.003449069042129399
3.11675e-06	-0.003451919510089439
3.11700e-06	-0.0034547699780494785
3.11725e-06	-0.0034576204460095134
3.11750e-06	-0.0034604709139695535
3.11775e-06	-0.003463321381929593
3.11800e-06	-0.003465236267383695
3.11825e-06	-0.003466688152711392
3.11850e-06	-0.0034681400380390886
3.11875e-06	-0.003469591923366783
3.11900e-06	-0.00347104380869448
3.11925e-06	-0.003472495694022177
3.11950e-06	-0.0034739475793498734
3.11975e-06	-0.003475399464677568
3.12000e-06	-0.0034768513500052648
3.12025e-06	-0.0034783032353329613
3.12050e-06	-0.0034797551206606557
3.12075e-06	-0.0034812070059883527
3.12100e-06	-0.003482658891316049
3.12125e-06	-0.003484110776643746
3.12150e-06	-0.0034855626619714405
3.12175e-06	-0.0034866858375404166
3.12200e-06	-0.0034876463415557035
3.12225e-06	-0.0034886068455709887
3.12250e-06	-0.003489567349586275
3.12275e-06	-0.003490527853601562
3.12300e-06	-0.003491488357616847
3.12325e-06	-0.0034924488616321337
3.12350e-06	-0.0034934093656474206
3.12375e-06	-0.0034943698696627075
3.12400e-06	-0.0034953303736779927
3.12425e-06	-0.003496290877693279
3.12450e-06	-0.003497251381708566
3.12475e-06	-0.0034982118857238512
3.12500e-06	-0.003499172389739138
3.12525e-06	-0.0035001328937544246
3.12550e-06	-0.003500801466289586
3.12575e-06	-0.0035013255680684504
3.12600e-06	-0.0035017621371289283
3.12625e-06	-0.0035013235157570436
3.12650e-06	-0.00350047321824642
3.12675e-06	-0.00349652173931976
3.12700e-06	-0.0034910355508633397
3.12725e-06	-0.0034813270768859973
3.12750e-06	-0.0034695290825107615
3.12775e-06	-0.003457731088135526
3.12800e-06	-0.0034413281770800924
3.12825e-06	-0.0034226463895048395
3.12850e-06	-0.003403964601929555
3.12875e-06	-0.0033779402591238325
3.12900e-06	-0.0033482822399951043
3.12925e-06	-0.0033186242208663257
3.12950e-06	-0.003288966201737547
3.12975e-06	-0.003257410826655971
3.13000e-06	-0.0032165225577415603
3.13025e-06	-0.0031756342888270804
3.13050e-06	-0.0031347460199126005
3.13075e-06	-0.00309385775099819
3.13100e-06	-0.0030474670348828513
3.13125e-06	-0.0029983532732492167
3.13150e-06	-0.0029492395116156654
3.13175e-06	-0.002897630678127597
3.13200e-06	-0.0028447870859979493
3.13225e-06	-0.002790985851663677
3.13250e-06	-0.002736144852695464
3.13275e-06	-0.0026805009675971176
3.13300e-06	-0.0026242430593607364
3.13325e-06	-0.002567679593565464
3.13350e-06	-0.0025111475532309507
3.13375e-06	-0.002454983688546492
3.13400e-06	-0.0023995246726228113
3.13425e-06	-0.0023450688635374083
3.13450e-06	-0.0022918255695869067
3.13475e-06	-0.002239978914636385
3.13500e-06	-0.0021897965349349114
3.13525e-06	-0.002141620735686466
3.13550e-06	-0.002095811940322729
3.13575e-06	-0.0020527303362542866
3.13600e-06	-0.0020127360354082486
3.13625e-06	-0.00197597039499446
3.13650e-06	-0.0019420292806288963
3.13675e-06	-0.0019102629172386995
3.13700e-06	-0.001880385205261188
3.13725e-06	-0.001852486430556918
3.13750e-06	-0.0018267506850865867
3.13775e-06	-0.0018042285482614692
3.13800e-06	-0.0017829324024013634
3.13825e-06	-0.0017649383971918944
3.13850e-06	-0.001748578552015583
3.13875e-06	-0.0017351322068928094
3.13900e-06	-0.0017231276917366596
3.13925e-06	-0.0017111231765805299
3.13950e-06	-0.0017037385666547123
3.13975e-06	-0.0016986402507675556
3.14000e-06	-0.0016935419348804077
3.14025e-06	-0.0016884436189932512
3.14050e-06	-0.0016833453031060944
3.14075e-06	-0.0016828026914056605
3.14100e-06	-0.0016845146019961882
3.14125e-06	-0.0016862265125867188
3.14150e-06	-0.0016879384231772493
3.14175e-06	-0.001689650333767777
3.14200e-06	-0.0016941348250420554
3.14225e-06	-0.0016999914082474175
3.14250e-06	-0.0017058479914527796
3.14275e-06	-0.001712902776086124
3.14300e-06	-0.0017205505254331156
3.14325e-06	-0.0017281982747801069
3.14350e-06	-0.0017365336699485558
3.14375e-06	-0.001745209366587279
3.14400e-06	-0.0017538850632260023
3.14425e-06	-0.0017628594016673943
3.14450e-06	-0.0017719815316627702
