Time(s)	Current(A)
4.75000e-06	0.0010195728909248626
4.75025e-06	0.0010189961592974607
4.75050e-06	0.0010184194276700567
4.75075e-06	0.0010178426960426546
4.75100e-06	0.0010172659644152526
4.75125e-06	0.0010166892327878488
4.75150e-06	0.0010161125011604467
4.75175e-06	0.0010155357695330427
4.75200e-06	0.0010149590379056406
4.75225e-06	0.0010143823062782388
4.75250e-06	0.0010138055746508347
4.75275e-06	0.0010132288430234327
4.75300e-06	0.0010114900438039929
4.75325e-06	0.0010095066304121989
4.75350e-06	0.0010075232170204114
4.75375e-06	0.001005539803628624
4.75400e-06	0.00100355639023683
4.75425e-06	0.0010015729768450426
4.75450e-06	0.0009995895634532551
4.75475e-06	0.0009976061500614611
4.75500e-06	0.0009956227366696739
4.75525e-06	0.0009936393232778864
4.75550e-06	0.0009916559098860924
4.75575e-06	0.0009886625179916057
4.75600e-06	0.0009835820136486738
4.75625e-06	0.000978501509305759
4.75650e-06	0.0009734210049628441
4.75675e-06	0.0009683405006199121
4.75700e-06	0.0009632599962769974
4.75725e-06	0.0009581794919340825
4.75750e-06	0.0009530989875911506
4.75775e-06	0.0009404941913427551
4.75800e-06	0.0009263055384846202
4.75825e-06	0.0009121168856264371
4.75850e-06	0.0008979282327683023
4.75875e-06	0.0008837395799101674
4.75900e-06	0.0008695509270519844
4.75925e-06	0.0008553622741938496
4.75950e-06	0.0008390832879188864
4.75975e-06	0.000818484644459437
4.76000e-06	0.0007978860010000573
4.76025e-06	0.0007762001663029252
4.76050e-06	0.000752267659662173
4.76075e-06	0.0007283351530214209
4.76100e-06	0.0007034504932211421
4.76125e-06	0.0006765982165792666
4.76150e-06	0.0006497459399373911
4.76175e-06	0.0006228936632954247
4.76200e-06	0.0005960413866535491
4.76225e-06	0.0005687390961315794
4.76250e-06	0.0005405068555477362
4.76275e-06	0.0005122746149639885
4.76300e-06	0.00048404237438024096
4.76325e-06	0.00045581013379639764
4.76350e-06	0.00042796365229745266
4.76375e-06	0.0004009143388428743
4.76400e-06	0.00037386502538820437
4.76425e-06	0.00034740322204032355
4.76450e-06	0.00032215550359986924
4.76475e-06	0.0002976039251753291
4.76500e-06	0.00027449091449130084
4.76525e-06	0.00025204774448311793
4.76550e-06	0.00023151412202052402
4.76575e-06	0.00021261050211163543
4.76600e-06	0.00019531172668599587
4.76625e-06	0.0001794074755854112
4.76650e-06	0.0001647289994310143
4.76675e-06	0.0001512808037334844
4.76700e-06	0.00013914027557809577
4.76725e-06	0.0001283847783226854
4.76750e-06	0.00011909162154737344
4.76775e-06	0.00011131306323292974
4.76800e-06	0.00010499717773490177
4.76825e-06	9.997604753768018e-05
4.76850e-06	9.610781488844555e-05
4.76875e-06	9.335916601723667e-05
4.76900e-06	9.174242165080924e-05
4.76925e-06	9.126988796397577e-05
4.76950e-06	9.195385420691903e-05
4.76975e-06	9.379089693809375e-05
4.77000e-06	9.671232149666926e-05
4.77025e-06	0.00010057680858374492
4.77050e-06	0.0001052593682307823
4.77075e-06	0.00011070300184886451
4.77100e-06	0.00011687930662998586
4.77125e-06	0.00012375986521416006
4.77150e-06	0.00013141376726748266
4.77175e-06	0.00013971171316414
4.77200e-06	0.00014836650896082827
4.77225e-06	0.00015775873220411947
4.77250e-06	0.00016715095544744246
4.77275e-06	0.00017676895858717627
4.77300e-06	0.00018685353406589647
4.77325e-06	0.0001969381095445825
4.77350e-06	0.0002070226850232685
4.77375e-06	0.0002170348815580648
4.77400e-06	0.00022689750758770897
4.77425e-06	0.00023676013361735313
4.77450e-06	0.0002466227596470307
4.77475e-06	0.00025605457778082565
4.77500e-06	0.00026459613486497376
4.77525e-06	0.0002731376919491508
4.77550e-06	0.00028107449708811305
4.77575e-06	0.00028776158719938854
4.77600e-06	0.0002944486773106867
4.77625e-06	0.00030051089788955387
4.77650e-06	0.0003052818306086653
4.77675e-06	0.0003095226954337686
4.77700e-06	0.00031266817922187144
4.77725e-06	0.000315269311281031
4.77750e-06	0.0003167455448732879
4.77775e-06	0.0003176639875935657
4.77800e-06	0.00031742975996604917
4.77825e-06	0.0003166420977989275
4.77850e-06	0.00031471076760981865
4.77875e-06	0.0003121317896797515
4.77900e-06	0.0003082144529053824
4.77925e-06	0.0003042971161310133
4.77950e-06	0.0002996705387071127
4.77975e-06	0.000293578321189096
4.78000e-06	0.0002874861036710793
4.78025e-06	0.00028078138645327587
4.78050e-06	0.0002728109435354571
4.78075e-06	0.00026484050061763824
4.78100e-06	0.00025639470970623975
4.78125e-06	0.00024696661599191063
4.78150e-06	0.00023753852227758154
4.78175e-06	0.00022773176457390444
4.78200e-06	0.0002171425007839318
4.78225e-06	0.00020655323699392326
4.78250e-06	0.0001959639732039506
4.78275e-06	0.00018537470941397795
4.78300e-06	0.00017451536711056233
4.78325e-06	0.00016359917352554322
4.78350e-06	0.0001526829799405241
4.78375e-06	0.000141766786355468
4.78400e-06	0.0001310207773608518
4.78425e-06	0.00012062645345259357
4.78450e-06	0.00011046290838755161
4.78475e-06	0.0001007762659447217
4.78500e-06	9.132164565569162e-05
4.78525e-06	8.253266405282576e-05
4.78550e-06	7.433817002439527e-05
4.78575e-06	6.682898359750107e-05
4.78600e-06	6.01653646662086e-05
4.78625e-06	5.45601029724281e-05
4.78650e-06	5.015563832612003e-05
4.78675e-06	4.6981776275233625e-05
4.78700e-06	4.502753993021029e-05
4.78725e-06	4.428194140868779e-05
4.78750e-06	4.4733990376693524e-05
4.78775e-06	4.6384236272865966e-05
4.78800e-06	4.9276716842486866e-05
4.78825e-06	5.3488362798615084e-05
4.78850e-06	5.905203930273444e-05
4.78875e-06	6.593004843939475e-05
4.78900e-06	7.405914260285395e-05
4.78925e-06	8.337608170004896e-05
4.78950e-06	9.381762294966767e-05
4.78975e-06	0.00010532775612479569
4.79000e-06	0.00011787770583130405
4.79025e-06	0.0001314593186087184
4.79050e-06	0.0001460368093434321
4.79075e-06	0.0001616533637818432
4.79100e-06	0.00017809806845183658
4.79125e-06	0.0001949727972259542
4.79150e-06	0.00021273616735017188
4.79175e-06	0.00023087892672818845
4.79200e-06	0.0002498056909457042
4.79225e-06	0.00026873245516328417
4.79250e-06	0.0002878872355753869
4.79275e-06	0.0003075132096183563
4.79300e-06	0.00032713918366139214
4.79325e-06	0.0003467651577043615
4.79350e-06	0.0003663911317473309
4.79375e-06	0.00038506853044636995
4.79400e-06	0.0004035462548975208
4.79425e-06	0.0004220239793486716
4.79450e-06	0.00044050170379988506
4.79475e-06	0.00045811999589801244
4.79500e-06	0.0004739622779561163
4.79525e-06	0.0004898045600141666
4.79550e-06	0.0005047353657308942
4.79575e-06	0.0005177826129246922
4.79600e-06	0.0005297637355594423
4.79625e-06	0.0005395417203741606
4.79650e-06	0.0005480510633742846
4.79675e-06	0.0005539387682756818
4.79700e-06	0.0005585538926305609
4.79725e-06	0.0005605392395290041
4.79750e-06	0.0005612534390098624
4.79775e-06	0.0005593408225837372
4.79800e-06	0.0005560788250846549
4.79825e-06	0.0005500283424595132
4.79850e-06	0.0005426155331462431
4.79875e-06	0.0005323874866973071
4.79900e-06	0.0005209085084908661
4.79925e-06	0.0005068444898762283
4.79950e-06	0.0004916443274386676
4.79975e-06	0.0004740963329358475
4.80000e-06	0.000455477050813299
4.80025e-06	0.00043464396144767513
4.80050e-06	0.00041284535127729784
4.80075e-06	0.0003890515001353993
4.80100e-06	0.00036447575376774837
4.80125e-06	0.0003382842272094982
4.80150e-06	0.0003114965332430787
4.80175e-06	0.000283476864126604
4.80200e-06	0.0002549406342772035
4.80225e-06	0.0002253369358309983
4.80250e-06	0.0001957332373848934
4.80275e-06	0.00016590833168851773
4.80300e-06	0.00013562630298989751
4.80325e-06	0.00010534427429137988
4.80350e-06	7.518384879897616e-05
4.80375e-06	4.542868358630563e-05
4.80400e-06	1.6194737675457822e-05
4.80425e-06	-1.2364485541529397e-05
4.80450e-06	-4.0080409520609266e-05
4.80475e-06	-6.67623777503321e-05
4.80500e-06	-9.221195593585298e-05
4.80525e-06	-0.00011623073227195673
4.80550e-06	-0.00013862032247673417
4.80575e-06	-0.0001591840685840268
4.80600e-06	-0.00017774119380630686
4.80625e-06	-0.0001941589631770395
4.80650e-06	-0.0002083654600588166
4.80675e-06	-0.00022032148333126975
4.80700e-06	-0.00022999355378296917
4.80725e-06	-0.0002373482020089092
4.80750e-06	-0.00024235197758585786
4.80775e-06	-0.0002449725322995463
4.80800e-06	-0.00024518745917250553
4.80825e-06	-0.00024300444463311264
4.80850e-06	-0.00023846932583100865
4.80875e-06	-0.00023164835773575502
4.80900e-06	-0.0002226114040923503
4.80925e-06	-0.00021142834762760362
4.80950e-06	-0.0001981690913124254
4.80975e-06	-0.0001829041822380472
4.81000e-06	-0.00016571043423090328
4.81025e-06	-0.00014668349594969949
4.81050e-06	-0.00012594287785204259
4.81075e-06	-0.00010362090531066834
4.81100e-06	-7.985216424421727e-05
4.81125e-06	-5.477122601918725e-05
4.81150e-06	-2.8512655754698596e-05
4.81175e-06	-1.2114390568840137e-06
4.81200e-06	2.699353860317709e-05
4.81225e-06	5.595159689084955e-05
4.81250e-06	8.557457613091554e-05
4.81275e-06	0.00011567495812237785
4.81300e-06	0.00014577534011373818
4.81325e-06	0.0001758226591610567
4.81350e-06	0.00020576032406175408
4.81375e-06	0.00023569798896235002
4.81400e-06	0.00026520445446639144
4.81425e-06	0.000293819849888582
4.81450e-06	0.0003217973558171941
4.81475e-06	0.00034845666824237536
4.81500e-06	0.0003742170671407912
4.81525e-06	0.0003981198684719238
4.81550e-06	0.0004208903422788514
4.81575e-06	0.0004413208703720639
4.81600e-06	0.0004617513984652071
4.81625e-06	0.00048264803058354944
4.81650e-06	0.000503642777175431
4.81675e-06	0.0005255573774278389
4.81700e-06	0.0005493728478651284
4.81725e-06	0.0005731883183023373
4.81750e-06	0.0005975669166726538
4.81775e-06	0.0006231092143837154
4.81800e-06	0.0006486515120946903
4.81825e-06	0.0006753893367349458
4.81850e-06	0.000704597708150779
4.81875e-06	0.0007350556351409848
4.81900e-06	0.0007680957586669917
4.81925e-06	0.0008011358821931106
4.81950e-06	0.0008351477747132875
4.81975e-06	0.0008711678200372057
4.82000e-06	0.000907187865361246
4.82025e-06	0.0009448904790304077
4.82050e-06	0.0009860701066404772
4.82075e-06	0.001027249734250407
4.82100e-06	0.0010684293618603371
4.82125e-06	0.0011096089894704064
4.82150e-06	0.0011507886170803365
4.82175e-06	0.0011919682446902664
4.82200e-06	0.0012350243083391857
4.82225e-06	0.0012784753600684267
4.82250e-06	0.001321926411797668
4.82275e-06	0.0013653774635270562
4.82300e-06	0.0014088285152562973
4.82325e-06	0.0014522795669855385
4.82350e-06	0.0014943201847418932
4.82375e-06	0.0015334461520470468
4.82400e-06	0.0015725721193522004
4.82425e-06	0.0016116980866574867
4.82450e-06	0.0016508240539626403
4.82475e-06	0.0016899500212679264
4.82500e-06	0.0017252326720655809
4.82525e-06	0.0017525731402400484
4.82550e-06	0.0017799136084146086
4.82575e-06	0.001807254076589076
4.82600e-06	0.0018345945447635435
4.82625e-06	0.0018619350129381036
4.82650e-06	0.0018845520082999862
4.82675e-06	0.0018974079851199783
4.82700e-06	0.001910263961940014
4.82725e-06	0.0019196258121892058
4.82750e-06	0.001921767078008676
4.82775e-06	0.0019239083438281532
4.82800e-06	0.0019224372894836173
4.82825e-06	0.001913501404600611
4.82850e-06	0.0019045655197175743
4.82875e-06	0.0018921861391594421
4.82900e-06	0.0018726908025100575
4.82925e-06	0.001853195465860739
4.82950e-06	0.0018306278677171256
4.82975e-06	0.0018017114659284353
4.83000e-06	0.001772795064139843
4.83025e-06	0.0017411910615262695
4.83050e-06	0.0017040331534441352
4.83075e-06	0.0016668752453621268
4.83100e-06	0.0016270315725167715
4.83125e-06	0.0015816377884094995
4.83150e-06	0.001536244004302381
4.83175e-06	0.0014908502201952626
4.83200e-06	0.0014454564360879903
4.83225e-06	0.001400062651980872
4.83250e-06	0.0013509634035596726
4.83275e-06	0.0013010841582687862
4.83300e-06	0.0012512049129780687
4.83325e-06	0.0012013256676871823
4.83350e-06	0.001151446422396465
4.83375e-06	0.0011022216818932819
4.83400e-06	0.0010543494702642158
4.83425e-06	0.0010064772586353117
4.83450e-06	0.0009601841842768387
4.83475e-06	0.0009171543843745022
4.83500e-06	0.0008741245844723115
4.83525e-06	0.000833120210218592
4.83550e-06	0.0007963013617612798
4.83575e-06	0.0007611955801134697
4.83600e-06	0.0007296298372358474
4.83625e-06	0.000698064094358118
4.83650e-06	0.0006668280344126619
4.83675e-06	0.0006362732615923382
4.83700e-06	0.000605718488771911
4.83725e-06	0.0005759004834339911
4.83750e-06	0.0005476050021668205
4.83775e-06	0.0005193095208997458
4.83800e-06	0.0004912664253469018
4.83825e-06	0.0004637448828405161
4.83850e-06	0.00043622334033422365
4.83875e-06	0.0004084406307527433
4.83900e-06	0.000380118221512903
4.83925e-06	0.00035179581227315864
4.83950e-06	0.00032347340303341427
4.83975e-06	0.0002954380377713729
4.84000e-06	0.0002674630950057887
4.84025e-06	0.00023948815224020443
4.84050e-06	0.00021123649139095758
4.84075e-06	0.00018241299484994923
4.84100e-06	0.00015358949830894086
4.84125e-06	0.00012476600176783485
4.84150e-06	9.59425052268265e-05
4.84175e-06	6.73566207153238e-05
4.84200e-06	3.926178186174757e-05
4.84225e-06	1.1197191757291442e-05
4.84250e-06	-1.6787706239668838e-05
4.84275e-06	-4.466211501323789e-05
4.84300e-06	-7.224881912645153e-05
4.84325e-06	-9.937064525519053e-05
4.84350e-06	-0.00012585045246189396
4.84375e-06	-0.00015140846879060574
4.84400e-06	-0.00017612188455961832
4.84425e-06	-0.00020046882742591216
4.84450e-06	-0.0002237917384038015
4.84475e-06	-0.00024624233804978606
4.84500e-06	-0.00026765376398171586
4.84525e-06	-0.0002878592262617108
4.84550e-06	-0.0003066919703788392
4.84575e-06	-0.00032391776866135956
4.84600e-06	-0.0003390438301548352
4.84625e-06	-0.0003513645527557705
4.84650e-06	-0.00036039947651774574
4.84675e-06	-0.0003660596508373173
4.84700e-06	-0.00036840082853161615
4.84725e-06	-0.00036747880164365057
4.84750e-06	-0.0003633493717073052
4.84775e-06	-0.0003560261157835057
4.84800e-06	-0.000345360629818443
4.84825e-06	-0.0003310712456105489
4.84850e-06	-0.0003130173263516808
4.84875e-06	-0.0002913035281170491
4.84900e-06	-0.0002661250983831053
4.84925e-06	-0.00023767732859784926
4.84950e-06	-0.0002061555010336389
4.84975e-06	-0.00017172842177868235
4.85000e-06	-0.00013446345594154643
4.85025e-06	-9.434447047256874e-05
4.85050e-06	-5.1443711357948426e-05
4.85075e-06	-5.987024701009371e-06
4.85100e-06	4.1742961489341454e-05
4.85125e-06	9.146365178774559e-05
4.85150e-06	0.00014289246563678096
4.85175e-06	0.00019594995593313154
4.85200e-06	0.00025025955893458825
4.85225e-06	0.00030528746969176655
4.85250e-06	0.00036179975764292685
4.85275e-06	0.00041831204559389574
4.85300e-06	0.00047482433354486457
4.85325e-06	0.0005309105893211101
4.85350e-06	0.0005869071657117114
4.85375e-06	0.0006429037421023126
4.85400e-06	0.0006976586177843501
4.85425e-06	0.0007498475289491505
4.85450e-06	0.0008020364401141277
4.85475e-06	0.0008525415449761273
4.85500e-06	0.0008995670776706607
4.85525e-06	0.0009446835687073662
4.85550e-06	0.0009858550405285106
4.85575e-06	0.0010247432721799074
4.85600e-06	0.0010589132064043605
4.85625e-06	0.0010907921463771018
4.85650e-06	0.001117936765175149
4.85675e-06	0.0011427290783770057
4.85700e-06	0.0011626603710040125
4.85725e-06	0.0011801080796261646
4.85750e-06	0.001192423481899295
4.85775e-06	0.0012021929258397744
4.85800e-06	0.0012067011673851833
4.85825e-06	0.0012088306046850034
4.85850e-06	0.0012060442621647366
4.85875e-06	0.0012010127665374644
4.85900e-06	0.0011913416800920136
4.85925e-06	0.0011795151866812307
4.85950e-06	0.0011632345621313395
4.85975e-06	0.0011449314604448462
4.86000e-06	0.0011224489260400021
4.86025e-06	0.0010978385969202854
4.86050e-06	0.0010688311971551315
4.86075e-06	0.0010398237973899779
4.86100e-06	0.0010087523439301518
4.86125e-06	0.0009734155401300359
4.86150e-06	0.00093807873632992
4.86175e-06	0.00090103388114372
4.86200e-06	0.0008604593515215712
4.86225e-06	0.0008198848218994225
4.86250e-06	0.0007793102922771363
4.86275e-06	0.0007387357626549875
4.86300e-06	0.0006967108730266491
4.86325e-06	0.0006543806839359972
4.86350e-06	0.0006120504948453452
4.86375e-06	0.0005697203057545498
4.86400e-06	0.0005279709488545346
4.86425e-06	0.0004874218769996228
4.86450e-06	0.0004477704990888339
4.86475e-06	0.0004099741984857571
4.86500e-06	0.0003730830943993804
4.86525e-06	0.00033878894022377657
4.86550e-06	0.0003068143273582064
4.86575e-06	0.0002774457250295993
4.86600e-06	0.0002509719707120979
4.86625e-06	0.00022763671756288614
4.86650e-06	0.0002075809906945684
4.86675e-06	0.00019086578862692372
4.86700e-06	0.0001775311341879346
4.86725e-06	0.00016761702584701765
4.86750e-06	0.0001611634427763634
4.86775e-06	0.00015821278370165015
4.86800e-06	0.00015880888131684595
4.86825e-06	0.0001629672638582726
4.86850e-06	0.00017063918626453674
4.86875e-06	0.00018172576379664872
4.86900e-06	0.00019611496600464598
4.86925e-06	0.0002136947722451345
4.86950e-06	0.00023435315238384285
4.86975e-06	0.0002579795799660654
4.87000e-06	0.00028446443180676467
4.87025e-06	0.0003136803772705183
4.87050e-06	0.0003454598104377334
4.87075e-06	0.00037993272310383417
4.87100e-06	0.0004165848066126287
4.87125e-06	0.00045441769347059663
4.87150e-06	0.0004946907009418475
4.87175e-06	0.0005360441737536159
4.87200e-06	0.0005796304194915858
4.87225e-06	0.0006232166652297034
4.87250e-06	0.0006674875859529707
4.87275e-06	0.0007131733820201065
4.87300e-06	0.0007588591780873972
4.87325e-06	0.000804544974154533
4.87350e-06	0.0008502307702216689
4.87375e-06	0.0008940332856447153
4.87400e-06	0.0009374393722046238
4.87425e-06	0.0009808454587645322
4.87450e-06	0.0010242515453245877
4.87475e-06	0.0010656530061138067
4.87500e-06	0.0011029119238900537
4.87525e-06	0.0011401708416664267
4.87550e-06	0.0011749927568736318
4.87575e-06	0.0012047786258959432
4.87600e-06	0.0012345644949181536
4.87625e-06	0.0012627274545448687
4.87650e-06	0.0012875366849743836
4.87675e-06	0.0013123459154038143
4.87700e-06	0.0013355783116918054
4.87725e-06	0.001355552192924115
4.87750e-06	0.0013755260741563566
4.87775e-06	0.0013926766006569732
4.87800e-06	0.00140399268734002
4.87825e-06	0.0014153087740230285
4.87850e-06	0.0014266248607060369
4.87875e-06	0.0014379409473890836
4.87900e-06	0.001449257034072092
4.87925e-06	0.0014605731207551003
4.87950e-06	0.001471889207438147
4.87975e-06	0.0014832052941211556
4.88000e-06	0.00149167585950099
4.88025e-06	0.001494266178021854
4.88050e-06	0.0014968564965427177
4.88075e-06	0.0014994468150635904
4.88100e-06	0.0015020371335844542
4.88125e-06	0.001504627452105318
4.88150e-06	0.0015072177706261906
4.88175e-06	0.0015098080891470546
4.88200e-06	0.0015123984076679184
4.88225e-06	0.001513586950632844
4.88250e-06	0.0015118787356996222
4.88275e-06	0.0015101705207664002
4.88300e-06	0.0015084623058331725
4.88325e-06	0.0015067540908999505
4.88350e-06	0.0015050458759667284
4.88375e-06	0.0015033376610335007
4.88400e-06	0.0015016294461002787
4.88425e-06	0.001499921231167051
4.88450e-06	0.001498213016233829
4.88475e-06	0.0014965048013006069
4.88500e-06	0.0014942296781714215
4.88525e-06	0.001490783043820569
4.88550e-06	0.0014873364094697165
4.88575e-06	0.0014838897751188523
4.88600e-06	0.0014804431407679998
4.88625e-06	0.0014769965064171473
4.88650e-06	0.0014735498720662831
4.88675e-06	0.0014701032377154304
4.88700e-06	0.001466656603364578
4.88725e-06	0.0014632099690137137
4.88750e-06	0.0014597633346628612
4.88775e-06	0.0014544324898586617
4.88800e-06	0.0014452079393261887
4.88825e-06	0.001435983388793747
4.88850e-06	0.0014267588382612742
4.88875e-06	0.0014175342877288323
4.88900e-06	0.0014083097371963907
4.88925e-06	0.0013990851866639178
4.88950e-06	0.001389860636131476
4.88975e-06	0.0013806360855990343
4.89000e-06	0.0013714115350665615
4.89025e-06	0.0013621869845341196
4.89050e-06	0.0013489103690030417
4.89075e-06	0.0013347807974750394
4.89100e-06	0.0013206512259470848
4.89125e-06	0.0013065216544191302
4.89150e-06	0.0012923920828911278
4.89175e-06	0.0012782625113631734
4.89200e-06	0.0012641329398352188
4.89225e-06	0.0012500033683072165
4.89250e-06	0.0012358737967792619
4.89275e-06	0.0012217442252512596
4.89300e-06	0.0012075548616211518
4.89325e-06	0.001193241938093467
4.89350e-06	0.001178929014565734
4.89375e-06	0.0011646160910380493
4.89400e-06	0.0011503031675103648
4.89425e-06	0.0011359902439826315
4.89450e-06	0.001121677320454947
4.89475e-06	0.0011103718819248894
4.89500e-06	0.0010996995162513967
4.89525e-06	0.0010890271505779399
4.89550e-06	0.001078354784904483
