Time(s)	Current(A)
2.50000e-06	0.004185359103004194
2.50025e-06	0.004152900365187692
2.50050e-06	0.004120441627371245
2.50075e-06	0.004087982889554743
2.50100e-06	0.004055524151738241
2.50125e-06	0.004023065413921794
2.50150e-06	0.003989351429608832
2.50175e-06	0.003951638727190761
2.50200e-06	0.00391392602477269
2.50225e-06	0.0038762133223546828
2.50250e-06	0.0038385006199366115
2.50275e-06	0.0038007879175185402
2.50300e-06	0.003763075215100533
2.50325e-06	0.003725362512682462
2.50350e-06	0.0036876498102643906
2.50375e-06	0.0036583798899648234
2.50400e-06	0.0036320931185534156
2.50425e-06	0.0036058063471420083
2.50450e-06	0.0035795195757306005
2.50475e-06	0.003553232804319238
2.50500e-06	0.00352694603290783
2.50525e-06	0.0035006592614964228
2.50550e-06	0.0034743724900850597
2.50575e-06	0.003454138180567612
2.50600e-06	0.00345318461712294
2.50625e-06	0.003452231053678269
2.50650e-06	0.003451277490233599
2.50675e-06	0.0034503239267889272
2.50700e-06	0.003449370363344256
2.50725e-06	0.003448416799899586
2.50750e-06	0.0034474632364549142
2.50775e-06	0.0034465096730102425
2.50800e-06	0.0034455561095655726
2.50825e-06	0.0034446025461209013
2.50850e-06	0.0034622238832598146
2.50875e-06	0.003486408423528741
2.50900e-06	0.0035105929637976267
2.50925e-06	0.003534777504066553
2.50950e-06	0.00355896204433548
2.50975e-06	0.0035831465846043655
2.51000e-06	0.003607331124873292
2.51025e-06	0.0036315156651422183
2.51050e-06	0.003655700205411145
2.51075e-06	0.0036798847456800308
2.51100e-06	0.003706491236644937
2.51125e-06	0.003740813103136195
2.51150e-06	0.003775134969627395
2.51175e-06	0.003809456836118653
2.51200e-06	0.0038437787026099116
2.51225e-06	0.0038781005691011115
2.51250e-06	0.00391242243559237
2.51275e-06	0.003946744302083628
2.51300e-06	0.003981066168574886
2.51325e-06	0.004010366436846949
2.51350e-06	0.004037892387727563
2.51375e-06	0.004065418338608177
2.51400e-06	0.004092944289488746
2.51425e-06	0.00412047024036936
2.51450e-06	0.004147996191249974
2.51475e-06	0.004175522142130589
2.51500e-06	0.004203048093011156
2.51525e-06	0.004224639035108015
2.51550e-06	0.004227323390214059
2.51575e-06	0.004230007745320097
2.51600e-06	0.004232692100426141
2.51625e-06	0.004235376455532185
2.51650e-06	0.004238060810638223
2.51675e-06	0.004240745165744267
2.51700e-06	0.00424342952085031
2.51725e-06	0.004246113875956354
2.51750e-06	0.004248798231062392
2.51775e-06	0.004251482586168436
2.51800e-06	0.004254166941274479
2.51825e-06	0.004236084617438956
2.51850e-06	0.004210664653672248
2.51875e-06	0.004185244689905539
2.51900e-06	0.004159824726138831
2.51925e-06	0.004134404762372165
2.51950e-06	0.0041089847986054565
2.51975e-06	0.004083564834838748
2.52000e-06	0.004058144871072082
2.52025e-06	0.004032724907305374
2.52050e-06	0.004007304943538665
2.52075e-06	0.003981884979771999
2.52100e-06	0.00395379985876504
2.52125e-06	0.003917224602520819
2.52150e-06	0.003880649346276598
2.52175e-06	0.003844074090032439
2.52200e-06	0.0038074988337882176
2.52225e-06	0.003770923577543997
2.52250e-06	0.0037343483212998376
2.52275e-06	0.003697773065055617
2.52300e-06	0.0036611978088113956
2.52325e-06	0.003629735231769648
2.52350e-06	0.003600079154418055
2.52375e-06	0.003570423077066412
2.52400e-06	0.0035407669997147687
2.52425e-06	0.003511110922363176
2.52450e-06	0.0034814548450115327
2.52475e-06	0.0034517987676598895
2.52500e-06	0.0034221426903082966
2.52525e-06	0.003397483250713901
2.52550e-06	0.0033887411197315196
2.52575e-06	0.003379998988749138
2.52600e-06	0.0033712568577667712
2.52625e-06	0.0033625147267843897
2.52650e-06	0.003353772595802008
2.52675e-06	0.0033450304648196412
2.52700e-06	0.0033362883338372597
2.52725e-06	0.003327546202854878
2.52750e-06	0.0033188040718724965
2.52775e-06	0.0033100619408901297
2.52800e-06	0.003301319809907748
2.52825e-06	0.0032976167291892894
2.52850e-06	0.003309966066528673
2.52875e-06	0.0033223154038680776
2.52900e-06	0.0033346647412074827
2.52925e-06	0.003347014078546866
2.52950e-06	0.003359363415886271
2.52975e-06	0.0033717127532256756
2.53000e-06	0.0033840620905650804
2.53025e-06	0.0033964114279044643
2.53050e-06	0.003408760765243869
2.53075e-06	0.0034211101025832737
2.53100e-06	0.0034334594399226576
2.53125e-06	0.0034475610910149105
2.53150e-06	0.00346724491959231
2.53175e-06	0.003486928748169709
2.53200e-06	0.003506612576747075
2.53225e-06	0.0035262964053244744
2.53250e-06	0.0035459802339018734
2.53275e-06	0.0035656640624792393
2.53300e-06	0.0035853478910566386
2.53325e-06	0.003605031719634038
2.53350e-06	0.003624715548211404
2.53375e-06	0.0036426916643923436
2.53400e-06	0.0036552276853418267
2.53425e-06	0.00366776370629131
2.53450e-06	0.0036802997272407712
2.53475e-06	0.0036928357481902543
2.53500e-06	0.003705371769139737
2.53525e-06	0.003717907790089199
2.53550e-06	0.003730443811038682
2.53575e-06	0.0037429798319881646
2.53600e-06	0.0037555158529376477
2.53625e-06	0.0037645090621023706
2.53650e-06	0.003762216276308827
2.53675e-06	0.0037599234905152834
2.53700e-06	0.0037576307047217437
2.53725e-06	0.0037553379189282
2.53750e-06	0.0037530451331346565
2.53775e-06	0.003750752347341117
2.53800e-06	0.0037484595615475728
2.53825e-06	0.003746166775754029
2.53850e-06	0.0037438739899604855
2.53875e-06	0.003741581204166946
2.53900e-06	0.0037392884183734022
2.53925e-06	0.0037369956325798586
2.53950e-06	0.003726418659734369
2.53975e-06	0.0037129145755346996
2.54000e-06	0.0036994104913350297
2.54025e-06	0.00368590640713536
2.54050e-06	0.0036724023229357133
2.54075e-06	0.0036588982387360434
2.54100e-06	0.003645394154536374
2.54125e-06	0.003631890070336727
2.54150e-06	0.003618385986137057
2.54175e-06	0.0036048819019373875
2.54200e-06	0.0035913778177377406
2.54225e-06	0.003577873733538071
2.54250e-06	0.003564331824465187
2.54275e-06	0.003550669420329527
2.54300e-06	0.00353700701619389
2.54325e-06	0.0035233446120582304
2.54350e-06	0.0035096822079225703
2.54375e-06	0.0034960198037869337
2.54400e-06	0.0034823573996512736
2.54425e-06	0.0034686949955156136
2.54450e-06	0.003455032591379977
2.54475e-06	0.003441370187244317
2.54500e-06	0.0034366729386351032
2.54525e-06	0.0034351434128657185
2.54550e-06	0.0034336138870963363
2.54575e-06	0.0034320843613269516
2.54600e-06	0.003430554835557567
2.54625e-06	0.0034290253097881847
2.54650e-06	0.0034274957840188
2.54675e-06	0.0034259662582494152
2.54700e-06	0.0034244367324800305
2.54725e-06	0.0034276723731729293
2.54750e-06	0.003446087946625131
2.54775e-06	0.0034645035200773326
2.54800e-06	0.0034829190935295033
2.54825e-06	0.0035013346669817047
2.54850e-06	0.0035197502404339066
2.54875e-06	0.0035381658138860773
2.54900e-06	0.0035565813873382787
2.54925e-06	0.0035749969607904806
2.54950e-06	0.003593412534242682
2.54975e-06	0.0036118281076948527
2.55000e-06	0.0036399253448736024
2.55025e-06	0.003671443473884595
2.55050e-06	0.003702961602895534
2.55075e-06	0.003734479731906527
2.55100e-06	0.0037659978609175197
2.55125e-06	0.0037975159899285124
2.55150e-06	0.0038290341189394514
2.55175e-06	0.003860552247950444
2.55200e-06	0.003892070376961437
2.55225e-06	0.003923588505972376
2.55250e-06	0.003954827426858363
2.55275e-06	0.003985176901258645
2.55300e-06	0.004015526375658876
2.55325e-06	0.004045875850059158
2.55350e-06	0.0040762253244594395
2.55375e-06	0.004106574798859721
2.55400e-06	0.004136924273259952
2.55425e-06	0.004163201536140407
2.55450e-06	0.004176506346212225
2.55475e-06	0.00418981115628402
2.55500e-06	0.004203115966355838
2.55525e-06	0.004216420776427655
2.55550e-06	0.004229725586499472
2.55575e-06	0.004243030396571267
2.55600e-06	0.0042563352066430854
2.55625e-06	0.004269640016714903
2.55650e-06	0.004282944826786698
2.55675e-06	0.004296249636858515
2.55700e-06	0.004309554446930332
2.55725e-06	0.004322859257002128
2.55750e-06	0.004336164067073945
2.55775e-06	0.004349468877145763
2.55800e-06	0.0043479377703483715
2.55825e-06	0.0043411645824089195
2.55850e-06	0.004334391394469455
2.55875e-06	0.004327618206529991
2.55900e-06	0.004320845018590538
2.55925e-06	0.004314071830651074
2.55950e-06	0.00430729864271161
2.55975e-06	0.004300525454772146
2.56000e-06	0.004293752266832693
2.56025e-06	0.0042869790788932285
2.56050e-06	0.004280205890953764
2.56075e-06	0.0042734327030143114
2.56100e-06	0.004266659515074847
2.56125e-06	0.004259886327135383
2.56150e-06	0.00425176744322007
2.56175e-06	0.004239361704985551
2.56200e-06	0.004226955966751032
2.56225e-06	0.004214550228516513
2.56250e-06	0.004202144490282014
2.56275e-06	0.004189738752047496
2.56300e-06	0.004177333013812976
2.56325e-06	0.004164927275578478
2.56350e-06	0.004152521537343959
2.56375e-06	0.00414011579910944
2.56400e-06	0.004127710060874921
2.56425e-06	0.004115304322640423
2.56450e-06	0.004102898584405904
2.56475e-06	0.004090379849079343
2.56500e-06	0.0040778211876780915
2.56525e-06	0.004065262526276819
2.56550e-06	0.004052703864875546
2.56575e-06	0.004040145203474295
2.56600e-06	0.004027586542073022
2.56625e-06	0.004015027880671749
2.56650e-06	0.004002469219270477
2.56675e-06	0.003989910557869225
2.56700e-06	0.0039773518964679525
2.56725e-06	0.00396479323506668
2.56750e-06	0.003952234573665428
2.56775e-06	0.003937645103341542
2.56800e-06	0.003916586280238054
2.56825e-06	0.0038955274571345648
2.56850e-06	0.003874468634031112
2.56875e-06	0.0038534098109276236
2.56900e-06	0.003832350987824135
2.56925e-06	0.003811292164720682
2.56950e-06	0.0037902333416171934
2.56975e-06	0.003769174518513705
2.57000e-06	0.003748115695410252
2.57025e-06	0.0037270568723067636
2.57050e-06	0.003705998049203275
2.57075e-06	0.003682531926667978
2.57100e-06	0.0036582152157216647
2.57125e-06	0.0036338985047753105
2.57150e-06	0.0036095817938289563
2.57175e-06	0.003585265082882643
2.57200e-06	0.0035609483719362886
2.57225e-06	0.003536631660989934
2.57250e-06	0.0035123149500435797
2.57275e-06	0.0034879982390972667
2.57300e-06	0.0034636815281509125
2.57325e-06	0.003439364817204558
2.57350e-06	0.003416875974099759
2.57375e-06	0.003400209993879919
2.57400e-06	0.003383544013660079
2.57425e-06	0.0033668780334402677
2.57450e-06	0.0033502120532204276
2.57475e-06	0.003333546073000588
2.57500e-06	0.003316880092780748
2.57525e-06	0.0033002141125609364
2.57550e-06	0.0032835481323410963
2.57575e-06	0.0032668821521212566
2.57600e-06	0.0032502161719014447
2.57625e-06	0.003233550191681605
2.57650e-06	0.003216884211461765
2.57675e-06	0.0032038039551636165
2.57700e-06	0.0031919906684717315
2.57725e-06	0.0031801773817798267
2.57750e-06	0.003168364095087922
2.57775e-06	0.003156550808396037
2.57800e-06	0.003144737521704132
2.57825e-06	0.003132924235012227
2.57850e-06	0.0031211109483203427
2.57875e-06	0.0031092976616284374
2.57900e-06	0.0030974843749365325
2.57925e-06	0.0030856710882446277
2.57950e-06	0.003073857801552743
2.57975e-06	0.00306247403245453
2.58000e-06	0.0030524585362686806
2.58025e-06	0.0030424430400828486
2.58050e-06	0.0030324275438969994
2.58075e-06	0.00302241204771115
2.58100e-06	0.003012396551525301
2.58125e-06	0.003002381055339469
2.58150e-06	0.00299236555915362
2.58175e-06	0.0029823500629677707
2.58200e-06	0.0029723345667819383
2.58225e-06	0.0029623190705960895
2.58250e-06	0.00295230357441024
2.58275e-06	0.002942288078224408
2.58300e-06	0.002932272582038559
2.58325e-06	0.0029222570858527096
2.58350e-06	0.0029122415896668604
2.58375e-06	0.0029022260934810284
2.58400e-06	0.002892210597295179
2.58425e-06	0.00288719120648338
2.58450e-06	0.002883937125493854
2.58475e-06	0.0028806830445043223
2.58500e-06	0.002877428963514791
2.58525e-06	0.002874174882525259
2.58550e-06	0.002870920801535733
2.58575e-06	0.0028676667205462017
2.58600e-06	0.00286441263955667
2.58625e-06	0.002861158558567144
2.58650e-06	0.0028579044775776125
2.58675e-06	0.0028546503965880808
2.58700e-06	0.0028513963155985546
2.58725e-06	0.0028481422346090233
2.58750e-06	0.0028448881536194915
2.58775e-06	0.00284163407262996
2.58800e-06	0.002838379991640434
2.58825e-06	0.0028351259106509023
2.58850e-06	0.0028335432847401212
2.58875e-06	0.0028372852526113487
2.58900e-06	0.002841027220482582
2.58925e-06	0.0028447691883538156
2.58950e-06	0.002848511156225049
2.58975e-06	0.002852253124096276
2.59000e-06	0.0028559950919675096
2.59025e-06	0.002859737059838743
2.59050e-06	0.00286347902770997
2.59075e-06	0.0028672209955812036
2.59100e-06	0.0028709629634524375
2.59125e-06	0.0028747049313236645
2.59150e-06	0.002878446899194898
2.59175e-06	0.0028821888670661315
2.59200e-06	0.0028865945851676016
2.59225e-06	0.0028912348309087584
2.59250e-06	0.0028958750766499225
2.59275e-06	0.002900515322391087
2.59300e-06	0.002905155568132244
2.59325e-06	0.0029097958138734085
2.59350e-06	0.002914436059614573
2.59375e-06	0.0029190763053557377
2.59400e-06	0.002923716551096894
2.59425e-06	0.0029283567968380587
2.59450e-06	0.0029329970425792233
2.59475e-06	0.00293763728832038
2.59500e-06	0.0029422775340615446
2.59525e-06	0.0029495149369353755
2.59550e-06	0.00296502585364525
2.59575e-06	0.002980536770355151
2.59600e-06	0.002996047687065052
2.59625e-06	0.003011558603774953
2.59650e-06	0.0030270695204848274
2.59675e-06	0.0030425804371947284
2.59700e-06	0.0030580913539046293
2.59725e-06	0.0030736022706145043
2.59750e-06	0.0030891131873244052
2.59775e-06	0.003104624104034306
2.59800e-06	0.003120135020744207
2.59825e-06	0.0031356459374540816
2.59850e-06	0.0031655058607768403
2.59875e-06	0.003200435821742948
2.59900e-06	0.003235365782708997
2.59925e-06	0.003270295743675105
2.59950e-06	0.0033052257046412127
2.59975e-06	0.003340155665607261
2.60000e-06	0.003375085626573369
2.60025e-06	0.003410015587539477
2.60050e-06	0.0034449455485055847
2.60075e-06	0.0034798755094716336
2.60100e-06	0.0035148054704377415
2.60125e-06	0.0035497354314038493
2.60150e-06	0.003585250840084826
2.60175e-06	0.0036226312532775984
2.60200e-06	0.003660011666470371
2.60225e-06	0.003697392079663143
2.60250e-06	0.0037347724928558524
2.60275e-06	0.003772152906048625
2.60300e-06	0.0038095333192413976
2.60325e-06	0.003846913732434107
2.60350e-06	0.0038842941456268794
2.60375e-06	0.003921674558819652
2.60400e-06	0.003959054972012361
2.60425e-06	0.003996435385205133
2.60450e-06	0.004021281935709783
2.60475e-06	0.004041699806420506
2.60500e-06	0.004062117677131195
2.60525e-06	0.004082535547841919
2.60550e-06	0.004102953418552643
2.60575e-06	0.004123371289263333
2.60600e-06	0.004143789159974057
2.60625e-06	0.004164207030684781
2.60650e-06	0.004184624901395505
2.60675e-06	0.004205042772106193
2.60700e-06	0.004225460642816917
2.60725e-06	0.004242933197637227
2.60750e-06	0.004251023142731054
2.60775e-06	0.004259113087824896
2.60800e-06	0.004267203032918737
2.60825e-06	0.004275292978012565
2.60850e-06	0.004283382923106406
2.60875e-06	0.0042907478486650715
2.60900e-06	0.00429295414195096
2.60925e-06	0.004295160435236845
2.60950e-06	0.004297366728522733
2.60975e-06	0.004299573021808622
2.61000e-06	0.004301779315094506
2.61025e-06	0.004303967463793675
2.61050e-06	0.004303710279654916
2.61075e-06	-0.034200931766805574
2.61100e-06	-0.03102144510960466
2.61125e-06	-0.01730999871759916
2.61150e-06	-0.0013446014044139493
2.61175e-06	0.025935981299478002
2.61200e-06	0.030110645124307927
2.61225e-06	0.020490832017017853
2.61250e-06	0.0039491867238366524
2.61275e-06	-0.016915935955359184
2.61300e-06	-0.018698723622690167
2.61325e-06	-0.008463622020689862
2.61350e-06	0.004651560204922699
2.61375e-06	0.019622693341139273
2.61400e-06	0.021627347246485972
2.61425e-06	0.015403217961452425
2.61450e-06	0.004911551016434363
2.61475e-06	-0.008246056759863694
2.61500e-06	-0.00942491269386435
2.61525e-06	-0.0030615708256756117
2.61550e-06	0.005113106376087465
2.61575e-06	0.014453804119581642
2.61600e-06	0.0156740513872042
2.61625e-06	0.011740962757935229
2.61650e-06	0.00513553538835498
2.61675e-06	-0.0031391724488875183
2.61700e-06	-0.003910208389718513
2.61725e-06	4.273197303058824e-05
2.61750e-06	0.005129557110584605
2.61775e-06	0.010945976934642485
2.61800e-06	0.011675206423134998
2.61825e-06	0.00917628088682386
2.61850e-06	0.005003588189651235
2.61875e-06	-0.0002143556175932407
2.61900e-06	-0.0007317114156733304
2.61925e-06	0.0017100560993452158
2.61950e-06	0.004862036065259334
2.61975e-06	0.008471016058548317
2.62000e-06	0.008893581584773953
2.62025e-06	0.007294557238215701
2.62050e-06	0.004647839448371587
2.62075e-06	0.0013472984342668562
2.62100e-06	0.0009921065112250276
2.62125e-06	0.0024912854862677264
2.62150e-06	0.004436107856769395
2.62175e-06	0.006668021646424063
2.62200e-06	0.006904967722265128
2.62225e-06	0.005876834664094331
2.62250e-06	0.00419385289391405
2.62275e-06	0.002102885208593701
2.62300e-06	0.0018584785191075597
2.62325e-06	0.0027772040339795637
2.62350e-06	0.003976667880785402
2.62375e-06	0.005357628591033115
2.62400e-06	0.005490754302783154
2.62425e-06	0.004833436657569339
2.62450e-06	0.0037680759524142578
2.62475e-06	0.0024494374386176184
2.62500e-06	0.0022898337763377252
2.62525e-06	0.0028611646469142147
2.62550e-06	0.003610647214402265
2.62575e-06	0.0044760085730538406
2.62600e-06	0.0045618270751955235
2.62625e-06	0.004154547638271852
2.62650e-06	0.003493616935379037
2.62675e-06	0.0026758757785062563
2.62700e-06	0.0025858476024417285
2.62725e-06	0.0029551944008413345
2.62750e-06	0.003437506583830329
2.62775e-06	0.003993646630198344
2.62800e-06	0.004062620949875077
2.62825e-06	0.003823774193765313
2.62850e-06	0.00342699577666817
2.62875e-06	0.0029328383122620406
2.62900e-06	0.002895228759459482
2.62925e-06	0.0031459268200368226
2.62950e-06	0.0034678053742413263
2.62975e-06	0.00383622340390314
2.63000e-06	0.003899667764672456
2.63025e-06	0.0037703828789910345
2.63050e-06	0.00354215320554027
2.63075e-06	0.003252796834567437
2.63100e-06	0.00324916334590794
2.63125e-06	0.0034257273592979867
2.63150e-06	0.0036463513733982897
2.63175e-06	0.0038954781180265477
2.63200e-06	0.003952809781193321
2.63225e-06	0.0038885509128495734
2.63250e-06	0.003761338468521882
2.63275e-06	0.003594747943812291
2.63300e-06	0.0036059211083279974
2.63325e-06	0.0037286252454947653
2.63350e-06	0.003877459805533138
2.63375e-06	0.004042559991449587
2.63400e-06	0.004085818191216555
2.63425e-06	0.004051102272954024
2.63450e-06	0.003975029178397161
2.63475e-06	0.003872257941587408
2.63500e-06	0.0038787996279309495
2.63525e-06	0.003953350503995124
2.63550e-06	0.004042645470596307
2.63575e-06	0.004140644256205281
2.63600e-06	0.0041609296878988376
2.63625e-06	0.004131068320407643
2.63650e-06	0.004074084155579668
2.63675e-06	0.003999244091099397
2.63700e-06	0.003991826516633158
2.63725e-06	0.00402603617534719
2.63750e-06	0.0040685893491539254
2.63775e-06	0.004115784959176559
2.63800e-06	0.004113575930498741
2.63825e-06	0.004079317991609949
2.63850e-06	0.0040275181102543064
2.63875e-06	0.003964066061118359
2.63900e-06	0.00394246189930566
2.63925e-06	0.003946628088546223
2.63950e-06	0.003955797520504329
2.63975e-06	0.003967735156971035
2.64000e-06	0.003948671104220516
2.64025e-06	0.003909562185346242
2.64050e-06	0.003859581308665129
2.64075e-06	0.0038025019514670967
2.64100e-06	0.003771919130443107
2.64125e-06	0.003757843912113563
2.64150e-06	0.003747350702765399
2.64175e-06	0.003739122627645344
2.64200e-06	0.003712090964243012
2.64225e-06	0.0036732044788714297
2.64250e-06	0.0036282936368224263
2.64275e-06	0.003579806375894617
2.64300e-06	0.0035488697489734025
2.64325e-06	0.003529309653374045
2.64350e-06	0.003513112589779552
2.64375e-06	0.0034995373739213974
2.64400e-06	0.003475470852789897
2.64425e-06	0.003445350870093261
2.64450e-06	0.0034127206709020884
2.64475e-06	0.003379720303208513
2.64500e-06	0.003358909928351782
2.64525e-06	0.0033458381459531427
2.64550e-06	0.003333495242510951
2.64575e-06	0.003321071709806453
2.64600e-06	0.0033086481771019333
2.64625e-06	0.0032896089532131858
2.64650e-06	0.003270449280312743
2.64675e-06	0.003251571837386564
2.64700e-06	0.003232694394460385
2.64725e-06	0.003221962826901167
2.64750e-06	0.0032126391592502074
2.64775e-06	0.0032032398637761098
2.64800e-06	0.0031938405683020125
2.64825e-06	0.0031802018609099676
2.64850e-06	0.003166401302348823
2.64875e-06	0.0031527633250070046
2.64900e-06	0.003139125347665209
2.64925e-06	0.0031307308618840463
2.64950e-06	0.003123468175616551
