Time(s)	Current(A)
1.45000e-05	0.0007369499163081012
1.45003e-05	0.000634193735438856
1.45005e-05	0.0005289684144169937
1.45008e-05	0.00042374309339513134
1.45010e-05	0.0003185177723739821
1.45013e-05	0.00021364009373553444
1.45015e-05	0.00011048381963811658
1.45018e-05	9.290856885365561e-06
1.45020e-05	-8.955052599356706e-05
1.45023e-05	-0.00018565988337236822
1.45025e-05	-0.0002784734884919517
1.45028e-05	-0.0003673160638262723
1.45030e-05	-0.00045150813378573893
1.45033e-05	-0.0005303702533969569
1.45035e-05	-0.0006032410257782677
1.45038e-05	-0.0006696011152848701
1.45040e-05	-0.0007292785141965639
1.45043e-05	-0.0007823332738233055
1.45045e-05	-0.000828720425057092
1.45048e-05	-0.0008682751918258041
1.45050e-05	-0.0009008272826037079
1.45053e-05	-0.0009262064620556579
1.45055e-05	-0.0009442536302859305
1.45058e-05	-0.000954898906957544
1.45060e-05	-0.0009582898627666059
1.45063e-05	-0.0009547194931633993
1.45065e-05	-0.0009444149516066685
1.45068e-05	-0.000927528340604188
1.45070e-05	-0.0009042083907581183
1.45073e-05	-0.0008746036961981968
1.45075e-05	-0.0008388700216866835
1.45078e-05	-0.0007972187898662412
1.45080e-05	-0.0007499978255236958
1.45083e-05	-0.0006976459008721256
1.45085e-05	-0.0006405606446469056
1.45088e-05	-0.0005790925411448596
1.45090e-05	-0.0005135898989868772
1.45093e-05	-0.00044440102177922597
1.45095e-05	-0.0003718786606558593
1.45098e-05	-0.0002964104261879537
1.45100e-05	-0.0002184693172784708
1.45103e-05	-0.00013858526427920292
1.45105e-05	-5.7262343124492254e-05
1.45108e-05	2.501617666785337e-05
1.45110e-05	0.00010772862254106003
1.45113e-05	0.00019044106841482718
1.45115e-05	0.0002727943549798329
1.45118e-05	0.000353771193923764
1.45120e-05	0.0004341961825313152
1.45123e-05	0.0005119785399919826
1.45125e-05	0.000587096863971686
1.45128e-05	0.0006589990528444392
1.45130e-05	0.0007271340888019323
1.45133e-05	0.0007909508857998192
1.45135e-05	0.0008494914805970359
1.45138e-05	0.0009022641175880301
1.45140e-05	0.0009535682411627124
1.45143e-05	0.000999244141927476
1.45145e-05	0.00104356841196416
1.45148e-05	0.0010827124236439316
1.45150e-05	0.0011202848666445188
1.45153e-05	0.001151834117351549
1.45155e-05	0.0011817140799594836
1.45158e-05	0.0012051963309405165
1.45160e-05	0.001227403580177505
1.45163e-05	0.0012447242592124252
1.45165e-05	0.0012606062557732225
1.45168e-05	0.0012709743595555817
1.45170e-05	0.0012813424633378709
1.45173e-05	0.0012898858770800535
1.45175e-05	0.00129143598589529
1.45178e-05	0.0012929860947105264
1.45180e-05	0.0012931470372025532
1.45183e-05	0.0012879838624590763
1.45185e-05	0.0012828206877155991
1.45188e-05	0.001276541490473497
1.45190e-05	0.001265985026700445
1.45193e-05	0.0012554285629273931
1.45195e-05	0.001243651523822772
1.45198e-05	0.0012271965091208393
1.45200e-05	0.0012107414944189066
1.45203e-05	0.0011942864797170854
1.45205e-05	0.0011778314650151527
1.45208e-05	0.00116137645031322
1.45210e-05	0.0011444288998661593
1.45213e-05	0.0011255936574941531
1.45215e-05	0.001106758415122147
1.45218e-05	0.0010879231727502683
1.45220e-05	0.001069087930378262
1.45223e-05	0.001050252688006256
1.45225e-05	0.0010319654373351064
1.45228e-05	0.0010157784190193994
1.45230e-05	0.0009995914007036924
1.45233e-05	0.0009834043823880952
1.45235e-05	0.0009685292998101341
1.45238e-05	0.0009541981080319511
1.45240e-05	0.0009398669162538652
1.45243e-05	0.0009244533872531381
1.45245e-05	0.0009048916938703782
1.45248e-05	0.0008853300004877508
1.45250e-05	0.0008649144977799241
1.45253e-05	0.0008412266864443753
1.45255e-05	0.000816935623610901
1.45258e-05	0.0007903325397861621
1.45260e-05	0.0007626837027954054
1.45263e-05	0.0007310269134348375
1.45265e-05	0.0006982946202655762
1.45268e-05	0.000661440352446723
1.45270e-05	0.0006237459541747135
1.45273e-05	0.0005828316729035927
1.45275e-05	0.0005412273543770939
1.45278e-05	0.000496978399867709
1.45280e-05	0.00045210120392278187
1.45283e-05	0.0004041907785922497
1.45285e-05	0.0003538833233524322
1.45288e-05	0.00030308225435875117
1.45290e-05	0.00025014973067255167
1.45293e-05	0.0001961262309893964
1.45295e-05	0.00014132092303139045
1.45298e-05	8.59362987182739e-05
1.45300e-05	2.9965518397075424e-05
1.45303e-05	-2.6639429695805447e-05
1.45305e-05	-8.369358575497187e-05
1.45308e-05	-0.00014066621737398224
1.45310e-05	-0.00019732639851785072
1.45313e-05	-0.0002536220680399804
1.45315e-05	-0.00030852071074200855
1.45318e-05	-0.0003628681294364582
1.45320e-05	-0.000415102927640612
1.45323e-05	-0.0004666288987100632
1.45325e-05	-0.0005154382197248744
1.45328e-05	-0.0005632524570144239
1.45330e-05	-0.0006072529375712845
1.45333e-05	-0.0006499775009801982
1.45335e-05	-0.0006878119858088343
1.45338e-05	-0.0007244988787325839
1.45340e-05	-0.0007567875122521488
1.45343e-05	-0.0007882805810594496
1.45345e-05	-0.0008167245694720683
1.45348e-05	-0.0008442702450509965
1.45350e-05	-0.0008683730479048644
1.45353e-05	-0.0008914355057061101
1.45355e-05	-0.0009105107382640625
1.45358e-05	-0.0009284919381042179
1.45360e-05	-0.0009422801494188465
1.45363e-05	-0.000956068360733475
1.45365e-05	-0.0009688288338804131
1.45368e-05	-0.0009776503989173855
1.45370e-05	-0.0009864719639543578
1.45373e-05	-0.0009941833522338454
1.45375e-05	-0.0009976398783593241
1.45378e-05	-0.0010010964044848026
1.45380e-05	-0.00100372750885928
1.45383e-05	-0.0010031951027874558
1.45385e-05	-0.0010026626967156315
1.45388e-05	-0.0010010967623713318
1.45390e-05	-0.0009955697287677093
1.45393e-05	-0.0009900426951640869
1.45395e-05	-0.000984515661560502
1.45398e-05	-0.0009789886279568795
1.45400e-05	-0.0009734615943532569
1.45403e-05	-0.0009679345607496719
1.45405e-05	-0.0009616982367170857
1.45408e-05	-0.0009527434870083566
1.45410e-05	-0.0009437887372996882
1.45413e-05	-0.000934833987590959
1.45415e-05	-0.0009258792378822299
1.45418e-05	-0.0009169244881735614
1.45420e-05	-0.0009079697384648323
1.45423e-05	-0.0008991707060128398
1.45425e-05	-0.0008909684753386808
1.45428e-05	-0.0008827662446644661
1.45430e-05	-0.0008745640139902514
1.45433e-05	-0.0008664576568706463
1.45435e-05	-0.0008587187446254399
1.45438e-05	-0.0008509798323801812
1.45440e-05	-0.0008432409201349226
1.45443e-05	-0.0008344608437911638
1.45445e-05	-0.000821690403128884
1.45448e-05	-0.000808076146306793
1.45450e-05	-0.0007912278806478431
1.45453e-05	-0.00077367046565612
1.45455e-05	-0.0007533951657531146
1.45458e-05	-0.0007322207520380323
1.45460e-05	-0.0007076003957669889
1.45463e-05	-0.0006818030101132683
1.45465e-05	-0.0006514945430103053
1.45468e-05	-0.0006201746744963842
1.45470e-05	-0.000584978510106312
1.45473e-05	-0.0005489728271096776
1.45475e-05	-0.0005098645840372722
1.45478e-05	-0.0004717134384186942
1.45480e-05	-0.0004414564284801647
1.45483e-05	-0.00040126122602656116
1.45485e-05	-0.002307163880192256
1.45488e-05	-0.02025571120041229
1.45490e-05	-0.018458013148272785
1.45493e-05	-0.015059483626161259
1.45495e-05	-0.01067066636749285
1.45498e-05	0.0023380096325350264
1.45500e-05	0.0038116046266810076
1.45503e-05	0.0029924206736642216
1.45505e-05	0.0016514021400942166
1.45508e-05	-0.008425466376085856
1.45510e-05	-0.008875205236227715
1.45513e-05	-0.00670312363008653
1.45515e-05	-0.0024665766330373333
1.45518e-05	0.002692889621293556
1.45520e-05	0.004439740647738035
1.45523e-05	0.003364637159569736
1.45525e-05	0.0004236763919259545
1.45528e-05	-0.003724035122021022
1.45530e-05	-0.004677474161225771
1.45533e-05	-0.003045783985198506
1.45535e-05	-0.0004427247787485853
1.45538e-05	0.0027450262365991177
1.45540e-05	0.0038004132207344705
1.45543e-05	0.0030926939080368272
1.45545e-05	0.0012199993935679346
1.45548e-05	-0.0014055730807140988
1.45550e-05	-0.0020279682129959236
1.45553e-05	-0.0010294597317703595
1.45555e-05	0.0005785670689000623
1.45558e-05	0.002553520171494523
1.45560e-05	0.003193226982479194
1.45563e-05	0.00272890658541404
1.45565e-05	0.001535167013602641
1.45568e-05	-0.00012990310366782382
1.45570e-05	-0.0005400198214385335
1.45573e-05	6.521495487155463e-05
1.45575e-05	0.0010521865156082944
1.45578e-05	0.00226890549099567
1.45580e-05	0.0026491738209209804
1.45583e-05	0.0023379207571390557
1.45585e-05	0.0015698869542185244
1.45588e-05	0.0005068156749653181
1.45590e-05	0.00023007504087695644
1.45593e-05	0.0005895677345005502
1.45595e-05	0.0011884166209046327
1.45598e-05	0.001931460103461949
1.45600e-05	0.002150914775182707
1.45603e-05	0.0019376753277286904
1.45605e-05	0.00143888439547529
1.45608e-05	0.0007559496302993618
1.45610e-05	0.000566296106346742
1.45613e-05	0.0007759350497956656
1.45615e-05	0.0011363115627775113
1.45618e-05	0.001587879637295032
1.45620e-05	0.0017124262960219639
1.45623e-05	0.0015669902404884435
1.45625e-05	0.0012438376089869338
1.45628e-05	0.0008065793016154068
1.45630e-05	0.0006796206195581645
1.45633e-05	0.0008041378293245141
1.45635e-05	0.0010245049942824553
1.45638e-05	0.0013036311167736324
1.45640e-05	0.001380015117883423
1.45643e-05	0.0012898087751104111
1.45645e-05	0.0010908657313326992
1.45648e-05	0.0008229001648275165
1.45650e-05	0.0007516119107321727
1.45653e-05	0.0008399964679205131
1.45655e-05	0.0009904188196518037
1.45658e-05	0.0011794996019690925
1.45660e-05	0.0012432977068810196
1.45663e-05	0.00120432806609402
1.45665e-05	0.0010986967799028037
1.45668e-05	0.000951144660844644
1.45670e-05	0.0009279610700288453
1.45673e-05	0.0010058151819630314
1.45675e-05	0.001123401151916316
1.45678e-05	0.001265930186141045
1.45680e-05	0.001330571259333328
1.45683e-05	0.0013312932376483102
1.45685e-05	0.0012905767011178342
1.45688e-05	0.001223781521234278
1.45690e-05	0.0012349275866498943
1.45693e-05	0.0013092532631548747
1.45695e-05	0.0014082116283358564
1.45698e-05	0.001522396102469551
1.45700e-05	0.0015872541274844368
1.45703e-05	0.0016113989369253056
1.45705e-05	0.001608774366315972
1.45708e-05	0.0015888630018214677
1.45710e-05	0.001616680372497941
1.45713e-05	0.0016828346440125113
1.45715e-05	0.0017630369713915197
1.45718e-05	0.0018512529847358272
1.45720e-05	0.0019069071745822263
1.45723e-05	0.0019352565740896957
1.45725e-05	0.0019448967637540919
1.45728e-05	0.00194162802390206
1.45730e-05	0.0019660342388409142
1.45733e-05	0.0020120893502426685
1.45735e-05	0.0020644447149084934
1.45738e-05	0.0021193313745973474
1.45740e-05	0.002151681833622402
1.45743e-05	0.002165260211660405
1.45745e-05	0.0021656893546814246
1.45748e-05	0.0021566850785794947
1.45750e-05	0.002163748592865885
1.45753e-05	0.0021831840597267022
1.45755e-05	0.002205456465023287
1.45758e-05	0.002228284879689961
1.45760e-05	0.0022360478203088557
1.45763e-05	0.0022309347087310903
1.45765e-05	0.002213681725205753
1.45768e-05	0.002196796838650538
1.45770e-05	0.0021857350542135905
1.45773e-05	0.0021818975251699903
1.45775e-05	0.0021796280084709664
1.45778e-05	0.0021767434506167393
1.45780e-05	0.0021644147100147236
1.45783e-05	0.0021437938773589
1.45785e-05	0.0021153966879055596
1.45788e-05	0.0020873854131142093
1.45790e-05	0.0020649640549611375
1.45793e-05	0.0020426679168384855
1.45795e-05	0.002022185572285611
1.45798e-05	0.002001703227732875
1.45800e-05	0.0019805724282144733
1.45803e-05	0.0019500488547003994
1.45805e-05	0.0019194036021402796
1.45808e-05	0.0018869958466424365
1.45810e-05	0.0018550162645595597
1.45813e-05	0.0018292387108859007
1.45815e-05	0.001803461157212067
1.45818e-05	0.0017776836035382335
1.45820e-05	0.0017517837449437352
1.45823e-05	0.0017241123177105906
1.45825e-05	0.001696440890477446
1.45828e-05	0.0016687694632444888
1.45830e-05	0.001641614672009867
1.45833e-05	0.001621943276588839
1.45835e-05	0.001602271881167944
1.45838e-05	0.0015826004857469158
1.45840e-05	0.0015627426943411959
1.45843e-05	0.001540184984742435
1.45845e-05	0.0015176272751435212
1.45848e-05	0.0014950695655446074
1.45850e-05	0.0014725011346322988
1.45853e-05	0.0014497774070831829
1.45855e-05	0.0014270536795340672
1.45858e-05	0.0014043299519851053
1.45860e-05	0.0013816062244359894
1.45863e-05	0.0013558622853085587
1.45865e-05	0.001327789066760923
1.45868e-05	0.0012997158482134777
1.45870e-05	0.001271642629665842
1.45873e-05	0.0012433559434319723
1.45875e-05	0.001211977209421998
1.45878e-05	0.0011805984754118108
1.45880e-05	0.0011492197414016236
1.45883e-05	0.0011178410073916494
1.45885e-05	0.0010864622733814623
1.45888e-05	0.0010531706473972892
1.45890e-05	0.0010184037406944645
1.45893e-05	0.0009836368339914041
1.45895e-05	0.000948869927288344
1.45898e-05	0.0009141030205855192
1.45900e-05	0.0008792664441109995
1.45903e-05	0.0008434207113289634
1.45905e-05	0.0008075749785471703
1.45908e-05	0.0007717292457651342
1.45910e-05	0.0007360298313781912
1.45913e-05	0.0007024498172455241
1.45915e-05	0.0006688698031126296
1.45918e-05	0.000635289788979735
1.45920e-05	0.0006018529958206304
1.45923e-05	0.0005704907372242847
1.45925e-05	0.0005392815096691707
1.45928e-05	0.000510288914052639
1.45930e-05	0.0004814717926264758
1.45933e-05	0.00045532046988016266
1.45935e-05	0.0004310940967489377
1.45938e-05	0.0004088110918071541
1.45940e-05	0.0003879670145343489
1.45943e-05	0.0003682472501841705
1.45945e-05	0.0003496319995495266
1.45948e-05	0.0003322536934852235
1.45950e-05	0.0003164485758385707
1.45953e-05	0.0003022811901924004
1.45955e-05	0.00028975645127792823
1.45958e-05	0.00027885524813529736
1.45960e-05	0.00026923084023297523
1.45963e-05	0.0002606555162371322
1.45965e-05	0.00025308618949186103
1.45968e-05	0.00024657519056185836
1.45970e-05	0.00024130242614431356
1.45973e-05	0.00023727767307653143
1.45975e-05	0.00023447332962172522
1.45978e-05	0.0002328467262071095
1.45980e-05	0.00023215002850851015
1.45983e-05	0.0002322099410977071
1.45985e-05	0.00023296885140377117
1.45988e-05	0.00023442889129525422
1.45990e-05	0.0002366721086578753
1.45993e-05	0.0002396955134818675
1.45995e-05	0.00024369795955776888
1.45998e-05	0.0002477634366575188
1.46000e-05	0.0002527419087916172
1.46003e-05	0.00025776361326145
1.46005e-05	0.00026341153170367595
1.46008e-05	0.00026905945014594015
1.46010e-05	0.00027474561131245347
1.46013e-05	0.00028098571266893616
1.46015e-05	0.00028722581402546113
1.46018e-05	0.0002934659153819861
1.46020e-05	0.00029967084277329856
1.46023e-05	0.000305366280494741
1.46025e-05	0.0003110617182161834
1.46028e-05	0.00031675715593758725
1.46030e-05	0.0003223981280017548
1.46033e-05	0.00032722132272015387
1.46035e-05	0.0003315840100381201
1.46038e-05	0.000335248050174829
1.46040e-05	0.00033761340797685337
1.46043e-05	0.0003381134860233077
1.46045e-05	0.00033659615665276404
1.46048e-05	0.00033313259154509647
1.46050e-05	0.000327815138236914
1.46053e-05	0.0003207100366477268
1.46055e-05	0.00031187177940119936
1.46058e-05	0.000301254601837832
1.46060e-05	0.0002885859965916349
1.46063e-05	0.0002736144004571396
1.46065e-05	0.00025634797281374804
1.46068e-05	0.000236934707607499
1.46070e-05	0.00021553583333842988
1.46073e-05	0.00019229621267113673
1.46075e-05	0.00016735343319616237
1.46078e-05	0.00014078214416148805
1.46080e-05	0.00011251505625823038
1.46083e-05	8.249799740982308e-05
1.46085e-05	5.083947737353328e-05
1.46088e-05	1.773557530823622e-05
1.46090e-05	-1.660930992531357e-05
1.46093e-05	-5.200108286390972e-05
1.46095e-05	-8.825021439005113e-05
1.46098e-05	-0.0001252255494033428
1.46100e-05	-0.00016308378295763155
1.46103e-05	-0.00020099418239546182
1.46105e-05	-0.00023966019692150524
1.46108e-05	-0.0002783262114478107
1.46110e-05	-0.00031699222597411615
1.46113e-05	-0.0003549495745436822
1.46115e-05	-0.0003923603782815993
1.46118e-05	-0.0004297711820195164
1.46120e-05	-0.00046702004788444203
1.46123e-05	-0.0005019232676688155
1.46125e-05	-0.0005366424511857557
1.46128e-05	-0.0005686958966516184
1.46130e-05	-0.0006005018453593122
1.46133e-05	-0.0006287228402229713
1.46135e-05	-0.0006566581599774668
1.46138e-05	-0.0006804555181306935
1.46140e-05	-0.0007040097531304119
1.46143e-05	-0.000724042385295069
1.46145e-05	-0.0007438342060950462
1.46148e-05	-0.0007601379099824343
1.46150e-05	-0.0007761757393283321
1.46153e-05	-0.000788362415359228
1.46155e-05	-0.0008002141269327315
1.46158e-05	-0.0008072139280010036
1.46160e-05	-0.0008142137290692283
1.46163e-05	-0.000820876292107492
1.46165e-05	-0.0008226540122794542
1.46168e-05	-0.0008244317324514044
1.46170e-05	-0.0008258823213092799
1.46173e-05	-0.0008225944615825752
1.46175e-05	-0.0008193066018558928
1.46178e-05	-0.0008157337267257848
1.46180e-05	-0.0008080324457333067
1.46183e-05	-0.0008003311647408807
1.46185e-05	-0.0007924115806893194
1.46188e-05	-0.0007813299091918453
1.46190e-05	-0.0007702482376944462
1.46193e-05	-0.000758938953673133
1.46195e-05	-0.0007443327359887394
1.46198e-05	-0.0007297265183044448
1.46200e-05	-0.0007151203006200512
1.46203e-05	-0.0007005140829356576
1.46205e-05	-0.000685907865251264
1.46208e-05	-0.0006704168963408189
1.46210e-05	-0.0006542435802596797
1.46213e-05	-0.0006380702641785405
1.46215e-05	-0.0006218969480975109
1.46218e-05	-0.0006057236320163718
1.46220e-05	-0.0005896350966691621
1.46223e-05	-0.0005747745976842532
1.46225e-05	-0.0005599140986992437
1.46228e-05	-0.0005450535997142341
1.46230e-05	-0.0005317164810174611
1.46233e-05	-0.000519554239730996
1.46235e-05	-0.0005073919984445309
1.46238e-05	-0.0004951677193176916
1.46240e-05	-0.0004820448312685808
1.46243e-05	-0.00046866603004588653
1.46245e-05	-0.00045141587782838197
1.46248e-05	-0.00043163440058888104
1.46250e-05	-0.000409565126992461
1.46253e-05	-0.0003854518307232024
1.46255e-05	-0.0003595199546686858
1.46258e-05	-0.0003316855364517593
1.46260e-05	-0.0003012228003555919
1.46263e-05	-0.00026736356318117163
1.46265e-05	-0.00023003762950250803
1.46268e-05	-0.00018956752252980303
1.46270e-05	-0.00014627864750630325
1.46273e-05	-0.000100496550019496
1.46275e-05	-5.253525492801041e-05
1.46278e-05	-2.5149657555476996e-06
1.46280e-05	4.984610430018784e-05
1.46283e-05	0.00010485631670044132
1.46285e-05	0.00016238674941870034
1.46288e-05	0.000222062539479826
1.46290e-05	0.0002835405707417736
1.46293e-05	0.0003468296731410665
1.46295e-05	0.00041025327593157947
1.46298e-05	0.0004756250969451692
1.46300e-05	0.0005409969179583159
1.46303e-05	0.0006064452306851662
1.46305e-05	0.0006730015145400457
1.46308e-05	0.0007395577983944741
1.46310e-05	0.0008061140822493535
1.46313e-05	0.0008724217792348694
1.46315e-05	0.0009351287322654554
1.46318e-05	0.0009978356852964664
1.46320e-05	0.0010605426383274773
1.46323e-05	0.0011227901257814814
1.46325e-05	0.0011783823224645704
1.46328e-05	0.0012339745191476594
1.46330e-05	0.0012890520789998713
1.46333e-05	0.0013366752006451728
1.46335e-05	0.0013837982691528039
1.46338e-05	0.0014236781420818385
1.46340e-05	0.001463122872400485
1.46343e-05	0.001496264626502447
1.46345e-05	0.0015288566672296733
1.46348e-05	0.0015534861912073106
1.46350e-05	0.0015781157151849479
1.46353e-05	0.0016020185078994952
1.46355e-05	0.0016153947059876245
1.46358e-05	0.0016287709040757538
1.46360e-05	0.0016415025051963845
1.46363e-05	0.0016448972147859807
1.46365e-05	0.0016482919243755766
1.46368e-05	0.0016510952695439373
1.46370e-05	0.0016453327887237055
1.46373e-05	0.001639570307903474
1.46375e-05	0.0016332531204948872
1.46378e-05	0.001618901090374162
1.46380e-05	0.0016045490602533397
1.46383e-05	0.0015897716834932549
1.46385e-05	0.0015688332237096042
1.46388e-05	0.0015478947639258117
1.46390e-05	0.0015264864483579808
1.46393e-05	0.0014982723414010543
1.46395e-05	0.0014700582344439365
1.46398e-05	0.001441844127486819
1.46400e-05	0.0014136300205298924
1.46403e-05	0.0013854159135727746
1.46405e-05	0.00135697203106881
1.46408e-05	0.0013251998838258036
1.46410e-05	0.001293427736582582
1.46413e-05	0.0012616555893393603
1.46415e-05	0.001229883442096354
1.46418e-05	0.0011981112948531325
1.46420e-05	0.001166557342074873
1.46423e-05	0.0011381639037821912
1.46425e-05	0.001109770465489317
1.46428e-05	0.0010813770271964427
1.46430e-05	0.0010529835889037608
1.46433e-05	0.0010280117123652366
1.46435e-05	0.0010056786487661004
1.46438e-05	0.0009833455851671156
1.46440e-05	0.0009610125215679795
1.46443e-05	0.0009386453837429951
1.46445e-05	0.0009157846858068833
1.46448e-05	0.0008929239878706167
1.46450e-05	0.00087006328993435
1.46453e-05	0.0008472025919982382
1.46455e-05	0.00082418950543586
