Time(s)	Current(A)
5.00000e-06	-0.005772492645444395
5.00025e-06	-0.005696055569648562
5.00050e-06	-0.005621006960292407
5.00075e-06	-0.005547630226869529
5.00100e-06	-0.005476159311253703
5.00125e-06	-0.005406955423240179
5.00150e-06	-0.005340493101084363
5.00175e-06	-0.005282807469548277
5.00200e-06	-0.005227320305355339
5.00225e-06	-0.005171833141162588
5.00250e-06	-0.005116345976969838
5.00275e-06	-0.005064406538598482
5.00300e-06	-0.005021236425895917
5.00325e-06	-0.004978066313193351
5.00350e-06	-0.00493489620049064
5.00375e-06	-0.0048917260877880744
5.00400e-06	-0.0048577965839766545
5.00425e-06	-0.004826352630928217
5.00450e-06	-0.004794908677879779
5.00475e-06	-0.004763464724831234
5.00500e-06	-0.0047320207717827965
5.00525e-06	-0.004700576818734359
5.00550e-06	-0.004669132865685814
5.00575e-06	-0.004637688912637376
5.00600e-06	-0.004613788948887494
5.00625e-06	-0.004591918176998777
5.00650e-06	-0.004570047405110134
5.00675e-06	-0.00454817663322149
5.00700e-06	-0.004526305861332773
5.00725e-06	-0.004504435089444129
5.00750e-06	-0.004482564317555486
5.00775e-06	-0.004460693545666768
5.00800e-06	-0.004443680318332853
5.00825e-06	-0.004427973679527232
5.00850e-06	-0.004412267040721664
5.00875e-06	-0.004396560401916096
5.00900e-06	-0.004380853763110475
5.00925e-06	-0.004365147124304906
5.00950e-06	-0.004349440485499338
5.00975e-06	-0.004333733846693716
5.01000e-06	-0.004321550818664549
5.01025e-06	-0.004310315575955031
5.01050e-06	-0.004299080333245476
5.01075e-06	-0.004287845090535958
5.01100e-06	-0.004276609847826441
5.01125e-06	-0.004265374605116885
5.01150e-06	-0.004254139362407368
5.01175e-06	-0.00424290411969785
5.01200e-06	-0.004233874837693608
5.01225e-06	-0.004225438917812741
5.01250e-06	-0.004217002997931846
5.01275e-06	-0.004209942065119572
5.01300e-06	-0.0042032509780822475
5.01325e-06	-0.0041965598910449
5.01350e-06	-0.004192022158836842
5.01375e-06	-0.00418806363875648
5.01400e-06	-0.004184105118676104
5.01425e-06	-0.0041801465985957425
5.01450e-06	-0.00417618807851538
5.01475e-06	-0.004172229558435004
5.01500e-06	-0.004168271038354643
5.01525e-06	-0.0041671242459959635
5.01550e-06	-0.004166733755745034
5.01575e-06	-0.004166343265494106
5.01600e-06	-0.0041659527752431775
5.01625e-06	-0.004165562284992249
5.01650e-06	-0.00416517179474132
5.01675e-06	-0.004164781304490391
5.01700e-06	-0.004166502786828051
5.01725e-06	-0.004168792350245486
5.01750e-06	-0.00417108191366293
5.01775e-06	-0.004173371477080365
5.01800e-06	-0.0041756610404978
5.01825e-06	-0.004177950603915243
5.01850e-06	-0.004180240167332678
5.01875e-06	-0.004182902708720442
5.01900e-06	-0.004186487183045633
5.01925e-06	-0.004190071657370812
5.01950e-06	-0.004193656131695992
5.01975e-06	-0.004197240606021183
5.02000e-06	-0.004200825080346362
5.02025e-06	-0.004204409554671542
5.02050e-06	-0.0042079940289967335
5.02075e-06	-0.004211071299972572
5.02100e-06	-0.004214012142744815
5.02125e-06	-0.004216952985517047
5.02150e-06	-0.004219893828289278
5.02175e-06	-0.0042228346710615206
5.02200e-06	-0.004225775513833753
5.02225e-06	-0.004228716356605985
5.02250e-06	-0.004231657199378226
5.02275e-06	-0.004233805167307991
5.02300e-06	-0.004233993294468063
5.02325e-06	-0.004234181421628135
5.02350e-06	-0.0042343695487882076
5.02375e-06	-0.00423455767594828
5.02400e-06	-0.004234745803108353
5.02425e-06	-0.004234933930268425
5.02450e-06	-0.004235122057428498
5.02475e-06	-0.004235310184588571
5.02500e-06	-0.0042321672877553935
5.02525e-06	-0.004228128407841437
5.02550e-06	-0.004224089527927494
5.02575e-06	-0.00422005064801355
5.02600e-06	-0.004216011768099594
5.02625e-06	-0.0042119728881856505
5.02650e-06	-0.004207934008271707
5.02675e-06	-0.004203895128357751
5.02700e-06	-0.004199856248443807
5.02725e-06	-0.004195817368529864
5.02750e-06	-0.0041917784886159075
5.02775e-06	-0.004187739608701964
5.02800e-06	-0.004183700728788021
5.02825e-06	-0.004179661848874064
5.02850e-06	-0.0041738603269976275
5.02875e-06	-0.004167584687438796
5.02900e-06	-0.004161309047879942
5.02925e-06	-0.004155033408321111
5.02950e-06	-0.004148757768762258
5.02975e-06	-0.004142482129203426
5.03000e-06	-0.004136264774613747
5.03025e-06	-0.004130063097589362
5.03050e-06	-0.004123861420564997
5.03075e-06	-0.004117659743540633
5.03100e-06	-0.0041114580665162475
5.03125e-06	-0.004105256389491883
5.03150e-06	-0.004099479648423112
5.03175e-06	-0.004094013529048743
5.03200e-06	-0.004088825895005804
5.03225e-06	-0.004083953999197259
5.03250e-06	-0.004079681689484768
5.03275e-06	-0.004076966456633545
5.03300e-06	-0.004077005474373144
5.03325e-06	-0.00408033757691993
5.03350e-06	-0.004086919012264374
5.03375e-06	-0.004096593303093166
5.03400e-06	-0.004109203324143416
5.03425e-06	-0.004124592147561327
5.03450e-06	-0.004144060030881478
5.03475e-06	-0.004164468568120314
5.03500e-06	-0.00419079336610544
5.03525e-06	-0.00421870952744899
5.03550e-06	-0.004255372572622791
5.03575e-06	-0.004294388365760856
5.03600e-06	-0.0043334041588990535
5.03625e-06	-0.004372419952037119
5.03650e-06	-0.004415149697995003
5.03675e-06	-0.004467059652178831
5.03700e-06	-0.004518969606362481
5.03725e-06	-0.004570879560546132
5.03750e-06	-0.00462278951472996
5.03775e-06	-0.004681405074088371
5.03800e-06	-0.004741824315675897
5.03825e-06	-0.0048022435572632185
5.03850e-06	-0.0048655939273204085
5.03875e-06	-0.004929732716050531
5.03900e-06	-0.0049938715047804375
5.03925e-06	-0.0050595122476263426
5.03950e-06	-0.005125556988005423
5.03975e-06	-0.00519160172838428
5.04000e-06	-0.005256940994346322
5.04025e-06	-0.005322090500900551
5.04050e-06	-0.005385318071299511
5.04075e-06	-0.005448028676861244
5.04100e-06	-0.005507999032640301
5.04125e-06	-0.005567232312539063
5.04150e-06	-0.005622540255721714
5.04175e-06	-0.005676792356830329
5.04200e-06	-0.005725756794162838
5.04225e-06	-0.00577329894895197
5.04250e-06	-0.005814323217347356
5.04275e-06	-0.005853594296351167
5.04300e-06	-0.005884014010773401
5.04325e-06	-0.005912052873866062
5.04350e-06	-0.005940091736958723
5.04375e-06	-0.005956989302819966
5.04400e-06	-0.005970890068348248
5.04425e-06	-0.005984790833876529
5.04450e-06	-0.005987104205043137
5.04475e-06	-0.005986300784102103
5.04500e-06	-0.005985497363161067
5.04525e-06	-0.005971112300830254
5.04550e-06	-0.00595307403128395
5.04575e-06	-0.005935035761737646
5.04600e-06	-0.005916997492191282
5.04625e-06	-0.005893736857446701
5.04650e-06	-0.0058575674965373956
5.04675e-06	-0.005821398135628212
5.04700e-06	-0.005785228774719028
5.04725e-06	-0.0057490594138097225
5.04750e-06	-0.005703533184962423
5.04775e-06	-0.0056554901338487385
5.04800e-06	-0.005607447082734891
5.04825e-06	-0.005554778052085728
5.04850e-06	-0.0055008647195638125
5.04875e-06	-0.005444297005146105
5.04900e-06	-0.005387015311702449
5.04925e-06	-0.005328411289488373
5.04950e-06	-0.005268928672178788
5.04975e-06	-0.005209048898160029
5.05000e-06	-0.005149110404483264
5.05025e-06	-0.005089451359947382
5.05050e-06	-0.005030415705955913
5.05075e-06	-0.004972368411893184
5.05100e-06	-0.004915698393278974
5.05125e-06	-0.004860801434346066
5.05150e-06	-0.004808069409368374
5.05175e-06	-0.004757892641209531
5.05200e-06	-0.004710662087941683
5.05225e-06	-0.004666768171132454
5.05250e-06	-0.00462642057220328
5.05275e-06	-0.004589298595702275
5.05300e-06	-0.004554786816611783
5.05325e-06	-0.004523602214740775
5.05350e-06	-0.004493171715276502
5.05375e-06	-0.004466952228384737
5.05400e-06	-0.004441865425022964
5.05425e-06	-0.004421504841558271
5.05450e-06	-0.004402415522746312
5.05475e-06	-0.004388416016844814
5.05500e-06	-0.004375785575308265
5.05525e-06	-0.004363155133771758
5.05550e-06	-0.004357836951107076
5.05575e-06	-0.004354485629155154
5.05600e-06	-0.004351134307203243
5.05625e-06	-0.004347782985251333
5.05650e-06	-0.004344431663299411
5.05675e-06	-0.004343958371289981
5.05700e-06	-0.0043505990399097414
5.05725e-06	-0.004357239708529525
5.05750e-06	-0.004363880377149285
5.05775e-06	-0.004370521045769046
5.05800e-06	-0.004377161714388829
5.05825e-06	-0.004389080239030998
5.05850e-06	-0.004402418408113997
5.05875e-06	-0.004415756577197042
5.05900e-06	-0.004429094746280041
5.05925e-06	-0.004442432915363085
5.05950e-06	-0.0044557710844460845
5.05975e-06	-0.00447091235684586
5.06000e-06	-0.004486538630274314
5.06025e-06	-0.004502164903702714
5.06050e-06	-0.004517791177131114
5.06075e-06	-0.004533417450559568
5.06100e-06	-0.004549043723987968
5.06125e-06	-0.004563116699930166
5.06150e-06	-0.004576771867934546
5.06175e-06	-0.00459042703593888
5.06200e-06	-0.004604082203943214
5.06225e-06	-0.00461534866676326
5.06250e-06	-0.004625972612617864
5.06275e-06	-0.0046365965584724686
5.06300e-06	-0.004647220504327108
5.06325e-06	-0.004657776784430061
5.06350e-06	-0.004668314863712915
5.06375e-06	-0.004678852942995734
5.06400e-06	-0.0046893910222785525
5.06425e-06	-0.004699929101561407
5.06450e-06	-0.004710467180844226
5.06475e-06	-0.004721005260127045
5.06500e-06	-0.0047315433394099
5.06525e-06	-0.004742518701468803
5.06550e-06	-0.004754574946115602
5.06575e-06	-0.004766631190762442
5.06600e-06	-0.004778687435409241
5.06625e-06	-0.00479074368005604
5.06650e-06	-0.00480279992470288
5.06675e-06	-0.00481485616934968
5.06700e-06	-0.0048269124139964795
5.06725e-06	-0.0048389686586433195
5.06750e-06	-0.0048522065736879855
5.06775e-06	-0.004865762335942561
5.06800e-06	-0.00487931809819709
5.06825e-06	-0.0048928738604516195
5.06850e-06	-0.004906429622706195
5.06875e-06	-0.004919985384960725
5.06900e-06	-0.004933541147215254
5.06925e-06	-0.00494709690946983
5.06950e-06	-0.00496065267172436
5.06975e-06	-0.0049729667337683105
5.07000e-06	-0.0049849468017069175
5.07025e-06	-0.004996926869645484
5.07050e-06	-0.00500890693758405
5.07075e-06	-0.005020887005522656
5.07100e-06	-0.005032867073461222
5.07125e-06	-0.0050448471413997885
5.07150e-06	-0.005056827209338395
5.07175e-06	-0.005068807277276962
5.07200e-06	-0.005076199855368743
5.07225e-06	-0.005082358484594103
5.07250e-06	-0.005088517113819463
5.07275e-06	-0.005094675743044844
5.07300e-06	-0.0051008343722702045
5.07325e-06	-0.005106993001495564
5.07350e-06	-0.005113151630720945
5.07375e-06	-0.005119310259946305
5.07400e-06	-0.005125468889171665
5.07425e-06	-0.0051256783742442006
5.07450e-06	-0.005124287650939584
5.07475e-06	-0.005122896927634969
5.07500e-06	-0.005121506204330347
5.07525e-06	-0.005120115481025732
5.07550e-06	-0.005118724757721116
5.07575e-06	-0.005117334034416495
5.07600e-06	-0.005115943311111879
5.07625e-06	-0.005114552587807258
5.07650e-06	-0.005108430613939199
5.07675e-06	-0.005101036022264115
5.07700e-06	-0.005093641430589006
5.07725e-06	-0.005086246838913923
5.07750e-06	-0.005078852247238839
5.07775e-06	-0.00507145765556373
5.07800e-06	-0.005064063063888646
5.07825e-06	-0.005056668472213563
5.07850e-06	-0.005048510276752915
5.07875e-06	-0.005038464593193664
5.07900e-06	-0.005028418909634413
5.07925e-06	-0.005018373226075127
5.07950e-06	-0.005008327542515875
5.07975e-06	-0.004998281858956624
5.08000e-06	-0.004988236175397338
5.08025e-06	-0.004978190491838087
5.08050e-06	-0.004968144808278801
5.08075e-06	-0.004959249339965745
5.08100e-06	-0.004950663258015639
5.08125e-06	-0.004942077176065505
5.08150e-06	-0.004933491094115399
5.08175e-06	-0.004924905012165294
5.08200e-06	-0.0049163189302151595
5.08225e-06	-0.004907732848265054
5.08250e-06	-0.004899146766314949
5.08275e-06	-0.004892341863727412
5.08300e-06	-0.004889939708889075
5.08325e-06	-0.004887537554050738
5.08350e-06	-0.004885135399212393
5.08375e-06	-0.004882733244374056
5.08400e-06	-0.004880331089535719
5.08425e-06	-0.0048779289346973734
5.08450e-06	-0.0048755267798590365
5.08475e-06	-0.004873124625020699
5.08500e-06	-0.00487689687153685
5.08525e-06	-0.004882329916398852
5.08550e-06	-0.0048877629612608725
5.08575e-06	-0.004893196006122875
5.08600e-06	-0.004898629050984877
5.08625e-06	-0.004904062095846898
5.08650e-06	-0.0049094951407089
5.08675e-06	-0.004914928185570902
5.08700e-06	-0.004924868514739773
5.08725e-06	-0.004936021218986115
5.08750e-06	-0.0049471739232324575
5.08775e-06	-0.004958326627478838
5.08800e-06	-0.00496947933172518
5.08825e-06	-0.004980632035971522
5.08850e-06	-0.004991784740217902
5.08875e-06	-0.005002937444464244
5.08900e-06	-0.0050157441758342265
5.08925e-06	-0.005028995809528046
5.08950e-06	-0.00504224744322182
5.08975e-06	-0.00505549907691564
5.09000e-06	-0.0050687507106094145
5.09025e-06	-0.005082002344303189
5.09050e-06	-0.005094266069175307
5.09075e-06	-0.005106264065073435
5.09100e-06	-0.005118262060971562
5.09125e-06	-0.0051302600568697305
5.09150e-06	-0.005142258052767858
5.09175e-06	-0.005154256048665986
5.09200e-06	-0.0051643420162416675
5.09225e-06	-0.005173913684002278
5.09250e-06	-0.0051828545530513736
5.09275e-06	-0.005191625749059132
5.09300e-06	-0.0052032795129232975
5.09325e-06	-0.005215708633563257
5.09350e-06	-0.005228137754203259
5.09375e-06	-0.005244256502986389
5.09400e-06	-0.005261367692649857
5.09425e-06	-0.005278478882313267
5.09450e-06	-0.005302062625095768
5.09475e-06	-0.005327387363465386
5.09500e-06	-0.005352712101834918
5.09525e-06	-0.0053780368402044495
5.09550e-06	-0.005403361578574067
5.09575e-06	-0.005428686316943598
5.09600e-06	-0.005457416084683435
5.09625e-06	-0.005494562458693693
5.09650e-06	-0.005531708832703826
5.09675e-06	-0.005568855206713959
5.09700e-06	-0.005606001580724216
5.09725e-06	-0.005643147954734349
5.09750e-06	-0.005680294328744481
5.09775e-06	-0.005723598729552745
5.09800e-06	-0.005768559524257046
5.09825e-06	-0.0058135203189614995
5.09850e-06	-0.0058584811136658
5.09875e-06	-0.005903441908370101
5.09900e-06	-0.0059484027030745545
5.09925e-06	-0.005993363497778856
5.09950e-06	-0.006038100134310585
5.09975e-06	-0.0060827764764915335
5.10000e-06	-0.006127452818672331
5.10025e-06	-0.006172129160853127
5.10050e-06	-0.006216805503034076
5.10075e-06	-0.006261481845214873
5.10100e-06	-0.006306158187395669
5.10125e-06	-0.006343643682564378
5.10150e-06	-0.006379194974539475
5.10175e-06	-0.006414746266514572
5.10200e-06	-0.00645029755848979
5.10225e-06	-0.006485848850464887
5.10250e-06	-0.006517871161756904
5.10275e-06	-0.0065411704819345095
5.10300e-06	-0.0065644698021121144
5.10325e-06	-0.006587769122289799
5.10350e-06	-0.006611068442467405
5.10375e-06	-0.006634367762645011
5.10400e-06	-0.00664554546943478
5.10425e-06	-0.006653462689207715
5.10450e-06	-0.00666137990898065
5.10475e-06	-0.006669297128753611
5.10500e-06	-0.006677214348526546
5.10525e-06	-0.006685131568299481
5.10550e-06	-0.006693048788072443
5.10575e-06	-0.006700966007845378
5.10600e-06	-0.006708883227618313
5.10625e-06	-0.006716800447391274
5.10650e-06	-0.006713337970337858
5.10675e-06	-0.0067068145679300695
5.10700e-06	-0.006700291165522304
5.10725e-06	-0.006693767763114539
5.10750e-06	-0.006687244360706751
5.10775e-06	-0.006680720958298986
5.10800e-06	-0.006674197555891221
5.10825e-06	-0.006667674153483434
5.10850e-06	-0.006661150751075668
5.10875e-06	-0.0066546273486679025
5.10900e-06	-0.006643860997961405
5.10925e-06	-0.006631953373614529
5.10950e-06	-0.006620045749267655
5.10975e-06	-0.006607881177557718
5.11000e-06	-0.006595081479230455
5.11025e-06	-0.0065822817809031925
5.11050e-06	-0.006569482082575886
5.11075e-06	-0.006556609779227797
5.11100e-06	-0.006546179317094222
5.11125e-06	-0.006536410917562793
5.11150e-06	-0.006526642518031365
5.11175e-06	-0.006516874118499904
5.11200e-06	-0.006507105718968476
5.11225e-06	-0.006497337319437048
5.11250e-06	-0.006487568919905587
5.11275e-06	-0.006477800520374158
5.11300e-06	-0.006468032120842731
5.11325e-06	-0.00645826372131127
5.11350e-06	-0.006448495321779842
5.11375e-06	-0.006440507347624044
5.11400e-06	-0.006436920257497186
5.11425e-06	-0.00643333316737034
5.11450e-06	-0.006429746077243495
5.11475e-06	-0.006426158987116637
5.11500e-06	-0.006422571896989792
5.11525e-06	-0.006418984806862934
5.11550e-06	-0.006415397716736088
5.11575e-06	-0.006411810626609242
5.11600e-06	-0.006408223536482385
5.11625e-06	-0.006404636446355539
5.11650e-06	-0.006401049356228693
5.11675e-06	-0.006400697419408224
5.11700e-06	-0.00640121567824665
5.11725e-06	-0.006401733937085077
5.11750e-06	-0.006402252195923505
5.11775e-06	-0.006402770454761932
5.11800e-06	-0.0064032887136003585
5.11825e-06	-0.006403806972438786
5.11850e-06	-0.006404325231277213
5.11875e-06	-0.006404843490115639
5.11900e-06	-0.006405361748954068
5.11925e-06	-0.006406231827045466
5.11950e-06	-0.006407971537614853
5.11975e-06	-0.006409711248184235
5.12000e-06	-0.006411450958753616
5.12025e-06	-0.006413190669323003
5.12050e-06	-0.006414930379892385
5.12075e-06	-0.006416670090461766
5.12100e-06	-0.006418409801031154
5.12125e-06	-0.006420149511600535
5.12150e-06	-0.006421889222169916
5.12175e-06	-0.006423628932739304
5.12200e-06	-0.0064247711153454685
5.12225e-06	-0.006425752574118684
5.12250e-06	-0.006426734032891903
5.12275e-06	-0.006424483703268756
5.12300e-06	-0.006421364083084653
5.12325e-06	-0.006418244462900538
5.12350e-06	-0.006409426493137176
5.12375e-06	-0.006399075774042864
5.12400e-06	-0.006388725054948588
5.12425e-06	-0.00636988687007903
5.12450e-06	-0.006348765715850112
5.12475e-06	-0.0063276445616212654
5.12500e-06	-0.00630652340739242
5.12525e-06	-0.006285402253163501
5.12550e-06	-0.006264281098934656
5.12575e-06	-0.006231282532160145
5.12600e-06	-0.006195089163824458
5.12625e-06	-0.006158895795488893
5.12650e-06	-0.006122702427153328
5.12675e-06	-0.00608650905881764
5.12700e-06	-0.006050315690482076
5.12725e-06	-0.006005506054539909
5.12750e-06	-0.005958378803957769
5.12775e-06	-0.005911251553375789
5.12800e-06	-0.00586412430279365
5.12825e-06	-0.00581699705221167
5.12850e-06	-0.005765926704203159
5.12875e-06	-0.005713795736824365
5.12900e-06	-0.005661664769445749
5.12925e-06	-0.005609533802067133
5.12950e-06	-0.00555740283468834
5.12975e-06	-0.005504736257187828
5.13000e-06	-0.005451925610594257
5.13025e-06	-0.005400202623908225
5.13050e-06	-0.005348772197370235
5.13075e-06	-0.005299153619953148
5.13100e-06	-0.005250022396021073
5.13125e-06	-0.005202665958574893
5.13150e-06	-0.00515730390480403
5.13175e-06	-0.005114130369765651
5.13200e-06	-0.0050734793313075574
5.13225e-06	-0.00503568540248604
5.13250e-06	-0.0050011160529207085
5.13275e-06	-0.004970200011751683
5.13300e-06	-0.0049449675779106314
5.13325e-06	-0.004921050282871931
5.13350e-06	-0.004903838572625412
5.13375e-06	-0.004888430539120277
5.13400e-06	-0.004879826618303906
5.13425e-06	-0.004873052876388084
5.13450e-06	-0.0048750240204320375
5.13475e-06	-0.004879347375043831
5.13500e-06	-0.0048836707296556255
5.13525e-06	-0.00490235544952445
5.13550e-06	-0.004924903107718638
5.13575e-06	-0.004947450765912827
5.13600e-06	-0.004969998424107091
5.13625e-06	-0.00499254608230128
5.13650e-06	-0.005020748035227433
5.13675e-06	-0.005062926364646452
5.13700e-06	-0.005105104694065471
5.13725e-06	-0.0051472830234846325
5.13750e-06	-0.005189461352903652
5.13775e-06	-0.00523163968232267
5.13800e-06	-0.005282384640104055
5.13825e-06	-0.005335433860497156
5.13850e-06	-0.0053884830808902575
5.13875e-06	-0.00544470690558138
5.13900e-06	-0.005501784639381196
5.13925e-06	-0.005560314788132081
5.13950e-06	-0.005619235609307259
5.13975e-06	-0.005678508708994879
5.14000e-06	-0.005737876565005674
5.14025e-06	-0.005796489774390369
5.14050e-06	-0.005854899997963815
5.14075e-06	-0.005911473786311911
5.14100e-06	-0.005967553607973026
5.14125e-06	-0.006020641080538979
5.14150e-06	-0.00607292366723292
5.14175e-06	-0.006120964050025187
5.14200e-06	-0.006167863359407029
5.14225e-06	-0.006209232997010826
5.14250e-06	-0.006249115256454228
5.14275e-06	-0.006279737177974817
5.14300e-06	-0.00630786824200246
5.14325e-06	-0.006335999306030008
5.14350e-06	-0.006351589255007272
5.14375e-06	-0.006363805878879831
5.14400e-06	-0.00637602250275235
5.14425e-06	-0.00637541863514297
5.14450e-06	-0.006371366295400376
5.14475e-06	-0.0063673139556577945
5.14500e-06	-0.006345850519528968
5.14525e-06	-0.006319703824511153
5.14550e-06	-0.006293557129493339
5.14575e-06	-0.006267410434475436
5.14600e-06	-0.0062412637394576205
5.14625e-06	-0.006196192275783223
5.14650e-06	-0.006146030403723946
