Time(s)	Current(A)
7.05000e-06	-0.0014663504719496898
7.05025e-06	-0.0013913786213310406
7.05050e-06	-0.0013149364477655667
7.05075e-06	-0.0012372966414001885
7.05100e-06	-0.001158885182341841
7.05125e-06	-0.0010801669356625126
7.05150e-06	-0.001001606957208387
7.05175e-06	-0.0009236697594534581
7.05200e-06	-0.0008468112664671599
7.05225e-06	-0.0007714191201628785
7.05250e-06	-0.0006978164746244577
7.05275e-06	-0.0006263931796450389
7.05300e-06	-0.0005576349552907602
7.05325e-06	-0.0004920519288288065
7.05350e-06	-0.00043015417866504817
7.05375e-06	-0.00037245076198386747
7.05400e-06	-0.000319415374132131
7.05425e-06	-0.000271222594281055
7.05450e-06	-0.00022764728529899025
7.05475e-06	-0.00018850808798586978
7.05500e-06	-0.00015388261357244433
7.05525e-06	-0.00012392921945403939
7.05550e-06	-9.880613354465552e-05
7.05575e-06	-7.86708916936016e-05
7.05600e-06	-6.365896161629845e-05
7.05625e-06	-5.3718353943121465e-05
7.05650e-06	-4.854674978659274e-05
7.05675e-06	-4.7869245858072974e-05
7.05700e-06	-5.15731946678173e-05
7.05725e-06	-5.9596488774969015e-05
7.05750e-06	-7.187697766709012e-05
7.05775e-06	-8.835205944432956e-05
7.05800e-06	-0.00010894529696594112
7.05825e-06	-0.00013346285080808053
7.05850e-06	-0.00016155407917409613
7.05875e-06	-0.00019288556654572945
7.05900e-06	-0.00022722550588101043
7.05925e-06	-0.0002643738158882949
7.05950e-06	-0.00030413033964660875
7.05975e-06	-0.0003462947062487173
7.06000e-06	-0.00039072066158315675
7.06025e-06	-0.0004376570783489907
7.06050e-06	-0.00048478729221541927
7.06075e-06	-0.0005341377553021584
7.06100e-06	-0.0005835838692885427
7.06125e-06	-0.0006341258140903501
7.06150e-06	-0.0006846713663322218
7.06175e-06	-0.0007352582474484258
7.06200e-06	-0.000785746402929792
7.06225e-06	-0.0008351035016898753
7.06250e-06	-0.0008842384952251099
7.06275e-06	-0.0009308289256543152
7.06300e-06	-0.0009770841001365692
7.06325e-06	-0.0010194983928297073
7.06350e-06	-0.0010614681292819078
7.06375e-06	-0.0010983447779465071
7.06400e-06	-0.001134669231274305
7.06425e-06	-0.0011646674224409742
7.06450e-06	-0.0011940439797226419
7.06475e-06	-0.0012162987475503315
7.06500e-06	-0.0012379095172336545
7.06525e-06	-0.001252142279857281
7.06550e-06	-0.001265714507120933
7.06575e-06	-0.0012717192676284272
7.06600e-06	-0.0012770479882602663
7.06625e-06	-0.0012746316136327655
7.06650e-06	-0.0012715476523149237
7.06675e-06	-0.001260815440210984
7.06700e-06	-0.001249453566265898
7.06725e-06	-0.001230877930061503
7.06750e-06	-0.0012117142016880142
7.06775e-06	-0.0011858129567347395
7.06800e-06	-0.0011594965010372168
7.06825e-06	-0.0011281618597492316
7.06850e-06	-0.0010935886613784808
7.06875e-06	-0.001055982644498994
7.06900e-06	-0.0010155811025434117
7.06925e-06	-0.0009726270826664834
7.06950e-06	-0.0009273633154869079
7.06975e-06	-0.0008800325571215699
7.07000e-06	-0.0008308772097680724
7.07025e-06	-0.0007801404176914261
7.07050e-06	-0.0007280807414457687
7.07075e-06	-0.0006749884988953239
7.07100e-06	-0.0006211740566391332
7.07125e-06	-0.0005669511352784876
7.07150e-06	-0.0005126332529568262
7.07175e-06	-0.0004585340406275255
7.07200e-06	-0.0004049668579632356
7.07225e-06	-0.0003522454199242426
7.07250e-06	-0.0003006931362942959
7.07275e-06	-0.0002506532684136935
7.07300e-06	-0.00020248170256799295
7.07325e-06	-0.00015653621681817017
7.07350e-06	-0.00011317463575025208
7.07375e-06	-7.275281289622453e-05
7.07400e-06	-3.55661345841353e-05
7.07425e-06	-1.4135622928458436e-06
7.07450e-06	3.048127515656612e-05
7.07475e-06	6.0634426831419895e-05
7.07500e-06	8.90101449662176e-05
7.07525e-06	0.0001154186622026483
7.07550e-06	0.00013967028152594022
7.07575e-06	0.00016157651114874337
7.07600e-06	0.00018098674988752805
7.07625e-06	0.00019806140514166474
7.07650e-06	0.00021332118074474349
7.07675e-06	0.00022712371985603315
7.07700e-06	0.00023948099156985452
7.07725e-06	0.0002503085196819137
7.07750e-06	0.0002595218070614728
7.07775e-06	0.0002670371711523865
7.07800e-06	0.00027274315071050217
7.07825e-06	0.00027633850695789
7.07850e-06	0.00027980138908083817
7.07875e-06	0.0002816301357894196
7.07900e-06	0.0002821249154590993
7.07925e-06	0.0002824594724538355
7.07950e-06	0.0002809584278461091
7.07975e-06	0.0002792969058931219
7.08000e-06	0.000275796864690468
7.08025e-06	0.00027218882808720187
7.08050e-06	0.00026734353508127347
7.08075e-06	0.00026242045859587034
7.08100e-06	0.00025660625056765315
7.08125e-06	0.000250792042539436
7.08150e-06	0.00024490341042136116
7.08175e-06	0.0002381621338284136
7.08200e-06	0.00023142085723546605
7.08225e-06	0.00022467798603249112
7.08250e-06	0.00021791684607525686
7.08275e-06	0.0002111557061180226
7.08300e-06	0.00020446498172426355
7.08325e-06	0.00019858097785997275
7.08350e-06	0.00019269697399568195
7.08375e-06	0.00018690022236221603
7.08400e-06	0.0001821030816437783
7.08425e-06	0.00017741176520312315
7.08450e-06	0.00017393283155351988
7.08475e-06	0.00017057682013924626
7.08500e-06	0.00016862907538975322
7.08525e-06	0.00016680355720508303
7.08550e-06	0.00016637833569019492
7.08575e-06	0.00016607522800762462
7.08600e-06	0.0001671711254675153
7.08625e-06	0.00016839865827536247
7.08650e-06	0.00017113428009511003
7.08675e-06	0.00017400108808512032
7.08700e-06	0.00017837083905330092
7.08725e-06	0.0001828601805149168
7.08750e-06	0.00018871961832098296
7.08775e-06	0.0001946874171782181
7.08800e-06	0.0002018966615370615
7.08825e-06	0.00020920907249035985
7.08850e-06	0.00021770341831089753
7.08875e-06	0.00022630859789895402
7.08900e-06	0.0002361835518261158
7.08925e-06	0.00024605850575331104
7.08950e-06	0.0002560561153686966
7.08975e-06	0.00026745893793398746
7.09000e-06	0.00027886176049931693
7.09025e-06	0.0002902645830646078
7.09050e-06	0.0003016674056298987
7.09075e-06	0.00031307022819522816
7.09100e-06	0.00032477204500504377
7.09125e-06	0.000336690127076339
7.09150e-06	0.00034860820914767464
7.09175e-06	0.00036052629121896985
7.09200e-06	0.0003724443732902651
7.09225e-06	0.00038430477211024615
7.09250e-06	0.00039550431897170845
7.09275e-06	0.0004066578184027405
7.09300e-06	0.00041724466534139265
7.09325e-06	0.0004273380056079624
7.09350e-06	0.0004368585359373352
7.09375e-06	0.00044572542483944575
7.09400e-06	0.0004538088270805254
7.09425e-06	0.0004605889184085748
7.09450e-06	0.0004651587835537023
7.09475e-06	0.0004669544522935797
7.09500e-06	0.00046593533688216464
7.09525e-06	0.00046219668948370706
7.09550e-06	0.0004558337157369031
7.09575e-06	0.0004469407062656157
7.09600e-06	0.0004355812031807406
7.09625e-06	0.0004215745259191103
7.09650e-06	0.0004044975195595302
7.09675e-06	0.00038414188621273396
7.09700e-06	0.0003606271660011563
7.09725e-06	0.00033415804149171814
7.09750e-06	0.00030493913937985683
7.09775e-06	0.0002731744392727528
7.09800e-06	0.00023904869616391997
7.09825e-06	0.00020259368534020057
7.09850e-06	0.0001636892848193428
7.09875e-06	0.00012234997527000227
7.09900e-06	7.87956287118078e-05
7.09925e-06	3.32993786190327e-05
7.09950e-06	-1.386567005330051e-05
7.09975e-06	-6.242682377736485e-05
7.10000e-06	-0.00011212346390238883
7.10025e-06	-0.0001628216972776907
7.10050e-06	-0.00021471312121415831
7.10075e-06	-0.00026668027939099714
7.10100e-06	-0.0003195150918651238
7.10125e-06	-0.0003723499043394294
7.10150e-06	-0.00042507638691462776
7.10175e-06	-0.0004765617808870743
7.10200e-06	-0.0005280471748596952
7.10225e-06	-0.000579302221478299
7.10250e-06	-0.000627918278507293
7.10275e-06	-0.0006762504248625468
7.10300e-06	-0.0007213299299335908
7.10325e-06	-0.0007660164413241607
7.10350e-06	-0.0008062005948010269
7.10375e-06	-0.0008459221057704592
7.10400e-06	-0.0008803433224669599
7.10425e-06	-0.0009145923469835348
7.10450e-06	-0.0009468686404792047
7.10475e-06	-0.0009791475749138404
7.10500e-06	-0.0010114567654393128
7.10525e-06	-0.0010437659559646758
7.10550e-06	-0.0010759257227709203
7.10575e-06	-0.001106373606923253
7.10600e-06	-0.0011368214910755861
7.10625e-06	-0.0011673313164486387
7.10650e-06	-0.001198550775483981
7.10675e-06	-0.001229770234519323
7.10700e-06	-0.0012609896935547708
7.10725e-06	-0.001292209152590113
7.10750e-06	-0.0013241493909710554
7.10775e-06	-0.0013566109756203053
7.10800e-06	-0.0013890725602694455
7.10825e-06	-0.0014215341449185855
7.10850e-06	-0.0014541340668210486
7.10875e-06	-0.0014883188585508341
7.10900e-06	-0.0015225036502806196
7.10925e-06	-0.001556688442010521
7.10950e-06	-0.0015908732337403064
7.10975e-06	-0.0016250580254702077
7.11000e-06	-0.0016592428171999932
7.11025e-06	-0.0016934276089297787
7.11050e-06	-0.0017274571720926968
7.11075e-06	-0.0017597083489826826
7.11100e-06	-0.0017919595258726684
7.11125e-06	-0.0018242107027627635
7.11150e-06	-0.0018564618796527493
7.11175e-06	-0.001888713056542735
7.11200e-06	-0.0019209642334328302
7.11225e-06	-0.001953215410322816
7.11250e-06	-0.0019850611700932674
7.11275e-06	-0.002012262242007126
7.11300e-06	-0.0020394633139208924
7.11325e-06	-0.002066664385834659
7.11350e-06	-0.002090743604645014
7.11375e-06	-0.0021125647586604083
7.11400e-06	-0.0021343859126758766
7.11425e-06	-0.0021558958210694586
7.11450e-06	-0.0021738399235554404
7.11475e-06	-0.0021917840260414823
7.11500e-06	-0.0022097281285274636
7.11525e-06	-0.0022276722310134453
7.11550e-06	-0.002243850608748454
7.11575e-06	-0.002258751821682439
7.11600e-06	-0.002273653034616424
7.11625e-06	-0.0022885542475504592
7.11650e-06	-0.002303256230935504
7.11675e-06	-0.0023156757279088574
7.11700e-06	-0.002328095224882253
7.11725e-06	-0.0023405147218556067
7.11750e-06	-0.0023529342188289603
7.11775e-06	-0.002365353715802356
7.11800e-06	-0.0023777732127757095
7.11825e-06	-0.002390192709749105
7.11850e-06	-0.0024026122067224587
7.11875e-06	-0.0024150317036958123
7.11900e-06	-0.002427451200669208
7.11925e-06	-0.0024384924289441484
7.11950e-06	-0.0024485367429113777
7.11975e-06	-0.0024585810568786416
7.12000e-06	-0.002468625370845871
7.12025e-06	-0.0024786696848131005
7.12050e-06	-0.002488713998780364
7.12075e-06	-0.0024987583127475937
7.12100e-06	-0.0025088026267148233
7.12125e-06	-0.002518846940682087
7.12150e-06	-0.0025288912546493165
7.12175e-06	-0.002538755137423251
7.12200e-06	-0.002546551898382207
7.12225e-06	-0.002554348659341137
7.12250e-06	-0.0025621454203000934
7.12275e-06	-0.002569942181259023
7.12300e-06	-0.002577738942217953
7.12325e-06	-0.002585438211953047
7.12350e-06	-0.0025919824740078764
7.12375e-06	-0.0025980442086006115
7.12400e-06	-0.002603456747015201
7.12425e-06	-0.0026072087691113997
7.12450e-06	-0.00260743053939359
7.12475e-06	-0.0026029508653490937
7.12500e-06	-0.002593529358193331
7.12525e-06	-0.0025779165501371554
7.12550e-06	-0.0025616418422464773
7.12575e-06	-0.002537784035437231
7.12600e-06	-0.00251322003017703
7.12625e-06	-0.0024805654159891426
7.12650e-06	-0.0024470217734274477
7.12675e-06	-0.0024032929189200915
7.12700e-06	-0.002358931622223786
7.12725e-06	-0.0023069458353926673
7.12750e-06	-0.0022502726458557987
7.12775e-06	-0.002189310226525934
7.12800e-06	-0.0021244149688826853
7.12825e-06	-0.002055612468965908
7.12850e-06	-0.0019825914016573334
7.12875e-06	-0.0019053144749150619
7.12900e-06	-0.0018241779963250175
7.12925e-06	-0.0017396919533755866
7.12950e-06	-0.001652366031036853
7.12975e-06	-0.0015627092779594372
7.13000e-06	-0.0014712045977563193
7.13025e-06	-0.0013781274263032612
7.13050e-06	-0.0012835420932794286
7.13075e-06	-0.001187684904437857
7.13100e-06	-0.0010910635825289211
7.13125e-06	-0.000994256939860552
7.13150e-06	-0.0008978437305320349
7.13175e-06	-0.0008024021224029707
7.13200e-06	-0.0007084939047686546
7.13225e-06	-0.0006165508963344304
7.13250e-06	-0.000526872722478886
7.13275e-06	-0.0004398665612819115
7.13300e-06	-0.0003561096948762314
7.13325e-06	-0.00027622383811959323
7.13350e-06	-0.00020083067963649223
7.13375e-06	-0.00013055054355250607
7.13400e-06	-6.596314752226652e-05
7.13425e-06	-7.301790541580038e-06
7.13450e-06	4.566849600737436e-05
7.13475e-06	9.314399548580543e-05
7.13500e-06	0.0001350289090004325
7.13525e-06	0.0001711353329271339
7.13550e-06	0.00020127543262954935
7.13575e-06	0.0002252622366921788
7.13600e-06	0.00024293421519090393
7.13625e-06	0.00025434685530055035
7.13650e-06	0.00025984897483797344
7.13675e-06	0.00025976512651843225
7.13700e-06	0.0002542369446331875
7.13725e-06	0.00024334823546509965
7.13750e-06	0.000227182990332371
7.13775e-06	0.00020582565508952793
7.13800e-06	0.00017937665218726304
7.13825e-06	0.00014807234370575837
7.13850e-06	0.00011233278095267661
7.13875e-06	7.256281619885908e-05
7.13900e-06	2.9052652561175986e-05
7.13925e-06	-1.794366450967029e-05
7.13950e-06	-6.817206715162994e-05
7.13975e-06	-0.00012137816342450044
7.14000e-06	-0.00017729760244049433
7.14025e-06	-0.00023558089195390745
7.14050e-06	-0.0002958072447172716
7.14075e-06	-0.0003578917104705587
7.14100e-06	-0.000420093329242559
7.14125e-06	-0.00048363711926260763
7.14150e-06	-0.000547182227026313
7.14175e-06	-0.0006107424316069546
7.14200e-06	-0.0006741762052255022
7.14225e-06	-0.0007361615142284232
7.14250e-06	-0.0007978677279287457
7.14275e-06	-0.000856376467968288
7.14300e-06	-0.0009144646398394806
7.14325e-06	-0.0009677345448778391
7.14350e-06	-0.0010204469602378534
7.14375e-06	-0.001066772458498568
7.14400e-06	-0.0011124275476643776
7.14425e-06	-0.001150402051021341
7.14450e-06	-0.0011876683372555403
7.14475e-06	-0.0012168208875244586
7.14500e-06	-0.0012452397910216139
7.14525e-06	-0.0012652536221118638
7.14550e-06	-0.001284504306729163
7.14575e-06	-0.0012950119536772622
7.14600e-06	-0.0013047419729908033
7.14625e-06	-0.0013055630502556486
7.14650e-06	-0.0013056390976864394
7.14675e-06	-0.0012971796619105347
7.14700e-06	-0.001288015518321912
7.14725e-06	-0.001270777843411337
7.14750e-06	-0.0012528732593703503
7.14775e-06	-0.0012273281870942051
7.14800e-06	-0.001201309778492567
7.14825e-06	-0.0011695757978154827
7.14850e-06	-0.0011342164484933518
7.14875e-06	-0.0010954981229177778
7.14900e-06	-0.0010536763647093703
7.14925e-06	-0.001009000144185738
7.14950e-06	-0.0009617179778882522
7.14975e-06	-0.0009120787549689942
7.15000e-06	-0.0008603338646580679
7.15025e-06	-0.0008067603629131037
7.15050e-06	-0.0007516802839677586
7.15075e-06	-0.000695435463232762
7.15100e-06	-0.0006383611335613589
7.15125e-06	-0.0005807880355560985
7.15150e-06	-0.000523046963353759
7.15175e-06	-0.0004654687484739166
7.15200e-06	-0.0004083858399555068
7.15225e-06	-0.0003521466712352823
7.15250e-06	-0.00029712782530503374
7.15275e-06	-0.00024371831092216882
7.15300e-06	-0.0001923029665899545
7.15325e-06	-0.00014326377833115972
7.15350e-06	-9.698271209248142e-05
7.15375e-06	-5.384179193922612e-05
7.15400e-06	-1.4223260058905648e-05
7.15425e-06	2.150175856384306e-05
7.15450e-06	5.3042195264601524e-05
7.15475e-06	8.024487780007299e-05
7.15500e-06	0.00010303774384124223
7.15525e-06	0.00012136069907650849
7.15550e-06	0.000135153671180696
7.15575e-06	0.0001443566083362426
7.15600e-06	0.00014890928989168284
7.15625e-06	0.00014875852416471562
7.15650e-06	0.00014390123762846754
7.15675e-06	0.00013442072845242854
7.15700e-06	0.00012045115881672049
7.15725e-06	0.00010213412236107762
7.15750e-06	7.961125462887287e-05
7.15775e-06	5.302418758253352e-05
7.15800e-06	2.2514458272480295e-05
7.15825e-06	-1.1772026102823226e-05
7.15850e-06	-4.9657948488155945e-05
7.15875e-06	-9.091189894389553e-05
7.15900e-06	-0.00013527063475639631
7.15925e-06	-0.0001824662795974236
7.15950e-06	-0.00023223090710860594
7.15975e-06	-0.0002842966462689216
7.16000e-06	-0.0003384558403255293
7.16025e-06	-0.00039494662262479967
7.16050e-06	-0.00045162538666414486
7.16075e-06	-0.0005104577758504806
7.16100e-06	-0.0005693681280317615
7.16125e-06	-0.0006291716683844935
7.16150e-06	-0.0006889418048702591
7.16175e-06	-0.0007483292477589511
7.16200e-06	-0.0008075713720265122
7.16225e-06	-0.0008651486439724819
7.16250e-06	-0.0009224617480339719
7.16275e-06	-0.0009767483953891558
7.16300e-06	-0.001030644516327362
7.16325e-06	-0.0010800665457331943
7.16350e-06	-0.001128971687852574
7.16375e-06	-0.0011719550768466089
7.16400e-06	-0.0012142855518948066
7.16425e-06	-0.0012491358754675615
7.16450e-06	-0.0012839861990404345
7.16475e-06	-0.0013182032268487705
7.16500e-06	-0.0013451648601635507
7.16525e-06	-0.0013721264934782398
7.16550e-06	-0.0013983627945777734
7.16575e-06	-0.0014162892795451056
7.16600e-06	-0.001434215764512377
7.16625e-06	-0.0014514933837794645
7.16650e-06	-0.0014613372305625396
7.16675e-06	-0.0014711810773455816
7.16700e-06	-0.0014804701914310973
7.16725e-06	-0.0014834039739564679
7.16750e-06	-0.0014863377564818285
7.16775e-06	-0.0014887148063299019
7.16800e-06	-0.0014847136117186964
7.16825e-06	-0.0014807124171075047
7.16850e-06	-0.0014762948373067519
7.16875e-06	-0.001467106913251959
7.16900e-06	-0.0014579189891971973
7.16925e-06	-0.0014483835048006977
7.16950e-06	-0.0014348661725374068
7.16975e-06	-0.001421348840274116
7.17000e-06	-0.0014075890244861224
7.17025e-06	-0.00139105118028271
7.17050e-06	-0.001374403608219011
7.17075e-06	-0.0013564989317219676
7.17100e-06	-0.0013385260689999033
7.17125e-06	-0.0013197720263148714
7.17150e-06	-0.001300981012041723
7.17175e-06	-0.0012817664303435437
7.17200e-06	-0.0012625608485541853
7.17225e-06	-0.0012434583748108605
7.17250e-06	-0.0012244355965218817
7.17275e-06	-0.001206325854435501
7.17300e-06	-0.0011883441624536471
7.17325e-06	-0.0011718294848992782
7.17350e-06	-0.0011554850205736942
7.17375e-06	-0.0011410906152757591
7.17400e-06	-0.0011269457588515138
7.17425e-06	-0.0011156598754769632
7.17450e-06	-0.0011048290030690785
7.17475e-06	-0.0010992109936632472
7.17500e-06	-0.0010935929842573965
7.17525e-06	-0.0010885296888579728
7.17550e-06	-0.0010898215108791792
7.17575e-06	-0.0010911133329003897
7.17600e-06	-0.0010929803204342311
7.17625e-06	-0.0011014367294117397
7.17650e-06	-0.0011098931383892769
7.17675e-06	-0.0011189524259943267
7.17700e-06	-0.0011349186321624619
7.17725e-06	-0.001150884838330651
7.17750e-06	-0.001167373497149854
7.17775e-06	-0.0011898476690541562
7.17800e-06	-0.0012123218409583825
7.17825e-06	-0.0012352683258347351
7.17850e-06	-0.001263625895273547
7.17875e-06	-0.0012919834647122628
7.17900e-06	-0.001320723332458713
7.17925e-06	-0.0013538430258573009
7.17950e-06	-0.0013869627192557765
7.17975e-06	-0.0014203351079135967
7.18000e-06	-0.0014566025163939664
7.18025e-06	-0.0014928699248742132
7.18050e-06	-0.0015292819424813804
7.18075e-06	-0.0015673506840414915
7.18100e-06	-0.0016054194256014738
7.18125e-06	-0.0016434810363925734
7.18150e-06	-0.0016814609530621306
7.18175e-06	-0.001719440869731559
7.18200e-06	-0.0017572589874171665
7.18225e-06	-0.0017932234444249123
7.18250e-06	-0.0018291879014326582
7.18275e-06	-0.0018648377167681748
7.18300e-06	-0.0018968828191359734
7.18325e-06	-0.0019289279215037717
7.18350e-06	-0.001960477190888439
7.18375e-06	-0.0019863459171618166
7.18400e-06	-0.0020122146434351945
7.18425e-06	-0.002037402616480329
7.18450e-06	-0.0020547914954914034
7.18475e-06	-0.002072180374502478
7.18500e-06	-0.002088812762734741
7.18525e-06	-0.0020967783647154272
7.18550e-06	-0.0021047439666961134
7.18575e-06	-0.0021119292276722433
7.18600e-06	-0.0021101744607212388
7.18625e-06	-0.002108419693770228
7.18650e-06	-0.00210587752046562
7.18675e-06	-0.002094314374599624
7.18700e-06	-0.002082751228733588
7.18725e-06	-0.002070467996704262
7.18750e-06	-0.0020499350502915003
7.18775e-06	-0.0020294021038786687
7.18800e-06	-0.002008326589753479
7.18825e-06	-0.001981035113026947
7.18850e-06	-0.001953355686959265
7.18875e-06	-0.0019212316938083754
7.18900e-06	-0.001888854469577885
7.18925e-06	-0.0018534287238734693
7.18950e-06	-0.0018161834440152233
7.18975e-06	-0.0017773191481826375
7.19000e-06	-0.0017370348667575485
7.19025e-06	-0.001695521115547866
7.19050e-06	-0.0016529702912821311
7.19075e-06	-0.001609605951801061
7.19100e-06	-0.0015656779633916502
7.19125e-06	-0.0015214419554090807
7.19150e-06	-0.0014771533617611416
7.19175e-06	-0.0014330677557288167
7.19200e-06	-0.0013894394334796304
7.19225e-06	-0.0013465178076286545
7.19250e-06	-0.0013045531207264158
7.19275e-06	-0.00126381513998165
7.19300e-06	-0.0012246733732243493
7.19325e-06	-0.0011881200681162492
