Time(s)	Current(A)
1.75000e-06	-0.00925466982372803
1.75025e-06	-0.009288966398419961
1.75050e-06	-0.009323656806456866
1.75075e-06	-0.009360280445821935
1.75100e-06	-0.009396904085186971
1.75125e-06	-0.009433610027104723
1.75150e-06	-0.009470719972074139
1.75175e-06	-0.009507717220602153
1.75200e-06	-0.009544161269930719
1.75225e-06	-0.009580340443217567
1.75250e-06	-0.00961521940495952
1.75275e-06	-0.009649668701667391
1.75300e-06	-0.009682008878070941
1.75325e-06	-0.009712506302158745
1.75350e-06	-0.009733958106945667
1.75375e-06	-0.009755409911732604
1.75400e-06	-0.009776861716519526
1.75425e-06	-0.009798313521306464
1.75450e-06	-0.009819765326093384
1.75475e-06	-0.009841217130880304
1.75500e-06	-0.009862668935667243
1.75525e-06	-0.009884120740454165
1.75550e-06	-0.009905572545241104
1.75575e-06	-0.009924622623362744
1.75600e-06	-0.009931883214154452
1.75625e-06	-0.009939143804946154
1.75650e-06	-0.009946404395737856
1.75675e-06	-0.009953664986529566
1.75700e-06	-0.009960925577321268
1.75725e-06	-0.009968186168112975
1.75750e-06	-0.009975446758904678
1.75775e-06	-0.00998270734969638
1.75800e-06	-0.009989967940488089
1.75825e-06	-0.0099957010693461
1.75850e-06	-0.00999393626208418
1.75875e-06	-0.00999217145482226
1.75900e-06	-0.00999040664756034
1.75925e-06	-0.00998864184029842
1.75950e-06	-0.009986877033036502
1.75975e-06	-0.009985112225774582
1.76000e-06	-0.009983347418512664
1.76025e-06	-0.009981582611250744
1.76050e-06	-0.009979817803988825
1.76075e-06	-0.009975505755141785
1.76100e-06	-0.00996993477956834
1.76125e-06	-0.0099643638039949
1.76150e-06	-0.009958792828421457
1.76175e-06	-0.009953221852848018
1.76200e-06	-0.009947650877274578
1.76225e-06	-0.009942079901701133
1.76250e-06	-0.009936508926127694
1.76275e-06	-0.009930937950554249
1.76300e-06	-0.009925411910042597
1.76325e-06	-0.009920106444731784
1.76350e-06	-0.009914800979420968
1.76375e-06	-0.009909495514110156
1.76400e-06	-0.00990419004879934
1.76425e-06	-0.009898884583488527
1.76450e-06	-0.009893579118177715
1.76475e-06	-0.009888273652866899
1.76500e-06	-0.009882968187556088
1.76525e-06	-0.009877662722245271
1.76550e-06	-0.009872050486187625
1.76575e-06	-0.009864932387749834
1.76600e-06	-0.009857814289312048
1.76625e-06	-0.009850696190874262
1.76650e-06	-0.00984357809243647
1.76675e-06	-0.009836459993998684
1.76700e-06	-0.009829341895560891
1.76725e-06	-0.009822223797123105
1.76750e-06	-0.009815105698685319
1.76775e-06	-0.009807987600247528
1.76800e-06	-0.009800462043316078
1.76825e-06	-0.009790936372542617
1.76850e-06	-0.009781410701769163
1.76875e-06	-0.00977188503099571
1.76900e-06	-0.00976235936022225
1.76925e-06	-0.009752833689448796
1.76950e-06	-0.009743308018675335
1.76975e-06	-0.00973378234790188
1.77000e-06	-0.00972425667712842
1.77025e-06	-0.009714632705636108
1.77050e-06	-0.009704526200016952
1.77075e-06	-0.009694419694397789
1.77100e-06	-0.009684313188778635
1.77125e-06	-0.009674206683159471
1.77150e-06	-0.009664100177540316
1.77175e-06	-0.00965399367192116
1.77200e-06	-0.009643887166301997
1.77225e-06	-0.009633780660682842
1.77250e-06	-0.009624042221569349
1.77275e-06	-0.009616110530687115
1.77300e-06	-0.009608178839804882
1.77325e-06	-0.00960024714892264
1.77350e-06	-0.009592315458040408
1.77375e-06	-0.009584383767158167
1.77400e-06	-0.009576452076275933
1.77425e-06	-0.009568520385393693
1.77450e-06	-0.009560588694511459
1.77475e-06	-0.009556141278148631
1.77500e-06	-0.009553415899593218
1.77525e-06	-0.009550690521037809
1.77550e-06	-0.009547965142482396
1.77575e-06	-0.009545239763926985
1.77600e-06	-0.009542514385371575
1.77625e-06	-0.009539789006816162
1.77650e-06	-0.009537063628260753
1.77675e-06	-0.009535344312302
1.77700e-06	-0.00953856351095668
1.77725e-06	-0.00954178270961136
1.77750e-06	-0.009545001908266043
1.77775e-06	-0.009548221106920723
1.77800e-06	-0.009551440305575405
1.77825e-06	-0.009554659504230085
1.77850e-06	-0.009557878702884767
1.77875e-06	-0.009561097901539447
1.77900e-06	-0.00956699580534112
1.77925e-06	-0.00957421760928678
1.77950e-06	-0.009581439413232433
1.77975e-06	-0.009588661217178092
1.78000e-06	-0.009595883021123745
1.78025e-06	-0.009603104825069398
1.78050e-06	-0.009610326629015058
1.78075e-06	-0.00961754843296071
1.78100e-06	-0.00962490539448968
1.78125e-06	-0.009632925811456186
1.78150e-06	-0.009640946228422693
1.78175e-06	-0.009648966645389206
1.78200e-06	-0.009656987062355713
1.78225e-06	-0.009665007479322226
1.78250e-06	-0.009673027896288731
1.78275e-06	-0.009680661272469573
1.78300e-06	-0.009686394760331072
1.78325e-06	-0.009692128248192568
1.78350e-06	-0.00969786173605407
1.78375e-06	-0.009703595223915567
1.78400e-06	-0.00970932871177707
1.78425e-06	-0.009715062199638566
1.78450e-06	-0.009720330040665007
1.78475e-06	-0.00972331213554893
1.78500e-06	-0.009726294230432848
1.78525e-06	-0.009729276325316769
1.78550e-06	-0.009732258420200687
1.78575e-06	-0.009735240515084606
1.78600e-06	-0.009738222609968528
1.78625e-06	-0.009740731337766989
1.78650e-06	-0.00974091642260665
1.78675e-06	-0.009741101507446313
1.78700e-06	-0.009741286592285974
1.78725e-06	-0.009741471677125637
1.78750e-06	-0.009741656761965298
1.78775e-06	-0.00974184184680496
1.78800e-06	-0.009742026931644622
1.78825e-06	-0.009742212016484285
1.78850e-06	-0.009742397101323946
1.78875e-06	-0.009742582186163608
1.78900e-06	-0.00974276727100327
1.78925e-06	-0.009742952355842932
1.78950e-06	-0.009743137440682594
1.78975e-06	-0.009743322525522256
1.79000e-06	-0.009743203051512547
1.79025e-06	-0.009741588572785363
1.79050e-06	-0.009739974094058182
1.79075e-06	-0.009738359615330998
1.79100e-06	-0.009736745136603817
1.79125e-06	-0.009735130657876633
1.79150e-06	-0.009733516179149452
1.79175e-06	-0.00973190170042227
1.79200e-06	-0.009730287221695087
1.79225e-06	-0.009728672742967905
1.79250e-06	-0.009727058264240723
1.79275e-06	-0.00972544378551354
1.79300e-06	-0.009723829306786358
1.79325e-06	-0.009722214828059177
1.79350e-06	-0.009720600349331993
1.79375e-06	-0.009719182223357336
1.79400e-06	-0.009718727944901496
1.79425e-06	-0.009718273666445655
1.79450e-06	-0.009717819387989815
1.79475e-06	-0.009717365109533974
1.79500e-06	-0.009716910831078134
1.79525e-06	-0.009716456552622293
1.79550e-06	-0.009716002274166453
1.79575e-06	-0.009715547995710613
1.79600e-06	-0.009715818967454354
1.79625e-06	-0.00971965001460518
1.79650e-06	-0.009723481061756004
1.79675e-06	-0.009727312108906832
1.79700e-06	-0.009731143156057656
1.79725e-06	-0.009734974203208478
1.79750e-06	-0.009738805250359306
1.79775e-06	-0.00974263629751013
1.79800e-06	-0.009746467344660956
1.79825e-06	-0.009750948044650364
1.79850e-06	-0.00975861773113721
1.79875e-06	-0.009766287417624064
1.79900e-06	-0.009773957104110909
1.79925e-06	-0.009781626790597762
1.79950e-06	-0.009789296477084609
1.79975e-06	-0.009796966163571461
1.80000e-06	-0.009804635850058308
1.80025e-06	-0.009812305536545154
1.80050e-06	-0.009819975223032006
1.80075e-06	-0.00982812253781869
1.80100e-06	-0.009836505911499566
1.80125e-06	-0.009844889285180434
1.80150e-06	-0.009853272658861302
1.80175e-06	-0.009861656032542177
1.80200e-06	-0.009870039406223045
1.80225e-06	-0.00987842277990392
1.80250e-06	-0.009886806153584789
1.80275e-06	-0.009895189527265657
1.80300e-06	-0.009902993610807355
1.80325e-06	-0.009909109172140777
1.80350e-06	-0.009915248305379244
1.80375e-06	-0.01715012643900711
1.80400e-06	-0.02457749169314749
1.80425e-06	-0.022659941052721212
1.80450e-06	-0.020656094697553067
1.80475e-06	-0.014647231042516192
1.80500e-06	-0.00877010834803449
1.80525e-06	-0.008526738736065397
1.80550e-06	-0.0092060953960952
1.80575e-06	-0.01336032013869967
1.80600e-06	-0.01780839699577957
1.80625e-06	-0.017396404586851093
1.80650e-06	-0.016168368597157225
1.80675e-06	-0.01266337037928538
1.80700e-06	-0.009205406448433514
1.80725e-06	-0.007821564303046402
1.80750e-06	-0.008535117954135195
1.80775e-06	-0.010783209957992725
1.80800e-06	-0.013129509816482
1.80825e-06	-0.013824369148266525
1.80850e-06	-0.012859524060953488
1.80875e-06	-0.010929784767981489
1.80900e-06	-0.008960711384397566
1.80925e-06	-0.008111681969162952
1.80950e-06	-0.00857369884080589
1.80975e-06	-0.009994502411453493
1.81000e-06	-0.011474690045452988
1.81025e-06	-0.01191864091532238
1.81050e-06	-0.011321542167616026
1.81075e-06	-0.01011892992201524
1.81100e-06	-0.008890806120971298
1.81125e-06	-0.008363549128579657
1.81150e-06	-0.008656887413469252
1.81175e-06	-0.009550235398824254
1.81200e-06	-0.010480298550759812
1.81225e-06	-0.010760913808820743
1.81250e-06	-0.010389218703691784
1.81275e-06	-0.009638161819539061
1.81300e-06	-0.00887114622285876
1.81325e-06	-0.008543220987350298
1.81350e-06	-0.008729400335409405
1.81375e-06	-0.00929152299027756
1.81400e-06	-0.009876774808373899
1.81425e-06	-0.01005541652306444
1.81450e-06	-0.009825746523590714
1.81475e-06	-0.00935879926969461
1.81500e-06	-0.008882221944113757
1.81525e-06	-0.008681033611908858
1.81550e-06	-0.00880218116366273
1.81575e-06	-0.009159080518395011
1.81600e-06	-0.009530701439592264
1.81625e-06	-0.009647849475845046
1.81650e-06	-0.009509463306511463
1.81675e-06	-0.009222676773900925
1.81700e-06	-0.008930075635865224
1.81725e-06	-0.008810166622735852
1.81750e-06	-0.008892318440245336
1.81775e-06	-0.009122257329119724
1.81800e-06	-0.009361501096410164
1.81825e-06	-0.009441410561338293
1.81850e-06	-0.009361313316657021
1.81875e-06	-0.009188306211897007
1.81900e-06	-0.009011685033672983
1.81925e-06	-0.008943237962771971
1.81950e-06	-0.009001327781818787
1.81975e-06	-0.00915192376915797
1.82000e-06	-0.009308251614981432
1.82025e-06	-0.009364656540058656
1.82050e-06	-0.009320702486826314
1.82075e-06	-0.009218401861890723
1.82100e-06	-0.009113667667873568
1.82125e-06	-0.009076497457937364
1.82150e-06	-0.009118362332145335
1.82175e-06	-0.009217914265650651
1.82200e-06	-0.009320771075366455
1.82225e-06	-0.009360728744691967
1.82250e-06	-0.009337496312923209
1.82275e-06	-0.009277369511979452
1.82300e-06	-0.00921534932571857
1.82325e-06	-0.009195256098750468
1.82350e-06	-0.009224246292504732
1.82375e-06	-0.009281833132968332
1.82400e-06	-0.009346203821019318
1.82425e-06	-0.009381531128945686
1.82450e-06	-0.009367756448929137
1.82475e-06	-0.009334576776534008
1.82500e-06	-0.009296564845651077
1.82525e-06	-0.009277790002155997
1.82550e-06	-0.009294676021512715
1.82575e-06	-0.009328938799238176
1.82600e-06	-0.009367096947765352
1.82625e-06	-0.009386808855529706
1.82650e-06	-0.009375292275393998
1.82675e-06	-0.009351231887624465
1.82700e-06	-0.009323892913446628
1.82725e-06	-0.009308429785187077
1.82750e-06	-0.009314984738686713
1.82775e-06	-0.00933217385233062
1.82800e-06	-0.009351644547736819
1.82825e-06	-0.009359462272182676
1.82850e-06	-0.009347546254150588
1.82875e-06	-0.009327666574942092
1.82900e-06	-0.00930567525498768
1.82925e-06	-0.009291103514280037
1.82950e-06	-0.009290301461688119
1.82975e-06	-0.009296193297042923
1.83000e-06	-0.009303552142366247
1.83025e-06	-0.009303667448847405
1.83050e-06	-0.009291547055196824
1.83075e-06	-0.009274615720568917
1.83100e-06	-0.009256498702524922
1.83125e-06	-0.009243162095561532
1.83150e-06	-0.009238725297381538
1.83175e-06	-0.009238799792436829
1.83200e-06	-0.00924002587860631
1.83225e-06	-0.009236924082296517
1.83250e-06	-0.00922604179271134
1.83275e-06	-0.009212248905381273
1.83300e-06	-0.009199421467178021
1.83325e-06	-0.009191341488040558
1.83350e-06	-0.009187726559467188
1.83375e-06	-0.009186009046550052
1.83400e-06	-0.009186695431287546
1.83425e-06	-0.009184523470365564
1.83450e-06	-0.009178730178290163
1.83475e-06	-0.009173314506919331
1.83500e-06	-0.009168377255510432
1.83525e-06	-0.009163440004101537
1.83550e-06	-0.009161698183887679
1.83575e-06	-0.009164004759464146
1.83600e-06	-0.00916631133504061
1.83625e-06	-0.009167177816572029
1.83650e-06	-0.009166219796083609
1.83675e-06	-0.009165261775595186
1.83700e-06	-0.009166199842414577
1.83725e-06	-0.009169540123960693
1.83750e-06	-0.009172880405506812
1.83775e-06	-0.009176220687052927
1.83800e-06	-0.009179560968599043
1.83825e-06	-0.00918339391678043
1.83850e-06	-0.009187851040358026
1.83875e-06	-0.009192308163935625
1.83900e-06	-0.009196765287513219
1.83925e-06	-0.009201222411090818
1.83950e-06	-0.009206743819081912
1.83975e-06	-0.00921361360363824
1.84000e-06	-0.009220483388194575
1.84025e-06	-0.009227353172750904
1.84050e-06	-0.00923422295730724
1.84075e-06	-0.00924109274186357
1.84100e-06	-0.0092479625264199
1.84125e-06	-0.009254832310976234
1.84150e-06	-0.00926146217115381
1.84175e-06	-0.009267788063326569
1.84200e-06	-0.009274113955499323
1.84225e-06	-0.009280439847672076
1.84250e-06	-0.009286765739844835
1.84275e-06	-0.00929309163201759
1.84300e-06	-0.00929941752419035
1.84325e-06	-0.009305743416363104
1.84350e-06	-0.009311715567291068
1.84375e-06	-0.009317239551921977
1.84400e-06	-0.009322763536552878
1.84425e-06	-0.009326605037783453
1.84450e-06	-0.009328314946030447
1.84475e-06	-0.009330024854277443
1.84500e-06	-0.0093297045804953
1.84525e-06	-0.009326812203019404
1.84550e-06	-0.009323919825543503
1.84575e-06	-0.009317816062996823
1.84600e-06	-0.009307643692175576
1.84625e-06	-0.009297471321354339
1.84650e-06	-0.009287298950533101
1.84675e-06	-0.009277126579711855
1.84700e-06	-0.009266954208890617
1.84725e-06	-0.009252343374005503
1.84750e-06	-0.009232109304528979
1.84775e-06	-0.009211875235052453
1.84800e-06	-0.009191641165575911
1.84825e-06	-0.009171407096099387
1.84850e-06	-0.009151173026622845
1.84875e-06	-0.009127707605765903
1.84900e-06	-0.00910014828066689
1.84925e-06	-0.009072588955567897
1.84950e-06	-0.009045029630468906
1.84975e-06	-0.00901747030536989
1.85000e-06	-0.008988364207520853
1.85025e-06	-0.008957298452928407
1.85050e-06	-0.008926232698335989
1.85075e-06	-0.00889516694374357
1.85100e-06	-0.008864101189151126
1.85125e-06	-0.008832776447695059
1.85150e-06	-0.008801123587351576
1.85175e-06	-0.008769701202310319
1.85200e-06	-0.008738788553521535
1.85225e-06	-0.008708414286103583
1.85250e-06	-0.00867869840154085
1.85275e-06	-0.008649800756686407
1.85300e-06	-0.00862224774107308
1.85325e-06	-0.00859574742287366
1.85350e-06	-0.008572629750834213
1.85375e-06	-0.008553797663317429
1.85400e-06	-0.008534965575800628
1.85425e-06	-0.008516133488283843
1.85450e-06	-0.008497301400767043
1.85475e-06	-0.008478469313250258
1.85500e-06	-0.008459637225733473
1.85525e-06	-0.008440805138216673
1.85550e-06	-0.008421973050699888
1.85575e-06	-0.008403140963183087
1.85600e-06	-0.008387319146043896
1.85625e-06	-0.008375311138428092
1.85650e-06	-0.008363303130812277
1.85675e-06	-0.008351295123196472
1.85700e-06	-0.008339287115580657
1.85725e-06	-0.008327279107964852
1.85750e-06	-0.008315271100349037
1.85775e-06	-0.008303263092733233
1.85800e-06	-0.008291255085117428
1.85825e-06	-0.008279247077501613
1.85850e-06	-0.008268673005093487
1.85875e-06	-0.008259915631873437
1.85900e-06	-0.008251158258653395
1.85925e-06	-0.008242400885433354
1.85950e-06	-0.008233643512213305
1.85975e-06	-0.008224886138993264
1.86000e-06	-0.008216128765773214
1.86025e-06	-0.008207371392553172
1.86050e-06	-0.00819861401933313
1.86075e-06	-0.00818985664611308
1.86100e-06	-0.008183263559094205
1.86125e-06	-0.008176805866395772
1.86150e-06	-0.008170348173697342
1.86175e-06	-0.008163890480998907
1.86200e-06	-0.00815743278830048
1.86225e-06	-0.00815097509560205
1.86250e-06	-0.008144517402903615
1.86275e-06	-0.008138059710205188
1.86300e-06	-0.008131602017506753
1.86325e-06	-0.00812567096487405
1.86350e-06	-0.008120534486801192
1.86375e-06	-0.008115702741073672
1.86400e-06	-0.008111265046266533
1.86425e-06	-0.008107544661315082
1.86450e-06	-0.008105124643248205
1.86475e-06	-0.008104463772391638
1.86500e-06	-0.008106045826598135
1.86525e-06	-0.008109135489239421
1.86550e-06	-0.008113702289044874
1.86575e-06	-0.00812014052200319
1.86600e-06	-0.008128041102266712
1.86625e-06	-0.008137794377929372
1.86650e-06	-0.008149838917714987
1.86675e-06	-0.008164786334596719
1.86700e-06	-0.00817973375147844
1.86725e-06	-0.008197905083728356
1.86750e-06	-0.008220160899293942
1.86775e-06	-0.008242416714859528
1.86800e-06	-0.008264672530425133
1.86825e-06	-0.00828692834599072
1.86850e-06	-0.00831250152692228
1.86875e-06	-0.008342277586013372
1.86900e-06	-0.008372053645104462
1.86925e-06	-0.008401829704195578
1.86950e-06	-0.00843160576328667
1.86975e-06	-0.008463108757521034
1.87000e-06	-0.008496799662098606
1.87025e-06	-0.00853049056667621
1.87050e-06	-0.008564853040405329
1.87075e-06	-0.00860006634695154
1.87100e-06	-0.008635279653497781
1.87125e-06	-0.008670470501369267
1.87150e-06	-0.008705632895614763
1.87175e-06	-0.008740795289860229
1.87200e-06	-0.00877513698387624
1.87225e-06	-0.008808438906058511
1.87250e-06	-0.008841740828240753
1.87275e-06	-0.008873547605236105
1.87300e-06	-0.008903460134128462
1.87325e-06	-0.00893337266302082
1.87350e-06	-0.008958542050988248
1.87375e-06	-0.00897770219933279
1.87400e-06	-0.008996862347677347
1.87425e-06	-0.009016022496021889
1.87450e-06	-0.009035182644366445
1.87475e-06	-0.009054342792710985
1.87500e-06	-0.009073502941055528
1.87525e-06	-0.009092663089400084
1.87550e-06	-0.009111823237744626
1.87575e-06	-0.009130983386089182
1.87600e-06	-0.009137294549776104
1.87625e-06	-0.009142801901312603
1.87650e-06	-0.009148309252849108
1.87675e-06	-0.009153816604385608
1.87700e-06	-0.009159323955922113
1.87725e-06	-0.009164831307458612
1.87750e-06	-0.009170338658995114
1.87775e-06	-0.009175846010531619
1.87800e-06	-0.009181353362068118
1.87825e-06	-0.009182739808666115
1.87850e-06	-0.009178905346665852
1.87875e-06	-0.009175070884665588
1.87900e-06	-0.00917123642266532
1.87925e-06	-0.009167401960665057
1.87950e-06	-0.00916356749866479
1.87975e-06	-0.009159733036664525
1.88000e-06	-0.009155898574664258
1.88025e-06	-0.009152064112663992
1.88050e-06	-0.009146455461008075
1.88075e-06	-0.009138599030729184
1.88100e-06	-0.0091307426004503
1.88125e-06	-0.009122886170171408
1.88150e-06	-0.009115029739892526
1.88175e-06	-0.009107173309613642
1.88200e-06	-0.00909931687933475
1.88225e-06	-0.009091460449055866
1.88250e-06	-0.009083604018776975
1.88275e-06	-0.009075877788817367
1.88300e-06	-0.009068316513880145
1.88325e-06	-0.009060755238942918
1.88350e-06	-0.009053193964005696
1.88375e-06	-0.009046510682326994
1.88400e-06	-0.009039882326517375
1.88425e-06	-0.00903325397070775
1.88450e-06	-0.009025649542896277
1.88475e-06	-0.009016808497695452
1.88500e-06	-0.009006365354716415
1.88525e-06	-0.008993892461915448
1.88550e-06	-0.00898141956911447
1.88575e-06	-0.008967350877919672
1.88600e-06	-0.00895126041779804
1.88625e-06	-0.008935169957676395
1.88650e-06	-0.008916794875173885
1.88675e-06	-0.0088955253302148
1.88700e-06	-0.008874255785255731
1.88725e-06	-0.0088503687091459
1.88750e-06	-0.00882316539762308
1.88775e-06	-0.008795962086100279
1.88800e-06	-0.008768758774577457
1.88825e-06	-0.008741555463054659
1.88850e-06	-0.008708684178318831
1.88875e-06	-0.008675458314146848
1.88900e-06	-0.008642232449974863
1.88925e-06	-0.00860900658580285
1.88950e-06	-0.008574314266031401
1.88975e-06	-0.008537764045929298
1.89000e-06	-0.00850076170805521
1.89025e-06	-0.008463186567459775
1.89050e-06	-0.008425300428996594
1.89075e-06	-0.008386863340375363
1.89100e-06	-0.008348169085590372
1.89125e-06	-0.008309442003718429
1.89150e-06	-0.0082709087073108
1.89175e-06	-0.008232796959568823
1.89200e-06	-0.008195320856659461
1.89225e-06	-0.008158640453491642
1.89250e-06	-0.008122854882726235
1.89275e-06	-0.008088085951203071
1.89300e-06	-0.008054534711657617
1.89325e-06	-0.008022438651346367
1.89350e-06	-0.007992036079184658
1.89375e-06	-0.007963566755903631
1.89400e-06	-0.007937219198221108
1.89425e-06	-0.007912950776462438
1.89450e-06	-0.007890426114667896
1.89475e-06	-0.007869339860137452
1.89500e-06	-0.00784966389640966
1.89525e-06	-0.007831506859234484
1.89550e-06	-0.00781498153439445
1.89575e-06	-0.007800609962514763
1.89600e-06	-0.007787766558549517
1.89625e-06	-0.0077763580790261196
1.89650e-06	-0.007766767551983364
1.89675e-06	-0.007758571003384022
1.89700e-06	-0.007752140531447155
1.89725e-06	-0.007745710059510293
1.89750e-06	-0.007741542504466922
