Time(s)	Current(A)
4.55000e-06	0.008757299181410641
4.55025e-06	0.008762167128995517
4.55050e-06	0.00876703507658039
4.55075e-06	0.008771903024165282
4.55100e-06	0.008776770971750156
4.55125e-06	0.008781638919335047
4.55150e-06	0.00878650686691992
4.55175e-06	0.008791374814504795
4.55200e-06	0.008796242762089686
4.55225e-06	0.008801110709674561
4.55250e-06	0.008805978657259435
4.55275e-06	0.008810846604844326
4.55300e-06	0.0088157145524292
4.55325e-06	0.008820582500014074
4.55350e-06	0.008825450447598965
4.55375e-06	0.008830318395183839
4.55400e-06	0.008837512566739555
4.55425e-06	0.008844739604425552
4.55450e-06	0.008851966642111525
4.55475e-06	0.008859193679797496
4.55500e-06	0.008866420717483493
4.55525e-06	0.008873647755169465
4.55550e-06	0.008880267266921668
4.55575e-06	0.008885861729692763
4.55600e-06	0.008891456192463858
4.55625e-06	0.008897050655234972
4.55650e-06	0.008902645118006067
4.55675e-06	0.008908239580777163
4.55700e-06	0.008913834043548275
4.55725e-06	0.008924273320965286
4.55750e-06	0.00893625778681601
4.55775e-06	0.008948242252666775
4.55800e-06	0.008960226718517499
4.55825e-06	0.008972211184368223
4.55850e-06	0.008984195650218987
4.55875e-06	0.00899618011606971
4.55900e-06	0.009008164581920436
4.55925e-06	0.0090201490477712
4.55950e-06	0.009044365409149937
4.55975e-06	0.009072482969000248
4.56000e-06	0.009100600528850464
4.56025e-06	0.00912871808870068
4.56050e-06	0.009156835648550991
4.56075e-06	0.009184953208401207
4.56100e-06	0.009213070768251423
4.56125e-06	0.009241188328101734
4.56150e-06	0.00926930588795195
4.56175e-06	0.009307277233340667
4.56200e-06	0.0093483913110224
4.56225e-06	0.009389505388703994
4.56250e-06	0.009430619466385588
4.56275e-06	0.00947173354406732
4.56300e-06	0.009512847621748914
4.56325e-06	0.009553961699430508
4.56350e-06	0.00959507577711224
4.56375e-06	0.009636189854793833
4.56400e-06	0.009677303932475567
4.56425e-06	0.009717459350423303
4.56450e-06	0.009754860378045975
4.56475e-06	0.009792261405668773
4.56500e-06	0.009829662433291444
4.56525e-06	0.009867063460914115
4.56550e-06	0.009904464488536912
4.56575e-06	0.009941865516159583
4.56600e-06	0.009979266543782254
4.56625e-06	0.010016667571405052
4.56650e-06	0.010054068599027723
4.56675e-06	0.010091469626650394
4.56700e-06	0.010120999228565616
4.56725e-06	0.010148018345179217
4.56750e-06	0.010175037461792817
4.56775e-06	0.010202056578406508
4.56800e-06	0.010229075695020108
4.56825e-06	0.0102560948116338
4.56850e-06	0.010283113928247399
4.56875e-06	0.010310133044861
4.56900e-06	0.010337152161474692
4.56925e-06	0.010367791693207597
4.56950e-06	0.010399585907621823
4.56975e-06	0.010431380122036156
4.57000e-06	0.010463174336450382
4.57025e-06	0.010494968550864608
4.57050e-06	0.010526762765278941
4.57075e-06	0.010558556979693167
4.57100e-06	0.010590351194107393
4.57125e-06	0.010622145408521726
4.57150e-06	0.010658675231044938
4.57175e-06	0.010696715412045964
4.57200e-06	0.01073475559304712
4.57225e-06	0.010772795774048148
4.57250e-06	0.010810835955049305
4.57275e-06	0.010848876136050333
4.57300e-06	0.010886916317051359
4.57325e-06	0.010924956498052515
4.57350e-06	0.010962996679053543
4.57375e-06	0.011001036860054571
4.57400e-06	0.011039077041055728
4.57425e-06	0.011077117222056754
4.57450e-06	0.011109222554506538
4.57475e-06	0.011139435046878239
4.57500e-06	0.011169647539249839
4.57525e-06	0.011199860031621437
4.57550e-06	0.011230072523993138
4.57575e-06	0.011260285016364738
4.57600e-06	0.011290497508736336
4.57625e-06	0.011320710001108037
4.57650e-06	0.011350922493479637
4.57675e-06	0.011381134985851337
4.57700e-06	0.011411347478222936
4.57725e-06	0.011441559970594536
4.57750e-06	0.01144986717794387
4.57775e-06	0.011451187989422587
4.57800e-06	0.011452508800901302
4.57825e-06	0.011453829612380022
4.57850e-06	0.011455150423858737
4.57875e-06	0.011456471235337452
4.57900e-06	0.011457792046816172
4.57925e-06	0.011459112858294887
4.57950e-06	0.011460433669773604
4.57975e-06	0.011453711134948369
4.58000e-06	0.011423878716136425
4.58025e-06	0.01139404629732448
4.58050e-06	0.011364213878512436
4.58075e-06	0.011334381459700494
4.58100e-06	0.01130454904088845
4.58125e-06	0.011274716622076505
4.58150e-06	0.011244884203264562
4.58175e-06	0.011215051784452517
4.58200e-06	0.011185219365640575
4.58225e-06	0.011141021861606999
4.58250e-06	0.011092242806958487
4.58275e-06	0.01104346375231014
4.58300e-06	0.010994684697661794
4.58325e-06	0.010945905643013282
4.58350e-06	0.010897126588364935
4.58375e-06	0.01084834753371659
4.58400e-06	0.010799568479068078
4.58425e-06	0.010750789424419732
4.58450e-06	0.01070325807725102
4.58475e-06	0.010656124669591859
4.58500e-06	0.010608991261932857
4.58525e-06	0.010561857854273698
4.58550e-06	0.010514724446614696
4.58575e-06	0.010467591038955696
4.58600e-06	0.010420457631296535
4.58625e-06	0.010373324223637535
4.58650e-06	0.010326190815978534
4.58675e-06	0.010288925461891732
4.58700e-06	0.010254807390693262
4.58725e-06	0.010220689319494792
4.58750e-06	0.010186571248296205
4.58775e-06	0.010152453177097736
4.58800e-06	0.010118335105899266
4.58825e-06	0.01008421703470068
4.58850e-06	0.010050098963502209
4.58875e-06	0.010015583490910803
4.58900e-06	0.009979926217414791
4.58925e-06	0.009944268943918899
4.58950e-06	0.009908611670422887
4.58975e-06	0.009872954396926996
4.59000e-06	0.009837297123431104
4.59025e-06	0.009801639849935092
4.59050e-06	0.009765982576439201
4.59075e-06	0.009730325302943309
4.59100e-06	0.00969078477532347
4.59125e-06	0.00965000573605975
4.59150e-06	0.00960922669679603
4.59175e-06	0.009568447657532172
4.59200e-06	0.009527668618268453
4.59225e-06	0.009486889579004733
4.59250e-06	0.009446110539740874
4.59275e-06	0.009405331500477156
4.59300e-06	0.009364552461213435
4.59325e-06	0.009323773421949578
4.59350e-06	0.009282994382685858
4.59375e-06	0.009242215343421999
4.59400e-06	0.00920295180545961
4.59425e-06	0.009168042557107554
4.59450e-06	0.00913313330875538
4.59475e-06	0.009098224060403325
4.59500e-06	0.00906331481205127
4.59525e-06	0.009028405563699094
4.59550e-06	0.008993496315347039
4.59575e-06	0.008958587066994985
4.59600e-06	0.00892367781864281
4.59625e-06	0.008888768570290754
4.59650e-06	0.008853859321938698
4.59675e-06	0.008818950073586525
4.59700e-06	0.00878404082523447
4.59725e-06	0.008757607457859863
4.59750e-06	0.008744524394013816
4.59775e-06	0.00873483705881163
4.59800e-06	0.00872514972360941
4.59825e-06	0.008715462388407222
4.59850e-06	0.008705775053205035
4.59875e-06	0.008696087718002815
4.59900e-06	0.008686400382800628
4.59925e-06	0.00867671304759844
4.59950e-06	0.00866702571239622
4.59975e-06	0.008657338377194033
4.60000e-06	0.008647651041991847
4.60025e-06	0.008637963706789625
4.60050e-06	0.008628276371587439
4.60075e-06	0.008618589036385252
4.60100e-06	0.008608901701183032
4.60125e-06	0.008599214365980844
4.60150e-06	0.00859386183693536
4.60175e-06	0.008600963933558026
4.60200e-06	0.008608066030180666
4.60225e-06	0.008615168126803331
4.60250e-06	0.008622270223425973
4.60275e-06	0.008629372320048614
4.60300e-06	0.008636474416671279
4.60325e-06	0.008643576513293921
4.60350e-06	0.008650678609916562
4.60375e-06	0.008657780706539227
4.60400e-06	0.008664882803161867
4.60425e-06	0.00867198489978451
4.60450e-06	0.008679086996407175
4.60475e-06	0.008686189093029815
4.60500e-06	0.008693291189652457
4.60525e-06	0.008700393286275122
4.60550e-06	0.008707495382897763
4.60575e-06	0.008711332108941802
4.60600e-06	0.008714127388983832
4.60625e-06	0.00871692266902585
4.60650e-06	0.00871971794906788
4.60675e-06	0.008722513229109899
4.60700e-06	0.00872530850915192
4.60725e-06	0.008728103789193949
4.60750e-06	0.008730899069235968
4.60775e-06	0.008733694349277989
4.60800e-06	0.008736489629320018
4.60825e-06	0.008739284909362037
4.60850e-06	0.008742080189404056
4.60875e-06	0.008744875469446085
4.60900e-06	0.008747670749488106
4.60925e-06	0.008750466029530125
4.60950e-06	0.008753261309572154
4.60975e-06	0.008756056589614175
4.61000e-06	0.008758851869656194
4.61025e-06	0.008761647149698223
4.61050e-06	0.008764442429740242
4.61075e-06	0.008767237709782272
4.61100e-06	0.008770032989824292
4.61125e-06	0.008767345212702215
4.61150e-06	0.008762908688286643
4.61175e-06	0.008758472163871083
4.61200e-06	0.008754035639455525
4.61225e-06	0.008749599115039954
4.61250e-06	0.008745162590624396
4.61275e-06	0.008740726066208836
4.61300e-06	0.008736289541793264
4.61325e-06	0.008731853017377706
4.61350e-06	0.008727416492962147
4.61375e-06	0.008722979968546575
4.61400e-06	0.008718543444131017
4.61425e-06	0.00871410691971546
4.61450e-06	0.008709670395299886
4.61475e-06	0.008705233870884328
4.61500e-06	0.008700797346468754
4.61525e-06	0.008696360822053197
4.61550e-06	0.008691924297637639
4.61575e-06	0.008687487773222065
4.61600e-06	0.008683051248806507
4.61625e-06	0.00867861472439095
4.61650e-06	0.008674178199975376
4.61675e-06	0.008674360714982768
4.61700e-06	0.008676016410452524
4.61725e-06	0.008677672105922284
4.61750e-06	0.00867932780139204
4.61775e-06	0.008680983496861796
4.61800e-06	0.008682639192331558
4.61825e-06	0.008684294887801312
4.61850e-06	0.008685950583271068
4.61875e-06	0.00868760627874083
4.61900e-06	0.00869370001418143
4.61925e-06	0.008712544983359998
4.61950e-06	0.008731389952538504
4.61975e-06	0.008750234921717007
4.62000e-06	0.008769079890895575
4.62025e-06	0.00878792486007408
4.62050e-06	0.008806769829252584
4.62075e-06	0.008825614798431152
4.62100e-06	0.008844459767609657
4.62125e-06	0.00886330473678816
4.62150e-06	0.008893395103364623
4.62175e-06	0.008927072038103575
4.62200e-06	0.00896074897284253
4.62225e-06	0.008994425907581597
4.62250e-06	0.009028102842320552
4.62275e-06	0.009061779777059506
4.62300e-06	0.009095456711798573
4.62325e-06	0.009129133646537528
4.62350e-06	0.009162810581276595
4.62375e-06	0.00919648751601555
4.62400e-06	0.009230164450754504
4.62425e-06	0.009263841385493571
4.62450e-06	0.009294446008265761
4.62475e-06	0.009324070758482563
4.62500e-06	0.009353695508699465
4.62525e-06	0.009383320258916267
4.62550e-06	0.00941294500913307
4.62575e-06	0.009442569759349971
4.62600e-06	0.009472194509566774
4.62625e-06	0.009501819259783575
4.62650e-06	0.009531444010000478
4.62675e-06	0.00956106876021728
4.62700e-06	0.009590693510434081
4.62725e-06	0.009620318260650984
4.62750e-06	0.009628377042587713
4.62775e-06	0.009629557649171467
4.62800e-06	0.009630738255755226
4.62825e-06	0.00963191886233898
4.62850e-06	0.009633099468922738
4.62875e-06	0.009634280075506492
4.62900e-06	0.009635460682090246
4.62925e-06	0.009636641288674004
4.62950e-06	0.009637821895257758
4.62975e-06	0.009615311045078448
4.63000e-06	0.009585244123599172
4.63025e-06	0.009555177202120001
4.63050e-06	0.009525110280640828
4.63075e-06	0.009495043359161555
4.63100e-06	0.009464976437682382
4.63125e-06	0.00943490951620321
4.63150e-06	0.009404842594723935
4.63175e-06	0.009374775673244764
4.63200e-06	0.00932852669265075
4.63225e-06	0.009277116662076968
4.63250e-06	0.009225706631503362
4.63275e-06	0.00917429660092958
4.63300e-06	0.009122886570355974
4.63325e-06	0.009071476539782368
4.63350e-06	0.009020066509208587
4.63375e-06	0.00896865647863498
4.63400e-06	0.008917246448061375
4.63425e-06	0.008865836417487593
4.63450e-06	0.008816206788521316
4.63475e-06	0.008767144994687344
4.63500e-06	0.008718083200853207
4.63525e-06	0.008669021407019237
4.63550e-06	0.008619959613185265
4.63575e-06	0.008570897819351128
4.63600e-06	0.008521836025517157
4.63625e-06	0.008472774231683185
4.63650e-06	0.008423712437849049
4.63675e-06	0.008374650644015078
4.63700e-06	0.008347834125868168
4.63725e-06	0.008328112439028111
4.63750e-06	0.008308390752188054
4.63775e-06	0.00828866906534793
4.63800e-06	0.008268947378507873
4.63825e-06	0.008249225691667816
4.63850e-06	0.00822950400482769
4.63875e-06	0.008239990174515635
4.63900e-06	0.008260110733509792
4.63925e-06	0.008280231292504017
4.63950e-06	0.008300351851498173
4.63975e-06	0.008320472410492332
4.64000e-06	0.008340592969486556
4.64025e-06	0.008360713528480713
4.64050e-06	0.008412685081913389
4.64075e-06	0.008474815081375538
4.64100e-06	0.008536945080837476
4.64125e-06	0.008599075080299624
4.64150e-06	0.008661205079761562
4.64175e-06	0.008723335079223501
4.64200e-06	0.00878546507868565
4.64225e-06	0.008847595078147587
4.64250e-06	0.008909725077609525
4.64275e-06	0.008977771712807616
4.64300e-06	0.009062817835540516
4.64325e-06	0.009147863958273416
4.64350e-06	0.009232910081006605
4.64375e-06	0.009317956203739505
4.64400e-06	0.009403002326472405
4.64425e-06	0.009488048449205594
4.64450e-06	0.009573094571938494
4.64475e-06	0.009658140694671394
4.64500e-06	0.009743186817404582
4.64525e-06	0.009818886577898728
4.64550e-06	0.009891605441939691
4.64575e-06	0.009964324305980406
4.64600e-06	0.010037043170021121
4.64625e-06	0.010109762034062083
4.64650e-06	0.010182480898102798
4.64675e-06	0.010255199762143513
4.64700e-06	0.010303627318028377
4.64725e-06	0.010344307488087581
4.64750e-06	0.010384987658146785
4.64775e-06	0.010425667828206127
4.64800e-06	0.01046634799826533
4.64825e-06	0.010507028168324535
4.64850e-06	0.010547708338383878
4.64875e-06	0.01055500621902416
4.64900e-06	0.010551657267711533
4.64925e-06	0.010548308316398892
4.64950e-06	0.010544959365086265
4.64975e-06	0.010541610413773625
4.65000e-06	0.010538261462460995
4.65025e-06	0.010534912511148367
4.65050e-06	0.010531563559835727
4.65075e-06	0.010528214608523098
4.65100e-06	0.01052486565721047
4.65125e-06	0.01052151670589783
4.65150e-06	0.010490142641054818
4.65175e-06	0.010449830343412587
4.65200e-06	0.010409518045770219
4.65225e-06	0.010369205748127988
4.65250e-06	0.010328893450485757
4.65275e-06	0.01028858115284339
4.65300e-06	0.01024826885520116
4.65325e-06	0.010207956557558929
4.65350e-06	0.01016764425991656
4.65375e-06	0.01012733196227433
4.65400e-06	0.010087019664631961
4.65425e-06	0.01004122499186828
4.65450e-06	0.009993681789341412
4.65475e-06	0.009946138586814385
4.65500e-06	0.009898595384287518
4.65525e-06	0.00985105218176065
4.65550e-06	0.009803508979233622
4.65575e-06	0.009755965776706755
4.65600e-06	0.009708422574179887
4.65625e-06	0.009672940455696952
4.65650e-06	0.00964130505765177
4.65675e-06	0.009609669659606588
4.65700e-06	0.009578034261561298
4.65725e-06	0.009546398863516116
4.65750e-06	0.009514763465470933
4.65775e-06	0.009483128067425645
4.65800e-06	0.009451492669380463
4.65825e-06	0.009442995819435035
4.65850e-06	0.009441878698006783
4.65875e-06	0.009440761576578532
4.65900e-06	0.009439644455150277
4.65925e-06	0.009438527333722026
4.65950e-06	0.009437410212293775
4.65975e-06	0.00943629309086552
4.66000e-06	0.009435175969437269
4.66025e-06	0.009434058848009018
4.66050e-06	0.009432941726580761
4.66075e-06	0.00943182460515251
4.66100e-06	0.009430707483724259
4.66125e-06	0.009450122752864684
4.66150e-06	0.009476086551650888
4.66175e-06	0.00950205035043709
4.66200e-06	0.009528014149223381
4.66225e-06	0.009553977948009584
4.66250e-06	0.009579941746795877
4.66275e-06	0.00960590554558208
4.66300e-06	0.009631869344368282
4.66325e-06	0.009657833143154573
4.66350e-06	0.009683796941940777
4.66375e-06	0.00970976074072698
4.66400e-06	0.00973572453951327
4.66425e-06	0.009764713893600159
4.66450e-06	0.009794668207832032
4.66475e-06	0.009824622522064006
4.66500e-06	0.009854576836295878
4.66525e-06	0.009884531150527752
4.66550e-06	0.009914485464759724
4.66575e-06	0.009944439778991598
4.66600e-06	0.00997439409322347
4.66625e-06	0.010004348407455444
4.66650e-06	0.010034302721687318
4.66675e-06	0.01004506267687196
4.66700e-06	0.01004970084955806
4.66725e-06	0.010054339022244159
4.66750e-06	0.010058977194930275
4.66775e-06	0.010063615367616375
4.66800e-06	0.010068253540302476
4.66825e-06	0.01007289171298859
4.66850e-06	0.01007752988567469
4.66875e-06	0.010082168058360791
4.66900e-06	0.010086806231046906
4.66925e-06	0.010058276254416102
4.66950e-06	0.010019167742941704
4.66975e-06	0.009980059231467175
4.67000e-06	0.009940950719992778
4.67025e-06	0.009901842208518379
4.67050e-06	0.00986273369704385
4.67075e-06	0.009823625185569453
4.67100e-06	0.009784516674094922
4.67125e-06	0.009745408162620525
4.67150e-06	0.009682134547262517
4.67175e-06	0.009611153797237957
4.67200e-06	0.009540173047213638
4.67225e-06	0.00946919229718932
4.67250e-06	0.00939821154716476
4.67275e-06	0.009327230797140441
4.67300e-06	0.009256250047116122
4.67325e-06	0.009185269297091564
4.67350e-06	0.009114288547067246
4.67375e-06	0.0090375001671058
4.67400e-06	0.008958859521735647
4.67425e-06	0.00888021887636576
4.67450e-06	0.008801578230995873
4.67475e-06	0.008722937585625718
4.67500e-06	0.00864429694025583
4.67525e-06	0.008565656294885676
4.67550e-06	0.008487015649515789
4.67575e-06	0.00842397011194682
4.67600e-06	0.00836589842412905
4.67625e-06	0.008307826736311476
4.67650e-06	0.008249755048493903
4.67675e-06	0.008191683360676133
4.67700e-06	0.00813361167285856
4.67725e-06	0.008075539985040986
4.67750e-06	0.008017468297223215
4.67775e-06	0.007990753970166
4.67800e-06	0.007974040651309864
4.67825e-06	0.00795732733245367
4.67850e-06	0.007940614013597535
4.67875e-06	0.0079239006947414
4.67900e-06	0.007907187375885206
4.67925e-06	0.00789047405702907
4.67950e-06	0.007873760738172877
4.67975e-06	0.007857047419316742
4.68000e-06	0.007851101371646007
4.68025e-06	0.007876091501273776
4.68050e-06	0.00790108163090146
4.68075e-06	0.007926071760529143
4.68100e-06	0.007951061890156912
4.68125e-06	0.007976052019784597
4.68150e-06	0.00800104214941228
4.68175e-06	0.008026032279040049
4.68200e-06	0.008051022408667733
4.68225e-06	0.008076012538295417
4.68250e-06	0.00811877613518143
4.68275e-06	0.008167208340249876
4.68300e-06	0.008215640545318321
4.68325e-06	0.008264072750386932
4.68350e-06	0.00831250495545538
4.68375e-06	0.008360937160523989
4.68400e-06	0.008409369365592436
4.68425e-06	0.008457801570660882
4.68450e-06	0.008506233775729493
4.68475e-06	0.008553481398221615
4.68500e-06	0.00859732551615167
4.68525e-06	0.008641169634081871
4.68550e-06	0.008685013752011923
4.68575e-06	0.008728857869941977
4.68600e-06	0.008772701987872179
4.68625e-06	0.008816546105802231
4.68650e-06	0.008860390223732285
4.68675e-06	0.008904234341662487
4.68700e-06	0.00894807845959254
4.68725e-06	0.008968502761171712
4.68750e-06	0.008981457627516034
4.68775e-06	0.008994412493860312
4.68800e-06	0.009007367360204634
4.68825e-06	0.009020322226548912
4.68850e-06	0.009033277092893192
4.68875e-06	0.009046231959237514
4.68900e-06	0.009059186825581792
4.68925e-06	0.00907214169192607
4.68950e-06	0.009085096558270394
4.68975e-06	0.009098051424614673
4.69000e-06	0.009085910468745366
4.69025e-06	0.009065765538127922
4.69050e-06	0.009045620607510546
4.69075e-06	0.009025475676893172
4.69100e-06	0.009005330746275728
4.69125e-06	0.008985185815658351
4.69150e-06	0.008965040885040975
4.69175e-06	0.008944895954423531
4.69200e-06	0.008924751023806155
4.69225e-06	0.008904606093188711
4.69250e-06	0.008884461162571336
4.69275e-06	0.00885184741351312
4.69300e-06	0.008815256902622394
4.69325e-06	0.00877866639173179
4.69350e-06	0.008742075880841187
4.69375e-06	0.00870548536995046
4.69400e-06	0.008668894859059856
4.69425e-06	0.008632304348169252
4.69450e-06	0.008595713837278526
4.69475e-06	0.008559123326387922
4.69500e-06	0.008522532815497318
4.69525e-06	0.008488171597266714
4.69550e-06	0.008460215511011464
4.69575e-06	0.008432259424756214
4.69600e-06	0.008404303338500868
4.69625e-06	0.008376347252245618
4.69650e-06	0.008348391165990272
4.69675e-06	0.008320435079735022
4.69700e-06	0.008292478993479771
4.69725e-06	0.008264522907224426
4.69750e-06	0.008236566820969175
4.69775e-06	0.008208610734713923
4.69800e-06	0.008204226020630206
4.69825e-06	0.008207359078468599
4.69850e-06	0.008210492136306993
4.69875e-06	0.008213625194145398
4.69900e-06	0.008216758251983793
4.69925e-06	0.008219891309822185
4.69950e-06	0.00822302436766059
4.69975e-06	0.008226157425498985
4.70000e-06	0.008229290483337379
4.70025e-06	0.008232423541175784
4.70050e-06	0.008243299066826283
4.70075e-06	0.008276420001988308
4.70100e-06	0.008309540937150223
4.70125e-06	0.008342661872312137
4.70150e-06	0.008375782807474162
4.70175e-06	0.008408903742636076
