Time(s)	Current(A)
9.50000e-06	-0.011546198441657088
9.50025e-06	-0.011541079500651174
9.50050e-06	-0.011535960559645293
9.50075e-06	-0.01153084161863938
9.50100e-06	-0.011525722677633464
9.50125e-06	-0.011522412913569249
9.50150e-06	-0.011527784193975908
9.50175e-06	-0.011533155474382566
9.50200e-06	-0.011538526754789188
9.50225e-06	-0.011543898035195847
9.50250e-06	-0.011549269315602505
9.50275e-06	-0.011554640596009127
9.50300e-06	-0.011560011876415786
9.50325e-06	-0.011565383156822444
9.50350e-06	-0.011570754437229103
9.50375e-06	-0.011584859552892573
9.50400e-06	-0.011603218660022287
9.50425e-06	-0.011621577767152001
9.50450e-06	-0.011639936874281592
9.50475e-06	-0.011658295981411305
9.50500e-06	-0.01167665508854102
9.50525e-06	-0.011695014195670608
9.50550e-06	-0.011713373302800324
9.50575e-06	-0.011732952073911514
9.50600e-06	-0.011758383206403239
9.50625e-06	-0.011783814338895136
9.50650e-06	-0.011809245471387033
9.50675e-06	-0.011834676603878758
9.50700e-06	-0.011860107736370655
9.50725e-06	-0.011885538868862552
9.50750e-06	-0.011910970001354278
9.50775e-06	-0.011936401133846175
9.50800e-06	-0.011961630058900897
9.50825e-06	-0.011986760494725121
9.50850e-06	-0.012011890930549517
9.50875e-06	-0.01203702136637391
9.50900e-06	-0.012062151802198134
9.50925e-06	-0.012084045121235417
9.50950e-06	-0.01210436173693614
9.50975e-06	-0.012124678352636723
9.51000e-06	-0.012144994968337444
9.51025e-06	-0.012165311584038167
9.51050e-06	-0.012179846297983316
9.51075e-06	-0.012191564819498872
9.51100e-06	-0.012203283341014427
9.51125e-06	-0.012206880470435881
9.51150e-06	-0.012206521911244652
9.51175e-06	-0.012206163352053425
9.51200e-06	-0.012197777134029033
9.51225e-06	-0.01218548088207644
9.51250e-06	-0.012173184630123764
9.51275e-06	-0.01214839915655592
9.51300e-06	-0.012117530554486187
9.51325e-06	-0.012086661952416247
9.51350e-06	-0.012055793350346304
9.51375e-06	-0.012024924748276572
9.51400e-06	-0.011990357853321008
9.51425e-06	-0.011938045294973477
9.51450e-06	-0.011885732736626305
9.51475e-06	-0.011833420178278776
9.51500e-06	-0.011781107619931248
9.51525e-06	-0.011728795061584073
9.51550e-06	-0.011666303310224307
9.51575e-06	-0.011598853576609386
9.51600e-06	-0.011531403842994921
9.51625e-06	-0.01146395410938
9.51650e-06	-0.011396504375765079
9.51675e-06	-0.0113245187456097
9.51700e-06	-0.011250323815115868
9.51725e-06	-0.011176128884622036
9.51750e-06	-0.011101933954128708
9.51775e-06	-0.011027739023634875
9.51800e-06	-0.010953615301192945
9.51825e-06	-0.010879526262076349
9.51850e-06	-0.01080659427551761
9.51875e-06	-0.010735285520853727
9.51900e-06	-0.010665776772276625
9.51925e-06	-0.01059846657640161
9.51950e-06	-0.010536922957227801
9.51975e-06	-0.010477814840431162
9.52000e-06	-0.010418706723634125
9.52025e-06	-0.010361531585890538
9.52050e-06	-0.01031363153714075
9.52075e-06	-0.010265731488391288
9.52100e-06	-0.0102178314396415
9.52125e-06	-0.010171661564335134
9.52150e-06	-0.010126334405069765
9.52175e-06	-0.010081007245804088
9.52200e-06	-0.01003810337315941
9.52225e-06	-0.009996379811376062
9.52250e-06	-0.00995465624959243
9.52275e-06	-0.009913665758201538
9.52300e-06	-0.009873032323602718
9.52325e-06	-0.009832398889003622
9.52350e-06	-0.009791765454404525
9.52375e-06	-0.009751132019805705
9.52400e-06	-0.00971051488071928
9.52425e-06	-0.009669975933028664
9.52450e-06	-0.009629436985338321
9.52475e-06	-0.009588898037647705
9.52500e-06	-0.009548359089957086
9.52525e-06	-0.009507820142266745
9.52550e-06	-0.009467053734690208
9.52575e-06	-0.009426176538166329
9.52600e-06	-0.009385299341642728
9.52625e-06	-0.009344422145118849
9.52650e-06	-0.009303775918504825
9.52675e-06	-0.009264237963843512
9.52700e-06	-0.00922470000918193
9.52725e-06	-0.009185162054520348
9.52750e-06	-0.009145624099859036
9.52775e-06	-0.009107034368122402
9.52800e-06	-0.009068906487578932
9.52825e-06	-0.009031779089558987
9.52850e-06	-0.008995934998886101
9.52875e-06	-0.00896119883930864
9.52900e-06	-0.008927473577798568
9.52925e-06	-0.008894816356941648
9.52950e-06	-0.008863419579826984
9.52975e-06	-0.008833506763872711
9.53000e-06	-0.008805302052777061
9.53025e-06	-0.008779029268999993
9.53050e-06	-0.008755168704816907
9.53075e-06	-0.008734732801992271
9.53100e-06	-0.008718778214958348
9.53125e-06	-0.008707766118912946
9.53150e-06	-0.008701698152624206
9.53175e-06	-0.008700473717058734
9.53200e-06	-0.008703991924336067
9.53225e-06	-0.008712152817898259
9.53250e-06	-0.008726786002200417
9.53275e-06	-0.008743836190235247
9.53300e-06	-0.00877009697590517
9.53325e-06	-0.008800843969824385
9.53350e-06	-0.008831590963743599
9.53375e-06	-0.008874454321179453
9.53400e-06	-0.008923219199028607
9.53425e-06	-0.008971984076877762
9.53450e-06	-0.009020748954726586
9.53475e-06	-0.009072658678320114
9.53500e-06	-0.009139658438259096
9.53525e-06	-0.009206658198197623
9.53550e-06	-0.009273657958136606
9.53575e-06	-0.009340657718075587
9.53600e-06	-0.00941488113231904
9.53625e-06	-0.009492622973794208
9.53650e-06	-0.009570364815269376
9.53675e-06	-0.009651418634882884
9.53700e-06	-0.009734085620573478
9.53725e-06	-0.009816752606264072
9.53750e-06	-0.009900370285206754
9.53775e-06	-0.009984451018565045
9.53800e-06	-0.010068531751923905
9.53825e-06	-0.010151147929176053
9.53850e-06	-0.01023305076469362
9.53875e-06	-0.010312434388349783
9.53900e-06	-0.010390590978811514
9.53925e-06	-0.010465003353457536
9.53950e-06	-0.010537592031906929
9.53975e-06	-0.010603322212166472
9.54000e-06	-0.010665711821880398
9.54025e-06	-0.010728101431594748
9.54050e-06	-0.01077490313739226
9.54075e-06	-0.010814112438665058
9.54100e-06	-0.01085332173993812
9.54125e-06	-0.010892531041211184
9.54150e-06	-0.010931740342483983
9.54175e-06	-0.010970949643757047
9.54200e-06	-0.011010158945030109
9.54225e-06	-0.011044239001039607
9.54250e-06	-0.011053707198862185
9.54275e-06	-0.011063175396684765
9.54300e-06	-0.01107264359450728
9.54325e-06	-0.01108211179232986
9.54350e-06	-0.011091579990152438
9.54375e-06	-0.011101048187974954
9.54400e-06	-0.011110516385797534
9.54425e-06	-0.01110425154971934
9.54450e-06	-0.011090323620616047
9.54475e-06	-0.011076395691512659
9.54500e-06	-0.011062467762409272
9.54525e-06	-0.011048539833305978
9.54550e-06	-0.01103461190420259
9.54575e-06	-0.011020683975099203
9.54600e-06	-0.01099758998880884
9.54625e-06	-0.010970031488595718
9.54650e-06	-0.010942472988382409
9.54675e-06	-0.0109149144881691
9.54700e-06	-0.010887355987955977
9.54725e-06	-0.010859797487742668
9.54750e-06	-0.01083223898752936
9.54775e-06	-0.010802058073434345
9.54800e-06	-0.010770599859508984
9.54825e-06	-0.010739141645583622
9.54850e-06	-0.010707903882267628
9.54875e-06	-0.010676773493888531
9.54900e-06	-0.010645643105509434
9.54925e-06	-0.010617325967517813
9.54950e-06	-0.010590379080143889
9.54975e-06	-0.010563432192769964
9.55000e-06	-0.010536485305396224
9.55025e-06	-0.010510328698468824
9.55050e-06	-0.01048796412512258
9.55075e-06	-0.010465599551776486
9.55100e-06	-0.010443234978430242
9.55125e-06	-0.010420870405084
9.55150e-06	-0.01039743797439508
9.55175e-06	-0.010373485422144625
9.55200e-06	-0.010349532869894172
9.55225e-06	-0.01032558031764388
9.55250e-06	-0.010301627765393428
9.55275e-06	-0.010277675213142974
9.55300e-06	-0.010253722660892682
9.55325e-06	-0.01022694800086456
9.55350e-06	-0.010198798776046807
9.55375e-06	-0.010170649551229245
9.55400e-06	-0.010142500326411492
9.55425e-06	-0.01011435110159374
9.55450e-06	-0.010086201876775986
9.55475e-06	-0.010058052651958424
9.55500e-06	-0.01002707240003272
9.55525e-06	-0.009994713238976716
9.55550e-06	-0.00996235407792093
9.55575e-06	-0.009929994916864924
9.55600e-06	-0.009897635755808919
9.55625e-06	-0.009865276594753133
9.55650e-06	-0.009832761806384569
9.55675e-06	-0.00979950026539396
9.55700e-06	-0.009766238724403575
9.55725e-06	-0.009732977183412967
9.55750e-06	-0.009699715642422358
9.55775e-06	-0.009666454101431974
9.55800e-06	-0.009633192560441364
9.55825e-06	-0.009601357043270092
9.55850e-06	-0.009570216099902027
9.55875e-06	-0.009539075156533752
9.55900e-06	-0.009509363280063939
9.55925e-06	-0.009480347459590704
9.55950e-06	-0.009456331616198117
9.55975e-06	-0.009434751112979414
9.56000e-06	-0.009413170609760857
9.56025e-06	-0.009391590106542152
9.56050e-06	-0.009370009603323449
9.56075e-06	-0.009348429100104892
9.56100e-06	-0.009326848596886187
9.56125e-06	-0.009305268093667484
9.56150e-06	-0.009283687590448926
9.56175e-06	-0.009269276811854353
9.56200e-06	-0.009258358192950133
9.56225e-06	-0.009247439574045987
9.56250e-06	-0.009236520955141768
9.56275e-06	-0.009225602336237548
9.56300e-06	-0.009214683717333402
9.56325e-06	-0.009203765098429182
9.56350e-06	-0.009192846479524962
9.56375e-06	-0.009181927860620743
9.56400e-06	-0.009176429109807824
9.56425e-06	-0.009173570215595915
9.56450e-06	-0.009170711321384006
9.56475e-06	-0.009167852427172116
9.56500e-06	-0.009164993532960207
9.56525e-06	-0.009162134638748298
9.56550e-06	-0.009159275744536408
9.56575e-06	-0.009156416850324499
9.56600e-06	-0.00915355795611259
9.56625e-06	-0.0091506990619007
9.56650e-06	-0.009148561239255965
9.56675e-06	-0.009149883362522369
9.56700e-06	-0.009151205485788762
9.56725e-06	-0.009152527609055166
9.56750e-06	-0.00915384973232157
9.56775e-06	-0.009155171855587963
9.56800e-06	-0.009156493978854367
9.56825e-06	-0.009157816102120771
9.56850e-06	-0.009159138225387166
9.56875e-06	-0.009160460348653568
9.56900e-06	-0.009161782471919972
9.56925e-06	-0.009162642778199689
9.56950e-06	-0.00916327814715615
9.56975e-06	-0.00916391351611261
9.57000e-06	-0.009164548885069066
9.57025e-06	-0.009165184254025528
9.57050e-06	-0.00916581962298199
9.57075e-06	-0.009166454991938446
9.57100e-06	-0.009167090360894907
9.57125e-06	-0.009167725729851367
9.57150e-06	-0.009165360660246182
9.57175e-06	-0.009161534166227942
9.57200e-06	-0.009157707672209702
9.57225e-06	-0.009153881178191462
9.57250e-06	-0.009150054684173249
9.57275e-06	-0.009146228190155009
9.57300e-06	-0.00914240169613677
9.57325e-06	-0.009138575202118556
9.57350e-06	-0.009134748708100316
9.57375e-06	-0.00912759347374068
9.57400e-06	-0.009118816908932287
9.57425e-06	-0.009110040344123833
9.57450e-06	-0.009101263779315381
9.57475e-06	-0.009092487214506988
9.57500e-06	-0.009083710649698535
9.57525e-06	-0.009074934084890083
9.57550e-06	-0.009066157520081688
9.57575e-06	-0.009056900421460238
9.57600e-06	-0.009045337558643259
9.57625e-06	-0.009033774695826358
9.57650e-06	-0.009022211833009379
9.57675e-06	-0.0090106489701924
9.57700e-06	-0.008999086107375499
9.57725e-06	-0.00898752324455852
9.57750e-06	-0.008975960381741541
9.57775e-06	-0.008964397518924642
9.57800e-06	-0.008953357206417701
9.57825e-06	-0.008942571412630145
9.57850e-06	-0.008931785618842664
9.57875e-06	-0.00892099982505511
9.57900e-06	-0.008910214031267554
9.57925e-06	-0.008899428237480073
9.57950e-06	-0.008888642443692519
9.57975e-06	-0.008877856649904963
9.58000e-06	-0.008867070856117482
9.58025e-06	-0.008857168381480374
9.58050e-06	-0.008851504371683428
9.58075e-06	-0.008845840361886483
9.58100e-06	-0.008840176352089576
9.58125e-06	-0.00883451234229263
9.58150e-06	-0.008828848332495684
9.58175e-06	-0.008823184322698777
9.58200e-06	-0.008817520312901832
9.58225e-06	-0.008811856303104885
9.58250e-06	-0.008806192293307978
9.58275e-06	-0.008804808362557837
9.58300e-06	-0.008805509131055093
9.58325e-06	-0.008806209899552345
9.58350e-06	-0.008806910668049601
9.58375e-06	-0.008807611436546856
9.58400e-06	-0.008808312205044107
9.58425e-06	-0.008809012973541364
9.58450e-06	-0.00880971374203862
9.58475e-06	-0.008810414510535871
9.58500e-06	-0.008814113838753931
9.58525e-06	-0.008819273676258167
9.58550e-06	-0.008824433513762367
9.58575e-06	-0.008829593351266603
9.58600e-06	-0.008834753188770838
9.58625e-06	-0.008839913026275039
9.58650e-06	-0.008845072863779274
9.58675e-06	-0.008850232701283512
9.58700e-06	-0.008855392538787712
9.58725e-06	-0.008861486055599766
9.58750e-06	-0.008868034339842316
9.58775e-06	-0.008874582624084823
9.58800e-06	-0.008881130908327373
9.58825e-06	-0.008887679192569923
9.58850e-06	-0.00889422747681243
9.58875e-06	-0.008900109816506763
9.58900e-06	-0.00890566779441164
9.58925e-06	-0.008911225772316516
9.58950e-06	-0.008916783750221355
9.58975e-06	-0.00892234172812623
9.59000e-06	-0.008927899706031106
9.59025e-06	-0.008932413361803537
9.59050e-06	-0.00893641835931524
9.59075e-06	-0.008940423356826946
9.59100e-06	-0.008946408276371226
9.59125e-06	-0.008953357557070319
9.59150e-06	-0.008960306837769414
9.59175e-06	-0.00896725611846846
9.59200e-06	-0.008974205399167554
9.59225e-06	-0.008981154679866649
9.59250e-06	-0.008988103960565695
9.59275e-06	-0.00899601935295194
9.59300e-06	-0.009008570476849173
9.59325e-06	-0.009021121600746324
9.59350e-06	-0.009033672724643558
9.59375e-06	-0.009046223848540792
9.59400e-06	-0.009058774972437943
9.59425e-06	-0.009071326096335177
9.59450e-06	-0.009083877220232411
9.59475e-06	-0.009099965235121464
9.59500e-06	-0.009117775964453732
9.59525e-06	-0.009135586693786
9.59550e-06	-0.009153397423118149
9.59575e-06	-0.009171208152450417
9.59600e-06	-0.009189018881782685
9.59625e-06	-0.009206829611114832
9.59650e-06	-0.0092246403404471
9.59675e-06	-0.009243531324734686
9.59700e-06	-0.009262948469092713
9.59725e-06	-0.00928236561345087
9.59750e-06	-0.009301782757809029
9.59775e-06	-0.009321199902167187
9.59800e-06	-0.009340617046525215
9.59825e-06	-0.009360034190883373
9.59850e-06	-0.009379451335241531
9.59875e-06	-0.009395779113352393
9.59900e-06	-0.009410602153017358
9.59925e-06	-0.009425425192682323
9.59950e-06	-0.009440248232347188
9.59975e-06	-0.009455071272012153
9.60000e-06	-0.00946989431167712
9.60025e-06	-0.009484717351341983
9.60050e-06	-0.00949954039100695
9.60075e-06	-0.009512395074985176
9.60100e-06	-0.009515804920849226
9.60125e-06	-0.0095192147667133
9.60150e-06	-0.009522624612577375
9.60175e-06	-0.009526034458441426
9.60200e-06	-0.0095294443043055
9.60225e-06	-0.009532854150169575
9.60250e-06	-0.009536263996033627
9.60275e-06	-0.009539673841897701
9.60300e-06	-0.00953471861375726
9.60325e-06	-0.009525689006779213
9.60350e-06	-0.009516659399801107
9.60375e-06	-0.009507629792823
9.60400e-06	-0.009498600185844955
9.60425e-06	-0.009489570578866848
9.60450e-06	-0.00948054097188874
9.60475e-06	-0.009469989576243718
9.60500e-06	-0.009452136122488339
9.60525e-06	-0.00943428266873296
9.60550e-06	-0.009416429214977703
9.60575e-06	-0.009398575761222324
9.60600e-06	-0.009380722307466945
9.60625e-06	-0.009362868853711567
9.60650e-06	-0.009345015399956308
9.60675e-06	-0.009324557102575527
9.60700e-06	-0.009302830063311729
9.60725e-06	-0.009281103024048077
9.60750e-06	-0.009259375984784279
9.60775e-06	-0.00923764894552048
9.60800e-06	-0.009215921906256828
9.60825e-06	-0.009194446890327033
9.60850e-06	-0.009174181167823004
9.60875e-06	-0.009153915445319112
9.60900e-06	-0.009133649722815083
9.60925e-06	-0.009113384000311054
9.60950e-06	-0.009093118277807162
9.60975e-06	-0.009072852555303133
9.61000e-06	-0.009055044452416285
9.61025e-06	-0.009038433382975554
9.61050e-06	-0.00902431929244985
9.61075e-06	-0.009011421406114
9.61100e-06	-0.008998523519778237
9.61125e-06	-0.008989410661843838
9.61150e-06	-0.00898214137870809
9.61175e-06	-0.00897487209557239
9.61200e-06	-0.0089738617276804
9.61225e-06	-0.008975899891314849
9.61250e-06	-0.008977938054949284
9.61275e-06	-0.008979976218583733
9.61300e-06	-0.008982014382218182
9.61325e-06	-0.00898405254585262
9.61350e-06	-0.008988184092049985
9.61375e-06	-0.00900236039772002
9.61400e-06	-0.009016536703389958
9.61425e-06	-0.009030713009059992
9.61450e-06	-0.009044889314730025
9.61475e-06	-0.00905906562040006
9.61500e-06	-0.009073241926069998
9.61525e-06	-0.009093581557823105
9.61550e-06	-0.00911692316246461
9.61575e-06	-0.009140264767105959
9.61600e-06	-0.009163606371747464
9.61625e-06	-0.00918694797638897
9.61650e-06	-0.009210289581030318
9.61675e-06	-0.009233631185671822
9.61700e-06	-0.00925926211262792
9.61725e-06	-0.00928600810041771
9.61750e-06	-0.009312754088207682
9.61775e-06	-0.009339500075997653
9.61800e-06	-0.009366246063787444
9.61825e-06	-0.009392992051577415
9.61850e-06	-0.009419738039367387
9.61875e-06	-0.009445193711133257
9.61900e-06	-0.009470020908327357
9.61925e-06	-0.009494848105521456
9.61950e-06	-0.009511925783847975
9.61975e-06	-0.009525228901940654
9.62000e-06	-0.009538532020033332
9.62025e-06	-0.00955183513812592
9.62050e-06	-0.0095651382562186
9.62075e-06	-0.009578441374311276
9.62100e-06	-0.009591744492403865
9.62125e-06	-0.009605047610496544
9.62150e-06	-0.009618350728589221
9.62175e-06	-0.00963165384668181
9.62200e-06	-0.00964495696477449
9.62225e-06	-0.009658260082867166
9.62250e-06	-0.009671563200959755
9.62275e-06	-0.009684866319052432
9.62300e-06	-0.009698169437145111
9.62325e-06	-0.00971147255523779
9.62350e-06	-0.009724775673330377
9.62375e-06	-0.009736090669631258
9.62400e-06	-0.009737865983332207
9.62425e-06	-0.009739641297033145
9.62450e-06	-0.009741416610734093
9.62475e-06	-0.009743191924435042
9.62500e-06	-0.00974496723813598
9.62525e-06	-0.00974674255183693
9.62550e-06	-0.009748517865537877
9.62575e-06	-0.009750293179238815
9.62600e-06	-0.009752068492939765
9.62625e-06	-0.009753843806640712
9.62650e-06	-0.00975561912034165
9.62675e-06	-0.0097573944340426
9.62700e-06	-0.00975916974774355
9.62725e-06	-0.009760945061444485
9.62750e-06	-0.009762720375145435
9.62775e-06	-0.009764495688846384
9.62800e-06	-0.009766271002547322
9.62825e-06	-0.009766365932752222
9.62850e-06	-0.009765712823983135
9.62875e-06	-0.009764556187707118
9.62900e-06	-0.08346014346572155
9.62925e-06	-0.05237301239590896
9.62950e-06	-0.02029370819773732
9.62975e-06	-0.0033963202937905973
9.63000e-06	0.0113966473615682
9.63025e-06	0.01195128760458804
9.63050e-06	0.001300050626411653
9.63075e-06	-0.011823307865804782
9.63100e-06	-0.025409347037455607
9.63125e-06	-0.02573761943380054
9.63150e-06	-0.015411332502603212
9.63175e-06	-0.0049516522641385565
9.63200e-06	0.004254879494725324
9.63225e-06	0.004562739414211487
9.63250e-06	-0.0021409661413647344
9.63275e-06	-0.010388905233091475
9.63300e-06	-0.01892348289900056
9.63325e-06	-0.019151018575226893
9.63350e-06	-0.012703042536567285
9.63375e-06	-0.006170439372984013
9.63400e-06	-0.0004218153381951358
9.63425e-06	-0.0002461276027646408
9.63450e-06	-0.004460936997422575
9.63475e-06	-0.009641363106022514
9.63500e-06	-0.014999687128663917
9.63525e-06	-0.015153158106754923
9.63550e-06	-0.011124278662467426
9.63575e-06	-0.007041846298017023
9.63600e-06	-0.003450015459147478
9.63625e-06	-0.00334847918002029
9.63650e-06	-0.005996350293723872
9.63675e-06	-0.00924820989580253
9.63700e-06	-0.012610671791684033
9.63725e-06	-0.012712202117658743
9.63750e-06	-0.010193633875654987
9.63775e-06	-0.0076414288329176685
9.63800e-06	-0.005396497880849123
9.63825e-06	-0.005337795740658893
9.63850e-06	-0.007001115866631178
9.63875e-06	-0.009042536770504551
9.63900e-06	-0.011153042515705206
9.63925e-06	-0.011220858010499452
9.63950e-06	-0.00964762644241285
9.63975e-06	-0.008053637232771357
9.64000e-06	-0.006652485366352898
9.64025e-06	-0.006621131745207846
9.64050e-06	-0.007668988144775596
9.64075e-06	-0.008954978961764707
9.64100e-06	-0.010286415910248002
9.64125e-06	-0.010340912253983717
9.64150e-06	-0.009370107095666696
9.64175e-06	-0.008388841511991624
9.64200e-06	-0.007530751600857928
9.64225e-06	-0.00753288462926756
9.64250e-06	-0.008212990922014354
9.64275e-06	-0.009044027964347945
9.64300e-06	-0.009905131329944764
9.64325e-06	-0.009967837243553612
9.64350e-06	-0.00938968077261807
9.64375e-06	-0.00880622846731119
9.64400e-06	-0.008301027987115362
9.64425e-06	-0.008335577109616188
9.64450e-06	-0.008795511730115533
9.64475e-06	-0.00935051008184382
9.64500e-06	-0.009924696432955973
9.64525e-06	-0.009998984207700987
9.64550e-06	-0.009671933659741939
9.64575e-06	-0.009341518998738259
9.64600e-06	-0.009059912055845856
9.64625e-06	-0.009116015144196583
9.64650e-06	-0.009437999520935849
9.64675e-06	-0.009818775510853833
9.64700e-06	-0.010210649440980069
9.64725e-06	-0.0102883172321509
9.64750e-06	-0.010113378538758995
