Time(s)	Current(A)
8.00000e-06	-0.0007771223593286968
8.00025e-06	-0.0008044995468357383
8.00050e-06	-0.0008301009860438573
8.00075e-06	-0.0008528302627233135
8.00100e-06	-0.0008755595394026157
8.00125e-06	-0.0008972062205458706
8.00150e-06	-0.0009171018706818447
8.00175e-06	-0.000936997520817684
8.00200e-06	-0.0009555554563576498
8.00225e-06	-0.0009719497216641425
8.00250e-06	-0.000988343986970524
8.00275e-06	-0.0010027715286518094
8.00300e-06	-0.0010140180170814155
8.00325e-06	-0.001025264505510945
8.00350e-06	-0.001036510993940551
8.00375e-06	-0.0010477574823701571
8.00400e-06	-0.0010590039707996867
8.00425e-06	-0.0010702504592292929
8.00450e-06	-0.0010814969476588988
8.00475e-06	-0.0010927434360884286
8.00500e-06	-0.0011039899245180345
8.00525e-06	-0.0011132915748848396
8.00550e-06	-0.0011194475705368775
8.00575e-06	-0.001125603566188957
8.00600e-06	-0.0011317595618410366
8.00625e-06	-0.0011379155574930745
8.00650e-06	-0.001144071553145154
8.00675e-06	-0.0011502275487972338
8.00700e-06	-0.0011563835444492715
8.00725e-06	-0.0011625395401013512
8.00750e-06	-0.0011686955357534307
8.00775e-06	-0.001174150794603011
8.00800e-06	-0.0011784726552181751
8.00825e-06	-0.00118249051674449
8.00850e-06	-0.001186016678634979
8.00875e-06	-0.0011881903447985998
8.00900e-06	-0.0011881764331676415
8.00925e-06	-0.0011856940133536812
8.00950e-06	-0.001179218934946028
8.00975e-06	-0.0011704037751832856
8.01000e-06	-0.0011578036792406264
8.01025e-06	-0.0011430688736757027
8.01050e-06	-0.0011248813079466806
8.01075e-06	-0.0011041772213036592
8.01100e-06	-0.0010794028184581762
8.01125e-06	-0.0010516879193782347
8.01150e-06	-0.0010192169503606397
8.01175e-06	-0.0009841609216442902
8.01200e-06	-0.000944923719499131
8.01225e-06	-0.000903505229378236
8.01250e-06	-0.0008585586415011926
8.01275e-06	-0.000811466569491091
8.01300e-06	-0.0007609043102156247
8.01325e-06	-0.0007082060070135801
8.01350e-06	-0.0006520527854920535
8.01375e-06	-0.0005942612379373346
8.01400e-06	-0.0005338197998290615
8.01425e-06	-0.00047248780228282465
8.01450e-06	-0.0004092754932812772
8.01475e-06	-0.0003449488457182665
8.01500e-06	-0.0002795898769182724
8.01525e-06	-0.00021333626238920976
8.01550e-06	-0.00014650532065813606
8.01575e-06	-7.949713275766783e-05
8.01600e-06	-1.2713333917822543e-05
8.01625e-06	5.3444494342894465e-05
8.01650e-06	0.00011859146026717942
8.01675e-06	0.00018241448568277684
8.01700e-06	0.0002446824601926281
8.01725e-06	0.00030512946709581847
8.01750e-06	0.0003633770813068379
8.01775e-06	0.00041899502929302175
8.01800e-06	0.0004715520881057247
8.01825e-06	0.0005206171649435128
8.01850e-06	0.0005658196580955052
8.01875e-06	0.0006070704152974908
8.01900e-06	0.0006446678646506789
8.01925e-06	0.0006789270012516088
8.01950e-06	0.0007098535594502634
8.01975e-06	0.0007365745284803615
8.02000e-06	0.0007599197295237736
8.02025e-06	0.0007810554220471911
8.02050e-06	0.0007963882490377046
8.02075e-06	0.000808115608416415
8.02100e-06	0.0008172493463080999
8.02125e-06	0.0008221880626098112
8.02150e-06	0.0008247172025202594
8.02175e-06	0.0008233490023466626
8.02200e-06	0.0008195864590938507
8.02225e-06	0.0008119512146926531
8.02250e-06	0.0008020197430849964
8.02275e-06	0.0007883742666561583
8.02300e-06	0.0007728398595322256
8.02325e-06	0.0007542502243855697
8.02350e-06	0.0007340547980022651
8.02375e-06	0.0007112621040762437
8.02400e-06	0.0006870409702476824
8.02425e-06	0.0006605094236382062
8.02450e-06	0.0006325675132483963
8.02475e-06	0.0006023444270827159
8.02500e-06	0.0005721213409168308
8.02525e-06	0.0005409980216044332
8.02550e-06	0.0005084186311171099
8.02575e-06	0.0004758392406300075
8.02600e-06	0.00044303418956574166
8.02625e-06	0.0004098641465405758
8.02650e-06	0.0003766941035156348
8.02675e-06	0.00034389982293398777
8.02700e-06	0.00031171331475527683
8.02725e-06	0.0002803225358667845
8.02750e-06	0.000250218799658964
8.02775e-06	0.0002209317802422427
8.02800e-06	0.00019362418994047648
8.02825e-06	0.00016812548883115487
8.02850e-06	0.00014457451273568536
8.02875e-06	0.00012273249505867032
8.02900e-06	0.0001018925168698432
8.02925e-06	8.144510445662074e-05
8.02950e-06	6.129886838531528e-05
8.02975e-06	4.1612531133411565e-05
8.03000e-06	2.2549695938076655e-05
8.03025e-06	4.273933499920397e-06
8.03050e-06	-1.3104356091386484e-05
8.03075e-06	-2.9711307542896742e-05
8.03100e-06	-4.596627208977004e-05
8.03125e-06	-6.222752581039384e-05
8.03150e-06	-7.849808983513408e-05
8.03175e-06	-9.469748195607667e-05
8.03200e-06	-0.00011067778402429234
8.03225e-06	-0.00012630372154598285
8.03250e-06	-0.00014162223943313485
8.03275e-06	-0.000156443525164294
8.03300e-06	-0.00017126481089545315
8.03325e-06	-0.0001859795968726074
8.03350e-06	-0.00020052212611565195
8.03375e-06	-0.0002150646553586965
8.03400e-06	-0.00022960718460174106
8.03425e-06	-0.00024414971384468707
8.03450e-06	-0.0002586922430877316
8.03475e-06	-0.00027278114394175916
8.03500e-06	-0.00028613632906420827
8.03525e-06	-0.00029949151418674785
8.03550e-06	-0.0003128466993092875
8.03575e-06	-0.0003262018844317366
8.03600e-06	-0.00033955706955427617
8.03625e-06	-0.0003517769658098907
8.03650e-06	-0.00036216060286812385
8.03675e-06	-0.0003725442399264274
8.03700e-06	-0.00038292787698473096
8.03725e-06	-0.00039331151404296415
8.03750e-06	-0.0004036951511012677
8.03775e-06	-0.00041407878815957126
8.03800e-06	-0.0004244624252178044
8.03825e-06	-0.00043484606227610795
8.03850e-06	-0.0004452296993344115
8.03875e-06	-0.00045161526735165394
8.03900e-06	-0.000457466218710526
8.03925e-06	-0.000463317170069398
8.03950e-06	-0.0004691681214282304
8.03975e-06	-0.0004750190727871024
8.04000e-06	-0.00048087002414597444
8.04025e-06	-0.0004867209755048068
8.04050e-06	-0.0004925719268636788
8.04075e-06	-0.0004984228782225509
8.04100e-06	-0.0005029953304148282
8.04125e-06	-0.0005054998896486144
8.04150e-06	-0.0005080044488824006
8.04175e-06	-0.0005105090081161699
8.04200e-06	-0.0005130135673499561
8.04225e-06	-0.0005155181265837424
8.04250e-06	-0.0005180226858175115
8.04275e-06	-0.0005205272450512978
8.04300e-06	-0.000523031804285084
8.04325e-06	-0.0005255363635188702
8.04350e-06	-0.0005280409227526395
8.04375e-06	-0.0005297799570086327
8.04400e-06	-0.0005302808021811602
8.04425e-06	-0.0005307816473536842
8.04450e-06	-0.0005312824925262117
8.04475e-06	-0.0005317833376987392
8.04500e-06	-0.0005322841828712632
8.04525e-06	-0.0005327850280437907
8.04550e-06	-0.0005332858732163181
8.04575e-06	-0.0005337867183888423
8.04600e-06	-0.0005342875635613697
8.04625e-06	-0.0005347884087338972
8.04650e-06	-0.0005350513425017061
8.04675e-06	-0.0005349294693556734
8.04700e-06	-0.0005348075962096407
8.04725e-06	-0.0005346857230636088
8.04750e-06	-0.0005345638499175761
8.04775e-06	-0.0005344419767715435
8.04800e-06	-0.0005343201036255116
8.04825e-06	-0.000534198230479479
8.04850e-06	-0.0005340763573334462
8.04875e-06	-0.0005329170145192681
8.04900e-06	-0.0005316189425931371
8.04925e-06	-0.0005303208706670062
8.04950e-06	-0.000529022798740884
8.04975e-06	-0.000527724726814753
8.05000e-06	-0.000526426654888622
8.05025e-06	-0.0005251285829624998
8.05050e-06	-0.0005238305110363689
8.05075e-06	-0.0005214516106452188
8.05100e-06	-0.000517324537371988
8.05125e-06	-0.0005131974640987292
8.05150e-06	-0.0005090703908254704
8.05175e-06	-0.0005049433175522116
8.05200e-06	-0.0005008162442789809
8.05225e-06	-0.0004966891710057221
8.05250e-06	-0.0004925620977324633
8.05275e-06	-0.0004884350244592326
8.05300e-06	-0.00048430795118597375
8.05325e-06	-0.0004781370432327911
8.05350e-06	-0.00047169283633037156
8.05375e-06	-0.00046524862942790837
8.05400e-06	-0.00045880442252544524
8.05425e-06	-0.0004523602156230257
8.05450e-06	-0.0004459160087205625
8.05475e-06	-0.0004394718018180993
8.05500e-06	-0.0004330275949156798
8.05525e-06	-0.00042658338801321663
8.05550e-06	-0.0004200523583278956
8.05575e-06	-0.00041338089818628016
8.05600e-06	-0.0004067094380446195
8.05625e-06	-0.00040003797790295886
8.05650e-06	-0.0003933665177613434
8.05675e-06	-0.00038669505761968273
8.05700e-06	-0.0003800235974780221
8.05725e-06	-0.00037335213733640665
8.05750e-06	-0.0003673669879388452
8.05775e-06	-0.00036249190352446553
8.05800e-06	-0.00035761681911011887
8.05825e-06	-0.0003527417346957392
8.05850e-06	-0.00034786665028135953
8.05875e-06	-0.00034299156586701287
8.05900e-06	-0.0003381164814526332
8.05925e-06	-0.00033324139703825353
8.05950e-06	-0.000328806147915778
8.05975e-06	-0.00032508230504781744
8.06000e-06	-0.00032135846217985694
8.06025e-06	-0.0003176346193118964
8.06050e-06	-0.0003139107764439611
8.06075e-06	-0.0003101869335760006
8.06100e-06	-0.00030646309070804
8.06125e-06	-0.0003027392478401047
8.06150e-06	-0.00029901540497214417
8.06175e-06	-0.00029529156210418366
8.06200e-06	-0.00029156771923624837
8.06225e-06	-0.0002878438763682878
8.06250e-06	-0.0002841200335003273
8.06275e-06	-0.000280396190632392
8.06300e-06	-0.00027667234776443145
8.06325e-06	-0.0002730756107626306
8.06350e-06	-0.00026968445960141006
8.06375e-06	-0.00026629330844016655
8.06400e-06	-0.000262902157278923
8.06425e-06	-0.00025951100611770246
8.06450e-06	-0.00025611985495645895
8.06475e-06	-0.00025272870379521544
8.06500e-06	-0.0002493375526339949
8.06525e-06	-0.0002459464014727514
8.06550e-06	-0.00024255525031150786
8.06575e-06	-0.0002391640991502873
8.06600e-06	-0.0002357729479890438
8.06625e-06	-0.00023238179682780029
8.06650e-06	-0.00022899064566657976
8.06675e-06	-0.00022559949450533622
8.06700e-06	-0.00022243269074262193
8.06725e-06	-0.00021962875495686306
8.06750e-06	-0.0002168248191710852
8.06775e-06	-0.00021417597036238622
8.06800e-06	-0.0002117779651025583
8.06825e-06	-0.00020937995984271411
8.06850e-06	-0.00020691037284187931
8.06875e-06	-0.00020432500682283152
8.06900e-06	-0.00020101280055448837
8.06925e-06	-0.00019583437258876242
8.06950e-06	-0.00018888987617032968
8.06975e-06	-0.00018029078965369125
8.07000e-06	-0.00017015300579742185
8.07025e-06	-0.00015859238351791452
8.07050e-06	-0.00014567787110785226
8.07075e-06	-0.0001312746085264602
8.07100e-06	-0.0001150108673185675
8.07125e-06	-9.660407410845624e-05
8.07150e-06	-7.608273024654815e-05
8.07175e-06	-5.362003717848353e-05
8.07200e-06	-2.9391945054488124e-05
8.07225e-06	-3.5743938658905485e-06
8.07250e-06	2.3686091578215e-05
8.07275e-06	5.237065116266746e-05
8.07300e-06	8.260878053055666e-05
8.07325e-06	0.000114474118173192
8.07350e-06	0.00014784544752486153
8.07375e-06	0.0001825109277693807
8.07400e-06	0.00021839742288226258
8.07425e-06	0.00025509723667263323
8.07450e-06	0.00029225754125509736
8.07475e-06	0.0003301626610802519
8.07500e-06	0.0003684478131233219
8.07525e-06	0.0004073476436658267
8.07550e-06	0.00044636393121099484
8.07575e-06	0.0004855685807215226
8.07600e-06	0.0005246344236258595
8.07625e-06	0.0005632624668621811
8.07650e-06	0.000601253271822351
8.07675e-06	0.0006384315437403521
8.07700e-06	0.0006746801595819271
8.07725e-06	0.0007098601357179667
8.07750e-06	0.000743755999378475
8.07775e-06	0.0007761167028613428
8.07800e-06	0.0008066906863867063
8.07825e-06	0.0008352263182362522
8.07850e-06	0.000861434806306227
8.07875e-06	0.0008848777665080932
8.07900e-06	0.0009049809031441577
8.07925e-06	0.0009213233682896798
8.07950e-06	0.0009337886450418995
8.07975e-06	0.0009423898426680959
8.08000e-06	0.0009464120904879511
8.08025e-06	0.000946880720365967
8.08050e-06	0.0009443651666540501
8.08075e-06	0.000937022881410231
8.08100e-06	0.0009264855034795304
8.08125e-06	0.0009107802616578774
8.08150e-06	0.0008920134132157091
8.08175e-06	0.000868294606300724
8.08200e-06	0.0008417932514751809
8.08225e-06	0.0008107912982998895
8.08250e-06	0.0007772396333847444
8.08275e-06	0.0007395639681591661
8.08300e-06	0.0006994711543658736
8.08325e-06	0.0006554687529562029
8.08350e-06	0.0006093974231495539
8.08375e-06	0.0005599797302144598
8.08400e-06	0.0005089325120999416
8.08425e-06	0.00045524963825986154
8.08450e-06	0.0004003476213305548
8.08475e-06	0.00034347371620734333
8.08500e-06	0.000285728184876032
8.08525e-06	0.00022657285231119002
8.08550e-06	0.00016704361699047037
8.08575e-06	0.00010690961719481745
8.08600e-06	4.677561739957202e-05
8.08625e-06	-1.311787301237664e-05
8.08650e-06	-7.228295024831415e-05
8.08675e-06	-0.00013044426608370668
8.08700e-06	-0.0001872984092374736
8.08725e-06	-0.00024251835644602233
8.08750e-06	-0.00029573029247747883
8.08775e-06	-0.00034654047093763475
8.08800e-06	-0.000394554812230902
8.08825e-06	-0.00043937931981947385
8.08850e-06	-0.0004807481417602549
8.08875e-06	-0.0005187075726457373
8.08900e-06	-0.0005546426541870321
8.08925e-06	-0.0005896919909085144
8.08950e-06	-0.0006233086904196996
8.08975e-06	-0.0006557718167989345
8.09000e-06	-0.0006863691103155553
8.09025e-06	-0.000715461852967309
8.09050e-06	-0.0007421210780808183
8.09075e-06	-0.0007675464123324388
8.09100e-06	-0.0007909760047828986
8.09125e-06	-0.0008144055972331997
8.09150e-06	-0.0008360634980447352
8.09175e-06	-0.0008548557977149024
8.09200e-06	-0.0008736480973849423
8.09225e-06	-0.0008924403970551096
8.09250e-06	-0.0009112326967252769
8.09275e-06	-0.0009300249963953168
8.09300e-06	-0.0009488172960654841
8.09325e-06	-0.0009676095957356514
8.09350e-06	-0.000984319345981708
8.09375e-06	-0.0009976607019341421
8.09400e-06	-0.0010110020578865764
8.09425e-06	-0.0010243434138390106
8.09450e-06	-0.0010376847697913544
8.09475e-06	-0.0010510261257437887
8.09500e-06	-0.001064367481696223
8.09525e-06	-0.0010777088376485668
8.09550e-06	-0.0010889912658539002
8.09575e-06	-0.001096943506359914
8.09600e-06	-0.0011048957468658739
8.09625e-06	-0.0011128479873718877
8.09650e-06	-0.0011208002278779016
8.09675e-06	-0.0011287524683838614
8.09700e-06	-0.001136704708889875
8.09725e-06	-0.001144656949395889
8.09750e-06	-0.0011526091899018488
8.09775e-06	-0.0011605614304078626
8.09800e-06	-0.0011685136709138765
8.09825e-06	-0.0011764659114198363
8.09850e-06	-0.00118441815192585
8.09875e-06	-0.0011923703924318638
8.09900e-06	-0.0012003226329378237
8.09925e-06	-0.0012082748734438375
8.09950e-06	-0.0012100660713870116
8.09975e-06	-0.0012110334226260605
8.10000e-06	-0.0012120007738651156
8.10025e-06	-0.001212968125104171
8.10050e-06	-0.0012139354763432196
8.10075e-06	-0.001214902827582275
8.10100e-06	-0.0012158701788213303
8.10125e-06	-0.001216837530060379
8.10150e-06	-0.0012178048812994343
8.10175e-06	-0.0012187722325384895
8.10200e-06	-0.0012197395837775383
8.10225e-06	-0.0012207069350165935
8.10250e-06	-0.0012216742862556488
8.10275e-06	-0.0012226416374947042
8.10300e-06	-0.0012236089887337528
8.10325e-06	-0.0012230964735600418
8.10350e-06	-0.0012201903664148697
8.10375e-06	-0.0012172842592697171
8.10400e-06	-0.001214378152124545
8.10425e-06	-0.0012114720449793728
8.10450e-06	-0.0012085659378342202
8.10475e-06	-0.0012056431899699217
8.10500e-06	-0.0012022997730356106
8.10525e-06	-0.0011989563561013218
8.10550e-06	-0.0011956129391670104
8.10575e-06	-0.001192269522232699
8.10600e-06	-0.0011889261052984105
8.10625e-06	-0.0011855826883640991
8.10650e-06	-0.0011804531410664466
8.10675e-06	-0.004177978371384563
8.10700e-06	-0.028016672301783882
8.10725e-06	-0.021524572735031704
8.10750e-06	-0.016493890252528186
8.10775e-06	-0.012592455085579867
8.10800e-06	0.00731215550707512
8.10825e-06	0.005570063242278161
8.10850e-06	0.0040699376829779555
8.10875e-06	-0.00046996651838761934
8.10900e-06	-0.00660686724027446
8.10925e-06	-0.009399673612190598
8.10950e-06	-0.007916642422258792
8.10975e-06	-0.0036349102009875325
8.11000e-06	0.0012634514749262503
8.11025e-06	0.0038657998204264187
8.11050e-06	0.0034270697568233913
8.11075e-06	0.0003595084119529285
8.11100e-06	-0.003580894592858763
8.11125e-06	-0.005398613912777508
8.11150e-06	-0.004516823262715832
8.11175e-06	-0.0018660001921955722
8.11200e-06	0.001183115249886738
8.11225e-06	0.002803206936646047
8.11250e-06	0.0025255139941759786
8.11275e-06	0.0006067381995181634
8.11300e-06	-0.0018543751860816352
8.11325e-06	-0.002982481455797447
8.11350e-06	-0.002417188279852427
8.11375e-06	-0.0007421013139294909
8.11400e-06	0.0011835844711312823
8.11425e-06	0.0022148611745895813
8.11450e-06	0.0020578542967789556
8.11475e-06	0.0008731775786119866
8.11500e-06	-0.0006510991014369064
8.11525e-06	-0.0013405001973095796
8.11550e-06	-0.0009695551868622261
8.11575e-06	9.591088315068512e-05
8.11600e-06	0.0013174985271727365
8.11625e-06	0.0019778422500726926
8.11650e-06	0.0018927739541645533
8.11675e-06	0.0011628258887227904
8.11700e-06	0.00021890787614410817
8.11725e-06	-0.00020343638619050713
8.11750e-06	3.6843496830887574e-05
8.11775e-06	0.0007104170047740873
8.11800e-06	0.0014798805422408024
8.11825e-06	0.0018957634529818282
8.11850e-06	0.0018426659564881461
8.11875e-06	0.0013837881721741844
8.11900e-06	0.0007895973226321223
8.11925e-06	0.0005213117875953054
8.11950e-06	0.0006674420343988212
8.11975e-06	0.0010843533568465143
8.12000e-06	0.0015607212316453196
8.12025e-06	0.0018150450983743488
8.12050e-06	0.0017751023499764293
8.12075e-06	0.001480546712355314
8.12100e-06	0.0011008540216100593
8.12125e-06	0.0009249657186967963
8.12150e-06	0.0010083438211866888
8.12175e-06	0.00126103642222824
8.12200e-06	0.0015507011081697516
8.12225e-06	0.0017010514557744946
8.12250e-06	0.001666902486520237
8.12275e-06	0.001473149382048908
8.12300e-06	0.0012260019044160384
8.12325e-06	0.0011064897582575845
8.12350e-06	0.0011493816316446427
8.12375e-06	0.0012983600268684893
8.12400e-06	0.001470560556136188
8.12425e-06	0.0015556012210222597
8.12450e-06	0.0015252280936154396
8.12475e-06	0.0013950861248815498
8.12500e-06	0.001231751743417143
8.12525e-06	0.0011486601948309874
8.12550e-06	0.001167623047213454
8.12575e-06	0.0012533962102369482
8.12600e-06	0.0013541105236682394
8.12625e-06	0.0014006655419455266
8.12650e-06	0.0013754097298148795
8.12675e-06	0.001288189935974713
8.12700e-06	0.0011807542882541356
8.12725e-06	0.0011241979802531395
8.12750e-06	0.001132219297090409
8.12775e-06	0.0011827775265260522
8.12800e-06	0.0012434204623592371
8.12825e-06	0.0012709057276320142
8.12850e-06	0.0012542286949429327
8.12875e-06	0.0011996417595871755
8.12900e-06	0.0011333989723128842
8.12925e-06	0.001100083217596743
8.12950e-06	0.0011082467951676143
8.12975e-06	0.0011440258822701832
8.13000e-06	0.001187034842837904
8.13025e-06	0.0012101312932032242
8.13050e-06	0.0012063680617690614
8.13075e-06	0.0011796079304648738
8.13100e-06	0.0011462417506221828
8.13125e-06	0.001134139600123182
8.13150e-06	0.0011486005082955598
8.13175e-06	0.0011808822052350653
8.13200e-06	0.0012181581187754365
8.13225e-06	0.0012433706869665498
8.13250e-06	0.0012521136553643535
8.13275e-06	0.0012467521289374842
8.13300e-06	0.0012374982455136178
8.13325e-06	0.0012417534829958334
8.13350e-06	0.0012627798397255438
8.13375e-06	0.0012950439859146317
8.13400e-06	0.0013304549015043928
8.13425e-06	0.0013582721906824809
8.13450e-06	0.001375680652343497
8.13475e-06	0.0013841068616384426
8.13500e-06	0.0013898924157754494
8.13525e-06	0.0014038814369306534
8.13550e-06	0.001428060561568516
8.13575e-06	0.001458907232746894
8.13600e-06	0.0014912971229348977
8.13625e-06	0.001518446700802976
8.13650e-06	0.0015385373368633532
8.13675e-06	0.0015524074706208448
8.13700e-06	0.0015639740684544022
8.13725e-06	0.0015799740051904005
8.13750e-06	0.0016015955675897841
8.13775e-06	0.00162657603847544
8.13800e-06	0.001651649622359853
8.13825e-06	0.0016711853537364008
8.13850e-06	0.00168690840710224
8.13875e-06	0.0016988725866809195
8.13900e-06	0.00170774267750454
8.13925e-06	0.0017199003661266584
8.13950e-06	0.0017347642162098605
8.13975e-06	0.0017508802154021566
8.14000e-06	0.0017680269117386078
8.14025e-06	0.0017818965462211237
8.14050e-06	0.001793068691826211
8.14075e-06	0.0018018623639316973
8.14100e-06	0.001808698213421714
8.14125e-06	0.0018175760566575545
8.14150e-06	0.0018281347517242032
8.14175e-06	0.0018394667531875743
8.14200e-06	0.0018514352960092794
8.14225e-06	0.0018613467754918346
8.14250e-06	0.0018695649987208853
8.14275e-06	0.001876295993570912
8.14300e-06	0.0018818027875392542
8.14325e-06	0.0018885980636615027
8.14350e-06	0.001896453944201367
8.14375e-06	0.001904810090540636
8.14400e-06	0.0019135780269193534
