Time(s)	Current(A)
8.75000e-06	-0.0010795169218566563
8.75025e-06	-0.0010959006649103324
8.75050e-06	-0.0011112504325468402
8.75075e-06	-0.0011194987479028657
8.75100e-06	-0.0011266816896748852
8.75125e-06	-0.0011266029340011063
8.75150e-06	-0.00112543476445423
8.75175e-06	-0.0011171547666763949
8.75200e-06	-0.0011078078386946028
8.75225e-06	-0.0010917447351846668
8.75250e-06	-0.0010746740580531945
8.75275e-06	-0.0010513035593830672
8.75300e-06	-0.0010269879493207362
8.75325e-06	-0.0009968196199520085
8.75350e-06	-0.0009657732543316505
8.75375e-06	-0.0009295155043667514
8.75400e-06	-0.0008924759324593801
8.75425e-06	-0.0008510201030003128
8.75450e-06	-0.0008089017380552587
8.75475e-06	-0.0007631752502493647
8.75500e-06	-0.0007169074648849163
8.75525e-06	-0.0006678586970546682
8.75550e-06	-0.0006183927208648463
8.75575e-06	-0.0005674230417011494
8.75600e-06	-0.0005155708499184842
8.75625e-06	-0.0004632265022796029
8.75650e-06	-0.0004106927735263716
8.75675e-06	-0.0003582723548847304
8.75700e-06	-0.00030626797680617646
8.75725e-06	-0.00025498533827740413
8.75750e-06	-0.00020474238829723855
8.75775e-06	-0.00015587430969229337
8.75800e-06	-0.00010872595677322715
8.75825e-06	-6.364391945192982e-05
8.75850e-06	-2.097487623033286e-05
8.75875e-06	1.8934545953244824e-05
8.75900e-06	5.573274674476862e-05
8.75925e-06	8.894239383626555e-05
8.75950e-06	0.00011795541441285686
8.75975e-06	0.00014234787026102622
8.76000e-06	0.00016198872301625695
8.76025e-06	0.00017685617637422236
8.76050e-06	0.00018693898486621115
8.76075e-06	0.00019222592706754428
8.76100e-06	0.00019270268331989876
8.76125e-06	0.00018827618106651638
8.76150e-06	0.00017877147662177768
8.76175e-06	0.00016412898381911145
8.76200e-06	0.0001444725989549188
8.76225e-06	0.00011999465512367694
8.76250e-06	9.08940605564154e-05
8.76275e-06	5.736975068981787e-05
8.76300e-06	1.961870661224427e-05
8.76325e-06	-2.221143602461826e-05
8.76350e-06	-6.802431470755705e-05
8.76375e-06	-0.00011765132311849515
8.76400e-06	-0.00017080891108859703
8.76425e-06	-0.0002271707078352906
8.76450e-06	-0.00028640622671089193
8.76475e-06	-0.0003481849791682863
8.76500e-06	-0.00041299394970666835
8.76525e-06	-0.00047820859063323805
8.76550e-06	-0.0005466575586991706
8.76575e-06	-0.0006155917467678582
8.76600e-06	-0.0006845259348370131
8.76625e-06	-0.0007547344920697885
8.76650e-06	-0.0008251342326249456
8.76675e-06	-0.0008955339731805797
8.76700e-06	-0.0009640180770965038
8.76725e-06	-0.0010322147935039765
8.76750e-06	-0.0011004115099119114
8.76775e-06	-0.0011635549191582584
8.76800e-06	-0.0012259402215052772
8.76825e-06	-0.0012883255238527187
8.76850e-06	-0.0013438928988734108
8.76875e-06	-0.0013984374352702719
8.76900e-06	-0.001446065160689423
8.76925e-06	-0.0014926552127688324
8.76950e-06	-0.0015348737841623303
8.76975e-06	-0.00157643653758113
8.77000e-06	-0.0016179992910002115
8.77025e-06	-0.0016556390626819774
8.77050e-06	-0.0016926903010674207
8.77075e-06	-0.0017297415394531151
8.77100e-06	-0.0017646813256942623
8.77125e-06	-0.0017960189666075194
8.77150e-06	-0.0018273566075209888
8.77175e-06	-0.0018586942484344583
8.77200e-06	-0.0018879894178620005
8.77225e-06	-0.0019169781717731083
8.77250e-06	-0.001945966925684216
8.77275e-06	-0.0019749556795951276
8.77300e-06	-0.002000997309299192
8.77325e-06	-0.0020265968057382915
8.77350e-06	-0.0020521963021772173
8.77375e-06	-0.0020777957986163166
8.77400e-06	-0.00209995251968052
8.77425e-06	-0.002121592748934188
8.77450e-06	-0.0021432329781880025
8.77475e-06	-0.0021648732074418175
8.77500e-06	-0.0021865134366954855
8.77525e-06	-0.0022081536659493005
8.77550e-06	-0.002229793895203115
8.77575e-06	-0.0022514341244567835
8.77600e-06	-0.002273074353710598
8.77625e-06	-0.0022947145829644126
8.77650e-06	-0.002316354812218081
8.77675e-06	-0.0023379950414718956
8.77700e-06	-0.0023596352707257106
8.77725e-06	-0.0023736945386302554
8.77750e-06	-0.0023866164960725613
8.77775e-06	-0.0023995384535149553
8.77800e-06	-0.002412460410957349
8.77825e-06	-0.0024253823683996548
8.77850e-06	-0.0024383043258420487
8.77875e-06	-0.0024512262832844423
8.77900e-06	-0.002464148240726748
8.77925e-06	-0.002477070198169142
8.77950e-06	-0.0024899921556115357
8.77975e-06	-0.0025029141130538416
8.78000e-06	-0.0025158360704962356
8.78025e-06	-0.002528758027938629
8.78050e-06	-0.0025329388159654746
8.78075e-06	-0.0025358082368751532
8.78100e-06	-0.0025386776577848323
8.78125e-06	-0.0025415470786944914
8.78150e-06	-0.00254441649960417
8.78175e-06	-0.002547285920513849
8.78200e-06	-0.002550155341423508
8.78225e-06	-0.002553024762333187
8.78250e-06	-0.0025558941832428657
8.78275e-06	-0.002558763604152525
8.78300e-06	-0.002561633025062204
8.78325e-06	-0.0025645024459718824
8.78350e-06	-0.002567371866881542
8.78375e-06	-0.0025702412877912206
8.78400e-06	-0.0025709698114590998
8.78425e-06	-0.002568045956350683
8.78450e-06	-0.0025651221012422463
8.78475e-06	-0.00256219824613381
8.78500e-06	-0.0025592743910253933
8.78525e-06	-0.002556350535916957
8.78550e-06	-0.0025534266808085204
8.78575e-06	-0.002550502825700084
8.78600e-06	-0.0025475789705916674
8.78625e-06	-0.002544655115483231
8.78650e-06	-0.0025417312603747944
8.78675e-06	-0.0025388074052663774
8.78700e-06	-0.002535883550157941
8.78725e-06	-0.0025329596950495045
8.78750e-06	-0.002530035839941088
8.78775e-06	-0.0025267343616334073
8.78800e-06	-0.0025233762315640673
8.78825e-06	-0.0025200181014947503
8.78850e-06	-0.0025166599714254102
8.78875e-06	-0.0025133018413560702
8.78900e-06	-0.0025099437112867527
8.78925e-06	-0.002506585581217413
8.78950e-06	-0.002503227451148073
8.78975e-06	-0.0024988323804153285
8.79000e-06	-0.0024926682849960337
8.79025e-06	-0.002486504189576739
8.79050e-06	-0.002480340094157486
8.79075e-06	-0.0024741759987381914
8.79100e-06	-0.0024680119033188967
8.79125e-06	-0.002461847807899644
8.79150e-06	-0.002455683712480349
8.79175e-06	-0.0024495196170610544
8.79200e-06	-0.0024381308992537988
8.79225e-06	-0.0024259583735051883
8.79250e-06	-0.0024137858477565775
8.79275e-06	-0.0024016133220080495
8.79300e-06	-0.002389440796259439
8.79325e-06	-0.0023772682705108287
8.79350e-06	-0.0023650957447623007
8.79375e-06	-0.0023529232190136903
8.79400e-06	-0.00234075069326508
8.79425e-06	-0.002328578167516469
8.79450e-06	-0.002313174317750031
8.79475e-06	-0.0022972856985133826
8.79500e-06	-0.0022813970792767346
8.79525e-06	-0.002265508460040194
8.79550e-06	-0.002249619840803546
8.79575e-06	-0.002233731221566898
8.79600e-06	-0.0022178426023303577
8.79625e-06	-0.0022019539830937097
8.79650e-06	-0.0021860653638570613
8.79675e-06	-0.002170176744620521
8.79700e-06	-0.0021546871220107676
8.79725e-06	-0.002139257357645611
8.79750e-06	-0.002123827593280559
8.79775e-06	-0.0021095730276131488
8.79800e-06	-0.0020954947675241886
8.79825e-06	-0.0020814165074353234
8.79850e-06	-0.0020684660709731338
8.79875e-06	-0.0020563970785147986
8.79900e-06	-0.002045204884667859
8.79925e-06	-0.0020340868982827508
8.79950e-06	-0.0020209604104404464
8.79975e-06	-0.002004140141581204
8.80000e-06	-0.001981676161988026
8.80025e-06	-0.0019584418756424847
8.80050e-06	-0.0019279863664964595
8.80075e-06	-0.001896447515558179
8.80100e-06	-0.0018649086646198986
8.80125e-06	-0.0018261940763482417
8.80150e-06	-0.00178640297010183
8.80175e-06	-0.0017381618417159446
8.80200e-06	-0.0016886530246880257
8.80225e-06	-0.0016313375956721835
8.80250e-06	-0.0015728510036476188
8.80275e-06	-0.0015080797237906523
8.80300e-06	-0.001442365602925784
8.80325e-06	-0.0013725264091083594
8.80350e-06	-0.0012989060778921748
8.80375e-06	-0.0012214510449362439
8.80400e-06	-0.001140431951174223
8.80425e-06	-0.001056347157559267
8.80450e-06	-0.0009697174657591854
8.80475e-06	-0.0008810636521217367
8.80500e-06	-0.000790899009659662
8.80525e-06	-0.0006995222160762709
8.80550e-06	-0.0006069172392853477
8.80575e-06	-0.0005131658912763315
8.80600e-06	-0.00041868361947202705
8.80625e-06	-0.00032402789707165595
8.80650e-06	-0.0002297706206683531
8.80675e-06	-0.00013648350717748687
8.80700e-06	-4.473350436698937e-05
8.80725e-06	4.504689944409497e-05
8.80750e-06	0.00013262230498593862
8.80775e-06	0.00021769605447812825
8.80800e-06	0.0002997625962897004
8.80825e-06	0.0003782273675072121
8.80850e-06	0.0004524868945122771
8.80875e-06	0.0005219377853014098
8.80900e-06	0.0005859888573296369
8.80925e-06	0.0006444200406355257
8.80950e-06	0.0006976384059185139
8.80975e-06	0.0007500372437235698
8.81000e-06	0.0007957178148598552
8.81025e-06	0.0008257331233736536
8.81050e-06	0.0008643973502887558
8.81075e-06	-0.0017596492789404123
8.81100e-06	-0.009935053616642474
8.81125e-06	-0.01194662285287797
8.81150e-06	-0.010336078421052263
8.81175e-06	-0.007360457148082874
8.81200e-06	-0.0012529485998971478
8.81225e-06	0.0019538169017099386
8.81250e-06	0.0014573086686431149
8.81275e-06	-0.00014261680080424229
8.81300e-06	-0.004691906597432729
8.81325e-06	-0.0070642643063214255
8.81350e-06	-0.0057239624359577655
8.81375e-06	-0.003968097400166351
8.81400e-06	-0.00031273376307278437
8.81425e-06	0.0014699895926557356
8.81450e-06	0.002134861385012059
8.81475e-06	0.0010426787040769615
8.81500e-06	-0.001219916133002159
8.81525e-06	-0.0029617958933036066
8.81550e-06	-0.0031353350918517913
8.81575e-06	-0.0019472542823953962
8.81600e-06	-0.00013026401332806147
8.81625e-06	0.0013095762988791452
8.81650e-06	0.0017068431380910412
8.81675e-06	0.0009618048479278879
8.81700e-06	-0.00048789219544373755
8.81725e-06	-0.001608380012021027
8.81750e-06	-0.00174347068430138
8.81775e-06	-0.0010227026843860495
8.81800e-06	9.494870201887324e-05
8.81825e-06	0.0009793466430606241
8.81850e-06	0.0012137879741002382
8.81875e-06	0.0007359507099022746
8.81900e-06	-0.00017994183752298345
8.81925e-06	-0.0008869000745523278
8.81950e-06	-0.0009755161801083263
8.81975e-06	-0.0005284073333289324
8.82000e-06	0.0001663929085137394
8.82025e-06	0.0007141349107915754
8.82050e-06	0.0008538605115856313
8.82075e-06	0.000546612731415666
8.82100e-06	-3.5756985941925664e-05
8.82125e-06	-0.000487920510900225
8.82150e-06	-0.0005533984655705686
8.82175e-06	-0.00028392254684112873
8.82200e-06	0.0001401152863335916
8.82225e-06	0.00047149748749961064
8.82250e-06	0.0005468334377618316
8.82275e-06	0.0003418035146647529
8.82300e-06	-3.5864577566248714e-05
8.82325e-06	-0.000332209206780944
8.82350e-06	-0.0003865256381697959
8.82375e-06	-0.00023117724386452097
8.82400e-06	2.0887234122192477e-05
8.82425e-06	0.00021487236073249142
8.82450e-06	0.0002485039710769406
8.82475e-06	0.00010662751835131774
8.82500e-06	-0.0001431992260618111
8.82525e-06	-0.00034182789530357027
8.82550e-06	-0.0003885376424682446
8.82575e-06	-0.00030354870282862543
8.82600e-06	-0.00015755552274466342
8.82625e-06	-4.7457417532312174e-05
8.82650e-06	-3.724694890123958e-05
8.82675e-06	-0.00013634154124674203
8.82700e-06	-0.00030234915596491724
8.82725e-06	-0.0004355118890991336
8.82750e-06	-0.00047267809498031287
8.82775e-06	-0.0004264557383865435
8.82800e-06	-0.000341067060359959
8.82825e-06	-0.00027714415621240244
8.82850e-06	-0.0002747016902889828
8.82875e-06	-0.0003395663918697546
8.82900e-06	-0.00044513673204125655
8.82925e-06	-0.0005291241126003427
8.82950e-06	-0.0005525253953771492
8.82975e-06	-0.0005237433687061596
8.83000e-06	-0.00047065597610148957
8.83025e-06	-0.0004312516164506144
8.83050e-06	-0.00043057864687231075
8.83075e-06	-0.00047226882380324055
8.83100e-06	-0.0005396414966975876
8.83125e-06	-0.0005936641359069682
8.83150e-06	-0.0006098931147320114
8.83175e-06	-0.0005935806460703992
8.83200e-06	-0.0005621771771552539
8.83225e-06	-0.0005394644677235665
8.83250e-06	-0.0005411167466956278
8.83275e-06	-0.0005693921023150654
8.83300e-06	-0.0006138253597504497
8.83325e-06	-0.0006499517118278865
8.83350e-06	-0.0006624467092158944
8.83375e-06	-0.0006545878296548861
8.83400e-06	-0.0006372928292333533
8.83425e-06	-0.0006254442235767595
8.83450e-06	-0.0006288449341646953
8.83475e-06	-0.0006488933424918828
8.83500e-06	-0.0006790183983572699
8.83525e-06	-0.0007038805983498102
8.83550e-06	-0.0007138671437998155
8.83575e-06	-0.0007110177353079277
8.83600e-06	-0.0007021575813524189
8.83625e-06	-0.0006965946793486128
8.83650e-06	-0.0007004544423489422
8.83675e-06	-0.0007145973438187511
8.83700e-06	-0.0007348919829937326
8.83725e-06	-0.0007517150770444787
8.83750e-06	-0.0007590311967700169
8.83775e-06	-0.0007581042851905467
8.83800e-06	-0.000753195644581218
8.83825e-06	-0.000750121348014251
8.83850e-06	-0.0007527034178889038
8.83875e-06	-0.0007614657697907079
8.83900e-06	-0.0007737659707254793
8.83925e-06	-0.000783138545140438
8.83950e-06	-0.0007848524980181937
8.83975e-06	-0.0007789267550074373
8.84000e-06	-0.0007678547476524588
8.84025e-06	-0.0007553917396221991
8.84050e-06	-0.0007440814829805895
8.84075e-06	-0.0007344016509096799
8.84100e-06	-0.0007248466140226604
8.84125e-06	-0.0007115162199710412
8.84150e-06	-0.0006915971155730602
8.84175e-06	-0.0006652514145448974
8.84200e-06	-0.0006341912178330635
8.84225e-06	-0.0006009187663243866
8.84250e-06	-0.0005671772601175818
8.84275e-06	-0.0005334157070351163
8.84300e-06	-0.0004988406242728187
8.84325e-06	-0.0004611588817205288
8.84350e-06	-0.000418758268812185
8.84375e-06	-0.00037189046791550424
8.84400e-06	-0.00032177801593981863
8.84425e-06	-0.00027013826199838724
8.84450e-06	-0.00021821297170331272
8.84475e-06	-0.00016643312378354479
8.84500e-06	-0.0001144514624559954
8.84525e-06	-6.09813860985775e-05
8.84550e-06	-5.162948295218469e-06
8.84575e-06	5.2696224827913805e-05
8.84600e-06	0.00011168042404081991
8.84625e-06	0.00017056408133754374
8.84650e-06	0.00022841961039177228
8.84675e-06	0.00028482740215756726
8.84700e-06	0.00033985526384936187
8.84725e-06	0.0003941594292382802
8.84750e-06	0.00044812878377464485
8.84775e-06	0.0005014208838294526
8.84800e-06	0.0005533124297106082
8.84825e-06	0.0006028860397070294
8.84850e-06	0.000649411045159676
8.84875e-06	0.0006924750969813603
8.84900e-06	0.0007312064334671311
8.84925e-06	0.0007683848015416986
8.84950e-06	0.0008040139955024189
8.84975e-06	0.0008384155750413159
8.85000e-06	0.000871312363409314
8.85025e-06	0.0009035816428818439
8.85050e-06	0.0009324099952614898
8.85075e-06	0.0009595458635076625
8.85100e-06	0.0009866817317540192
8.85125e-06	0.0010108867500904
8.85150e-06	0.0010336501752641046
8.85175e-06	0.0010564136004379634
8.85200e-06	0.001077345515211977
8.85225e-06	0.0010973765674542736
8.85250e-06	0.001117407619696706
8.85275e-06	0.0011367387388843207
8.85300e-06	0.001152659798081826
8.85325e-06	0.0011685808572794393
8.85350e-06	0.0011845019164770524
8.85375e-06	0.0011978360662994033
8.85400e-06	0.0012098977965226702
8.85425e-06	0.001221959526745937
8.85450e-06	0.0012340212569692036
8.85475e-06	0.0012460829871923885
8.85500e-06	0.0012581447174156552
8.85525e-06	0.0012702064476389219
8.85550e-06	0.0012822681778621068
8.85575e-06	0.0012943299080853735
8.85600e-06	0.0013056905980036154
8.85625e-06	0.00131363583343005
8.85650e-06	0.0013215810688565388
8.85675e-06	0.0013295263042830275
8.85700e-06	0.0013374715397094623
8.85725e-06	0.001345416775135951
8.85750e-06	0.0013533620105624397
8.85775e-06	0.0013613072459888744
8.85800e-06	0.0013692524814153631
8.85825e-06	0.0013771977168418519
8.85850e-06	0.0013842045596102258
8.85875e-06	0.0013907498364569624
8.85900e-06	0.001396997065399601
8.85925e-06	0.0014030976939245785
8.85950e-06	0.0014095891908752058
8.85975e-06	0.0014162729437472556
8.86000e-06	0.0014236982203483571
8.86025e-06	0.001431488229218621
8.86050e-06	0.0014392782380888848
8.86075e-06	0.0014476860880260618
8.86100e-06	0.001456397834609444
8.86125e-06	0.0014651095811928263
8.86150e-06	0.0014748711347673713
8.86175e-06	0.0014851490554803985
8.86200e-06	0.0014954269761934258
8.86225e-06	0.0015068779183603639
8.86250e-06	0.001518905832996201
8.86275e-06	0.001530933747632038
8.86300e-06	0.0015429616622678751
8.86325e-06	0.0015561144063382
8.86350e-06	0.0015698204187343419
8.86375e-06	0.0015835264311304838
8.86400e-06	0.0015972324435265329
8.86425e-06	0.0016117229044284242
8.86450e-06	0.0016265992109510618
8.86475e-06	0.0016416992777471768
8.86500e-06	0.0016570039814742296
8.86525e-06	0.001672447049408451
8.86550e-06	0.0016880461002501067
8.86575e-06	0.0017037969611008834
8.86600e-06	0.0017196436748595821
8.86625e-06	0.0017355045515872693
8.86650e-06	0.0017512978893017858
8.86675e-06	0.0017669465186040086
8.86700e-06	0.0017823799990297738
8.86725e-06	0.0017975529723976516
8.86750e-06	0.0018124450641349278
8.86775e-06	0.0018270219351930151
8.86800e-06	0.0018412169931343156
8.86825e-06	0.001854947671576844
8.86850e-06	0.0018681310558505651
8.86875e-06	0.0018806873348482735
8.86900e-06	0.001892490953495041
8.86925e-06	0.001902949356788155
8.86950e-06	0.0019108437159272764
8.86975e-06	0.0019151807183366144
8.87000e-06	0.001915707438068192
8.87025e-06	0.001912526366363943
8.87050e-06	0.0019057880371182011
8.87075e-06	0.0018956448827145967
8.87100e-06	0.0018822206104263136
8.87125e-06	0.0018653465018589116
8.87150e-06	0.001844461524395058
8.87175e-06	0.001817698652502083
8.87200e-06	0.0017887317846714786
8.87225e-06	0.0017543732111383625
8.87250e-06	0.0017173626266463768
8.87275e-06	0.0016746938659928036
8.87300e-06	0.0016292420259174498
8.87325e-06	0.001583790185842404
8.87350e-06	0.0015317959621243096
8.87375e-06	0.0014765837450516639
8.87400e-06	0.001421371527979392
8.87425e-06	0.0013608835625771988
8.87450e-06	0.001297800622011156
8.87475e-06	0.0012347176814455404
8.87500e-06	0.0011684755657531151
8.87525e-06	0.0011006795508829085
8.87550e-06	0.0010328835360131614
8.87575e-06	0.0009633995519326042
8.87600e-06	0.0008930853087295752
8.87625e-06	0.0008225847221850034
8.87650e-06	0.0007519924791934517
8.87675e-06	0.0006824056748015993
8.87700e-06	0.0006133134141284253
8.87725e-06	0.0005462292604746634
8.87750e-06	0.0004801328316929156
8.87775e-06	0.0004160331560971944
8.87800e-06	0.0003546301277876853
8.87825e-06	0.00029610735200863463
8.87850e-06	0.00024094600318249465
8.87875e-06	0.00018962748376347434
8.87900e-06	0.00014258673590638687
8.87925e-06	9.978188749447967e-05
8.87950e-06	6.045926591022983e-05
8.87975e-06	2.3910893115892162e-05
8.88000e-06	-9.976766453385284e-06
8.88025e-06	-4.100725985771283e-05
8.88050e-06	-6.894134914786748e-05
8.88075e-06	-9.353968863233625e-05
8.88100e-06	-0.00011459205994607645
8.88125e-06	-0.00013218692059912553
8.88150e-06	-0.00014685859015829992
8.88175e-06	-0.00015911270515722476
8.88200e-06	-0.0001690825337749841
8.88225e-06	-0.0001767071432893939
8.88250e-06	-0.00018189882435088844
8.88275e-06	-0.00018456981899796001
8.88300e-06	-0.00018465060009845586
8.88325e-06	-0.00018225876698648702
8.88350e-06	-0.0001777911461530642
8.88375e-06	-0.00017162658499734535
8.88400e-06	-0.0001639106608458821
8.88425e-06	-0.00015466729182377336
8.88450e-06	-0.0001439036277191886
8.88475e-06	-0.0001316267940142853
8.88500e-06	-0.00011785532870879977
8.88525e-06	-0.00010272497549426023
8.88550e-06	-8.654639419200444e-05
8.88575e-06	-6.961893653154375e-05
8.88600e-06	-5.20958164798233e-05
8.88625e-06	-3.405404226835974e-05
8.88650e-06	-1.556010635569248e-05
8.88675e-06	3.3195193880503398e-06
8.88700e-06	2.2546468366652845e-05
8.88725e-06	4.188526157524262e-05
8.88750e-06	6.113307779729359e-05
8.88775e-06	8.005720821299534e-05
8.88800e-06	9.848238107106389e-05
8.88825e-06	0.00011629841507966665
8.88850e-06	0.00013340173714079473
8.88875e-06	0.00014968876904131065
8.88900e-06	0.00016493199808266052
8.88925e-06	0.00017979972867659022
8.88950e-06	0.00019466745927041915
8.88975e-06	0.00021034728976841244
8.89000e-06	0.00022642656674319106
8.89025e-06	0.00024334626643131204
8.89050e-06	0.00026067934369812437
8.89075e-06	0.00027852245587958616
8.89100e-06	0.000296616438241652
8.89125e-06	0.0003154211764822352
8.89150e-06	0.000334575513251369
8.89175e-06	0.00035516845105348655
8.89200e-06	0.00037646899159199127
8.89225e-06	0.00039901031893750297
8.89250e-06	0.00042216195040439044
8.89275e-06	0.00044636686784360033
8.89300e-06	0.0004710898636233878
8.89325e-06	0.0004958128594030077
8.89350e-06	0.0005220091679955949
8.89375e-06	0.0005489301529604127
8.89400e-06	0.000575851137925048
