Time(s)	Current(A)
1.30500e-05	-0.0016602745577899303
1.30503e-05	-0.0016658245168965726
1.30505e-05	-0.001671374476003215
1.30508e-05	-0.0016769244351098197
1.30510e-05	-0.0016765014271813573
1.30513e-05	-0.0016759186770264314
1.30515e-05	-0.0016753359268715097
1.30518e-05	-0.0016747531767165838
1.30520e-05	-0.001674170426561658
1.30523e-05	-0.001673587676406736
1.30525e-05	-0.0016730049262518103
1.30528e-05	-0.0016724221760968845
1.30530e-05	-0.0016718394259419625
1.30533e-05	-0.0016712566757870369
1.30535e-05	-0.001670673925632111
1.30538e-05	-0.001670091175477189
1.30540e-05	-0.0016695084253222634
1.30543e-05	-0.0016689256751673375
1.30545e-05	-0.0016660794523924583
1.30548e-05	-0.0016631726948525217
1.30550e-05	-0.0016602659373125854
1.30553e-05	-0.0016573591797726685
1.30555e-05	-0.0016544524222327321
1.30558e-05	-0.0016515456646927955
1.30560e-05	-0.0016486389071528789
1.30563e-05	-0.0016457664560645619
1.30565e-05	-0.0016428949224748582
1.30567e-05	-0.001640023388885174
1.30570e-05	-0.0016371518552954704
1.30573e-05	-0.0016342803217057665
1.30575e-05	-0.0016314087881160629
1.30578e-05	-0.0016285372545263787
1.30580e-05	-0.0016256465754098507
1.30583e-05	-0.0016227553842615185
1.30585e-05	-0.001619864193113206
1.30588e-05	-0.0016169730019648736
1.30590e-05	-0.0016140818108165416
1.30593e-05	-0.001611190619668229
1.30595e-05	-0.0016082994285198968
1.30598e-05	-0.0016032356088186998
1.30600e-05	-0.0015981136839043149
1.30603e-05	-0.0015929917589898952
1.30605e-05	-0.0015878698340754756
1.30608e-05	-0.0015827479091610906
1.30610e-05	-0.001577625984246671
1.30613e-05	-0.0015725040593322513
1.30615e-05	-0.001564411783679514
1.30618e-05	-0.0015562400683715332
1.30620e-05	-0.0015480683530635525
1.30623e-05	-0.0015398966377556272
1.30625e-05	-0.0015317249224476464
1.30628e-05	-0.0015235532071396656
1.30630e-05	-0.0015153814918317402
1.30633e-05	-0.0015072097765237594
1.30635e-05	-0.0014990380612157786
1.30638e-05	-0.0014908663459078533
1.30640e-05	-0.0014811782238876273
1.30643e-05	-0.0014714495467824688
1.30645e-05	-0.0014617208696773762
1.30648e-05	-0.0014519921925722175
1.30650e-05	-0.001442263515467059
1.30652e-05	-0.0014325348383619663
1.30655e-05	-0.0014228061612568078
1.30658e-05	-0.0014130774841516493
1.30660e-05	-0.0014033488070464906
1.30663e-05	-0.001393620129941398
1.30665e-05	-0.0013850642977669126
1.30668e-05	-0.0013765398323922638
1.30670e-05	-0.0013680153670176732
1.30673e-05	-0.0013594909016430244
1.30675e-05	-0.001350966436268376
1.30678e-05	-0.0013436477535814584
1.30680e-05	-0.0013368888896154996
1.30683e-05	-0.0013301899418405776
1.30685e-05	-0.0013223079338561625
1.30688e-05	-0.001311187328773548
1.30690e-05	-0.0012999809570638436
1.30693e-05	-0.0012847063471765252
1.30695e-05	-0.0012693229355120095
1.30698e-05	-0.0012505547016092703
1.30700e-05	-0.0012316959433423828
1.30703e-05	-0.0012092151089419668
1.30705e-05	-0.0011866374050115292
1.30708e-05	-0.001157503594559153
1.30710e-05	-0.001128194446279824
1.30713e-05	-0.001098885298000495
1.30715e-05	-0.0010638341708228076
1.30718e-05	-0.0010286294790104115
1.30720e-05	-0.0009898478941840132
1.30723e-05	-0.0009509706482142063
1.30725e-05	-0.0009092693722476501
1.30728e-05	-0.0008653801314714618
1.30730e-05	-0.0008195007618012813
1.30733e-05	-0.000771922450651368
1.30735e-05	-0.0007229392064334624
1.30737e-05	-0.0006728450360431779
1.30740e-05	-0.0006219306582685625
1.30743e-05	-0.0005703568804435677
1.30745e-05	-0.0005180970739831932
1.30748e-05	-0.0004651961388129222
1.30750e-05	-0.00041190182067622365
1.30753e-05	-0.0003585345850797623
1.30755e-05	-0.0003054167554300377
1.30758e-05	-0.00025287054326564995
1.30760e-05	-0.00020121607368160595
1.30763e-05	-0.00015069210628089396
1.30765e-05	-0.000101419986469673
1.30768e-05	-5.3565807566746005e-05
1.30770e-05	-7.4227723737347985e-06
1.30773e-05	3.667038505603381e-05
1.30775e-05	7.83738524333831e-05
1.30778e-05	0.00011734788266853365
1.30780e-05	0.0001532661415541101
1.30783e-05	0.00018635776764275156
1.30785e-05	0.00021769705630326602
1.30788e-05	0.0002481546499952196
1.30790e-05	0.0002778057075588399
1.30793e-05	0.0003058151254422099
1.30795e-05	0.00033378119985489853
1.30798e-05	0.00035885006972762116
1.30800e-05	0.0003838414561810729
1.30803e-05	0.0004060320844959845
1.30805e-05	0.0004281478087736671
1.30808e-05	0.00044928870866862964
1.30810e-05	0.00047040353766498994
1.30813e-05	0.0004901402342784328
1.30815e-05	0.0005098400738429605
1.30818e-05	0.0005295399134076217
1.30820e-05	0.0005467699692141033
1.30822e-05	0.0005639339726283992
1.30825e-05	0.0005810979760428116
1.30828e-05	0.0005970344196778104
1.30830e-05	0.0006129380332079098
1.30833e-05	0.0006288416467379014
1.30835e-05	0.0006447452602680008
1.30838e-05	0.0006587815977712767
1.30840e-05	0.000672767996469944
1.30843e-05	0.0006867543951687061
1.30845e-05	0.0007007407938674681
1.30848e-05	0.0007136660695594839
1.30850e-05	0.0007265629663650981
1.30853e-05	0.0007388641206241438
1.30855e-05	0.0007511493422249656
1.30858e-05	0.0007625006281821439
1.30860e-05	0.0007738269367771605
1.30863e-05	0.0007843307368564445
1.30865e-05	0.0007943958004433927
1.30868e-05	0.0008041286747539243
1.30870e-05	0.0008135061244516548
1.30873e-05	0.0008224593731977621
1.30875e-05	0.0008309185135914232
1.30878e-05	0.0008388136382318277
1.30880e-05	0.0008460634447283828
1.30883e-05	0.0008521282586829036
1.30885e-05	0.0008558271629477189
1.30888e-05	0.000856276432660035
1.30890e-05	0.0008533401681486858
1.30893e-05	0.0008471458484724738
1.30895e-05	0.0008378275243583107
1.30898e-05	0.0008255191913577096
1.30900e-05	0.0008103476436868187
1.30903e-05	0.0007921526807484679
1.30905e-05	0.000770372312394379
1.30907e-05	0.0007446308976246481
1.30910e-05	0.0007150211172014491
1.30913e-05	0.0006801734618931089
1.30915e-05	0.0006451884166891698
1.30918e-05	0.000605576070157438
1.30920e-05	0.000563090489466855
1.30923e-05	0.0005178528164864629
1.30925e-05	0.00046968875078557456
1.30928e-05	0.00041854085702360737
1.30930e-05	0.00036464517747941477
1.30933e-05	0.00030834098341410123
1.30935e-05	0.00024997007096988505
1.30938e-05	0.0001898742497048889
1.30940e-05	0.00012839248080884208
1.30943e-05	6.575100328761256e-05
1.30945e-05	2.018516686151878e-06
1.30948e-05	-6.266325670313253e-05
1.30950e-05	-0.00012805895344320713
1.30953e-05	-0.0001934730865756425
1.30955e-05	-0.00025888721970763464
1.30958e-05	-0.00032325593337685133
1.30960e-05	-0.0003875966881382119
1.30963e-05	-0.00044951657445046193
1.30965e-05	-0.0005113717165716651
1.30968e-05	-0.0005697545756556748
1.30970e-05	-0.0006280445713051094
1.30973e-05	-0.0006813462542043594
1.30975e-05	-0.0007345145286665824
1.30978e-05	-0.0007810498418414144
1.30980e-05	-0.0008274077617691009
1.30983e-05	-0.0008662128442561906
1.30985e-05	-0.0009048159321430969
1.30988e-05	-0.0009365483513161955
1.30990e-05	-0.0009680970199466166
1.30992e-05	-0.0009925769964803078
1.30995e-05	-0.0010168679264944114
1.30998e-05	-0.0010335292020959993
1.31000e-05	-0.0010499864286890466
1.31003e-05	-0.0010587073074810986
1.31005e-05	-0.0010672212838352794
1.31008e-05	-0.0010688954883387022
1.31010e-05	-0.0010703867686113
1.31013e-05	-0.0010653836416040525
1.31015e-05	-0.0010602068268653739
1.31018e-05	-0.0010486534664593018
1.31020e-05	-0.001036929570436376
1.31023e-05	-0.0010192316383411488
1.31025e-05	-0.0010013739354266444
1.31028e-05	-0.0009785730461893897
1.31030e-05	-0.000955639955385245
1.31033e-05	-0.0009294457148342634
1.31035e-05	-0.0009011709278802534
1.31038e-05	-0.0008709849940273865
1.31040e-05	-0.0008390285602557539
1.31043e-05	-0.0008055035979845024
1.31045e-05	-0.0007707160457552559
1.31048e-05	-0.0007349738418046815
1.31050e-05	-0.0006985142670591655
1.31053e-05	-0.0006615456147663741
1.31055e-05	-0.000624275169987916
1.31058e-05	-0.0005869106070442451
1.31060e-05	-0.0005496600644016897
1.31063e-05	-0.0005127704129451446
1.31065e-05	-0.00047655350710521324
1.31068e-05	-0.0004413224013280585
1.31070e-05	-0.00040734597374182706
1.31073e-05	-0.000374874743856433
1.31075e-05	-0.0003441588568206375
1.31077e-05	-0.00031544837502017195
1.31080e-05	-0.00028899075075727263
1.31083e-05	-0.0002649161569307697
1.31085e-05	-0.00024314774080867204
1.31088e-05	-0.00022358593419918518
1.31090e-05	-0.00020625245221639115
1.31093e-05	-0.0001912218851755744
1.31095e-05	-0.0001785700937270744
1.31098e-05	-0.0001683729228319163
1.31100e-05	-0.0001607045871919691
1.31103e-05	-0.00015556582826379618
1.31105e-05	-0.00015282765523582298
1.31108e-05	-0.00015234693136647522
1.31110e-05	-0.00015405644051774713
1.31113e-05	-0.0001579220999448559
1.31115e-05	-0.00016391065852147072
1.31118e-05	-0.0001719888226026841
1.31120e-05	-0.00018212227695959773
1.31123e-05	-0.00019423067392629483
1.31125e-05	-0.0002081524579431982
1.31128e-05	-0.0002237171598827564
1.31130e-05	-0.0002408019345358567
1.31133e-05	-0.00025930463203865646
1.31135e-05	-0.00027971397867014293
1.31138e-05	-0.0003001733311969567
1.31140e-05	-0.00032278017162348154
1.31143e-05	-0.00034544444489761266
1.31145e-05	-0.00036989943706219143
1.31148e-05	-0.00039440232057206864
1.31150e-05	-0.00041890520408211185
1.31153e-05	-0.0004443061280725277
1.31155e-05	-0.000469731069437652
1.31158e-05	-0.0004951560108029487
1.31160e-05	-0.0005201740867768512
1.31162e-05	-0.0005451812814608792
1.31165e-05	-0.0005701884761450767
1.31168e-05	-0.000593223203738959
1.31170e-05	-0.0006162051792769942
1.31173e-05	-0.0006391871548148737
1.31175e-05	-0.0006586515744353115
1.31178e-05	-0.0006780219198340952
1.31180e-05	-0.0006973922652327476
1.31183e-05	-0.0007139336484761423
1.31185e-05	-0.000730399373387683
1.31188e-05	-0.0007474482458856838
1.31190e-05	-0.0007645127141999342
1.31193e-05	-0.0007815771825141844
1.31195e-05	-0.0007989389221165753
1.31198e-05	-0.0008163086120021022
1.31200e-05	-0.0008336783018876291
1.31203e-05	-0.0008510479917730382
1.31205e-05	-0.0008698135395810223
1.31208e-05	-0.0008886164184935606
1.31210e-05	-0.0009074192974059715
1.31213e-05	-0.0009262221763185098
1.31215e-05	-0.0009473404336966509
1.31218e-05	-0.000968520614021257
1.31220e-05	-0.0009897007943460065
1.31223e-05	-0.001010880974670756
1.31225e-05	-0.001032061154995362
1.31228e-05	-0.001054288031272685
1.31230e-05	-0.0010776766525853359
1.31233e-05	-0.001101065273897828
1.31235e-05	-0.001124453895210479
1.31238e-05	-0.0011478425165231297
1.31240e-05	-0.0011712311378356218
1.31243e-05	-0.0011949434229030491
1.31245e-05	-0.0012186643640989345
1.31247e-05	-0.001242385305294659
1.31250e-05	-0.0012661062464905445
1.31253e-05	-0.0012898271876864297
1.31255e-05	-0.001313548128882315
1.31258e-05	-0.0013372690700780396
1.31260e-05	-0.001359218471410501
1.31263e-05	-0.0013792016115413387
1.31265e-05	-0.0013991847516720412
1.31268e-05	-0.0014191678918028788
1.31270e-05	-0.0014391510319337166
1.31273e-05	-0.0014591341720644189
1.31275e-05	-0.0014791173121952567
1.31278e-05	-0.0014991004523260945
1.31280e-05	-0.0015107834323584478
1.31283e-05	-0.0015222444312420738
1.31285e-05	-0.0015337054301257
1.31288e-05	-0.0015451664290092484
1.31290e-05	-0.0015566274278928744
1.31293e-05	-0.0015680884267765007
1.31295e-05	-0.0015748032103698923
1.31298e-05	-0.0015762500916297584
1.31300e-05	-0.0015776969728896247
1.31303e-05	-0.001579143854149481
1.31305e-05	-0.0015805907354093473
1.31308e-05	-0.0015820376166692136
1.31310e-05	-0.00158348449792907
1.31313e-05	-0.001575191317984034
1.31315e-05	-0.0015666376478856497
1.31318e-05	-0.0015580839777873234
1.31320e-05	-0.0015495303076889391
1.31323e-05	-0.001540976637590555
1.31325e-05	-0.0015324229674922286
1.31328e-05	-0.0015238692973938445
1.31330e-05	-0.0015118174234987696
1.31332e-05	-0.0014958828357321365
1.31335e-05	-0.0014799482479653952
1.31338e-05	-0.0014640136601986541
1.31340e-05	-0.0014480790724319128
1.31343e-05	-0.0014321444846652795
1.31345e-05	-0.0014162098968985384
1.31348e-05	-0.001400275309131797
1.31350e-05	-0.0013820225760113936
1.31353e-05	-0.0013637078459458295
1.31355e-05	-0.001345393115880265
1.31358e-05	-0.0013271309199309812
1.31360e-05	-0.00130887012896453
1.31363e-05	-0.0012906093379980788
1.31365e-05	-0.0012734001742130737
1.31368e-05	-0.0012562191353565674
1.31370e-05	-0.001239038096500061
1.31373e-05	-0.0012256871348603634
1.31375e-05	-0.0012124386055751709
1.31378e-05	-0.0011991900762899784
1.31380e-05	-0.0011859415470048757
1.31383e-05	-0.0011726930177196832
1.31385e-05	-0.0011594444884344907
1.31388e-05	-0.001149054295566861
1.31390e-05	-0.0011418366172537891
1.31393e-05	-0.0011346189389407173
1.31395e-05	-0.0011274012606276942
1.31398e-05	-0.0011201835823146224
1.31400e-05	-0.0011129659040015503
1.31403e-05	-0.0011057482256885275
1.31405e-05	-0.0011051576563541473
1.31408e-05	-0.0011047443237540003
1.31410e-05	-0.001104330991153856
1.31413e-05	-0.0011039176585537088
1.31415e-05	-0.0011035043259535618
1.31418e-05	-0.0011030909933534175
1.31420e-05	-0.0011026776607532703
1.31423e-05	-0.0011022643281531233
1.31425e-05	-0.0011018509955529761
1.31428e-05	-0.001101437662952832
1.31430e-05	-0.0011062845184911035
1.31433e-05	-0.001111272053558013
1.31435e-05	-0.0011162595886248885
1.31438e-05	-0.0011212471236917978
1.31440e-05	-0.0011262346587587074
1.31443e-05	-0.0011312221938255828
1.31445e-05	-0.0011362097288924924
1.31448e-05	-0.0011411972639594017
1.31450e-05	-0.0011461847990262774
1.31453e-05	-0.0011511723340931867
1.31455e-05	-0.0011573748941800857
1.31458e-05	-0.0011636099491402518
1.31460e-05	-0.00116984500410046
1.31463e-05	-0.0011760800590606684
1.31465e-05	-0.0011823151140208344
1.31468e-05	-0.0011885501689810425
1.31470e-05	-0.0011947852239412508
1.31473e-05	-0.0011993778129879317
1.31475e-05	-0.001203926475596155
1.31478e-05	-0.0012084751382043784
1.31480e-05	-0.001213023800812571
1.31483e-05	-0.001217572463420794
1.31485e-05	-0.0012221211260290174
1.31488e-05	-0.00122666978863721
1.31490e-05	-0.0012278013245771244
1.31493e-05	-0.0012288414721945845
1.31495e-05	-0.0012298816198120378
1.31498e-05	-0.001230921767429498
1.31500e-05	-0.0012319619150469583
1.31503e-05	-0.0012330020626644114
1.31505e-05	-0.0012340422102818716
1.31508e-05	-0.001235082357899332
1.31510e-05	-0.0012361225055167921
1.31513e-05	-0.0012371626531342452
1.31515e-05	-0.0012382028007517055
1.31518e-05	-0.0012392429483691657
1.31520e-05	-0.001240283095986619
1.31523e-05	-0.0012413232436040793
1.31525e-05	-0.0012423633912215396
1.31528e-05	-0.0012405015467039752
1.31530e-05	-0.001238562090725401
1.31533e-05	-0.0012366226347468269
1.31535e-05	-0.001234683178768266
1.31538e-05	-0.0012327437227896917
1.31540e-05	-0.0012308042668111177
1.31543e-05	-0.0012288648108325568
1.31545e-05	-0.0012269253548539826
1.31548e-05	-0.0012249858988754084
1.31550e-05	-0.0012230464428968474
1.31553e-05	-0.0012211069869182735
1.31555e-05	-0.0012191675309396993
1.31558e-05	-0.0012172280749611383
1.31560e-05	-0.0012152886189825641
1.31563e-05	-0.00121334916300399
1.31565e-05	-0.0012114657790885288
1.31568e-05	-0.0012095838947755826
1.31570e-05	-0.0012077020104626366
1.31573e-05	-0.0012058201261497031
1.31575e-05	-0.001203938241836757
1.31578e-05	-0.001202056357523811
1.31580e-05	-0.0012001744732108776
1.31583e-05	-0.0011982925888979316
1.31585e-05	-0.0011964107045849856
1.31588e-05	-0.0011957712814401591
1.31590e-05	-0.0011965108863610933
1.31593e-05	-0.0011972504912820274
1.31595e-05	-0.0011979900962029615
1.31598e-05	-0.0011987297011238907
1.31600e-05	-0.001199469306044825
1.31603e-05	-0.0012002089109657591
1.31605e-05	-0.0012009485158866883
1.31608e-05	-0.0012016881208076224
1.31610e-05	-0.0012024277257285567
1.31613e-05	-0.0012068329468412507
1.31615e-05	-0.0012113362019303747
1.31618e-05	-0.0012158394570194987
1.31620e-05	-0.0012203427121085923
1.31623e-05	-0.0012248459671977162
1.31625e-05	-0.0012293492222868404
1.31628e-05	-0.0012338524773759338
1.31630e-05	-0.001238355732465058
1.31633e-05	-0.001242858987554182
1.31635e-05	-0.0012473622426432756
1.31638e-05	-0.0012518654977323996
1.31640e-05	-0.0012563687528215235
1.31643e-05	-0.0012623931634791199
1.31645e-05	-0.001268458256227151
1.31648e-05	-0.001274523348975182
1.31650e-05	-0.0012805884417231718
1.31653e-05	-0.0012866535344712028
1.31655e-05	-0.0012927186272192338
1.31658e-05	-0.0012987837199672238
1.31660e-05	-0.0013048488127152548
1.31663e-05	-0.0013109139054632859
1.31665e-05	-0.0013169789982112757
1.31668e-05	-0.0013230440909593067
1.31670e-05	-0.0013291091837073377
1.31673e-05	-0.0013340837494619491
1.31675e-05	-0.001339029149943372
1.31678e-05	-0.0013439745504247947
1.31680e-05	-0.0013475776853415394
1.31683e-05	-0.0013511449224380514
1.31685e-05	-0.0013547121595345877
1.31688e-05	-0.0013535171862706485
1.31690e-05	-0.0013521948514950968
1.31693e-05	-0.0013508725167195362
1.31695e-05	-0.0013495501819439754
1.31698e-05	-0.0013482278471684238
1.31700e-05	-0.0013469055123928632
1.31703e-05	-0.0013420645623478985
1.31705e-05	-0.0013333182433989922
1.31708e-05	-0.0013245719244500264
1.31710e-05	-0.0013158256055010606
1.31713e-05	-0.001307079286552154
1.31715e-05	-0.0012983329676031885
1.31718e-05	-0.0012895866486542227
1.31720e-05	-0.0012739409495155308
1.31723e-05	-0.0012581107319653325
1.31725e-05	-0.0012422805144151343
1.31728e-05	-0.0012264502968650432
1.31730e-05	-0.001210620079314845
1.31733e-05	-0.0011947898617646468
1.31735e-05	-0.0011789596442145559
1.31738e-05	-0.0011611377299042415
1.31740e-05	-0.0011411051986328633
1.31743e-05	-0.001121072667361621
1.31745e-05	-0.0011010401360902428
1.31748e-05	-0.0010810076048188644
1.31750e-05	-0.001060975073547622
1.31753e-05	-0.0010409425422762439
1.31755e-05	-0.0010209100110048657
1.31758e-05	-0.0010008014904574238
1.31760e-05	-0.000980690937637357
1.31763e-05	-0.0009605803848172904
1.31765e-05	-0.0009418154612570507
1.31768e-05	-0.000923086525476553
1.31770e-05	-0.0009043575896959285
1.31773e-05	-0.0008908330084916265
1.31775e-05	-0.0008774476135931634
1.31778e-05	-0.0008640622186946098
1.31780e-05	-0.0008506768237960561
1.31783e-05	-0.0008372914288975931
1.31785e-05	-0.0008239060339990394
1.31788e-05	-0.0008105206391004858
1.31790e-05	-0.0007971352442020228
1.31793e-05	-0.0007837498493034691
1.31795e-05	-0.0007773498100041515
1.31798e-05	-0.0007711365884604147
1.31800e-05	-0.0007649233669166357
1.31803e-05	-0.0007587101453728568
1.31805e-05	-0.0007524969238291198
1.31808e-05	-0.0007462837022853409
1.31810e-05	-0.0007400704807415619
1.31813e-05	-0.0007338572591978251
1.31815e-05	-0.0007276440376540461
1.31818e-05	-0.000726522488886141
1.31820e-05	-0.0007255371128394699
1.31823e-05	-0.0007245517367927922
1.31825e-05	-0.0007235663607461144
1.31828e-05	-0.0007225809846994433
1.31830e-05	-0.0007215956086527655
1.31833e-05	-0.0007206102326060877
1.31835e-05	-0.0007196248565594166
1.31838e-05	-0.0007186394805127388
1.31840e-05	-0.0007189803479105881
1.31843e-05	-0.0007207932347004116
1.31845e-05	-0.0007226061214902474
1.31848e-05	-0.0007244190082800832
1.31850e-05	-0.000726231895069919
1.31853e-05	-0.0007280447818597426
1.31855e-05	-0.0007298576686495784
1.31858e-05	-0.0007316705554394143
1.31860e-05	-0.0007334834422292379
1.31863e-05	-0.0007352963290190737
1.31865e-05	-0.0007372938510478354
1.31868e-05	-0.0007392963109985668
1.31870e-05	-0.0007412987709493119
1.31873e-05	-0.000743301230900057
1.31875e-05	-0.0007453036908507886
1.31878e-05	-0.0007473061508015337
1.31880e-05	-0.0007493086107522788
1.31883e-05	-0.0007513110707030103
1.31885e-05	-0.0007533135306537555
1.31888e-05	-0.0007556264650541292
1.31890e-05	-0.0007582840001478986
1.31893e-05	-0.0007609415352416862
1.31895e-05	-0.0007635990703354736
1.31898e-05	-0.0007662566054292431
1.31900e-05	-0.0007689141405230306
1.31903e-05	-0.000771571675616818
1.31905e-05	-0.0007742292107105875
1.31908e-05	-0.0007768867458043749
1.31910e-05	-0.0007795442808981624
1.31913e-05	-0.0007842773644302295
1.31915e-05	-0.0007890659568475085
1.31918e-05	-0.0007938545492647875
1.31920e-05	-0.0007986431416820341
1.31923e-05	-0.0008034317340993131
1.31925e-05	-0.0008082203265165921
1.31928e-05	-0.0008130089189338387
1.31930e-05	-0.0008177975113511177
1.31933e-05	-0.0008225861037683967
