Time(s)	Current(A)
1.37500e-05	0.012938875874275398
1.37503e-05	0.01289613520476
1.37505e-05	0.012853394535244603
1.37508e-05	0.012810653865729495
1.37510e-05	0.012767913196214096
1.37513e-05	0.012725172526698698
1.37515e-05	0.012683430301191156
1.37518e-05	0.012643073228425146
1.37520e-05	0.012602716155659135
1.37523e-05	0.012562359082893397
1.37525e-05	0.012522002010127388
1.37528e-05	0.012481644937361376
1.37530e-05	0.01244128786459564
1.37533e-05	0.012413171795426736
1.37535e-05	0.012386136360768024
1.37538e-05	0.012359100926109496
1.37540e-05	0.012332065491450786
1.37543e-05	0.012305030056792076
1.37545e-05	0.012277994622133548
1.37548e-05	0.012262437589149312
1.37550e-05	0.012262804673524107
1.37553e-05	0.0122631717578989
1.37555e-05	0.012263538842273696
1.37558e-05	0.012263905926648491
1.37560e-05	0.012264273011023284
1.37563e-05	0.012264640095398079
1.37565e-05	0.012292902412081332
1.37568e-05	0.012323627316939338
1.37570e-05	0.01235435222179755
1.37573e-05	0.012385077126655764
1.37575e-05	0.012415802031513977
1.37578e-05	0.012446526936371981
1.37580e-05	0.012489212439951965
1.37583e-05	0.012548491018345955
1.37585e-05	0.012607769596739543
1.37588e-05	0.012667048175133531
1.37590e-05	0.012726326753527521
1.37593e-05	0.012785605331921109
1.37595e-05	0.012844883910315097
1.37598e-05	0.012904162488709086
1.37600e-05	0.012963441067102673
1.37603e-05	0.01302744335736392
1.37605e-05	0.013097998906892783
1.37608e-05	0.013168554456421167
1.37610e-05	0.013239110005950032
1.37613e-05	0.013309665555478896
1.37615e-05	0.01338022110500728
1.37618e-05	0.013450776654536145
1.37620e-05	0.013521332204065008
1.37623e-05	0.013591887753593393
1.37625e-05	0.013657714519778787
1.37628e-05	0.013716980990979306
1.37630e-05	0.013776247462179423
1.37633e-05	0.013835513933379943
1.37635e-05	0.013894780404580462
1.37638e-05	0.013938923242111805
1.37640e-05	0.013981730966852575
1.37643e-05	0.014024538691593346
1.37645e-05	0.014067346416333826
1.37648e-05	0.014098099433915368
1.37650e-05	0.014112128818971727
1.37653e-05	0.01412615820402799
1.37655e-05	0.01414018758908435
1.37658e-05	0.014154216974140708
1.37660e-05	0.014168246359197067
1.37663e-05	0.01418227574425333
1.37665e-05	0.014196305129309687
1.37668e-05	0.014210334514366046
1.37670e-05	0.01422436389942231
1.37673e-05	0.014238393284478668
1.37675e-05	0.014252422669535027
1.37678e-05	0.01426645205459129
1.37680e-05	0.01428048143964765
1.37683e-05	0.014294510824704008
1.37685e-05	0.014308540209760271
1.37688e-05	0.014311812822605172
1.37690e-05	0.014300162442858014
1.37693e-05	0.014288512063110936
1.37695e-05	0.014276861683363779
1.37698e-05	0.014265211303616621
1.37700e-05	0.014253560923869544
1.37703e-05	0.014241910544122386
1.37705e-05	0.014230260164375228
1.37708e-05	0.014218609784628149
1.37710e-05	0.014206959404880993
1.37713e-05	0.014195309025133836
1.37715e-05	0.014183658645386756
1.37718e-05	0.0141720082656396
1.37720e-05	0.014160357885892443
1.37723e-05	0.014148707506145363
1.37725e-05	0.014137057126398208
1.37728e-05	0.014126623148635532
1.37730e-05	0.014117876699199124
1.37733e-05	0.014109130249762656
1.37735e-05	0.01410038380032619
1.37738e-05	0.014091637350889781
1.37740e-05	0.014082890901453315
1.37743e-05	0.014074144452016848
1.37745e-05	0.014065398002580382
1.37748e-05	0.014056651553143973
1.37750e-05	0.014047905103707506
1.37753e-05	0.01403915865427104
1.37755e-05	0.014030412204834631
1.37758e-05	0.014021665755398165
1.37760e-05	0.014012919305961697
1.37763e-05	0.01400417285652529
1.37765e-05	0.013995426407088823
1.37768e-05	0.013986679957652355
1.37770e-05	0.013977933508215948
1.37773e-05	0.013976700419738919
1.37775e-05	0.013976130609978552
1.37778e-05	0.01397556080021819
1.37780e-05	0.013974990990457823
1.37783e-05	0.013974421180697456
1.37785e-05	0.013973851370937094
1.37788e-05	0.013973281561176727
1.37790e-05	0.01397271175141636
1.37793e-05	0.013972141941655998
1.37795e-05	0.013971572131895631
1.37798e-05	0.013971002322135264
1.37800e-05	0.013970432512374903
1.37803e-05	0.013969862702614536
1.37805e-05	0.013969292892854169
1.37808e-05	0.013968723083093805
1.37810e-05	0.01396815327333344
1.37813e-05	0.013967583463573073
1.37815e-05	0.013967293612975303
1.37818e-05	0.01396739215291223
1.37820e-05	0.013967490692849157
1.37823e-05	0.013967589232786085
1.37825e-05	0.013967687772723012
1.37828e-05	0.013967786312659939
1.37830e-05	0.013967884852596864
1.37833e-05	0.013967983392533792
1.37835e-05	0.013968081932470719
1.37838e-05	0.013968180472407646
1.37840e-05	0.013968279012344572
1.37843e-05	0.013968377552281499
1.37845e-05	0.013968476092218426
1.37848e-05	0.013968574632155353
1.37850e-05	0.01396867317209228
1.37853e-05	0.013968771712029208
1.37855e-05	0.0139645258970876
1.37858e-05	0.01395989656295316
1.37860e-05	0.013955267228818716
1.37863e-05	0.013950637894684306
1.37865e-05	0.013946008560549863
1.37868e-05	0.013941379226415421
1.37870e-05	0.01393674989228101
1.37873e-05	0.013932120558146568
1.37875e-05	0.013927491224012125
1.37878e-05	0.013922861889877715
1.37880e-05	0.013918232555743272
1.37883e-05	0.01391360322160883
1.37885e-05	0.013908973887474418
1.37888e-05	0.013904344553339977
1.37890e-05	0.013899715219205534
1.37893e-05	0.013893890680556107
1.37895e-05	0.013886408021070502
1.37898e-05	0.013878925361584898
1.37900e-05	0.013871442702099343
1.37903e-05	0.013863960042613739
1.37905e-05	0.013856477383128132
1.37908e-05	0.01384899472364258
1.37910e-05	0.013841512064156973
1.37913e-05	0.013834029404671369
1.37915e-05	0.013826679427146346
1.37918e-05	0.013819513520816446
1.37920e-05	0.013812347614486496
1.37923e-05	0.013805181708156545
1.37925e-05	0.013798015801826645
1.37928e-05	0.013790849895496695
1.37930e-05	0.013783683989166745
1.37933e-05	0.013776518082836845
1.37935e-05	0.013769352176506894
1.37938e-05	0.013760930345972621
1.37940e-05	0.013750766157485501
1.37943e-05	0.013740601968998312
1.37945e-05	0.013730437780511123
1.37948e-05	0.013720273592024003
1.37950e-05	0.013710109403536813
1.37953e-05	0.013699945215049624
1.37955e-05	0.013684714677328206
1.37958e-05	0.013662455535610567
1.37960e-05	0.013640196393892929
1.37963e-05	0.013617937252175442
1.37965e-05	0.013595678110457804
1.37968e-05	0.013573418968740165
1.37970e-05	0.013551159827022678
1.37973e-05	0.013522799573019469
1.37975e-05	0.013485975176453127
1.37978e-05	0.013449150779887037
1.37980e-05	0.013412326383320695
1.37983e-05	0.013375501986754355
1.37985e-05	0.013338677590188263
1.37988e-05	0.013301853193621923
1.37990e-05	0.013265028797055583
1.37993e-05	0.013228204400489491
1.37995e-05	0.01319138000392315
1.37998e-05	0.013147436191095221
1.38000e-05	0.013102863876945765
1.38003e-05	0.013058291562796613
1.38005e-05	0.013013719248647158
1.38008e-05	0.012969146934497702
1.38010e-05	0.01292457462034855
1.38013e-05	0.012880002306199095
1.38015e-05	0.01283542999204964
1.38018e-05	0.012790857677900487
1.38020e-05	0.012747805112769014
1.38023e-05	0.012706860912759906
1.38025e-05	0.012665916712751076
1.38028e-05	0.012624972512741969
1.38030e-05	0.012587005952102192
1.38033e-05	0.012553170304474712
1.38035e-05	0.012519334656847
1.38038e-05	0.012485499009219289
1.38040e-05	0.0124534289180918
1.38043e-05	0.012423808203606154
1.38045e-05	0.012394187489120509
1.38048e-05	0.012364566774635063
1.38050e-05	0.012334946060149418
1.38053e-05	0.012305325345663773
1.38055e-05	0.012275704631178328
1.38058e-05	0.012244932691540762
1.38060e-05	0.012212563644137427
1.38063e-05	0.01218019459673431
1.38065e-05	0.012147825549330974
1.38068e-05	0.012115456501927638
1.38070e-05	0.012083087454524523
1.38073e-05	0.012050718407121188
1.38075e-05	0.012016098326382913
1.38078e-05	0.011978355361459787
1.38080e-05	0.011940612396536404
1.38083e-05	0.011902869431613023
1.38085e-05	0.011865126466689897
1.38088e-05	0.011827383501766516
1.38090e-05	0.011789640536843133
1.38093e-05	0.011751897571919752
1.38095e-05	0.011714154606996626
1.38098e-05	0.011676411642073245
1.38100e-05	0.0116384079642495
1.38103e-05	0.011600042596449762
1.38105e-05	0.011561677228649765
1.38108e-05	0.011523311860849768
1.38110e-05	0.01148494649305003
1.38113e-05	0.011446581125250033
1.38115e-05	0.011408215757450036
1.38118e-05	0.011369850389650299
1.38120e-05	0.011331485021850302
1.38123e-05	0.011293119654050304
1.38125e-05	0.01125650726158754
1.38128e-05	0.011223522879989142
1.38130e-05	0.01119219784519195
1.38133e-05	0.01116087281039497
1.38135e-05	0.011132151913730463
1.38138e-05	0.011107043767559688
1.38140e-05	0.011081935621389084
1.38143e-05	0.011064601398410433
1.38145e-05	0.011058052027624863
1.38148e-05	0.01105150265683934
1.38150e-05	0.01104495328605377
1.38153e-05	0.0110384039152682
1.38155e-05	0.011031854544482677
1.38158e-05	0.011037139854081768
1.38160e-05	0.011058843550581086
1.38163e-05	0.011080547247080255
1.38165e-05	0.011102250943579573
1.38168e-05	0.011123954640078891
1.38170e-05	0.01114565833657806
1.38173e-05	0.011180490391261866
1.38175e-05	0.011233535566793199
1.38178e-05	0.01128658074232453
1.38180e-05	0.0113396259178555
1.38183e-05	0.011392671093386831
1.38185e-05	0.011445716268918164
1.38188e-05	0.011498761444449135
1.38190e-05	0.011551806619980466
1.38193e-05	0.011604851795511798
1.38195e-05	0.011676976521875937
1.38198e-05	0.011750785588992002
1.38200e-05	0.011824594656108066
1.38203e-05	0.01189840372322363
1.38205e-05	0.011972212790339694
1.38208e-05	0.012046021857455758
1.38210e-05	0.012119830924571322
1.38213e-05	0.012193639991687388
1.38215e-05	0.012267632458078109
1.38218e-05	0.012341879356371101
1.38220e-05	0.012416126254664596
1.38223e-05	0.012487281600426685
1.38225e-05	0.012554148000146542
1.38228e-05	0.012621014399866853
1.38230e-05	0.012687880799587164
1.38233e-05	0.012748566727511021
1.38235e-05	0.012800678416512343
1.38238e-05	0.012852790105513665
1.38240e-05	0.012904901794514633
1.38243e-05	0.012950185875367304
1.38245e-05	0.012985997937663304
1.38248e-05	0.013021809999959062
1.38250e-05	0.013057622062255062
1.38253e-05	0.013093434124551063
1.38255e-05	0.01312924618684682
1.38258e-05	0.013165058249142821
1.38260e-05	0.013200870311438821
1.38263e-05	0.013236682373734822
1.38265e-05	0.013272494436030579
1.38268e-05	0.01330830649832658
1.38270e-05	0.013338663531613094
1.38273e-05	0.013361452741016714
1.38275e-05	0.013384241950420489
1.38278e-05	0.013407031159824265
1.38280e-05	0.013429820369227885
1.38283e-05	0.013452609578631659
1.38285e-05	0.013475398788035435
1.38288e-05	0.013498187997439055
1.38290e-05	0.01352097720684283
1.38293e-05	0.013543766416246605
1.38295e-05	0.013566555625650225
1.38298e-05	0.013585596974068366
1.38300e-05	0.013599438872248916
1.38303e-05	0.013613280770429372
1.38305e-05	0.013627122668609923
1.38308e-05	0.013640964566790472
1.38310e-05	0.013654806464970928
1.38313e-05	0.01366864836315148
1.38315e-05	0.01368249026133203
1.38318e-05	0.013696332159512485
1.38320e-05	0.013710174057693036
1.38323e-05	0.013724015955873586
1.38325e-05	0.013737857854054044
1.38328e-05	0.013751699752234593
1.38330e-05	0.013765541650415143
1.38333e-05	0.0137793835485956
1.38335e-05	0.01379322544677615
1.38338e-05	0.013801165633691279
1.38340e-05	0.013800918309340058
1.38343e-05	0.013800670984988836
1.38345e-05	0.013800423660637615
1.38348e-05	0.013800176336286394
1.38350e-05	0.013799929011935174
1.38353e-05	0.013799681687583953
1.38355e-05	0.013799434363232731
1.38358e-05	0.013799187038881512
1.38360e-05	0.013798939714530289
1.38363e-05	0.013798692390179067
1.38365e-05	0.013798445065827848
1.38368e-05	0.013798197741476627
1.38370e-05	0.013797950417125405
1.38373e-05	0.013797703092774186
1.38375e-05	0.013797455768422964
1.38378e-05	0.01379156932013964
1.38380e-05	0.01377785965098812
1.38383e-05	0.013764149981836506
1.38385e-05	0.013750440312684893
1.38388e-05	0.013736730643533372
1.38390e-05	0.013723020974381758
1.38393e-05	0.013709311305230143
1.38395e-05	0.013695601636078624
1.38398e-05	0.013681891966927009
1.38400e-05	0.013668182297775396
1.38403e-05	0.013654472628623874
1.38405e-05	0.013640762959472261
1.38408e-05	0.013627053290320648
1.38410e-05	0.013613343621169127
1.38413e-05	0.013599633952017512
1.38415e-05	0.013585924282865898
1.38418e-05	0.013573625924485693
1.38420e-05	0.013561452156472939
1.38423e-05	0.013549278388460186
1.38425e-05	0.013537104620447512
1.38428e-05	0.01352493085243476
1.38430e-05	0.013512757084422004
1.38433e-05	0.01350058331640925
1.38435e-05	0.013488409548396578
1.38438e-05	0.013476235780383823
1.38440e-05	0.01346406201237107
1.38443e-05	0.013451888244358397
1.38445e-05	0.013439714476345644
1.38448e-05	0.013427540708332889
1.38450e-05	0.013415366940320217
1.38453e-05	0.013403193172307462
1.38455e-05	0.013395821954052747
1.38458e-05	0.013395113367786787
1.38460e-05	0.013394404781520822
1.38463e-05	0.013393696195254857
1.38465e-05	0.013392987608988898
1.38468e-05	0.013392279022722933
1.38470e-05	0.01339157043645697
1.38473e-05	0.01339086185019101
1.38475e-05	0.013390153263925045
1.38478e-05	0.01338944467765908
1.38480e-05	0.01338873609139312
1.38483e-05	0.013388027505127156
1.38485e-05	0.01338731891886119
1.38488e-05	0.013386610332595231
1.38490e-05	0.013385901746329268
1.38493e-05	0.013385193160063303
1.38495e-05	0.013389728872557863
1.38498e-05	0.013394727551199803
1.38500e-05	0.013399726229841742
1.38503e-05	0.013404724908483646
1.38505e-05	0.013409723587125586
1.38508e-05	0.013414722265767525
1.38510e-05	0.013419720944409429
1.38513e-05	0.013424719623051369
1.38515e-05	0.013429718301693308
1.38518e-05	0.013434716980335246
1.38520e-05	0.013439715658977152
1.38523e-05	0.01344471433761909
1.38525e-05	0.01344971301626103
1.38528e-05	0.013454711694902935
1.38530e-05	0.013459710373544874
1.38533e-05	0.013464007514725568
1.38535e-05	0.013467331404994355
1.38538e-05	0.013470655295263164
1.38540e-05	0.013469247107903532
1.38543e-05	0.013461274055342294
1.38545e-05	0.013453301002781002
1.38548e-05	0.01344532795021971
1.38550e-05	0.013437354897658472
1.38553e-05	0.01342938184509718
1.38555e-05	0.013412103218446162
1.38558e-05	0.013381914862851424
1.38560e-05	0.013351726507256483
1.38563e-05	0.013321538151661542
1.38565e-05	0.013291349796066804
1.38568e-05	0.013261161440471863
1.38570e-05	0.013220217796738555
1.38573e-05	0.013164353219246855
1.38575e-05	0.013108488641754776
1.38578e-05	0.013052624064262698
1.38580e-05	0.012996759486770999
1.38583e-05	0.012940894909278921
1.38585e-05	0.012885030331786843
1.38588e-05	0.012829165754295144
1.38590e-05	0.012755793620628422
1.38593e-05	0.012680875921728516
1.38595e-05	0.012605958222829118
1.38598e-05	0.012531040523929214
1.38600e-05	0.012456122825029309
1.38603e-05	0.012381205126129405
1.38605e-05	0.012306287427230007
1.38608e-05	0.01222939819836766
1.38610e-05	0.012149773843528335
1.38613e-05	0.01207014948868955
1.38615e-05	0.011991628244993875
1.38618e-05	0.011914637359954705
1.38620e-05	0.011837646474916056
1.38623e-05	0.011763108233903771
1.38625e-05	0.011691972573891209
1.38628e-05	0.011620836913879128
1.38630e-05	0.01155541475321105
1.38633e-05	0.01149791899527362
1.38635e-05	0.011440423237336577
1.38638e-05	0.011382927479399146
1.38640e-05	0.011325431721461715
1.38643e-05	0.01127507207702797
1.38645e-05	0.011234612444154435
1.38648e-05	0.0111941528112809
1.38650e-05	0.011153693178407639
1.38653e-05	0.011113233545534104
1.38655e-05	0.011085459408822546
1.38658e-05	0.01104211953788634
1.38660e-05	0.008141440973589043
1.38663e-05	0.0017683410854046479
1.38665e-05	-6.517448591793022e-05
1.38668e-05	0.00129016701418834
1.38670e-05	0.004187648777200764
1.38673e-05	0.008380564908553094
1.38675e-05	0.010898026995855261
1.38678e-05	0.0107809974938641
1.38680e-05	0.008891496725455255
1.38683e-05	0.005874459031473922
1.38685e-05	0.004030694386252465
1.38688e-05	0.004583689358305762
1.38690e-05	0.00654802780780597
1.38693e-05	0.008959396170407983
1.38695e-05	0.010760541247283342
1.38698e-05	0.010862153247488222
1.38700e-05	0.009726169556352558
1.38703e-05	0.008543667769102536
1.38705e-05	0.007447018534746388
1.38708e-05	0.007703740020817693
1.38710e-05	0.008790775043331485
1.38713e-05	0.010131962575579868
1.38715e-05	0.010989114900875339
1.38718e-05	0.011020120818818153
1.38720e-05	0.010394266933360886
1.38723e-05	0.009462694382410415
1.38725e-05	0.008922584246661315
1.38728e-05	0.009108505035167016
1.38730e-05	0.00978702261075627
1.38733e-05	0.01062446535383911
1.38735e-05	0.01115841233089148
1.38738e-05	0.011174656574543394
1.38740e-05	0.010780060909832937
1.38743e-05	0.010196412529712023
1.38745e-05	0.00986199002173345
1.38748e-05	0.009986761591818744
1.38750e-05	0.010424298022641387
1.38753e-05	0.010965318430558094
1.38755e-05	0.011319917563741962
1.38758e-05	0.011353690596097669
1.38760e-05	0.01113335335460578
1.38763e-05	0.01079760084864352
1.38765e-05	0.010620719892444128
1.38768e-05	0.010733965634333247
1.38770e-05	0.011045345004521106
1.38773e-05	0.011423504399179232
1.38775e-05	0.011686601713996315
1.38778e-05	0.01175021252538923
1.38780e-05	0.011655896439779701
1.38783e-05	0.011490294854618447
1.38785e-05	0.011424972011649192
1.38788e-05	0.01154188611035566
1.38790e-05	0.011783150993844277
1.38793e-05	0.012066232470812567
1.38795e-05	0.012276979810938355
1.38798e-05	0.012362271227585568
1.38800e-05	0.012347902290445686
1.38803e-05	0.012287905744720697
1.38805e-05	0.012289501071790327
1.38808e-05	0.012403771530283032
1.38810e-05	0.01259420188394069
1.38813e-05	0.012808841478762404
1.38815e-05	0.012975940594177764
1.38818e-05	0.013061982847131559
1.38820e-05	0.013082886786889422
1.38823e-05	0.013072255522309296
1.38825e-05	0.013097004396512029
1.38828e-05	0.013188880060623914
1.38830e-05	0.013324758221351821
1.38833e-05	0.013471846794800199
1.38835e-05	0.013584957000353932
1.38838e-05	0.01364291250210688
1.38840e-05	0.013656079886500022
1.38843e-05	0.013646795405852995
1.38845e-05	0.013658250354016509
1.38848e-05	0.013710855182273418
1.38850e-05	0.013790227042843231
1.38853e-05	0.013875871091131718
1.38855e-05	0.013939528976225536
1.38858e-05	0.013967985058134302
1.38860e-05	0.013967784608487103
1.38863e-05	0.013952967942291861
1.38865e-05	0.013950636431067587
1.38868e-05	0.013973621360226066
1.38870e-05	0.014012959486212923
1.38873e-05	0.014055858340435396
1.38875e-05	0.014084664358141163
1.38878e-05	0.014091149571454404
1.38880e-05	0.014079462456202424
1.38883e-05	0.014063338793420456
1.38885e-05	0.014048181518518539
1.38888e-05	0.014047584117612196
1.38890e-05	0.014060252248516104
1.38893e-05	0.01407089392905859
1.38895e-05	0.014078642532879418
1.38898e-05	0.014073583171316718
1.38900e-05	0.014054632112276397
1.38903e-05	0.0140331919390737
1.38905e-05	0.014012495623159378
1.38908e-05	0.014001198904613626
1.38910e-05	0.01399861069849224
1.38913e-05	0.013995289103194489
1.38915e-05	0.013990402453645464
1.38918e-05	0.013977947513030432
1.38920e-05	0.013956989709712011
1.38923e-05	0.013933673583395145
1.38925e-05	0.013914274314274866
1.38928e-05	0.01390166797140513
1.38930e-05	0.01389426466637254
1.38933e-05	0.013888415494942668
1.38935e-05	0.013880161748685073
1.38938e-05	0.013867734713389864
1.38940e-05	0.013850651270671168
1.38943e-05	0.013831701650245424
1.38945e-05	0.01381275202981981
1.38948e-05	0.013794864102702236
1.38950e-05	0.01377553424966123
1.38953e-05	0.013754889622149869
1.38955e-05	0.013734244994638368
1.38958e-05	0.013706786210805521
1.38960e-05	0.013675071417511068
1.38963e-05	0.013639068002381592
1.38965e-05	0.013600385984906226
1.38968e-05	0.013561703967431121
1.38970e-05	0.013523021949955754
1.38973e-05	0.013478158234659286
1.38975e-05	0.013429433533031528
1.38978e-05	0.013380708831403439
1.38980e-05	0.01333198412977535
1.38983e-05	0.013276848766877786
1.38985e-05	0.013217709410860673
1.38988e-05	0.01315857005484356
1.38990e-05	0.013099430698826848
1.38993e-05	0.013040291342809736
1.38995e-05	0.012976778521216323
1.38998e-05	0.012910534105277918
1.39000e-05	0.012844289689339063
1.39003e-05	0.012778045273400209
1.39005e-05	0.012711800857461803
1.39008e-05	0.01264565536856139
1.39010e-05	0.01257957166785483
1.39013e-05	0.012513487967148716
1.39015e-05	0.012447404266442155
1.39018e-05	0.012381320565735593
