Time(s)	Current(A)
7.00000e-06	0.001034574402000251
7.00025e-06	0.0010919055719557048
7.00050e-06	0.001149236741911159
7.00075e-06	0.001202856708418769
7.00100e-06	0.0012564668178324326
7.00125e-06	0.001310076927246096
7.00150e-06	0.0013578813801662978
7.00175e-06	0.0014056704130477563
7.00200e-06	0.0014534594459292148
7.00225e-06	0.001492357280453023
7.00250e-06	0.0015312314996247258
7.00275e-06	0.0015701057187965603
7.00300e-06	0.0016011773195541421
7.00325e-06	0.0016322281962684313
7.00350e-06	0.0016632790729828257
7.00375e-06	0.0016877488536701352
7.00400e-06	0.0017122011547228446
7.00425e-06	0.0017366534557756367
7.00450e-06	0.0017482120518225888
7.00475e-06	0.0017597364017119211
7.00500e-06	0.0017712607516012925
7.00525e-06	0.0017827851014906246
7.00550e-06	0.0017943094513799569
7.00575e-06	0.001805833801269328
7.00600e-06	0.0018173581511586603
7.00625e-06	0.0018288825010479926
7.00650e-06	0.001833610048046554
7.00675e-06	0.001831468389610704
7.00700e-06	0.0018293267311748468
7.00725e-06	0.0018271850727389967
7.00750e-06	0.0018250434143031468
7.00775e-06	0.0018229017558672894
7.00800e-06	0.0018207600974314395
7.00825e-06	0.0018186184389955894
7.00850e-06	0.0018164767805597321
7.00875e-06	0.0018071222782896177
7.00900e-06	0.0017977486184395195
7.00925e-06	0.0017883749585893896
7.00950e-06	0.0017790012987392914
7.00975e-06	0.0017696276388891932
7.01000e-06	0.0017602539790390634
7.01025e-06	0.001750880319188965
7.01050e-06	0.0017415066593388668
7.01075e-06	0.0017319467929877085
7.01100e-06	0.0017223864320652304
7.01125e-06	0.0017128260711427197
7.01150e-06	0.0017032657102202416
7.01175e-06	0.0016937053492977634
7.01200e-06	0.001684144988375253
7.01225e-06	0.0016745846274527749
7.01250e-06	0.0016650242665302967
7.01275e-06	0.0016540934809109982
7.01300e-06	0.0016431590553930816
7.01325e-06	0.0016322246298751649
7.01350e-06	0.0016107594599343426
7.01375e-06	0.0015892663199471519
7.01400e-06	0.0015677731799599614
7.01425e-06	0.0015385374101425332
7.01450e-06	0.0015092810756142062
7.01475e-06	0.001473503014405944
7.01500e-06	0.001437707631250477
7.01525e-06	0.001392756635537751
7.01550e-06	0.0013477813221795898
7.01575e-06	0.001294373974698737
7.01600e-06	0.0012409442314236907
7.01625e-06	0.0011806726546417436
7.01650e-06	0.0011203829056974015
7.01675e-06	0.0010538470098892406
7.01700e-06	0.0009872945240840102
7.01725e-06	0.0009137596282976703
7.01750e-06	0.0008402061869724677
7.01775e-06	0.0007610371465340476
7.01800e-06	0.0006818531908571939
7.01825e-06	0.0005989631017349591
7.01850e-06	0.0005160631689851088
7.01875e-06	0.00043074336447064163
7.01900e-06	0.0003454171326873857
7.01925e-06	0.0002579852145118441
7.01950e-06	0.00017054770355576536
7.01975e-06	8.311019259939033e-05
7.02000e-06	-4.174137003416618e-06
7.02025e-06	-9.050155632489129e-05
7.02050e-06	-0.00017534816884712067
7.02075e-06	-0.0002583321281033336
7.02100e-06	-0.0003392507022856871
7.02125e-06	-0.0004178021887327078
7.02150e-06	-0.0004934843216703719
7.02175e-06	-0.0005657370335770543
7.02200e-06	-0.0006340001628739932
7.02225e-06	-0.0006977136352161133
7.02250e-06	-0.000756354879031167
7.02275e-06	-0.0008087511944781579
7.02300e-06	-0.0008611309588618167
7.02325e-06	-0.0009090509106418637
7.02350e-06	-0.0009569590169951599
7.02375e-06	-0.001000301247057247
7.02400e-06	-0.001043631349983514
7.02425e-06	-0.0010810407828181722
7.02450e-06	-0.001118434490134541
7.02475e-06	-0.0011493527780876817
7.02500e-06	-0.001180253867087887
7.02525e-06	-0.0012111549560880923
7.02550e-06	-0.0012376372085580948
7.02575e-06	-0.0012641077244351033
7.02600e-06	-0.0012905782403121117
7.02625e-06	-0.001311441139427967
7.02650e-06	-0.0013322891445067
7.02675e-06	-0.001353137149585433
7.02700e-06	-0.0013667933103436376
7.02725e-06	-0.0013804303692979095
7.02750e-06	-0.0013940674282521815
7.02775e-06	-0.0014077044872064998
7.02800e-06	-0.0014213415461607718
7.02825e-06	-0.00143497860511509
7.02850e-06	-0.0014486156640693619
7.02875e-06	-0.001462252723023634
7.02900e-06	-0.0014758897819779522
7.02925e-06	-0.0014824506133197784
7.02950e-06	-0.0014889926499400575
7.02975e-06	-0.0014955346865603589
7.03000e-06	-0.001502076723180638
7.03025e-06	-0.001508618759800917
7.03050e-06	-0.0015151607964212185
7.03075e-06	-0.0015217028330414975
7.03100e-06	-0.0015282448696617768
7.03125e-06	-0.001534786906282078
7.03150e-06	-0.0015387726551613042
7.03175e-06	-0.001542751614446027
7.03200e-06	-0.0015467305737307633
7.03225e-06	-0.001550709533015486
7.03250e-06	-0.0015546884923002225
7.03275e-06	-0.0015528545577579952
7.03300e-06	-0.0015510051839554525
7.03325e-06	-0.0015491558101529035
7.03350e-06	-0.0015473064363503608
7.03375e-06	-0.0015454570625478181
7.03400e-06	-0.00153467546593484
7.03425e-06	-0.0015238701450088295
7.03450e-06	-0.0015130648240828189
7.03475e-06	-0.0014952702525411077
7.03500e-06	-0.0014774571172921885
7.03525e-06	-0.0014596439820432692
7.03550e-06	-0.0014336018450020567
7.03575e-06	-0.0014075378514288679
7.03600e-06	-0.001381473857855679
7.03625e-06	-0.0013486724883164888
7.03650e-06	-0.0013158532240585413
7.03675e-06	-0.0012830339598004824
7.03700e-06	-0.0012439205384594352
7.03725e-06	-0.0012047903996052494
7.03750e-06	-0.001165660260750931
7.03775e-06	-0.0011213205584193389
7.03800e-06	-0.0010769670192952076
7.03825e-06	-0.0010326134801709264
7.03850e-06	-0.0009845541226969872
7.03875e-06	-0.0009364849224329852
7.03900e-06	-0.0008884157221688202
7.03925e-06	-0.0008403465219048181
7.03950e-06	-0.0007920737716786939
7.03975e-06	-0.0007432168493448525
7.04000e-06	-0.0006943599270111765
7.04025e-06	-0.0006455030046775005
7.04050e-06	-0.000596646082343659
7.04075e-06	-0.0005578002221665962
7.04100e-06	-0.004236953880106607
7.04125e-06	-0.019430622721380967
7.04150e-06	-0.017127629550272465
7.04175e-06	-0.014153830082544575
7.04200e-06	-0.009472459126195504
7.04225e-06	0.0027790223851266033
7.04250e-06	0.0026217914013664826
7.04275e-06	0.0021949415360935738
7.04300e-06	0.00013978284525159167
7.04325e-06	-0.012127483782017199
7.04350e-06	-0.009745313427043108
7.04375e-06	-0.0065717631611492845
7.04400e-06	-0.0029312594266983766
7.04425e-06	0.0013757999014522861
7.04450e-06	0.003437671661446451
7.04475e-06	0.002535451576234043
7.04500e-06	-0.00026521287672162013
7.04525e-06	-0.0036637639964890276
7.04550e-06	-0.00505302200665901
7.04575e-06	-0.0037877698015485748
7.04600e-06	-0.0012929966433230513
7.04625e-06	0.0013412467074975405
7.04650e-06	0.0025748003108370604
7.04675e-06	0.0019564690462804983
7.04700e-06	0.00015308940245096808
7.04725e-06	-0.0020212562333817583
7.04750e-06	-0.002933994549854606
7.04775e-06	-0.00218150322752785
7.04800e-06	-0.0006568193539908484
7.04825e-06	0.0009569734600472207
7.04850e-06	0.001694982766240879
7.04875e-06	0.0012745508696519014
7.04900e-06	0.00011339062312647771
7.04925e-06	-0.0012785576268225336
7.04950e-06	-0.0018786928369753544
7.04975e-06	-0.0014342612835393338
7.05000e-06	-0.0005047011407731543
7.05025e-06	0.00048212559449700785
7.05050e-06	0.0009218925111644055
7.05075e-06	0.000637671308221922
7.05100e-06	-0.00010874995846865167
7.05125e-06	-0.0009978309791089008
7.05150e-06	-0.001388939215569657
7.05175e-06	-0.001123704771341066
7.05200e-06	-0.0005525006580592578
7.05225e-06	5.675092145774355e-05
7.05250e-06	0.00032563999814247873
7.05275e-06	0.000143564390786146
7.05300e-06	-0.00032524708109882473
7.05325e-06	-0.0008805398829106145
7.05350e-06	-0.0011211241116297803
7.05375e-06	-0.0009479836031070152
7.05400e-06	-0.0005807747011245516
7.05425e-06	-0.00018748823586756675
7.05450e-06	-5.3053632234948715e-06
7.05475e-06	-0.00010363825450106481
7.05500e-06	-0.0003797463900291311
7.05525e-06	-0.0007083329090381177
7.05550e-06	-0.0008382522590264562
7.05575e-06	-0.0007076540434858036
7.05600e-06	-0.0004543003124680776
7.05625e-06	-0.00018357867642256276
7.05650e-06	-4.420576802957198e-05
7.05675e-06	-7.979896255512531e-05
7.05700e-06	-0.0002261403126268877
7.05725e-06	-0.00040488907460824056
7.05750e-06	-0.0004588836921683158
7.05775e-06	-0.0003495457906818401
7.05800e-06	-0.00016333175690204225
7.05825e-06	3.358836587676647e-05
7.05850e-06	0.000147910620844893
7.05875e-06	0.00015217059862753524
7.05900e-06	8.64512251158394e-05
7.05925e-06	-3.2209865156595537e-07
7.05950e-06	-9.857462065946165e-06
7.05975e-06	8.185111369853541e-05
7.06000e-06	0.00022048941740925178
7.06025e-06	0.00036445493512191724
7.06050e-06	0.0004551531253626042
7.06075e-06	0.00047523467027601557
7.06100e-06	0.0004496614863634862
7.06125e-06	0.00040893192427853665
7.06150e-06	0.00041446317383613733
7.06175e-06	0.00048113633635175863
7.06200e-06	0.0005747737662073097
7.06225e-06	0.0006691631973296274
7.06250e-06	0.0007276327508234701
7.06275e-06	0.0007402193534413149
7.06300e-06	0.0007244500343606302
7.06325e-06	0.0007009624993813938
7.06350e-06	0.000708634211205692
7.06375e-06	0.0007566891994265486
7.06400e-06	0.0008235926213959658
7.06425e-06	0.0008928008290885385
7.06450e-06	0.0009412201585528674
7.06475e-06	0.0009624886455304062
7.06500e-06	0.0009674638259042479
7.06525e-06	0.0009689507395688504
7.06550e-06	0.000991178077098839
7.06575e-06	0.0010397982908931466
7.06600e-06	0.0011007511932549419
7.06625e-06	0.0011645257184428515
7.06650e-06	0.0012162793442973348
7.06675e-06	0.001251267523569288
7.06700e-06	0.0012772500160215512
7.06725e-06	0.0013005487964554638
7.06750e-06	0.001336626937422182
7.06775e-06	0.001389929823026938
7.06800e-06	0.0014508889836966135
7.06825e-06	0.0015135405084825196
7.06850e-06	0.0015684333540119811
7.06875e-06	0.0016123962754233123
7.06900e-06	0.0016500216530254293
7.06925e-06	0.0016855610970957387
7.06950e-06	0.001728469088510972
7.06975e-06	0.001781135384481004
7.07000e-06	0.0018372695308798588
7.07025e-06	0.0018937263635609013
7.07050e-06	0.0019424282472276446
7.07075e-06	0.0019848478950255867
7.07100e-06	0.002022488266118531
7.07125e-06	0.002056256974936192
7.07150e-06	0.002093843844189917
7.07175e-06	0.0021345237814184774
7.07200e-06	0.002174382679414378
7.07225e-06	0.0022135764586446284
7.07250e-06	0.0022443799363820664
7.07275e-06	0.0022683864831675006
7.07300e-06	0.002292393029953016
7.07325e-06	0.0023141601020838154
7.07350e-06	0.002334112989753021
7.07375e-06	0.0023534787179616402
7.07400e-06	0.002372368791950227
7.07425e-06	0.0023912588659388135
7.07450e-06	0.0024101489399274644
7.07475e-06	0.002422962030872254
7.07500e-06	0.002430852195724396
7.07525e-06	0.0024387423605765654
7.07550e-06	0.0024466325254287077
7.07575e-06	0.002451578577109404
7.07600e-06	0.00245413962105734
7.07625e-06	0.0024567006650052757
7.07650e-06	0.00245926170895322
7.07675e-06	0.0024618227529011557
7.07700e-06	0.002464383796849091
7.07725e-06	0.0024669448407970357
7.07750e-06	0.002469086769813235
7.07775e-06	0.002463658214702146
7.07800e-06	0.0024582296595910386
7.07825e-06	0.0024528011044799495
7.07850e-06	0.0024473725493688605
7.07875e-06	0.0024419439942577528
7.07900e-06	0.0024365154391466637
7.07925e-06	0.0024310868840355746
7.07950e-06	0.002424392893470988
7.07975e-06	0.0024166737815317185
7.08000e-06	0.002408954669592423
7.08025e-06	0.002401235557653153
7.08050e-06	0.002393516445713884
7.08075e-06	0.002385797333774588
7.08100e-06	0.0023780782218353184
7.08125e-06	0.0023703334740927005
7.08150e-06	0.002362125666154413
7.08175e-06	0.002353917858216153
7.08200e-06	0.002345710050277894
7.08225e-06	0.0023375022423396063
7.08250e-06	0.0023292944344013465
7.08275e-06	0.0023210866264630867
7.08300e-06	0.002312878818524799
7.08325e-06	0.00229957459038031
7.08350e-06	0.0022821417839877993
7.08375e-06	0.0022647089775952294
7.08400e-06	0.0022427690092545107
7.08425e-06	0.0022171778171082815
7.08450e-06	0.0021915866249621395
7.08475e-06	0.0021603971963805395
7.08500e-06	0.0021246726713509577
7.08525e-06	0.002088948146321497
7.08550e-06	0.0020471899540806166
7.08575e-06	0.002000543925633804
7.08600e-06	0.0019538978971871497
7.08625e-06	0.0019023341657376483
7.08650e-06	0.0018467866337328455
7.08675e-06	0.001791239101728231
7.08700e-06	0.0017307815844638016
7.08725e-06	0.0016663465187396276
7.08750e-06	0.001601911453015672
7.08775e-06	0.0015338936823331751
7.08800e-06	0.0014629735846912878
7.08825e-06	0.001392053487049641
7.08850e-06	0.0013187419180908395
7.08875e-06	0.0012434930331223799
7.08900e-06	0.0011682441481539203
7.08925e-06	0.0010929952631852057
7.08950e-06	0.001017253841501684
7.08975e-06	0.0009411134188948431
7.09000e-06	0.0008649729962877445
7.09025e-06	0.0007888325736809037
7.09050e-06	0.0007144852239669352
7.09075e-06	0.000641590431428552
7.09100e-06	0.0005701634893063727
7.09125e-06	0.000501151076548931
7.09150e-06	0.0004346560516381441
7.09175e-06	0.00037116671706417613
7.09200e-06	0.0003111308589160432
7.09225e-06	0.000255003331380877
7.09250e-06	0.00020299816071016157
7.09275e-06	0.00015424203371967011
7.09300e-06	0.00010662476567926735
7.09325e-06	5.848860206602542e-05
7.09350e-06	9.624866197148369e-06
7.09375e-06	-3.948767171947071e-05
7.09400e-06	-8.860185172066809e-05
7.09425e-06	-0.0001372575689278468
7.09450e-06	-0.00018508915915823676
7.09475e-06	-0.00023255399234564178
7.09500e-06	-0.0002808465655356619
7.09525e-06	-0.0003313183919612018
7.09550e-06	-0.000383012411891639
7.09575e-06	-0.0004360077719316913
7.09600e-06	-0.0004900573394839747
7.09625e-06	-0.0005447101826452111
7.09650e-06	-0.0005998517356176949
7.09675e-06	-0.0006549932885899917
7.09700e-06	-0.000711899642861946
7.09725e-06	-0.0007702356516677276
7.09750e-06	-0.0008285716604735092
7.09775e-06	-0.000888175430775176
7.09800e-06	-0.0009488062067632779
7.09825e-06	-0.00100943698275138
7.09850e-06	-0.0010700677587396872
7.09875e-06	-0.0011306985347277893
7.09900e-06	-0.001191085494349626
7.09925e-06	-0.0012512749398528862
7.09950e-06	-0.001311464385355942
7.09975e-06	-0.0013716538308589982
7.10000e-06	-0.001431843276362258
7.10025e-06	-0.0014884990524444558
7.10050e-06	-0.001542292224951692
7.10075e-06	-0.0015960853974591107
7.10100e-06	-0.0016498785699663471
7.10125e-06	-0.0017036717424737658
7.10150e-06	-0.0017574649149810022
7.10175e-06	-0.0018031239721867966
7.10200e-06	-0.0018421936332814256
7.10225e-06	-0.001881263294375922
7.10250e-06	-0.0019203329554704188
7.10275e-06	-0.001959402616565048
7.10300e-06	-0.0019984722776595445
7.10325e-06	-0.0020294353179121623
7.10350e-06	-0.0020538312351440825
7.10375e-06	-0.0020782271523759207
7.10400e-06	-0.0020968471535755162
7.10425e-06	-0.0021107881211949826
7.10450e-06	-0.0021247290888144017
7.10475e-06	-0.002132884278840962
7.10500e-06	-0.002136352446498627
7.10525e-06	-0.0021398206141562807
7.10550e-06	-0.0021381210668113488
7.10575e-06	-0.0021322351857499936
7.10600e-06	-0.002126349304688638
7.10625e-06	-0.0021155709747938995
7.10650e-06	-0.0021008293025909547
7.10675e-06	-0.00208608763038801
7.10700e-06	-0.0020653597798286415
7.10725e-06	-0.0020397825634911283
7.10750e-06	-0.0020142053471536147
7.10775e-06	-0.001988628130816015
7.10800e-06	-0.0019630509144785016
7.10825e-06	-0.0019374736981409885
7.10850e-06	-0.0019114505547909706
7.10875e-06	-0.0018773726200134722
7.10900e-06	-0.0018432946852359735
7.10925e-06	-0.0018092167504583595
7.10950e-06	-0.001775138815680861
7.10975e-06	-0.001741060880903247
7.11000e-06	-0.0017069829461257486
7.11025e-06	-0.0016728156675882855
7.11050e-06	-0.0016385760122275901
7.11075e-06	-0.0016043363568670106
7.11100e-06	-0.001570096701506431
7.11125e-06	-0.0015358570461457355
7.11150e-06	-0.0015051618929162783
7.11175e-06	-0.001477338118772225
7.11200e-06	-0.0014495143446280772
7.11225e-06	-0.0014216905704840237
7.11250e-06	-0.0013938667963399702
7.11275e-06	-0.0013673128095992276
7.11300e-06	-0.001341787469720132
7.11325e-06	-0.0013123459540668164
7.11350e-06	-0.0012797319688262465
7.11375e-06	-0.0012436150286380938
7.11400e-06	-0.0012046603664788767
7.11425e-06	-0.0011630219877983242
7.11450e-06	-0.0011192095470900446
7.11475e-06	-0.0010717557144176684
7.11500e-06	-0.0010213520128105305
7.11525e-06	-0.0009655994168224104
7.11550e-06	-0.0009055137148331969
7.11575e-06	-0.0008418921770952498
7.11600e-06	-0.0007734234318748412
7.11625e-06	-0.0007016461161922432
7.11650e-06	-0.0006269746428838109
7.11675e-06	-0.0005493791036250595
7.11700e-06	-0.00046834042651698496
7.11725e-06	-0.0003835526712261025
7.11750e-06	-0.00029530991179540356
7.11775e-06	-0.0002041699340595227
7.11800e-06	-0.00011070566686515281
7.11825e-06	-1.548994482791366e-05
7.11850e-06	8.096307774844008e-05
7.11875e-06	0.00017841759881796917
7.11900e-06	0.00027727598908786104
7.11925e-06	0.00037691648004080776
7.11950e-06	0.00047655627297912097
7.11975e-06	0.0005761834576609854
7.12000e-06	0.0006758106423425123
7.12025e-06	0.0007736763486414122
7.12050e-06	0.0008701150922814764
7.12075e-06	0.0009639770101410411
7.12100e-06	0.0010557514574964606
7.12125e-06	0.0011442336121326598
7.12150e-06	0.0012300487009560975
7.12175e-06	0.0013112345588603917
7.12200e-06	0.0013886703056496326
7.12225e-06	0.001460116633618837
7.12250e-06	0.0015267109707322642
7.12275e-06	0.0015872553368998605
7.12300e-06	0.0016428986593117851
7.12325e-06	0.0016934711351150578
7.12350e-06	0.0017399357496851986
7.12375e-06	0.001780943308920639
7.12400e-06	0.0018175301416415491
7.12425e-06	0.0018481219601787292
7.12450e-06	0.0018738572550907396
7.12475e-06	0.0018938736380773355
7.12500e-06	0.001909257166157173
7.12525e-06	0.001919849165612526
7.12550e-06	0.001926559577593297
7.12575e-06	0.0019273616713707932
7.12600e-06	0.0019233774733965882
7.12625e-06	0.0019193932754223697
7.12650e-06	0.0019086261674502285
7.12675e-06	0.001892364266364598
7.12700e-06	0.0018761023652790227
7.12725e-06	0.0018546906071898244
7.12750e-06	0.0018291069820395142
7.12775e-06	0.0018035233568892907
7.12800e-06	0.0017736601788950353
7.12825e-06	0.0017403301618150128
7.12850e-06	0.001707000144735103
7.12875e-06	0.001669968776038222
7.12900e-06	0.0016299389654658616
7.12925e-06	0.0015899091548936368
7.12950e-06	0.0015498793443214122
7.12975e-06	0.0015098495337490516
7.13000e-06	0.0014697610994970677
7.13025e-06	0.0014286137441681737
7.13050e-06	0.0013874663888391403
7.13075e-06	0.0013463190335102461
7.13100e-06	0.001305171678181213
7.13125e-06	0.0012640243228523188
7.13150e-06	0.0012258224071346653
7.13175e-06	0.0011900065736876637
7.13200e-06	0.0011541907402407834
7.13225e-06	0.0011218061204202015
7.13250e-06	0.001092201105372128
7.13275e-06	0.0010625960903241547
7.13300e-06	0.0010328488917642161
7.13325e-06	0.0010005334286703475
7.13350e-06	0.0009682179655765887
7.13375e-06	0.0009359025024828296
7.13400e-06	0.0009015503407756878
7.13425e-06	0.0008655482622164382
7.13450e-06	0.0008286046511604774
7.13475e-06	0.0007908983104972145
7.13500e-06	0.0007506021042835366
7.13525e-06	0.0007082078641294395
7.13550e-06	0.0006629724011804642
7.13575e-06	0.0006154352813541623
7.13600e-06	0.0005658607255943007
7.13625e-06	0.0005146356556840129
7.13650e-06	0.0004618933337622571
7.13675e-06	0.0004079218954426519
7.13700e-06	0.00035235548100762967
7.13725e-06	0.00029429033331297775
7.13750e-06	0.0002342419007957454
7.13775e-06	0.0001725885056365863
7.13800e-06	0.00010972038099960556
7.13825e-06	4.602768749218278e-05
7.13850e-06	-1.8145927110557423e-05
7.13875e-06	-8.267842152046152e-05
7.13900e-06	-0.00014787712794151638
7.13925e-06	-0.00021348103745108332
7.13950e-06	-0.00027908494696087254
7.13975e-06	-0.00034413568991597447
7.14000e-06	-0.0004087383160931463
7.14025e-06	-0.00047334094227053703
7.14050e-06	-0.0005361155834857708
7.14075e-06	-0.0005974093854770397
7.14100e-06	-0.0006568115204071864
7.14125e-06	-0.0007146812276413902
7.14150e-06	-0.0007700119903505113
7.14175e-06	-0.0008232859699251337
7.14200e-06	-0.0008731146686018093
7.14225e-06	-0.0009201523666974736
7.14250e-06	-0.0009631469321446341
7.14275e-06	-0.0010028661810336482
7.14300e-06	-0.0010393537054069616
7.14325e-06	-0.0010732232298934392
7.14350e-06	-0.0011040764674460422
7.14375e-06	-0.00113248622975414
7.14400e-06	-0.0011574815339006816
7.14425e-06	-0.0011797108067728912
7.14450e-06	-0.0011975498200638666
7.14475e-06	-0.0012118323114324186
7.14500e-06	-0.0012261148028009706
7.14525e-06	-0.0012362234315285386
