Time(s)	Current(A)
1.45000e-05	0.0002582658997598074
1.45003e-05	0.00026857248891420796
1.45005e-05	0.0002816593346627592
1.45008e-05	0.00029744725200522403
1.45010e-05	0.00031577375558506575
1.45013e-05	0.0003364189204305166
1.45015e-05	0.0003591912979619728
1.45018e-05	0.0003846151854109475
1.45020e-05	0.0004107487080350974
1.45023e-05	0.0004393701106190945
1.45025e-05	0.00046881988375635264
1.45028e-05	0.000500273642012596
1.45030e-05	0.0005323946520208641
1.45033e-05	0.0005658323035924337
1.45035e-05	0.0005997083473368189
1.45038e-05	0.000634258077502868
1.45040e-05	0.0006690321199357602
1.45043e-05	0.0007039390656017069
1.45045e-05	0.0007387802636279659
1.45048e-05	0.0007733145753882695
1.45050e-05	0.0008072994706222671
1.45053e-05	0.0008404699117141651
1.45055e-05	0.0008725720739187713
1.45058e-05	0.0009027683670680719
1.45060e-05	0.0009324240934617566
1.45063e-05	0.0009585515923700265
1.45065e-05	0.0009835043240861627
1.45068e-05	0.0010084570558022987
1.45070e-05	0.001029922440459058
1.45073e-05	0.0010502266695695374
1.45075e-05	0.0010705308986800168
1.45078e-05	0.0010857424810510217
1.45080e-05	0.001099258403395415
1.45083e-05	0.0011127743257398081
1.45085e-05	0.0011262902480841097
1.45088e-05	0.001139806170428503
1.45090e-05	0.0011533220927728962
1.45093e-05	0.0011668380151172893
1.45095e-05	0.001180353937461591
1.45098e-05	0.0011938698598059842
1.45100e-05	0.0012014448720306745
1.45103e-05	0.001207041784393146
1.45105e-05	0.0012126386967556554
1.45108e-05	0.0012182356091181646
1.45110e-05	0.001223832521480636
1.45113e-05	0.0012294294338431452
1.45115e-05	0.0012350263462056546
1.45118e-05	0.0012406232585681258
1.45120e-05	0.0012462201709306352
1.45123e-05	0.0012485494983028049
1.45125e-05	0.0012497908426404606
1.45128e-05	0.001251032186978125
1.45130e-05	0.0012522735313157893
1.45133e-05	0.0012535148756534452
1.45135e-05	0.0012547562199911094
1.45138e-05	0.0012559975643287738
1.45140e-05	0.0012567949377792493
1.45143e-05	0.0012562618797816243
1.45145e-05	0.0012557288217839994
1.45148e-05	0.0012551957637863779
1.45150e-05	0.0012546627057887529
1.45153e-05	0.001254129647791128
1.45155e-05	0.0012535965897935064
1.45158e-05	0.0012530635317958814
1.45160e-05	0.001252404180428878
1.45163e-05	0.0012517242627183055
1.45165e-05	0.0012510759525936322
1.45168e-05	0.0012502339517367627
1.45170e-05	0.0012484162812241982
1.45173e-05	0.0012446828587385358
1.45175e-05	0.0012377799348056338
1.45178e-05	0.0012300005391322098
1.45180e-05	0.0012190492387040973
1.45183e-05	0.0012070418131649018
1.45185e-05	0.001192196760593029
1.45188e-05	0.0011764068848324615
1.45190e-05	0.0011560236707271597
1.45193e-05	0.0011341110475303195
1.45195e-05	0.0011121984243336277
1.45198e-05	0.0010844741576852657
1.45200e-05	0.0010548148321178812
1.45203e-05	0.0010251555065506975
1.45205e-05	0.0009909138178359133
1.45208e-05	0.000955146374357806
1.45210e-05	0.0009193789308799408
1.45213e-05	0.000879057362825378
1.45215e-05	0.000837219442390605
1.45218e-05	0.0007953815219561155
1.45220e-05	0.0007501683936122116
1.45223e-05	0.0007038314478450076
1.45225e-05	0.0006574945020781177
1.45228e-05	0.0006092555138890796
1.45230e-05	0.0005603832170354676
1.45233e-05	0.0005115109201821869
1.45235e-05	0.00046168840997368985
1.45238e-05	0.0004115495144186009
1.45240e-05	0.0003614106188638517
1.45243e-05	0.00031187621431460436
1.45245e-05	0.00026254308255890216
1.45248e-05	0.0002142159062240039
1.45250e-05	0.00016707482798820002
1.45253e-05	0.00012118550354180962
1.45255e-05	7.67856774690829e-05
1.45258e-05	3.418276262250743e-05
1.45260e-05	-6.301647302966239e-06
1.45263e-05	-4.434598409373223e-05
1.45265e-05	-7.962872865018272e-05
1.45268e-05	-0.00011187392839601194
1.45270e-05	-0.0001409486580492895
1.45273e-05	-0.00016684512983715757
1.45275e-05	-0.0001895465625284741
1.45278e-05	-0.00020898735680230463
1.45280e-05	-0.00022508963806597997
1.45283e-05	-0.00023777556450237927
1.45285e-05	-0.00024696731246877726
1.45288e-05	-0.00025261564987544245
1.45290e-05	-0.00025476090779398466
1.45293e-05	-0.0002535218260604743
1.45295e-05	-0.00024901149579483183
1.45298e-05	-0.00024131241996681315
1.45300e-05	-0.0002304994317943746
1.45303e-05	-0.00021664736814276133
1.45305e-05	-0.00019983108042878947
1.45308e-05	-0.00018014330570669562
1.45310e-05	-0.000157732909474939
1.45313e-05	-0.00013279785408443242
1.45315e-05	-0.00010553254731485357
1.45318e-05	-7.611222296193934e-05
1.45320e-05	-4.470730668619263e-05
1.45323e-05	-1.1488203229560346e-05
1.45325e-05	2.3374664692810887e-05
1.45328e-05	5.9699694482415734e-05
1.45330e-05	9.727012457296206e-05
1.45333e-05	0.0001360981012317366
1.45335e-05	0.00017524593278952084
1.45338e-05	0.00021508687752274264
1.45340e-05	0.00025515860290214673
1.45343e-05	0.00029523270818199865
1.45345e-05	0.00033530760587919406
1.45348e-05	0.0003749456281394368
1.45350e-05	0.00041388773166574214
1.45353e-05	0.00045188406906751484
1.45355e-05	0.0004886576680390838
1.45358e-05	0.0005239391378347907
1.45360e-05	0.000557460985149393
1.45363e-05	0.0005889557385108624
1.45365e-05	0.0006181559773850008
1.45368e-05	0.0006447541649841797
1.45370e-05	0.0006683724158730227
1.45373e-05	0.0006886835641767448
1.45375e-05	0.0007042185682673753
1.45378e-05	0.000718444666113779
1.45380e-05	0.0007287110685798039
1.45383e-05	0.0007350003215798045
1.45385e-05	0.0007363751716546053
1.45388e-05	0.0007364084664366477
1.45390e-05	0.0007322983768457977
1.45393e-05	0.0007239899770952833
1.45395e-05	0.0007106603638735368
1.45398e-05	0.0006959713696036689
1.45400e-05	0.0006774047100907066
1.45403e-05	0.0006550986059747879
1.45405e-05	0.0006285020787591773
1.45408e-05	0.0006007484332049924
1.45410e-05	0.0005686196141013738
1.45413e-05	0.0005350340265849468
1.45415e-05	0.0004975572040276643
1.45418e-05	0.00045878474639941613
1.45420e-05	0.0004168112793660446
1.45423e-05	0.0003737719964657634
1.45425e-05	0.0003282295280103021
1.45428e-05	0.00028185359281156295
1.45430e-05	0.00023362319681936218
1.45433e-05	0.00018477533505673795
1.45435e-05	0.00013482170671661858
1.45438e-05	8.449989965040709e-05
1.45440e-05	3.389642375646803e-05
1.45443e-05	-1.6693411527839757e-05
1.45445e-05	-6.691868340287953e-05
1.45448e-05	-0.00011649050533111711
1.45450e-05	-0.00016513084813834025
1.45453e-05	-0.00021255391014273742
1.45455e-05	-0.00025844721527721383
1.45458e-05	-0.00030248085436244976
1.45460e-05	-0.0003443216976857592
1.45463e-05	-0.00038363664463737264
1.45465e-05	-0.0004200926018774707
1.45468e-05	-0.00045355806889565693
1.45470e-05	-0.0004844244734872799
1.45473e-05	-0.000513318677227045
1.45475e-05	-0.0005405002272863457
1.45478e-05	-0.000565114019763221
1.45480e-05	-0.0005890126301426059
1.45483e-05	-0.0006096186158777204
1.45485e-05	-0.0006291282813129004
1.45488e-05	-0.0006452264580984255
1.45490e-05	-0.0006601887373362322
1.45493e-05	-0.0006727106581999998
1.45495e-05	-0.0006844200314114086
1.45498e-05	-0.00069327883006075
1.45500e-05	-0.0007011884944792984
1.45503e-05	-0.0007090981588977931
1.45505e-05	-0.0007133314961729937
1.45508e-05	-0.0007163407546320122
1.45510e-05	-0.0007193500130910104
1.45513e-05	-0.0007197026916031606
1.45515e-05	-0.0007191708288028382
1.45518e-05	-0.0007186389660025159
1.45520e-05	-0.0007158948586239415
1.45523e-05	-0.00071241415691663
1.45525e-05	-0.0007089334552093187
1.45528e-05	-0.0007030170239246921
1.45530e-05	-0.0006962895862031267
1.45533e-05	-0.0006895621484815614
1.45535e-05	-0.0006828347107600415
1.45538e-05	-0.0006761072730384762
1.45540e-05	-0.0006693798353169108
1.45543e-05	-0.0006615505547598126
1.45545e-05	-0.000653354401935525
1.45548e-05	-0.0006451582491112373
1.45550e-05	-0.0006369620962870053
1.45553e-05	-0.0006287659434627177
1.45555e-05	-0.0006205697906384301
1.45558e-05	-0.000613328472687516
1.45560e-05	-0.0006064050788754854
1.45563e-05	-0.0005994816850634549
1.45565e-05	-0.0005925582912514713
1.45568e-05	-0.0005856657815568604
1.45570e-05	-0.0005787835551130109
1.45573e-05	-0.000571901328669208
1.45575e-05	-0.0005650191022253585
1.45578e-05	-0.0005559728441963893
1.45580e-05	-0.0005462060449539092
1.45583e-05	-0.0005364392457113631
1.45585e-05	-0.0005250990777232242
1.45588e-05	-0.0005132350370554926
1.45590e-05	-0.0005013709963876806
1.45593e-05	-0.00048742891713334175
1.45595e-05	-0.00047279492910318606
1.45598e-05	-0.0004560480409517383
1.45600e-05	-0.000438597636443078
1.45603e-05	-0.00042114723193441777
1.45605e-05	-0.0004018156728135593
1.45608e-05	-0.00038185775988296145
1.45610e-05	-0.00036189984695236355
1.45613e-05	-0.0003402247414313414
1.45615e-05	-0.0003179778752936208
1.45618e-05	-0.0002943228251331121
1.45620e-05	-0.00027019890259960945
1.45623e-05	-0.0002460749800659434
1.45625e-05	-0.00022106801267533782
1.45628e-05	-0.00019576702452412786
1.45630e-05	-0.00017046603637274645
1.45633e-05	-0.00014463158304391005
1.45635e-05	-0.00011861950585379394
1.45638e-05	-9.260742866350156e-05
1.45640e-05	-6.671984954627493e-05
1.45643e-05	-4.087372361008159e-05
1.45645e-05	-1.5459234327989418e-05
1.45648e-05	9.389540562844538e-06
1.45650e-05	3.3633195400531735e-05
1.45653e-05	5.721689547899742e-05
1.45655e-05	8.003195511571076e-05
1.45658e-05	0.00010192263985987203
1.45660e-05	0.00012272356263938702
1.45663e-05	0.00014226935913653674
1.45665e-05	0.00016039466502148762
1.45668e-05	0.00017682424391072125
1.45670e-05	0.00019103255577864272
1.45673e-05	0.00020246711308303432
1.45675e-05	0.0002108799845205133
1.45678e-05	0.00021626190368711888
1.45680e-05	0.00021865112398166526
1.45683e-05	0.00021808599334788986
1.45685e-05	0.0002146048924682515
1.45688e-05	0.00020817732319377706
1.45690e-05	0.00019861607430102755
1.45693e-05	0.0001857170337645135
1.45695e-05	0.00016946690799919927
1.45698e-05	0.00015000190223149446
1.45700e-05	0.00012748796835024875
1.45703e-05	0.0001020911146105769
1.45705e-05	7.397734562058344e-05
1.45708e-05	4.3269551225370764e-05
1.45710e-05	9.992416342307847e-06
1.45713e-05	-2.5839922695409676e-05
1.45715e-05	-6.409382515996902e-05
1.45718e-05	-0.00010454201532439353
1.45720e-05	-0.00014693857375557627
1.45723e-05	-0.00019103758400977475
1.45725e-05	-0.00023659314054722463
1.45728e-05	-0.0002837785004757731
1.45730e-05	-0.000331390489905925
1.45733e-05	-0.00038047048109432876
1.45735e-05	-0.0004300392617142648
1.45738e-05	-0.0004796080423345368
1.45740e-05	-0.0005292893041695242
1.45743e-05	-0.0005790080180226955
1.45745e-05	-0.0006287267318762038
1.45748e-05	-0.0006766585555429314
1.45750e-05	-0.0007239954119115398
1.45753e-05	-0.0007713322682804689
1.45755e-05	-0.0008150676879435554
1.45758e-05	-0.0008576039644911263
1.45760e-05	-0.0009001402410389853
1.45763e-05	-0.000938076490778993
1.45765e-05	-0.0009744811044170431
1.45768e-05	-0.0010064995183642054
1.45770e-05	-0.0010370574926058793
1.45773e-05	-0.0010639732152174927
1.45775e-05	-0.0010896762048776961
1.45778e-05	-0.0011127144923635647
1.45780e-05	-0.001130912716453741
1.45783e-05	-0.0011477948007636812
1.45785e-05	-0.001164676885073736
1.45788e-05	-0.0011768259463609528
1.45790e-05	-0.0011825319431056909
1.45793e-05	-0.004991724321631678
1.45795e-05	-0.010905209344076381
1.45798e-05	-0.012183732549417542
1.45800e-05	-0.010672383728530584
1.45803e-05	-0.007445552079372588
1.45805e-05	-0.003035993988203733
1.45808e-05	-0.0008560161473490542
1.45810e-05	-0.0014486963105364943
1.45813e-05	-0.003535026101396419
1.45815e-05	-0.006499350041638112
1.45818e-05	-0.00804119869638754
1.45820e-05	-0.00718212218787912
1.45823e-05	-0.005064557650889944
1.45825e-05	-0.002588960290921502
1.45828e-05	-0.0010008498685605807
1.45830e-05	-0.0010065037171063137
1.45833e-05	-0.0019812546719604777
1.45835e-05	-0.0036182493506771497
1.45838e-05	-0.004346448995138315
1.45840e-05	-0.0038185771741141967
1.45843e-05	-0.002559569823754427
1.45845e-05	-0.0011607601007514198
1.45848e-05	-0.0004448975263420656
1.45850e-05	-0.0005326058427664223
1.45853e-05	-0.0012675467504255585
1.45855e-05	-0.002220939144450534
1.45858e-05	-0.002593605532284062
1.45860e-05	-0.0022583836342955897
1.45863e-05	-0.0014700422735657742
1.45865e-05	-0.0005953273472199848
1.45868e-05	-0.0001495772318827456
1.45870e-05	-0.0002079463949519784
1.45873e-05	-0.0006719137375090946
1.45875e-05	-0.0012726030422910866
1.45878e-05	-0.0015094059415222381
1.45880e-05	-0.0013027109515207614
1.45883e-05	-0.0008121440786893381
1.45885e-05	-0.0002674549354870897
1.45888e-05	8.554314387290154e-06
1.45890e-05	-3.117034550569509e-05
1.45893e-05	-0.00032489298091340434
1.45895e-05	-0.0007041775708829175
1.45898e-05	-0.0008554529716556407
1.45900e-05	-0.0007288763482555885
1.45903e-05	-0.00042446010257467156
1.45905e-05	-8.613080701751251e-05
1.45908e-05	8.391316656914099e-05
1.45910e-05	5.621252833762687e-05
1.45913e-05	-0.00013054644637772582
1.45915e-05	-0.0003708470690708993
1.45918e-05	-0.000468273842263718
1.45920e-05	-0.0003916206423892879
1.45923e-05	-0.0002035488637702963
1.45925e-05	5.77937236931198e-06
1.45928e-05	0.00010971062992120025
1.45930e-05	8.980164568311638e-05
1.45933e-05	-2.970470093733099e-05
1.45935e-05	-0.00018270712873734473
1.45938e-05	-0.00024617403148556225
1.45940e-05	-0.00020056722114487923
1.45943e-05	-8.51459983822365e-05
1.45945e-05	4.360831206253016e-05
1.45948e-05	0.00010636248943209099
1.45950e-05	9.157024370093147e-05
1.45953e-05	1.4423671530496216e-05
1.45955e-05	-8.3667611910885e-05
1.45958e-05	-0.00012563833578371948
1.45960e-05	-9.92553959975768e-05
1.45963e-05	-2.911580327554555e-05
1.45965e-05	4.939836412651441e-05
1.45968e-05	8.66364879934623e-05
1.45970e-05	7.55510222585575e-05
1.45973e-05	2.589985318577871e-05
1.45975e-05	-3.628296121748754e-05
1.45978e-05	-6.274630697262158e-05
1.45980e-05	-4.586234205203133e-05
1.45983e-05	-1.0734005357954703e-06
1.45985e-05	4.942414002782616e-05
1.45988e-05	7.449856950542398e-05
1.45990e-05	6.9706306723671e-05
1.45993e-05	4.113059798363415e-05
1.45995e-05	5.049059804035651e-06
1.45998e-05	-8.346100677026702e-06
1.46000e-05	5.689387558941678e-06
1.46003e-05	3.744888848683111e-05
1.46005e-05	7.299613609887496e-05
1.46008e-05	9.279929134903185e-05
1.46010e-05	9.404497411500819e-05
1.46013e-05	8.051374155069216e-05
1.46015e-05	6.237124876804531e-05
1.46018e-05	5.849792367897795e-05
1.46020e-05	7.183262142102038e-05
1.46023e-05	9.626234511701284e-05
1.46025e-05	0.00012302531070258396
1.46028e-05	0.00013985566339266443
1.46030e-05	0.00014496058013354187
1.46033e-05	0.00014067769151681928
1.46035e-05	0.0001333438242903865
1.46038e-05	0.00013475388798462617
1.46040e-05	0.00014671641818923302
1.46043e-05	0.00016536995396929384
1.46045e-05	0.00018519426429938448
1.46048e-05	0.00019847480237225165
1.46050e-05	0.00020405770785592996
1.46053e-05	0.0002033764258100756
1.46055e-05	0.00020036922433325197
1.46058e-05	0.00020239279255437082
1.46060e-05	0.00021054802706510175
1.46063e-05	0.00022238414047204025
1.46065e-05	0.00023441164205772997
1.46068e-05	0.00024193216461778938
1.46070e-05	0.00024491239896351784
1.46073e-05	0.00024518718083728163
1.46075e-05	0.00024561446761353194
1.46078e-05	0.00025075211620296693
1.46080e-05	0.0002612005847713789
1.46083e-05	0.00027533478028832106
1.46085e-05	0.00029087915035165015
1.46088e-05	0.0003048010668503528
1.46090e-05	0.00031699034650434937
1.46093e-05	0.0003285068695085477
1.46095e-05	0.00034105129731851235
1.46098e-05	0.00035738891698411813
1.46100e-05	0.00037780593698903816
1.46103e-05	0.0004011945655096881
1.46105e-05	0.00042603955712413563
1.46108e-05	0.0004503518105261915
1.46110e-05	0.0004739726972102862
1.46113e-05	0.0004974766327811128
1.46115e-05	0.0005230665697953474
1.46118e-05	0.0005487695012478899
1.46120e-05	0.0005781577165387363
1.46123e-05	0.0006097580848273033
1.46125e-05	0.0006414672610826934
1.46128e-05	0.0006729112305405511
1.46130e-05	0.000703393740759382
1.46133e-05	0.0007338250551309082
1.46135e-05	0.0007645784280226214
1.46138e-05	0.0007953492094723865
1.46140e-05	0.0008274944275665435
1.46143e-05	0.0008598281399381936
1.46145e-05	0.0008921680253031924
1.46148e-05	0.0009223030357480874
1.46150e-05	0.0009523188638360133
1.46153e-05	0.000979695159491025
1.46155e-05	0.001006928777802609
1.46158e-05	0.0010329636227335225
1.46160e-05	0.0010581596684184308
1.46163e-05	0.0010820941182622266
1.46165e-05	0.00110421373381777
1.46168e-05	0.0011238258051108208
1.46170e-05	0.0011392633229111782
1.46173e-05	0.0011544822397259525
1.46175e-05	0.0011646713115144
1.46178e-05	0.0011745884999501929
1.46180e-05	0.0011801048293928332
1.46183e-05	0.0011853832747074314
1.46185e-05	0.0011855069061290288
1.46188e-05	0.0011853518991280163
1.46190e-05	0.001179399176092056
1.46193e-05	0.001173133063187039
1.46195e-05	0.0011616206324507258
1.46198e-05	0.0011498246171360081
1.46200e-05	0.0011335892526379962
1.46203e-05	0.0011171139234624047
1.46205e-05	0.0010961398255274802
1.46208e-05	0.001074922551048056
1.46210e-05	0.0010492167240002417
1.46213e-05	0.001023268272633966
1.46215e-05	0.0009935896414118395
1.46218e-05	0.0009637093789661809
1.46220e-05	0.0009303992190512987
1.46223e-05	0.0008969036593839782
1.46225e-05	0.0008634080997164306
1.46228e-05	0.0008265551499248448
1.46230e-05	0.0007895207196944384
1.46233e-05	0.0007524862894637812
1.46235e-05	0.0007137790729951321
1.46238e-05	0.0006749814357029007
1.46240e-05	0.0006361837984104063
1.46243e-05	0.0005976640415145946
1.46245e-05	0.0005591593051720778
1.46248e-05	0.0005206545688292999
1.46250e-05	0.0004834814071470475
1.46253e-05	0.0004463802224308507
1.46255e-05	0.0004107473252595324
1.46258e-05	0.000376554978142304
1.46260e-05	0.00034403349611781604
1.46263e-05	0.00031340198102915796
1.46265e-05	0.0002848698080713752
1.46268e-05	0.00025849106932070403
1.46270e-05	0.0002338609390632664
1.46273e-05	0.00021032241660291553
1.46275e-05	0.00018764961070762005
1.46278e-05	0.000165997033623841
1.46280e-05	0.0001455146495537077
1.46283e-05	0.00012633241493541434
1.46285e-05	0.00010857426283364876
1.46288e-05	9.226674638649196e-05
1.46290e-05	7.714904395961453e-05
1.46293e-05	6.280236094320035e-05
1.46295e-05	4.907799589460252e-05
1.46298e-05	3.606552919821956e-05
1.46300e-05	2.3851671891982334e-05
1.46303e-05	1.2510622955132361e-05
1.46305e-05	2.1127768344909055e-06
1.46308e-05	-7.3324636899093165e-06
1.46310e-05	-1.599570706756657e-05
1.46313e-05	-2.4146480709253994e-05
1.46315e-05	-3.1885128163114314e-05
1.46318e-05	-3.916271240681501e-05
1.46320e-05	-4.593211140070987e-05
1.46323e-05	-5.2154038984968556e-05
1.46325e-05	-5.779159663320349e-05
1.46328e-05	-6.28460901943587e-05
1.46330e-05	-6.7431582060849e-05
1.46333e-05	-7.172407951476082e-05
1.46335e-05	-7.567601205843005e-05
1.46338e-05	-7.961032242922674e-05
1.46340e-05	-8.303474132400039e-05
1.46343e-05	-8.643159853373687e-05
1.46345e-05	-8.926545042817377e-05
1.46348e-05	-9.206886962096103e-05
1.46350e-05	-9.446005860190814e-05
1.46353e-05	-9.682896488191792e-05
1.46355e-05	-9.919787116194376e-05
1.46358e-05	-0.00010135439505784251
1.46360e-05	-0.00010349943883167067
1.46363e-05	-0.0001056444826055134
1.46365e-05	-0.0001077895263793561
1.46368e-05	-0.00010993457015318428
1.46370e-05	-0.00011207961392702698
1.46373e-05	-0.00011422465770086969
1.46375e-05	-0.00011697271510998827
1.46378e-05	-0.00011975336783138191
1.46380e-05	-0.00012253402055279437
1.46383e-05	-0.00012588711130911206
1.46385e-05	-0.0001292711446435306
1.46388e-05	-0.0001326551779779721
1.46390e-05	-0.00013672905271044412
1.46393e-05	-0.00014084021614498878
1.46395e-05	-0.0001449513795795613
1.46398e-05	-0.0001498821208347575
1.46400e-05	-0.0001548571635674667
1.46403e-05	-0.00015983220630020963
1.46405e-05	-0.00016542731200532625
1.46408e-05	-0.0001710559346079595
1.46410e-05	-0.00017668455721063088
1.46413e-05	-0.00018320867887187332
1.46415e-05	-0.00018978120585889772
1.46418e-05	-0.00019635373284596663
1.46420e-05	-0.00020292625983303557
1.46423e-05	-0.00020949878682005997
1.46425e-05	-0.00021607131380712888
1.46428e-05	-0.00022288735060753512
1.46430e-05	-0.00023000255657227683
1.46433e-05	-0.0002371177625370668
1.46435e-05	-0.0002442329685018567
1.46438e-05	-0.00025134817446659843
1.46440e-05	-0.0002584633804313884
