Time(s)	Current(A)
1.00500e-05	0.00814612158292087
1.00503e-05	0.008132056982229663
1.00505e-05	0.008117992381538455
1.00508e-05	0.008103927780847344
1.00510e-05	0.008089863180156136
1.00513e-05	0.008098783780136887
1.00515e-05	0.008110183858318683
1.00518e-05	0.008121583936500558
1.00520e-05	0.00813298401468243
1.00523e-05	0.008144384092864226
1.00525e-05	0.008155784171046098
1.00528e-05	0.00816718424922797
1.00530e-05	0.008178584327409767
1.00533e-05	0.00818998440559164
1.00535e-05	0.008201384483773513
1.00538e-05	0.00821278456195531
1.00540e-05	0.008224184640137182
1.00543e-05	0.008235584718319054
1.00545e-05	0.008251790889111649
1.00548e-05	0.008275127694238946
1.00550e-05	0.008298464499366243
1.00552e-05	0.008321801304493382
1.00555e-05	0.008345138109620679
1.00558e-05	0.008368474914747976
1.00560e-05	0.008391811719875113
1.00563e-05	0.00841514852500241
1.00565e-05	0.008438485330129707
1.00567e-05	0.008461822135256846
1.00570e-05	0.008485158940384143
1.00573e-05	0.00850849574551144
1.00575e-05	0.00853183255063858
1.00578e-05	0.008555169355765876
1.00580e-05	0.008565660829016592
1.00582e-05	0.008574766640212523
1.00585e-05	0.008583872451408516
1.00588e-05	0.008592978262604509
1.00590e-05	0.008602084073800502
1.00593e-05	0.008611189884996432
1.00595e-05	0.008620295696192425
1.00598e-05	0.008629401507388418
1.00600e-05	0.00863850731858435
1.00603e-05	0.008647613129780343
1.00605e-05	0.008656718940976336
1.00608e-05	0.008665824752172266
1.00610e-05	0.008674930563368259
1.00613e-05	0.008684036374564252
1.00615e-05	0.008693142185760182
1.00618e-05	0.008694027391698722
1.00620e-05	0.008682715968304723
1.00623e-05	0.008671404544910803
1.00625e-05	0.008660093121516806
1.00628e-05	0.008648781698122807
1.00630e-05	0.008637470274728887
1.00633e-05	0.008626158851334888
1.00635e-05	0.008614847427940891
1.00637e-05	0.00860353600454697
1.00640e-05	0.008592224581152972
1.00643e-05	0.008580913157758975
1.00645e-05	0.008569601734365053
1.00648e-05	0.008558290310971056
1.00650e-05	0.008546978887577057
1.00652e-05	0.008535667464183137
1.00655e-05	0.00852435604078914
1.00658e-05	0.008508859261141566
1.00660e-05	0.008492910995350733
1.00663e-05	0.008476962729559796
1.00665e-05	0.008461014463768856
1.00667e-05	0.008445066197978024
1.00670e-05	0.008429117932187084
1.00673e-05	0.008413169666396145
1.00675e-05	0.008397221400605207
1.00678e-05	0.008381273134814375
1.00680e-05	0.008365324869023435
1.00683e-05	0.008349376603232496
1.00685e-05	0.008333428337441665
1.00688e-05	0.008319874657872641
1.00690e-05	0.00830987374353739
1.00693e-05	0.008299872829202207
1.00695e-05	0.008289871914866956
1.00698e-05	0.008279871000531704
1.00700e-05	0.008269870086196522
1.00703e-05	0.008259869171861271
1.00705e-05	0.00824986825752602
1.00708e-05	0.008239867343190837
1.00710e-05	0.008229866428855587
1.00713e-05	0.008219865514520336
1.00715e-05	0.008209864600185152
1.00718e-05	0.008199863685849901
1.00720e-05	0.008193719125002883
1.00722e-05	0.008187990559846458
1.00725e-05	0.008182261994689997
1.00728e-05	0.008176533429533533
1.00730e-05	0.00817080486437711
1.00733e-05	0.008165076299220649
1.00735e-05	0.008159347734064185
1.00737e-05	0.008153619168907762
1.00740e-05	0.008147890603751299
1.00743e-05	0.008142162038594837
1.00745e-05	0.008136433473438414
1.00748e-05	0.00813070490828195
1.00750e-05	0.008124976343125489
1.00752e-05	0.008119247777969064
1.00755e-05	0.008113519212812602
1.00758e-05	0.008107790647656139
1.00760e-05	0.008102062082499677
1.00763e-05	0.008096333517343254
1.00765e-05	0.00809060495218679
1.00768e-05	0.00808487638703033
1.00770e-05	0.008079147821873904
1.00773e-05	0.008073419256717443
1.00775e-05	0.00806769069156098
1.00778e-05	0.008061962126404556
1.00780e-05	0.008056233561248094
1.00783e-05	0.008050504996091631
1.00785e-05	0.008044776430935208
1.00788e-05	0.008039047865778744
1.00790e-05	0.008033319300622283
1.00793e-05	0.008034071028920776
1.00795e-05	0.008035521804690025
1.00798e-05	0.008036972580459276
1.00800e-05	0.008038423356228518
1.00803e-05	0.00803987413199777
1.00805e-05	0.008041324907767019
1.00808e-05	0.00804277568353626
1.00810e-05	0.008044226459305512
1.00813e-05	0.008045677235074763
1.00815e-05	0.008047128010844003
1.00818e-05	0.008048578786613254
1.00820e-05	0.008050029562382505
1.00822e-05	0.008051480338151746
1.00825e-05	0.008052931113920997
1.00828e-05	0.008054381889690248
1.00830e-05	0.008055832665459488
1.00833e-05	0.00805728344122874
1.00835e-05	0.00805873421699799
1.00837e-05	0.008060184992767231
1.00840e-05	0.008061635768536482
1.00843e-05	0.008063086544305733
1.00845e-05	0.008064537320074984
1.00848e-05	0.008065988095844225
1.00850e-05	0.008067438871613476
1.00853e-05	0.008068889647382727
1.00855e-05	0.008070340423151967
1.00858e-05	0.008071791198921218
1.00860e-05	0.008073241974690469
1.00863e-05	0.00807469275045971
1.00865e-05	0.008076899263052573
1.00868e-05	0.008079187299100987
1.00870e-05	0.008081475335149385
1.00873e-05	0.008083763371197799
1.00875e-05	0.008086051407246213
1.00878e-05	0.008088339443294611
1.00880e-05	0.008090627479343023
1.00883e-05	0.008092915515391437
1.00885e-05	0.008095203551439835
1.00888e-05	0.008097491587488249
1.00890e-05	0.008099779623536663
1.00893e-05	0.008102067659585061
1.00895e-05	0.008104355695633475
1.00898e-05	0.008106643731681887
1.00900e-05	0.008108931767730285
1.00903e-05	0.0081112198037787
1.00905e-05	0.008113507839827113
1.00907e-05	0.008115795875875511
1.00910e-05	0.008118083911923925
1.00913e-05	0.008120371947972339
1.00915e-05	0.008122659984020736
1.00918e-05	0.00812494802006915
1.00920e-05	0.008127236056117563
1.00922e-05	0.008129524092165961
1.00925e-05	0.008131812128214375
1.00928e-05	0.008131916685048252
1.00930e-05	0.008131785703841357
1.00933e-05	0.008131654722634465
1.00935e-05	0.00813152374142757
1.00938e-05	0.008131392760220678
1.00940e-05	0.008131261779013783
1.00943e-05	0.00813113079780689
1.00945e-05	0.008130999816599996
1.00948e-05	0.008130868835393103
1.00950e-05	0.008130737854186209
1.00953e-05	0.008130606872979314
1.00955e-05	0.008130475891772421
1.00958e-05	0.008130344910565527
1.00960e-05	0.008130213929358634
1.00963e-05	0.00813008294815174
1.00965e-05	0.008129951966944847
1.00968e-05	0.008129820985737952
1.00970e-05	0.00812969000453106
1.00973e-05	0.008129559023324165
1.00975e-05	0.00812942804211727
1.00978e-05	0.008129297060910378
1.00980e-05	0.008129166079703484
1.00983e-05	0.00812903509849659
1.00985e-05	0.008128904117289696
1.00988e-05	0.008128773136082804
1.00990e-05	0.008120396750931494
1.00992e-05	0.008111130910877997
1.00995e-05	0.00810186507082444
1.00998e-05	0.008092599230770882
1.01000e-05	0.008083333390717385
1.01003e-05	0.008074067550663828
1.01005e-05	0.008064801710610268
1.01007e-05	0.008055535870556773
1.01010e-05	0.008046270030503216
1.01013e-05	0.008037004190449656
1.01015e-05	0.008027738350396099
1.01018e-05	0.008018472510342604
1.01020e-05	0.008002760780404662
1.01023e-05	0.007977485505293464
1.01025e-05	0.007952210230182437
1.01028e-05	0.00792693495507124
1.01030e-05	0.00790165967996004
1.01033e-05	0.007876384404849014
1.01035e-05	0.007851109129737814
1.01038e-05	0.007825833854626617
1.01040e-05	0.007800558579515589
1.01043e-05	0.007775283304404391
1.01045e-05	0.007750008029293192
1.01048e-05	0.007724732754182165
1.01050e-05	0.007699457479070967
1.01053e-05	0.007670011506009794
1.01055e-05	0.007640115628036378
1.01058e-05	0.007610219750062761
1.01060e-05	0.007580323872089142
1.01063e-05	0.0075504279941157266
1.01065e-05	0.007520532116142108
1.01068e-05	0.0074906362381684894
1.01070e-05	0.007460740360195074
1.01073e-05	0.007430844482221456
1.01075e-05	0.007400948604247838
1.01077e-05	0.007371052726274422
1.01080e-05	0.0073550623004539776
1.01083e-05	0.007340571894848371
1.01085e-05	0.007326081489242862
1.01088e-05	0.007311591083637255
1.01090e-05	0.007297100678031649
1.01092e-05	0.00728261027242614
1.01095e-05	0.007268119866820533
1.01098e-05	0.007253629461214927
1.01100e-05	0.00723913905560932
1.01103e-05	0.0072246486500038105
1.01105e-05	0.007210158244398204
1.01108e-05	0.0072250247475494425
1.01110e-05	0.007243058062976932
1.01113e-05	0.007261091378404544
1.01115e-05	0.007279124693832155
1.01118e-05	0.007297158009259644
1.01120e-05	0.007315191324687256
1.01123e-05	0.0073332246401148675
1.01125e-05	0.007351257955542357
1.01128e-05	0.007369291270969968
1.01130e-05	0.00738732458639758
1.01133e-05	0.007405357901825069
1.01135e-05	0.007423391217252681
1.01138e-05	0.0074618359455962515
1.01140e-05	0.007502482510432302
1.01143e-05	0.007543129075268628
1.01145e-05	0.007583775640104954
1.01148e-05	0.007624422204941006
1.01150e-05	0.007665068769777332
1.01153e-05	0.007705715334613658
1.01155e-05	0.007746361899449709
1.01158e-05	0.007787008464286036
1.01160e-05	0.007827655029122362
1.01162e-05	0.007868301593958413
1.01165e-05	0.007908948158794738
1.01168e-05	0.007945449021002372
1.01170e-05	0.007981502674612508
1.01173e-05	0.008017556328222887
1.01175e-05	0.008053609981833267
1.01177e-05	0.008089663635443403
1.01180e-05	0.008125717289053784
1.01183e-05	0.008161770942664162
1.01185e-05	0.008197824596274543
1.01188e-05	0.008233878249884679
1.01190e-05	0.008262068908572619
1.01193e-05	0.008278593512064954
1.01195e-05	0.008295118115557177
1.01198e-05	0.008311642719049514
1.01200e-05	0.008328167322541848
1.01203e-05	0.008344691926034072
1.01205e-05	0.008361216529526407
1.01208e-05	0.008377741133018743
1.01210e-05	0.008394265736510965
1.01213e-05	0.008410790340003301
1.01215e-05	0.008409074973546907
1.01218e-05	0.008405392010253756
1.01220e-05	0.008401709046960578
1.01223e-05	0.008398026083667399
1.01225e-05	0.008394343120374247
1.01228e-05	0.00839066015708107
1.01230e-05	0.008386977193787892
1.01233e-05	0.008383294230494739
1.01235e-05	0.008379611267201562
1.01238e-05	0.008375928303908384
1.01240e-05	0.00837224534061523
1.01243e-05	0.008368562377322053
1.01245e-05	0.008364879414028876
1.01247e-05	0.008361196450735723
1.01250e-05	0.008353819633465516
1.01253e-05	0.00834096237206265
1.01255e-05	0.008328105110659872
1.01258e-05	0.008315247849257006
1.01260e-05	0.00830239058785414
1.01262e-05	0.008289533326451362
1.01265e-05	0.008276676065048496
1.01268e-05	0.00826381880364563
1.01270e-05	0.008250961542242766
1.01273e-05	0.008238104280839986
1.01275e-05	0.008225247019437122
1.01278e-05	0.008212389758034256
1.01280e-05	0.008199532496631476
1.01283e-05	0.008186675235228612
1.01285e-05	0.008173817973825746
1.01288e-05	0.008157142562657899
1.01290e-05	0.00814005527694057
1.01293e-05	0.008122967991223242
1.01295e-05	0.00810588070550603
1.01298e-05	0.0080887934197887
1.01300e-05	0.008071706134071372
1.01303e-05	0.008054618848354159
1.01305e-05	0.008037531562636832
1.01308e-05	0.008020444276919503
1.01310e-05	0.007985407918919099
1.01313e-05	0.007948435344029439
1.01315e-05	0.007911462769139779
1.01318e-05	0.00787449019425037
1.01320e-05	0.00783751761936071
1.01323e-05	0.00780054504447105
1.01325e-05	0.007763572469581641
1.01328e-05	0.007726599894691981
1.01330e-05	0.007689627319802321
1.01332e-05	0.007636558121689537
1.01335e-05	0.007581752535575011
1.01338e-05	0.0075269469494604856
1.01340e-05	0.007472141363346331
1.01343e-05	0.007417335777231805
1.01345e-05	0.007362530191117279
1.01347e-05	0.007307724605003125
1.01350e-05	0.007252919018888599
1.01353e-05	0.007198113432774073
1.01355e-05	0.007143307846659548
1.01358e-05	0.007088476873207187
1.01360e-05	0.007033643161150908
1.01363e-05	0.0069788094490946286
1.01365e-05	0.0069239757370387215
1.01368e-05	0.006869142024982442
1.01370e-05	0.006814308312926163
1.01373e-05	0.006759474600870255
1.01375e-05	0.006704640888813976
1.01378e-05	0.006649807176757697
1.01380e-05	0.006594973464701789
1.01383e-05	0.006560456408378277
1.01385e-05	0.006528130966828345
1.01388e-05	0.006495805525278633
1.01390e-05	0.006463480083728702
1.01393e-05	0.006431154642178771
1.01395e-05	0.0063988292006290585
1.01398e-05	0.006366503759079127
1.01400e-05	0.006334178317529196
1.01403e-05	0.0063018528759794835
1.01405e-05	0.006269527434429553
1.01408e-05	0.006237201992879621
1.01410e-05	0.006204876551329909
1.01413e-05	0.006172551109779978
1.01415e-05	0.006140225668230047
1.01417e-05	0.006120178169112602
1.01420e-05	0.006101455126164696
1.01423e-05	0.0060827320832167915
1.01425e-05	0.0060640090402690125
1.01428e-05	0.006045285997321107
1.01430e-05	0.006026562954373202
1.01432e-05	0.006007839911425423
1.01435e-05	0.005989116868477518
1.01438e-05	0.005970393825529613
1.01440e-05	0.005951670782581707
1.01443e-05	0.005932947739633929
1.01445e-05	0.005914224696686023
1.01448e-05	0.0058955016537381175
1.01450e-05	0.005876778610790339
1.01453e-05	0.005863763088744646
1.01455e-05	0.005851363253025631
1.01458e-05	0.0058389634173067
1.01460e-05	0.005826563581587685
1.01463e-05	0.00581416374586867
1.01465e-05	0.005801763910149738
1.01468e-05	0.005789364074430724
1.01470e-05	0.005776964238711708
1.01473e-05	0.005764564402992778
1.01475e-05	0.005752164567273762
1.01478e-05	0.005739764731554747
1.01480e-05	0.0057273648958358165
1.01483e-05	0.005714965060116801
1.01485e-05	0.0057077250611263786
1.01488e-05	0.005708140534474941
1.01490e-05	0.005708556007823506
1.01493e-05	0.005708971481172071
1.01495e-05	0.005709386954520633
1.01498e-05	0.005709802427869198
1.01500e-05	0.005710217901217763
1.01502e-05	0.0057106333745663256
1.01505e-05	0.00571104884791489
1.01508e-05	0.005711464321263455
1.01510e-05	0.005711879794612017
1.01513e-05	0.005712295267960583
1.01515e-05	0.005712710741309147
1.01517e-05	0.00571312621465771
1.01520e-05	0.005730748031196766
1.01523e-05	0.005750225944352917
1.01525e-05	0.005769703857509069
1.01528e-05	0.005789181770665088
1.01530e-05	0.00580865968382124
1.01533e-05	0.005828137596977392
1.01535e-05	0.005847615510133412
1.01538e-05	0.005867093423289563
1.01540e-05	0.005886571336445715
1.01543e-05	0.005906049249601735
1.01545e-05	0.005925527162757887
1.01548e-05	0.005945005075914039
1.01550e-05	0.005970045296025288
1.01553e-05	0.005995685537827027
1.01555e-05	0.006021325779628765
1.01558e-05	0.006046966021430331
1.01560e-05	0.006072606263232069
1.01563e-05	0.006098246505033808
1.01565e-05	0.0061238867468353725
1.01568e-05	0.006149526988637111
1.01570e-05	0.00617516723043885
1.01573e-05	0.006200807472240415
1.01575e-05	0.006226447714042154
1.01578e-05	0.006252087955843893
1.01580e-05	0.006272415350710634
1.01583e-05	0.006292169633840803
1.01585e-05	0.006311923916970972
1.01587e-05	0.006331678200101007
1.01590e-05	0.006351432483231176
1.01593e-05	0.006371186766361345
1.01595e-05	0.0063909410494913796
1.01598e-05	0.0064106953326215485
1.01600e-05	0.006430449615751718
1.01602e-05	0.006454215464235072
1.01605e-05	0.006483933134302433
1.01608e-05	0.006513650804369794
1.01610e-05	0.006543368474437154
1.01613e-05	0.006573086144504314
1.01615e-05	0.006602803814571674
1.01618e-05	0.006632521484639034
1.01620e-05	0.0066622391547061935
1.01623e-05	0.006691956824773554
1.01625e-05	0.006721674494840914
1.01628e-05	0.006764350661858817
1.01630e-05	0.006808424698378453
1.01633e-05	0.006852498734898088
1.01635e-05	0.006896572771417426
1.01638e-05	0.006940646807937061
1.01640e-05	0.006984720844456697
1.01643e-05	0.007028794880976034
1.01645e-05	0.00707286891749567
1.01648e-05	0.007116942954015305
1.01650e-05	0.007161016990534643
1.01653e-05	0.007205091027054278
1.01655e-05	0.007249569602630986
1.01658e-05	0.007294091816972931
1.01660e-05	0.007338614031315179
1.01663e-05	0.007383136245657426
1.01665e-05	0.007427658459999372
1.01668e-05	0.007472180674341619
1.01670e-05	0.007516702888683866
1.01672e-05	0.007561225103025812
1.01675e-05	0.007605747317368059
1.01678e-05	0.007650269531710307
1.01680e-05	0.007694791746052252
1.01683e-05	0.00771698697832924
1.01685e-05	0.007736773736272686
1.01687e-05	0.007756560494215998
1.01690e-05	0.007776347252159444
1.01693e-05	0.0077961340101028904
1.01695e-05	0.007815920768046202
1.01698e-05	0.007835707525989648
1.01700e-05	0.007855494283933095
1.01703e-05	0.007875281041876542
1.01705e-05	0.007895067799819853
1.01708e-05	0.0079148545577633
1.01710e-05	0.007920936483552366
1.01713e-05	0.007906685021085106
1.01715e-05	0.007892433558617752
1.01718e-05	0.007878182096150396
1.01720e-05	0.007863930633683137
1.01723e-05	0.007849679171215781
1.01725e-05	0.007835427708748425
1.01728e-05	0.007821176246281166
1.01730e-05	0.007806924783813811
1.01733e-05	0.0077926733213464555
1.01735e-05	0.007778421858879197
1.01738e-05	0.007764170396411842
1.01740e-05	0.007731579573070283
1.01743e-05	0.007697010431305082
1.01745e-05	0.007662441289539646
1.01748e-05	0.00762787214777421
1.01750e-05	0.007593303006009009
1.01753e-05	0.007558733864243574
1.01755e-05	0.007524164722478138
1.01757e-05	0.007489595580712937
1.01760e-05	0.007455026438947502
1.01763e-05	0.0074204572971820655
1.01765e-05	0.007387046180005086
1.01768e-05	0.007355353184093533
1.01770e-05	0.00732366018818198
1.01772e-05	0.007291967192270642
1.01775e-05	0.007260274196359089
1.01778e-05	0.007228581200447537
1.01780e-05	0.007196888204536198
1.01783e-05	0.007165195208624645
1.01785e-05	0.007133502212713093
1.01788e-05	0.00710180921680154
1.01790e-05	0.0070701162208902015
1.01793e-05	0.007049454523806325
1.01795e-05	0.007029982803945295
1.01798e-05	0.007010511084084395
1.01800e-05	0.006991039364223365
1.01803e-05	0.006971567644362335
1.01805e-05	0.006952095924501436
1.01808e-05	0.006932624204640405
1.01810e-05	0.006913152484779375
1.01813e-05	0.006893680764918476
1.01815e-05	0.006874209045057446
1.01818e-05	0.006854737325196415
1.01820e-05	0.006835265605335516
1.01823e-05	0.006815793885474486
1.01825e-05	0.006796322165613455
1.01828e-05	0.0067768504457525565
1.01830e-05	0.006757378725891526
1.01833e-05	0.006737907006030495
1.01835e-05	0.006720402726250699
1.01838e-05	0.006705817469674161
1.01840e-05	0.006691232213097623
1.01842e-05	0.006676646956521184
1.01845e-05	0.006662061699944645
1.01848e-05	0.006647476443368107
1.01850e-05	0.006632891186791668
1.01853e-05	0.00661830593021513
1.01855e-05	0.0066037206736385915
1.01857e-05	0.0065891354170621525
1.01860e-05	0.006574550160485615
1.01863e-05	0.006559964903909077
1.01865e-05	0.006545379647332638
1.01868e-05	0.006530794390756099
1.01870e-05	0.006516209134179561
1.01873e-05	0.006501623877603023
1.01875e-05	0.006487038621026584
1.01878e-05	0.006472453364450046
1.01880e-05	0.00646530925106242
1.01883e-05	0.006458967834714649
1.01885e-05	0.0064526264183668355
1.01888e-05	0.006446285002019022
1.01890e-05	0.006439943585671251
1.01893e-05	0.006433602169323437
1.01895e-05	0.0064272607529756234
1.01898e-05	0.006420919336627853
1.01900e-05	0.006414577920280039
1.01903e-05	0.006408236503932225
1.01905e-05	0.006401895087584454
1.01908e-05	0.006395553671236641
1.01910e-05	0.006389212254888827
1.01913e-05	0.006382870838541056
1.01915e-05	0.006376529422193242
1.01918e-05	0.006370188005845429
1.01920e-05	0.0063638465894976575
1.01923e-05	0.006357505173149844
1.01925e-05	0.00635116375680203
1.01927e-05	0.006344822340454259
1.01930e-05	0.0063384809241064455
1.01933e-05	0.006332139507758632
1.01935e-05	0.006325798091410861
1.01938e-05	0.006319456675063047
1.01940e-05	0.0063131152587152335
1.01942e-05	0.006306773842367463
1.01945e-05	0.006300432426019649
1.01948e-05	0.006294091009671835
1.01950e-05	0.006287749593324064
1.01953e-05	0.006281408176976251
1.01955e-05	0.006275066760628437
1.01958e-05	0.006268725344280623
1.01960e-05	0.006262383927932852
1.01963e-05	0.006256042511585039
1.01965e-05	0.006249701095237225
1.01968e-05	0.006243359678889454
1.01970e-05	0.00623701826254164
1.01973e-05	0.006230676846193826
1.01975e-05	0.0062243354298460556
1.01978e-05	0.006217994013498242
1.01980e-05	0.006211652597150428
1.01983e-05	0.006205311180802657
1.01985e-05	0.0061989697644548435
1.01988e-05	0.00619262834810703
1.01990e-05	0.006186286931759259
1.01993e-05	0.006181869067284582
1.01995e-05	0.006180305110589638
1.01998e-05	0.006178741153894705
1.02000e-05	0.006177177197199762
1.02003e-05	0.006175613240504817
1.02005e-05	0.0061740492838098845
1.02008e-05	0.00617248532711494
1.02010e-05	0.006170921370419997
1.02012e-05	0.006169357413725063
