Time(s)	Current(A)
1.32500e-05	0.002529067553819804
1.32503e-05	0.0025070110562303233
1.32505e-05	0.00248595863352256
1.32508e-05	0.0024659706787289494
1.32510e-05	0.0024472681253998227
1.32513e-05	0.002430078126961066
1.32515e-05	0.0024146278766675085
1.32518e-05	0.0024011492896077666
1.32520e-05	0.002390032676150654
1.32523e-05	0.0023819614424592183
1.32525e-05	0.002377593140360223
1.32528e-05	0.0023772078538568508
1.32530e-05	0.002381990299182312
1.32533e-05	0.0023891754528454945
1.32535e-05	0.0024009993812939613
1.32538e-05	0.002415969460358381
1.32540e-05	0.0024370519673293967
1.32543e-05	0.002462280098891868
1.32545e-05	0.0024875082304543395
1.32548e-05	0.0025203591155773864
1.32550e-05	0.0025583799716349907
1.32553e-05	0.002596400827692595
1.32555e-05	0.0026389954838713365
1.32558e-05	0.002686769793633325
1.32560e-05	0.00273796650754526
1.32563e-05	0.0027925519100090376
1.32565e-05	0.0028504819043966827
1.32568e-05	0.002911564448020873
1.32570e-05	0.0029755023035888764
1.32573e-05	0.0030419765824022124
1.32575e-05	0.0031106683559321293
1.32578e-05	0.003181260078196937
1.32580e-05	0.0032534727910558205
1.32583e-05	0.003327099834684029
1.32585e-05	0.003401928062149094
1.32588e-05	0.003477651485659429
1.32590e-05	0.003553898647062413
1.32593e-05	0.003630284444472925
1.32595e-05	0.0037064233597995885
1.32598e-05	0.00378193098002472
1.32600e-05	0.0038564474181869857
1.32603e-05	0.003929657501765654
1.32605e-05	0.004001242505677255
1.32608e-05	0.0040708256319203565
1.32610e-05	0.004137988803280346
1.32613e-05	0.0042023051965456954
1.32615e-05	0.0042633483552592865
1.32618e-05	0.004320696361422173
1.32620e-05	0.004373015156371781
1.32623e-05	0.004422982242314407
1.32625e-05	0.004467819659482101
1.32628e-05	0.004509177987596054
1.32630e-05	0.004550536315710008
1.32633e-05	0.0045841229109903625
1.32635e-05	0.004612438493303006
1.32638e-05	0.0046407540756156496
1.32640e-05	0.004669069657928101
1.32643e-05	0.004688773900640358
1.32645e-05	0.004702637684901429
1.32648e-05	0.0047165014691624065
1.32650e-05	0.004730365253423478
1.32653e-05	0.004737535051854088
1.32655e-05	0.004740164796363932
1.32658e-05	0.0047427945408737935
1.32660e-05	0.004740184783992484
1.32663e-05	0.004734021446414122
1.32665e-05	0.004727858108835718
1.32668e-05	0.004717646271638695
1.32670e-05	0.004704688625437729
1.32673e-05	0.004691730979236674
1.32675e-05	0.004675473822494783
1.32678e-05	0.004656978842706048
1.32680e-05	0.004638483862917189
1.32683e-05	0.00461781220876977
1.32685e-05	0.004595664271402561
1.32688e-05	0.004573516334035201
1.32690e-05	0.004550522893623373
1.32693e-05	0.004526956008703531
1.32695e-05	0.004503250804054493
1.32698e-05	0.0044794517869827695
1.32700e-05	0.004456048167331217
1.32703e-05	0.004432912717593907
1.32705e-05	0.004410867177376455
1.32708e-05	0.00438956084517569
1.32710e-05	0.004370475582833318
1.32713e-05	0.004352896714017021
1.32715e-05	0.004335317845200725
1.32718e-05	0.004320059843626674
1.32720e-05	0.004307319047936504
1.32723e-05	0.00429525120468808
1.32725e-05	0.004282212733597528
1.32728e-05	0.0042685006385008205
1.32730e-05	0.0042535485678459415
1.32733e-05	0.004237755510066578
1.32735e-05	0.004221962452287106
1.32738e-05	0.00420566032611006
1.32740e-05	0.004189012935088921
1.32743e-05	0.004169729869569833
1.32745e-05	0.004148659213720589
1.32748e-05	0.004127588557871487
1.32750e-05	0.004106517902022241
1.32753e-05	0.004084929149977675
1.32755e-05	0.004058454132708402
1.32758e-05	0.00403197911543895
1.32760e-05	0.004005504098169498
1.32763e-05	0.003979029080900224
1.32765e-05	0.003949997807749311
1.32768e-05	0.0039192328082603214
1.32770e-05	0.0038884678087715407
1.32773e-05	0.003856342549667231
1.32775e-05	0.00382329472332743
1.32778e-05	0.0037902468969878526
1.32780e-05	0.0037567593702189255
1.32783e-05	0.003722973625959171
1.32785e-05	0.0036891878816996447
1.32788e-05	0.0036552482792859475
1.32790e-05	0.0036212043258423803
1.32793e-05	0.0035871603723988134
1.32795e-05	0.00355431671603559
1.32798e-05	0.0035222871357107016
1.32800e-05	0.0034902575553858134
1.32803e-05	0.003459899396260043
1.32805e-05	0.0034306748431145746
1.32808e-05	0.0034031713786333907
1.32810e-05	0.003376835206037949
1.32813e-05	0.0033521982711965438
1.32815e-05	0.0033300707845224675
1.32818e-05	0.0033103956991263673
1.32820e-05	0.003293696455255703
1.32823e-05	0.003282484782887621
1.32825e-05	0.003274104043869328
1.32828e-05	0.003272013592226509
1.32830e-05	0.0032741893945914618
1.32833e-05	0.0032825427613832614
1.32835e-05	0.003295085930233547
1.32838e-05	0.0033153644368547203
1.32840e-05	0.003340889272267306
1.32843e-05	0.0033664141076800644
1.32845e-05	0.0034005019563401
1.32848e-05	0.0034403974871299206
1.32850e-05	0.003485280019905014
1.32853e-05	0.003536635362740533
1.32855e-05	0.003593001601297674
1.32858e-05	0.0036540867467010664
1.32860e-05	0.003719690870327289
1.32863e-05	0.003789786193861693
1.32865e-05	0.003864336002042879
1.32868e-05	0.003943091218607696
1.32870e-05	0.0040256496114177325
1.32873e-05	0.004111577179342087
1.32875e-05	0.004200440391721732
1.32878e-05	0.004291807105257552
1.32880e-05	0.004385302721859082
1.32883e-05	0.004480660679518434
1.32885e-05	0.004577609209584544
1.32888e-05	0.004675742750563857
1.32890e-05	0.00477456054230939
1.32893e-05	0.004873541608746939
1.32895e-05	0.0049721649641777995
1.32898e-05	0.00506991138664347
1.32900e-05	0.005166297279114711
1.32903e-05	0.0052609066862669305
1.32905e-05	0.005353320278269406
1.32908e-05	0.005443035098747635
1.32910e-05	0.005529489031456267
1.32913e-05	0.005612106806141736
1.32915e-05	0.005688764522944063
1.32918e-05	0.005762495235700078
1.32920e-05	0.005831666391893405
1.32923e-05	0.005895445438657709
1.32925e-05	0.00595592724268835
1.32928e-05	0.006013503342197615
1.32930e-05	0.00606800173083491
1.32933e-05	0.006117990110561194
1.32935e-05	0.006165796528130712
1.32938e-05	0.006208863587363047
1.32940e-05	0.006248716277314436
1.32943e-05	0.0062855325925532226
1.32945e-05	0.006318814233085908
1.32948e-05	0.006348906988574554
1.32950e-05	0.006377515588252236
1.32953e-05	0.00640295212947089
1.32955e-05	0.006426237289311912
1.32958e-05	0.006446137153559237
1.32960e-05	0.0064637410128646185
1.32963e-05	0.006478707502011434
1.32965e-05	0.006491885250780867
1.32968e-05	0.006503100024780629
1.32970e-05	0.006512983452773092
1.32973e-05	0.006520390213067106
1.32975e-05	0.006526117226019274
1.32978e-05	0.006531844238971443
1.32980e-05	0.006535318134064711
1.32983e-05	0.006537263899753733
1.32985e-05	0.006538228108689915
1.32988e-05	0.006538526597575078
1.32990e-05	0.006537963073839611
1.32993e-05	0.0065368149083255365
1.32995e-05	0.006535666742811469
1.32998e-05	0.0065339438405565605
1.33000e-05	0.006531666594475004
1.33003e-05	0.006529277752071132
1.33005e-05	0.006527535974076453
1.33008e-05	0.006526233053794561
1.33010e-05	0.006524930133512679
1.33013e-05	0.006523627213230787
1.33015e-05	0.006523258818219161
1.33018e-05	0.006523989842956809
1.33020e-05	0.0065250352621713135
1.33023e-05	0.006524917965704011
1.33025e-05	0.006522004656212301
1.33028e-05	0.006515637004534749
1.33030e-05	0.006505032350876085
1.33033e-05	0.006492516539626514
1.33035e-05	0.006476773869222927
1.33038e-05	0.006458842650032568
1.33040e-05	0.006437443171158388
1.33043e-05	0.006413691418707326
1.33045e-05	0.006383720550417547
1.33048e-05	0.006349531698703413
1.33050e-05	0.0063153428469895105
1.33053e-05	0.006274855476235572
1.33055e-05	0.006230096268519981
1.33058e-05	0.006185337060804694
1.33060e-05	0.006135311806890976
1.33063e-05	0.006081714968824001
1.33065e-05	0.006028118130757389
1.33068e-05	0.0059699583602200006
1.33070e-05	0.005908703877503679
1.33073e-05	0.005844454918328122
1.33075e-05	0.005778175018999175
1.33078e-05	0.0057118951196702275
1.33080e-05	0.005643846198411755
1.33083e-05	0.0055745974755455775
1.33085e-05	0.005504262311558418
1.33088e-05	0.005433190291922269
1.33090e-05	0.005362001734098738
1.33093e-05	0.005290734136721438
1.33095e-05	0.005220532308810996
1.33098e-05	0.005151053316438245
1.33100e-05	0.005083606528067507
1.33103e-05	0.0050175380389634455
1.33105e-05	0.004954146321023219
1.33108e-05	0.004892570066357367
1.33110e-05	0.0048347854648441565
1.33113e-05	0.004779572471669365
1.33115e-05	0.004729392957016924
1.33118e-05	0.004682627292424856
1.33120e-05	0.0046407556767383
1.33123e-05	0.0046022033459314484
1.33125e-05	0.004566577372239313
1.33128e-05	0.0045329361381990525
1.33130e-05	0.004499294904158792
1.33133e-05	0.0044693908832890775
1.33135e-05	0.004442021547995494
1.33138e-05	0.00441527788632349
1.33140e-05	0.0043944350733681106
1.33143e-05	0.004373592260412873
1.33145e-05	0.004354954960391587
1.33148e-05	0.004337813502744502
1.33150e-05	0.004320672045097533
1.33153e-05	0.00430662641051157
1.33155e-05	0.004294680452262299
1.33158e-05	0.00428273449401311
1.33160e-05	0.004270788535763839
1.33163e-05	0.004261698456773009
1.33165e-05	0.004254545317323401
1.33168e-05	0.004247392177873745
1.33170e-05	0.004240239038424089
1.33173e-05	0.00423535294437945
1.33175e-05	0.004232004425802558
1.33178e-05	0.0042286559072256666
1.33180e-05	0.0042253073886487965
1.33183e-05	0.004222264404569497
1.33185e-05	0.0042221029753232294
1.33188e-05	0.004221941546076964
1.33190e-05	0.004221780116830697
1.33193e-05	0.00422161868758443
1.33195e-05	0.004222864225718231
1.33198e-05	0.004225064009639477
1.33200e-05	0.004227263793560723
1.33203e-05	0.0042296097838871284
1.33205e-05	0.004233334675047351
1.33208e-05	0.004237059566207574
1.33210e-05	0.004240784457367772
1.33213e-05	0.0042449391128212555
1.33215e-05	0.004249637468725511
1.33218e-05	0.004254797679330352
1.33220e-05	0.0042607522319126285
1.33223e-05	0.004268373155250459
1.33225e-05	0.004278586284119749
1.33228e-05	0.004291770868720273
1.33230e-05	0.0043087100836546426
1.33233e-05	0.004327370761251569
1.33235e-05	0.0043491654836598235
1.33238e-05	0.004373085805496891
1.33240e-05	0.004400301799511741
1.33243e-05	0.004429753013288607
1.33245e-05	0.004464282517294852
1.33248e-05	0.004502256263952223
1.33250e-05	0.004540230010609337
1.33253e-05	0.0045809598853863605
1.33255e-05	0.0045990027910659415
1.33258e-05	0.0007463119490786164
1.33260e-05	-0.1068063887313999
1.33263e-05	-0.047653912296906825
1.33265e-05	0.01389110684446047
1.33268e-05	0.051101906306188806
1.33270e-05	0.07016034394551873
1.33273e-05	0.03968237152776322
1.33275e-05	0.003732191713234082
1.33278e-05	-0.031178384833541413
1.33280e-05	-0.05014944588049591
1.33283e-05	-0.02095134437829014
1.33285e-05	0.011190077682207228
1.33288e-05	0.03451328505341677
1.33290e-05	0.04646632167315419
1.33293e-05	0.027390387394224835
1.33295e-05	0.00488836673749744
1.33298e-05	-0.016960920658727317
1.33300e-05	-0.028824938739873462
1.33303e-05	-0.010517165399057345
1.33305e-05	0.009631281473742268
1.33308e-05	0.024252923050318998
1.33310e-05	0.0317495673991194
1.33313e-05	0.01980795910989459
1.33315e-05	0.0057192808079975736
1.33318e-05	-0.007961585343411457
1.33320e-05	-0.0153887897076569
1.33323e-05	-0.003917309414544868
1.33325e-05	0.00870717854353177
1.33328e-05	0.017870607982045005
1.33330e-05	0.022572207695426404
1.33333e-05	0.015099609924191076
1.33335e-05	0.006284486944832072
1.33338e-05	-0.0022728519135602776
1.33340e-05	-0.006910879271806594
1.33343e-05	0.00029039795452045743
1.33345e-05	0.008214428253202313
1.33348e-05	0.013970924164712557
1.33350e-05	0.016933122994729037
1.33353e-05	0.01227038016697826
1.33355e-05	0.006767920823637506
1.33358e-05	0.0014281054444637183
1.33360e-05	-0.0014557126496542725
1.33363e-05	0.003076986325306178
1.33365e-05	0.008062349303389359
1.33368e-05	0.011689845422551295
1.33370e-05	0.01356691430585251
1.33373e-05	0.010667844050796673
1.33375e-05	0.007243036258125226
1.33378e-05	0.0039202884375872885
1.33380e-05	0.0021359817933344336
1.33383e-05	0.004997000014096731
1.33385e-05	0.008140872313240398
1.33388e-05	0.01043341383712504
1.33390e-05	0.011628717975177729
1.33393e-05	0.009831573945920168
1.33395e-05	0.00770448312991825
1.33398e-05	0.005640614292799173
1.33400e-05	0.004539571690860788
1.33403e-05	0.0063472310740176514
1.33405e-05	0.008330710194551703
1.33408e-05	0.009779479490579477
1.33410e-05	0.010539462723610468
1.33413e-05	0.009423526761388195
1.33415e-05	0.008099457573792868
1.33418e-05	0.006813457048741967
1.33420e-05	0.006128995199361187
1.33423e-05	0.007265046151646067
1.33425e-05	0.008509962114165815
1.33428e-05	0.009418869584089551
1.33430e-05	0.009895358657392344
1.33433e-05	0.009195935816584025
1.33435e-05	0.008365412067301804
1.33438e-05	0.00755806462360408
1.33440e-05	0.007126884124362977
1.33443e-05	0.007835418205912693
1.33445e-05	0.00861149040682114
1.33448e-05	0.009176490892473705
1.33450e-05	0.009470102816511576
1.33453e-05	0.009026701392241663
1.33455e-05	0.008500844796790386
1.33458e-05	0.00798922767610375
1.33460e-05	0.007713004457654081
1.33463e-05	0.008150468931334753
1.33465e-05	0.008630029510229266
1.33468e-05	0.008977221725013492
1.33470e-05	0.009154329805705918
1.33473e-05	0.008869768456276949
1.33475e-05	0.008533627997454009
1.33478e-05	0.008206532171691665
1.33480e-05	0.008027057165003198
1.33483e-05	0.008294831127184609
1.33485e-05	0.008589200243281416
1.33488e-05	0.008800936561396097
1.33490e-05	0.00890647573117032
1.33493e-05	0.008723239012562245
1.33495e-05	0.008508174710081078
1.33498e-05	0.008299311160605855
1.33500e-05	0.008183500415125016
1.33503e-05	0.008348463602760006
1.33505e-05	0.008530743898131734
1.33508e-05	0.008661975200608196
1.33510e-05	0.008727454566300306
1.33513e-05	0.008612878401204343
1.33515e-05	0.008479261477834503
1.33518e-05	0.008350442147296763
1.33520e-05	0.00828052405621031
1.33523e-05	0.00838599248818278
1.33525e-05	0.00850042918029361
1.33528e-05	0.008580432646953582
1.33530e-05	0.008616862149408044
1.33533e-05	0.008538263426017033
1.33535e-05	0.008445639884994836
1.33538e-05	0.008354063569241626
1.33540e-05	0.00829756160255465
1.33543e-05	0.008349230966770194
1.33545e-05	0.008404961554444965
1.33548e-05	0.00843770551847152
1.33550e-05	0.008441877401639658
1.33553e-05	0.008372863021536869
1.33555e-05	0.008294072214401453
1.33557e-05	0.008215083777338605
1.33560e-05	0.008157351234106552
1.33563e-05	0.008166795528163835
1.33565e-05	0.008178338523104334
1.33568e-05	0.008175176170331819
1.33570e-05	0.008153949744984712
1.33573e-05	0.008086853343255145
1.33575e-05	0.008013748208026963
1.33578e-05	0.007940773151148453
1.33580e-05	0.007881504856253777
1.33583e-05	0.007864844353607368
1.33585e-05	0.007850161654381328
1.33588e-05	0.0078270701003535
1.33590e-05	0.007793606272411748
1.33593e-05	0.0077324917072384616
1.33595e-05	0.007668835774263107
1.33598e-05	0.00760662191166965
1.33600e-05	0.007554492483945754
1.33603e-05	0.007530687899643446
1.33605e-05	0.007509895369356931
1.33608e-05	0.007485746736746585
1.33610e-05	0.007457150232133481
1.33613e-05	0.00741342267762498
1.33615e-05	0.007370432069888348
1.33618e-05	0.0073307817214054395
1.33620e-05	0.0072997232576379155
1.33623e-05	0.007287816434937626
1.33625e-05	0.007278029667139652
1.33628e-05	0.007265813238195121
1.33630e-05	0.007250445414141735
1.33633e-05	0.007225255762666686
1.33635e-05	0.007200205643489642
1.33638e-05	0.007176947505197078
1.33640e-05	0.007158791184823724
1.33642e-05	0.007152372259728661
1.33645e-05	0.007147042995983457
1.33648e-05	0.007139974971719736
1.33650e-05	0.007130736971715142
1.33653e-05	0.007115172986521642
1.33655e-05	0.007099543836390373
1.33658e-05	0.007084906510518362
1.33660e-05	0.007073354876757322
1.33663e-05	0.007069066342717518
1.33665e-05	0.007065392829310353
1.33668e-05	0.007060583126953416
1.33670e-05	0.007054389252608973
1.33673e-05	0.007044228755581999
1.33675e-05	0.007034045527248746
1.33678e-05	0.007024522544038199
1.33680e-05	0.007016992838001695
1.33683e-05	0.007014094270476114
1.33685e-05	0.007011683527631834
1.33688e-05	0.007008684816423926
1.33690e-05	0.007004964395015068
1.33693e-05	0.00699892578733238
1.33695e-05	0.006993061359348141
1.33698e-05	0.006987820042766173
1.33700e-05	0.006984057950151402
1.33703e-05	0.006983448596728434
1.33705e-05	0.006983417372113716
1.33708e-05	0.006983312758012075
1.33710e-05	0.006983071403605863
1.33713e-05	0.006981715283900437
1.33715e-05	0.006980826435702564
1.33718e-05	0.00698070222356124
1.33720e-05	0.006981844305585119
1.33723e-05	0.006985136646180245
1.33725e-05	0.006988747993834298
1.33727e-05	0.00699203191991785
1.33730e-05	0.00699492553915719
1.33733e-05	0.006997707708652282
1.33735e-05	0.007000221319084099
1.33738e-05	0.007003280929730864
1.33740e-05	0.007007238352181049
1.33743e-05	0.007011437006145054
1.33745e-05	0.0070163342951238975
1.33748e-05	0.0070209302895828
1.33750e-05	0.007025192720176172
1.33753e-05	0.007029361248193259
1.33755e-05	0.007033272257591324
1.33758e-05	0.007037467293750401
1.33760e-05	0.007042174430873119
1.33763e-05	0.0070470208801761604
1.33765e-05	0.00705226276155906
1.33768e-05	0.007057296444840957
1.33770e-05	0.00706210951990657
1.33773e-05	0.007066864403405528
1.33775e-05	0.007071463046025418
1.33778e-05	0.007076258207401367
1.33780e-05	0.007081402134811612
1.33783e-05	0.007086646131534417
1.33785e-05	0.007092189403884115
1.33788e-05	0.0070976588764883235
1.33790e-05	0.007103057287792046
1.33793e-05	0.007108444486847895
1.33795e-05	0.007113854972079489
1.33798e-05	0.007119450358107742
1.33800e-05	0.007125205911097414
1.33803e-05	0.0071314664942746225
1.33805e-05	0.0071377826341401775
1.33808e-05	0.007144273952485247
1.33810e-05	0.00715077726793558
1.33812e-05	0.0071573638216423765
1.33815e-05	0.007164152422868068
1.33818e-05	0.007171206463173185
1.33820e-05	0.0071787345619857825
1.33823e-05	0.007187291350138908
1.33825e-05	0.007197263628465873
1.33828e-05	0.00720882349258649
1.33830e-05	0.007222096679783834
1.33833e-05	0.007236977584711684
1.33835e-05	0.00725253105633029
1.33838e-05	0.007270205230489935
1.33840e-05	0.007288439344310205
1.33843e-05	0.007309328199572017
1.33845e-05	0.007333020735429217
1.33848e-05	0.0073567132712865765
1.33850e-05	0.007381231551828147
1.33853e-05	0.007408724429006678
1.33855e-05	0.007437729458859081
1.33858e-05	0.0074681320978027465
1.33860e-05	0.007499874404901319
1.33863e-05	0.00753303424658417
1.33865e-05	0.007567623424968457
1.33868e-05	0.007603570379706621
1.33870e-05	0.007640716282906036
1.33873e-05	0.007678869725580292
1.33875e-05	0.007717899381134713
1.33878e-05	0.007757647899491715
1.33880e-05	0.0077979935410671325
1.33883e-05	0.007838898594356398
1.33885e-05	0.007880284343396875
1.33888e-05	0.007922020952511712
1.33890e-05	0.00796392279354357
1.33893e-05	0.008005784460385468
1.33895e-05	0.008047437365462613
1.33897e-05	0.008088696813974509
1.33900e-05	0.008129401224506424
1.33903e-05	0.00816944113129568
1.33905e-05	0.008208682508731259
1.33908e-05	0.008246956872266618
1.33910e-05	0.008284062623890483
1.33913e-05	0.008319784991738048
1.33915e-05	0.008353932967807304
1.33918e-05	0.008386347475789232
1.33920e-05	0.008417265908288755
1.33923e-05	0.008447923126525377
1.33925e-05	0.00847990289174343
1.33928e-05	0.008513814920956052
1.33930e-05	0.008549475341554329
1.33933e-05	0.008586605223444782
1.33935e-05	0.008624941812444402
1.33938e-05	0.008664240296001057
1.33940e-05	0.008704503995549626
1.33943e-05	0.008746363452969754
1.33945e-05	0.00879066544031522
1.33948e-05	0.008837647660831172
1.33950e-05	0.00888705054822667
1.33953e-05	0.008938555969985265
1.33955e-05	0.0089920102843283
1.33958e-05	0.009047141786777813
1.33960e-05	0.009103025631061213
1.33963e-05	0.00916128172074856
1.33965e-05	0.009220271315693692
1.33968e-05	0.009281999826942477
1.33970e-05	0.009345414656204011
1.33973e-05	0.009410171852517404
1.33975e-05	0.00947598578476506
1.33978e-05	0.009542534370656783
1.33980e-05	0.009609305071179443
1.33983e-05	0.009676776132080867
1.33985e-05	0.009744432755685518
1.33988e-05	0.009812712607660758
1.33990e-05	0.009881063553185009
1.33993e-05	0.009949124877490991
1.33995e-05	0.010016390010621854
1.33998e-05	0.010082484576758453
1.34000e-05	0.01014791279900185
1.34003e-05	0.010211239940107978
1.34005e-05	0.01027399256563166
1.34008e-05	0.010334450634661652
