Time(s)	Current(A)
4.75000e-06	0.013578307310458764
4.75025e-06	0.013597393524862077
4.75050e-06	0.013616479739265452
4.75075e-06	0.013635565953668764
4.75100e-06	0.013653191425192498
4.75125e-06	0.013667972859695414
4.75150e-06	0.01368275429419828
4.75175e-06	0.013697535728701197
4.75200e-06	0.013712317163204063
4.75225e-06	0.013727098597706931
4.75250e-06	0.013741880032209847
4.75275e-06	0.013756661466712714
4.75300e-06	0.01377144290121558
4.75325e-06	0.013782576837445111
4.75350e-06	0.013786609167863286
4.75375e-06	0.01379064149828146
4.75400e-06	0.01379467382869965
4.75425e-06	0.013798706159117824
4.75450e-06	0.013802738489535999
4.75475e-06	0.013806770819954187
4.75500e-06	0.013810803150372362
4.75525e-06	0.013814835480790539
4.75550e-06	0.013818867811208725
4.75575e-06	0.013822900141626902
4.75600e-06	0.01382693247204509
4.75625e-06	0.013830964802463265
4.75650e-06	0.01383499713288144
4.75675e-06	0.013839029463299629
4.75700e-06	0.013843061793717804
4.75725e-06	0.013847094124135978
4.75750e-06	0.013851126454554167
4.75775e-06	0.013855158784972342
4.75800e-06	0.013859191115390516
4.75825e-06	0.013863223445808705
4.75850e-06	0.01386725577622688
4.75875e-06	0.013869399505919163
4.75900e-06	0.013867866167965742
4.75925e-06	0.013866332830012327
4.75950e-06	0.013864799492058912
4.75975e-06	0.01386326615410549
4.76000e-06	0.013861732816152075
4.76025e-06	0.013860199478198653
4.76050e-06	0.013858666140245238
4.76075e-06	0.013857132802291821
4.76100e-06	0.0138555994643384
4.76125e-06	0.013854066126384984
4.76150e-06	0.013852532788431569
4.76175e-06	0.013850999450478149
4.76200e-06	0.013849466112524732
4.76225e-06	0.013847932774571317
4.76250e-06	0.013846399436617895
4.76275e-06	0.01384486609866448
4.76300e-06	0.013843332760711063
4.76325e-06	0.013841799422757643
4.76350e-06	0.013840266084804227
4.76375e-06	0.013838732746850812
4.76400e-06	0.01383719940889739
4.76425e-06	0.013837436129907772
4.76450e-06	0.01384111912013576
4.76475e-06	0.013844802110363737
4.76500e-06	0.013848485100591713
4.76525e-06	0.013852168090819702
4.76550e-06	0.01385585108104768
4.76575e-06	0.013859534071275655
4.76600e-06	0.013863217061503645
4.76625e-06	0.01386690005173162
4.76650e-06	0.013870583041959598
4.76675e-06	0.013874266032187587
4.76700e-06	0.013877949022415563
4.76725e-06	0.01388163201264354
4.76750e-06	0.013885315002871528
4.76775e-06	0.013888997993099506
4.76800e-06	0.013892680983327481
4.76825e-06	0.01389949223606338
4.76850e-06	0.013906902319149638
4.76875e-06	0.013914312402235923
4.76900e-06	0.013921722485322181
4.76925e-06	0.01392913256840844
4.76950e-06	0.013936542651494724
4.76975e-06	0.013943952734580984
4.77000e-06	0.013951362817667243
4.77025e-06	0.013958772900753527
4.77050e-06	0.013966182983839786
4.77075e-06	0.013973593066926046
4.77100e-06	0.01398100315001233
4.77125e-06	0.013988413233098589
4.77150e-06	0.013995823316184848
4.77175e-06	0.014003233399271132
4.77200e-06	0.014009969850986887
4.77225e-06	0.014015394755967045
4.77250e-06	0.01402081966094722
4.77275e-06	0.014026244565927376
4.77300e-06	0.014031669470907551
4.77325e-06	0.014037094375887708
4.77350e-06	0.014042519280867864
4.77375e-06	0.01404794418584804
4.77400e-06	0.014053369090828195
4.77425e-06	0.014058793995808352
4.77450e-06	0.014068557101243747
4.77475e-06	0.014079150650445111
4.77500e-06	0.014089744199646476
4.77525e-06	0.014100337748847877
4.77550e-06	0.014110931298049242
4.77575e-06	0.014121524847250606
4.77600e-06	0.014132118396452007
4.77625e-06	0.014142711945653372
4.77650e-06	0.014153305494854738
4.77675e-06	0.014166260208807102
4.77700e-06	0.014183812063059915
4.77725e-06	0.014201363917312786
4.77750e-06	0.0142189157715656
4.77775e-06	0.014236467625818412
4.77800e-06	0.014254019480071285
4.77825e-06	0.014271571334324098
4.77850e-06	0.01428912318857691
4.77875e-06	0.014306675042829783
4.77900e-06	0.014324226897082596
4.77925e-06	0.014341778751335408
4.77950e-06	0.014359330605588281
4.77975e-06	0.014376882459841095
4.78000e-06	0.014393133773879943
4.78025e-06	0.014409136130886074
4.78050e-06	0.014425138487892149
4.78075e-06	0.014441140844898224
4.78100e-06	0.014457143201904353
4.78125e-06	0.014473145558910428
4.78150e-06	0.014489147915916503
4.78175e-06	0.014505150272922632
4.78200e-06	0.014521152629928707
4.78225e-06	0.014537154986934838
4.78250e-06	0.014553157343940913
4.78275e-06	0.014569159700946988
4.78300e-06	0.014579967317524018
4.78325e-06	0.014580660878923703
4.78350e-06	0.014581354440323387
4.78375e-06	0.014582048001723073
4.78400e-06	0.014582741563122758
4.78425e-06	0.014583435124522443
4.78450e-06	0.01458412868592213
4.78475e-06	0.014584822247321813
4.78500e-06	0.014585515808721498
4.78525e-06	0.01457039675382906
4.78550e-06	0.014552250755217893
4.78575e-06	0.014534104756606726
4.78600e-06	0.014515958757995499
4.78625e-06	0.014497812759384334
4.78650e-06	0.014479666760773105
4.78675e-06	0.01446152076216194
4.78700e-06	0.014443374763550773
4.78725e-06	0.014419868339863882
4.78750e-06	0.01438592527632487
4.78775e-06	0.014351982212785858
4.78800e-06	0.01431803914924673
4.78825e-06	0.014284096085707718
4.78850e-06	0.014250153022168706
4.78875e-06	0.014216209958629577
4.78900e-06	0.014182266895090565
4.78925e-06	0.014148323831551552
4.78950e-06	0.014114380768012426
4.78975e-06	0.014080437704473413
4.79000e-06	0.0140464946409344
4.79025e-06	0.01401328731516248
4.79050e-06	0.013980220828627621
4.79075e-06	0.01394715434209265
4.79100e-06	0.013914087855557788
4.79125e-06	0.013881021369022929
4.79150e-06	0.013847954882487957
4.79175e-06	0.013814888395953096
4.79200e-06	0.013781821909418237
4.79225e-06	0.013748755422883265
4.79250e-06	0.013715688936348404
4.79275e-06	0.013682622449813544
4.79300e-06	0.013656443905470836
4.79325e-06	0.013643676046094445
4.79350e-06	0.013630908186718051
4.79375e-06	0.013618140327341616
4.79400e-06	0.013605372467965223
4.79425e-06	0.01359260460858883
4.79450e-06	0.013579836749212395
4.79475e-06	0.013567068889836002
4.79500e-06	0.013554301030459565
4.79525e-06	0.013541533171083173
4.79550e-06	0.01352876531170678
4.79575e-06	0.013515997452330343
4.79600e-06	0.013503229592953952
4.79625e-06	0.013490461733577559
4.79650e-06	0.013477693874201122
4.79675e-06	0.01346492601482473
4.79700e-06	0.013452158155448337
4.79725e-06	0.013439390296071902
4.79750e-06	0.013426622436695509
4.79775e-06	0.013413854577319115
4.79800e-06	0.01341170624180211
4.79825e-06	0.013411590757802858
4.79850e-06	0.013411475273803606
4.79875e-06	0.013411359789804353
4.79900e-06	0.013411244305805101
4.79925e-06	0.013411128821805847
4.79950e-06	0.013411013337806595
4.79975e-06	0.013410897853807342
4.80000e-06	0.01341078236980809
4.80025e-06	0.013410666885808838
4.80050e-06	0.013410551401809585
4.80075e-06	0.013410435917810333
4.80100e-06	0.01341032043381108
4.80125e-06	0.013410204949811828
4.80150e-06	0.013410089465812576
4.80175e-06	0.013409973981813324
4.80200e-06	0.013409858497814071
4.80225e-06	0.013409743013814817
4.80250e-06	0.013409627529815565
4.80275e-06	0.013410872787688263
4.80300e-06	0.013414767382627407
4.80325e-06	0.01341866197756654
4.80350e-06	0.013422556572505686
4.80375e-06	0.013426451167444817
4.80400e-06	0.01343034576238395
4.80425e-06	0.013434240357323095
4.80450e-06	0.013438134952262227
4.80475e-06	0.013442029547201358
4.80500e-06	0.013445924142140504
4.80525e-06	0.013458330160810602
4.80550e-06	0.01347236548611192
4.80575e-06	0.013486400811413286
4.80600e-06	0.013500436136714604
4.80625e-06	0.013514471462015922
4.80650e-06	0.013528506787317289
4.80675e-06	0.013542542112618607
4.80700e-06	0.013556577437919924
4.80725e-06	0.013570612763221291
4.80750e-06	0.013587456115129976
4.80775e-06	0.013609766638386228
4.80800e-06	0.013632077161642405
4.80825e-06	0.013654387684898581
4.80850e-06	0.013676698208154833
4.80875e-06	0.01369900873141101
4.80900e-06	0.013721319254667186
4.80925e-06	0.013743629777923438
4.80950e-06	0.013765940301179615
4.80975e-06	0.01378825082443579
4.81000e-06	0.013810561347692043
4.81025e-06	0.01383287187094822
4.81050e-06	0.013855182394204395
4.81075e-06	0.013877492917460647
4.81100e-06	0.013899803440716825
4.81125e-06	0.013922113963973
4.81150e-06	0.013933036814880883
4.81175e-06	0.013941779770784736
4.81200e-06	0.01395052272668862
4.81225e-06	0.013959265682592474
4.81250e-06	0.013968008638496327
4.81275e-06	0.013976751594400212
4.81300e-06	0.013985494550304066
4.81325e-06	0.01399423750620792
4.81350e-06	0.014002980462111804
4.81375e-06	0.014011723418015659
4.81400e-06	0.014020466373919512
4.81425e-06	0.014029209329823395
4.81450e-06	0.01403795228572725
4.81475e-06	0.014046695241631104
4.81500e-06	0.014055438197534988
4.81525e-06	0.014054356865697459
4.81550e-06	0.014034147843153811
4.81575e-06	0.014013938820610096
4.81600e-06	0.01399372979806645
4.81625e-06	0.013973520775522733
4.81650e-06	0.013953311752979087
4.81675e-06	0.013933102730435439
4.81700e-06	0.013912893707891723
4.81725e-06	0.013892684685348076
4.81750e-06	0.01387247566280443
4.81775e-06	0.013852266640260714
4.81800e-06	0.013827059578692508
4.81825e-06	0.01379212143563425
4.81850e-06	0.013757183292575876
4.81875e-06	0.01372224514951762
4.81900e-06	0.013687307006459362
4.81925e-06	0.013652368863400988
4.81950e-06	0.013617430720342731
4.81975e-06	0.013582492577284474
4.82000e-06	0.0135475544342261
4.82025e-06	0.013512616291167841
4.82050e-06	0.013477678148109467
4.82075e-06	0.013443876570119771
4.82100e-06	0.013412287861466608
4.82125e-06	0.013380699152813338
4.82150e-06	0.013349110444160175
4.82175e-06	0.013317521735507012
4.82200e-06	0.013285933026853741
4.82225e-06	0.013254344318200578
4.82250e-06	0.013222755609547415
4.82275e-06	0.013191166900894145
4.82300e-06	0.013173936318209114
4.82325e-06	0.01315945425217384
4.82350e-06	0.013144972186138519
4.82375e-06	0.013130490120103245
4.82400e-06	0.01311600805406797
4.82425e-06	0.013101525988032648
4.82450e-06	0.013087043921997376
4.82475e-06	0.013072561855962053
4.82500e-06	0.013066321585838158
4.82525e-06	0.013076127926641428
4.82550e-06	0.01308593426744473
4.82575e-06	0.013095740608248
4.82600e-06	0.013105546949051269
4.82625e-06	0.013115353289854572
4.82650e-06	0.013125159630657841
4.82675e-06	0.01313496597146111
4.82700e-06	0.013144772312264413
4.82725e-06	0.013154578653067682
4.82750e-06	0.013164384993870952
4.82775e-06	0.013174191334674254
4.82800e-06	0.013198125757444145
4.82825e-06	0.013224764660491876
4.82850e-06	0.0132514035635397
4.82875e-06	0.01327804246658743
4.82900e-06	0.013304681369635252
4.82925e-06	0.013331320272682983
4.82950e-06	0.013357959175730716
4.82975e-06	0.013384598078778537
4.83000e-06	0.013411236981826268
4.83025e-06	0.013437875884873999
4.83050e-06	0.01346451478792182
4.83075e-06	0.013490812408143753
4.83100e-06	0.013516445557565877
4.83125e-06	0.01354207870698809
4.83150e-06	0.013567711856410215
4.83175e-06	0.013593345005832341
4.83200e-06	0.013618978155254553
4.83225e-06	0.013644611304676679
4.83250e-06	0.013663228749630985
4.83275e-06	0.013680503207305808
4.83300e-06	0.013697777664980574
4.83325e-06	0.013715052122655396
4.83350e-06	0.01373232658033016
4.83375e-06	0.013749601038004926
4.83400e-06	0.013763846551587975
4.83425e-06	0.0137721947719264
4.83450e-06	0.013780542992264822
4.83475e-06	0.013788891212603275
4.83500e-06	0.0137972394329417
4.83525e-06	0.013805587653280124
4.83550e-06	0.013813935873618574
4.83575e-06	0.013822284093956999
4.83600e-06	0.013830632314295424
4.83625e-06	0.013838980534633876
4.83650e-06	0.013847328754972299
4.83675e-06	0.013855676975310724
4.83700e-06	0.013864025195649176
4.83725e-06	0.0138723734159876
4.83750e-06	0.013880721636326053
4.83775e-06	0.013889069856664476
4.83800e-06	0.0138974180770029
4.83825e-06	0.013905766297341353
4.83850e-06	0.013912005429688729
4.83875e-06	0.013914138210124742
4.83900e-06	0.013916270990560762
4.83925e-06	0.013918403770996774
4.83950e-06	0.013920536551432787
4.83975e-06	0.013922669331868807
4.84000e-06	0.013924802112304818
4.84025e-06	0.013926934892740831
4.84050e-06	0.013929067673176851
4.84075e-06	0.013931200453612864
4.84100e-06	0.013933333234048877
4.84125e-06	0.013935466014484896
4.84150e-06	0.013937598794920908
4.84175e-06	0.013939731575356927
4.84200e-06	0.01394186435579294
4.84225e-06	0.013943997136228953
4.84250e-06	0.013946129916664973
4.84275e-06	0.013948262697100986
4.84300e-06	0.013948093954001654
4.84325e-06	0.013943444190855884
4.84350e-06	0.01393879442771013
4.84375e-06	0.013934144664564376
4.84400e-06	0.013929494901418607
4.84425e-06	0.013924845138272853
4.84450e-06	0.0139201953751271
4.84475e-06	0.01391554561198133
4.84500e-06	0.013910895848835576
4.84525e-06	0.013906246085689822
4.84550e-06	0.013901596322544051
4.84575e-06	0.013896946559398297
4.84600e-06	0.013892296796252528
4.84625e-06	0.013887647033106774
4.84650e-06	0.01388299726996102
4.84675e-06	0.01387834750681525
4.84700e-06	0.013867768115274876
4.84725e-06	0.013856053639504724
4.84750e-06	0.013844339163734532
4.84775e-06	0.01383262468796438
4.84800e-06	0.013820910212194228
4.84825e-06	0.013809195736424036
4.84850e-06	0.013797481260653884
4.84875e-06	0.013785766784883734
4.84900e-06	0.013774052309113542
4.84925e-06	0.01376233783334339
4.84950e-06	0.013750623357573238
4.84975e-06	0.013738908881803047
4.85000e-06	0.013727194406032895
4.85025e-06	0.013715479930262705
4.85050e-06	0.013703765454492553
4.85075e-06	0.013692270236453091
4.85100e-06	0.013681201908806544
4.85125e-06	0.013670133581160036
4.85150e-06	0.013659065253513528
4.85175e-06	0.013647996925866983
4.85200e-06	0.013636928598220473
4.85225e-06	0.013625860270573964
4.85250e-06	0.01361479194292742
4.85275e-06	0.013603723615280911
4.85300e-06	0.013592655287634403
4.85325e-06	0.013582817665073648
4.85350e-06	0.013573215631295408
4.85375e-06	0.01356361359751717
4.85400e-06	0.013554011563738897
4.85425e-06	0.013544409529960659
4.85450e-06	0.013534807496182388
4.85475e-06	0.013525205462404148
4.85500e-06	0.013515603428625908
4.85525e-06	0.013506001394847637
4.85550e-06	0.01349609000477927
4.85575e-06	0.013485059127514878
4.85600e-06	0.013473021317576644
4.85625e-06	0.013460983507638451
4.85650e-06	0.013448945697700259
4.85675e-06	0.013436907887762027
4.85700e-06	0.013424870077823834
4.85725e-06	0.013412832267885642
4.85750e-06	0.013400794457947408
4.85775e-06	0.013388756648009216
4.85800e-06	0.013376718838071023
4.85825e-06	0.013364681028132791
4.85850e-06	0.013352643218194599
4.85875e-06	0.013340605408256365
4.85900e-06	0.013328567598318172
4.85925e-06	0.013316647508103808
4.85950e-06	0.01330495661582462
4.85975e-06	0.013293265723545472
4.86000e-06	0.013281574831266324
4.86025e-06	0.013269883938987138
4.86050e-06	0.01325819304670799
4.86075e-06	0.013246502154428842
4.86100e-06	0.013234811262149654
4.86125e-06	0.013223120369870505
4.86150e-06	0.013211429477591357
4.86175e-06	0.01319973858531217
4.86200e-06	0.013188047693033021
4.86225e-06	0.013176356800753873
4.86250e-06	0.013164665908474685
4.86275e-06	0.013152685782082122
4.86300e-06	0.013140142522686587
4.86325e-06	0.013127599263291092
4.86350e-06	0.013115056003895599
4.86375e-06	0.013102512744500064
4.86400e-06	0.013089969485104571
4.86425e-06	0.013077426225709076
4.86450e-06	0.013064882966313541
4.86475e-06	0.013052339706918048
4.86500e-06	0.013036417496415776
4.86525e-06	0.013013916536052418
4.86550e-06	0.012991415575689136
4.86575e-06	0.012968914615325854
4.86600e-06	0.012946413654962496
4.86625e-06	0.012923912694599214
4.86650e-06	0.012901411734235932
4.86675e-06	0.012878910773872574
4.86700e-06	0.01285640981350929
4.86725e-06	0.01283071091355792
4.86750e-06	0.01279878568953325
4.86775e-06	0.01276686046550858
4.86800e-06	0.012734935241483801
4.86825e-06	0.012703010017459132
4.86850e-06	0.012671084793434461
4.86875e-06	0.012639159569409683
4.86900e-06	0.012607234345385012
4.86925e-06	0.012575309121360342
4.86950e-06	0.012543383897335563
4.86975e-06	0.012511458673310893
4.87000e-06	0.012479533449286224
4.87025e-06	0.012447608225261444
4.87050e-06	0.012415683001236775
4.87075e-06	0.012383757777212104
4.87100e-06	0.01236054631904357
4.87125e-06	0.01233900290101842
4.87150e-06	0.012317459482993195
4.87175e-06	0.012295916064968044
4.87200e-06	0.012274372646942894
4.87225e-06	0.01225282922891767
4.87250e-06	0.01223128581089252
4.87275e-06	0.012209742392867368
4.87300e-06	0.012188198974842144
4.87325e-06	0.012166655556816994
4.87350e-06	0.012145112138791842
4.87375e-06	0.012123568720766618
4.87400e-06	0.012102025302741468
4.87425e-06	0.012080481884716316
4.87450e-06	0.01206879769851029
4.87475e-06	0.012076309238403008
4.87500e-06	0.012083820778295723
4.87525e-06	0.012091332318188467
4.87550e-06	0.012098843858081184
4.87575e-06	0.012106355397973926
4.87600e-06	0.012113866937866643
4.87625e-06	0.012121378477759358
4.87650e-06	0.012128890017652102
4.87675e-06	0.012136401557544819
4.87700e-06	0.012143913097437535
4.87725e-06	0.01215813415882144
4.87750e-06	0.01218541852363013
4.87775e-06	0.01221270288843882
4.87800e-06	0.0122399872532476
4.87825e-06	0.01226727161805629
4.87850e-06	0.01229455598286498
4.87875e-06	0.012321840347673762
4.87900e-06	0.012349124712482451
4.87925e-06	0.01237640907729114
4.87950e-06	0.012403693442099923
4.87975e-06	0.012430977806908612
4.88000e-06	0.01245909922853896
4.88025e-06	0.012488850382968738
4.88050e-06	0.012518601537398515
4.88075e-06	0.012548352691828395
4.88100e-06	0.012578103846258173
4.88125e-06	0.01260785500068795
4.88150e-06	0.012637606155117831
4.88175e-06	0.012667357309547609
4.88200e-06	0.012697108463977386
4.88225e-06	0.012716718282077646
4.88250e-06	0.012734386786126439
4.88275e-06	0.012752055290175231
4.88300e-06	0.012769723794224084
4.88325e-06	0.012787392298272877
4.88350e-06	0.01280506080232167
4.88375e-06	0.012822729306370522
4.88400e-06	0.012840397810419315
4.88425e-06	0.012851002902830458
4.88450e-06	0.01284785567481969
4.88475e-06	0.012844708446808921
4.88500e-06	0.01284156121879814
4.88525e-06	0.012838413990787372
4.88550e-06	0.012835266762776602
4.88575e-06	0.012832119534765823
4.88600e-06	0.012828972306755053
4.88625e-06	0.012825825078744284
4.88650e-06	0.012822677850733504
4.88675e-06	0.012819530622722735
4.88700e-06	0.012816383394711965
4.88725e-06	0.012813236166701186
4.88750e-06	0.012810088938690418
4.88775e-06	0.012806941710679648
4.88800e-06	0.012791413956031122
4.88825e-06	0.012773516248396162
4.88850e-06	0.01275561854076114
4.88875e-06	0.012737720833126178
4.88900e-06	0.012719823125491218
4.88925e-06	0.012701925417856197
4.88950e-06	0.012684027710221236
4.88975e-06	0.012666130002586274
4.89000e-06	0.012648232294951253
4.89025e-06	0.012630334587316293
4.89050e-06	0.012612436879681332
4.89075e-06	0.012594539172046311
4.89100e-06	0.01257664146441135
4.89125e-06	0.012558743756776389
4.89150e-06	0.012542744201356947
4.89175e-06	0.012530440310131168
4.89200e-06	0.01251813641890539
4.89225e-06	0.01250583252767957
4.89250e-06	0.012493528636453791
4.89275e-06	0.01248122474522797
4.89300e-06	0.012468920854002192
4.89325e-06	0.012456616962776413
4.89350e-06	0.012444313071550592
4.89375e-06	0.012432009180324813
4.89400e-06	0.012419705289099034
4.89425e-06	0.012407401397873214
4.89450e-06	0.012395097506647435
4.89475e-06	0.012382793615421656
4.89500e-06	0.012370489724195837
4.89525e-06	0.012367261668315489
4.89550e-06	0.012366127099217432
4.89575e-06	0.012364992530119372
4.89600e-06	0.012363857961021315
4.89625e-06	0.012362723391923259
4.89650e-06	0.012361588822825198
4.89675e-06	0.012360454253727142
4.89700e-06	0.012359319684629081
4.89725e-06	0.012358185115531025
4.89750e-06	0.012357050546432968
4.89775e-06	0.012355915977334908
4.89800e-06	0.012354781408236851
4.89825e-06	0.012353646839138796
4.89850e-06	0.012352512270040736
4.89875e-06	0.012351542260959051
4.89900e-06	0.012354513071404769
4.89925e-06	-0.01770792640441996
4.89950e-06	-0.013756745545085238
4.89975e-06	-0.005936311621727286
4.90000e-06	-0.00046923068540503834
4.90025e-06	0.014894891280290583
4.90050e-06	0.023396435740849212
4.90075e-06	0.021935264350709954
4.90100e-06	0.01620544622103274
4.90125e-06	0.0065368876314771274
4.90150e-06	0.0022665000082533666
4.90175e-06	0.003874899703640761
