Time(s)	Current(A)
1.47500e-05	-0.0021233589968430978
1.47503e-05	-0.002112025732432602
1.47505e-05	-0.002100630546175319
1.47508e-05	-0.002088956417702514
1.47510e-05	-0.002077282289229709
1.47513e-05	-0.0020657000848101565
1.47515e-05	-0.002054531974936226
1.47518e-05	-0.0020433638650622955
1.47520e-05	-0.0020324552150581474
1.47523e-05	-0.002022715365962604
1.47525e-05	-0.002012975516867061
1.47528e-05	-0.002003535266871245
1.47530e-05	-0.0019954446348349167
1.47533e-05	-0.0019873540027985884
1.47535e-05	-0.001979259535893839
1.47538e-05	-0.001971147793879153
1.47540e-05	-0.0019630360518644667
1.47543e-05	-0.001954902574228881
1.47545e-05	-0.0019466711831334282
1.47548e-05	-0.0019384397920379755
1.47550e-05	-0.0019302084009425785
1.47553e-05	-0.0019219770098471256
1.47555e-05	-0.0019132056816663092
1.47558e-05	-0.0019041822007212072
1.47560e-05	-0.0018951587197760438
1.47563e-05	-0.0018861352388308806
1.47565e-05	-0.00187690725741488
1.47568e-05	-0.001866758053242686
1.47570e-05	-0.001856608849070492
1.47573e-05	-0.001846459644898298
1.47575e-05	-0.0018363104407261726
1.47578e-05	-0.0018261612365539786
1.47580e-05	-0.0018160120323817846
1.47583e-05	-0.00180571188766565
1.47585e-05	-0.0017947317940800566
1.47588e-05	-0.0017837517004944633
1.47590e-05	-0.0017727716069089444
1.47593e-05	-0.001761791513323351
1.47595e-05	-0.0017508114197377577
1.47598e-05	-0.0017398313261522387
1.47600e-05	-0.0017289587891469154
1.47603e-05	-0.0017185707672573737
1.47605e-05	-0.0017081827453679023
1.47608e-05	-0.0016977947234783604
1.47610e-05	-0.0016874067015888185
1.47613e-05	-0.001677018679699347
1.47615e-05	-0.0016666306578098052
1.47618e-05	-0.0016567192371607531
1.47620e-05	-0.0016489547842254762
1.47623e-05	-0.0016411903312901466
1.47625e-05	-0.0016334258783548172
1.47628e-05	-0.0016256614254195403
1.47630e-05	-0.0016178969724842107
1.47633e-05	-0.0016101325195488814
1.47635e-05	-0.0016031270436810767
1.47638e-05	-0.0015995405670123563
1.47640e-05	-0.0015959540903436361
1.47643e-05	-0.00159236761367494
1.47645e-05	-0.0015887811370062198
1.47648e-05	-0.0015851946603374994
1.47650e-05	-0.0015816081836688032
1.47653e-05	-0.001578021707000083
1.47655e-05	-0.0015744352303313626
1.47658e-05	-0.0015708487536626424
1.47660e-05	-0.001568009033741417
1.47663e-05	-0.0015685332635771365
1.47665e-05	-0.0015690574934128561
1.47668e-05	-0.0015695817232485722
1.47670e-05	-0.0015701059530842916
1.47673e-05	-0.0015706301829200113
1.47675e-05	-0.0015711544127557273
1.47678e-05	-0.0015716786425914468
1.47680e-05	-0.0015722028724271665
1.47683e-05	-0.0015727271022628825
1.47685e-05	-0.0015736448340151307
1.47688e-05	-0.0015763351921025512
1.47690e-05	-0.0015790255501899535
1.47693e-05	-0.001581715908277374
1.47695e-05	-0.0015844062663647944
1.47698e-05	-0.0015870966244521966
1.47700e-05	-0.001589786982539617
1.47703e-05	-0.0015924773406270376
1.47705e-05	-0.0015952069761563776
1.47708e-05	-0.0015981135466002611
1.47710e-05	-0.0016010201170441446
1.47713e-05	-0.0016039266874880085
1.47715e-05	-0.001606833257931892
1.47718e-05	-0.0016097398283757755
1.47720e-05	-0.0016126463988196393
1.47723e-05	-0.0016155529692635229
1.47725e-05	-0.0016183248699122143
1.47728e-05	-0.001620490117287966
1.47730e-05	-0.0016226553646637326
1.47733e-05	-0.0016249149187866042
1.47735e-05	-0.0016275993008874861
1.47738e-05	-0.001630283682988386
1.47740e-05	-0.0016331875408154238
1.47743e-05	-0.0016370800811262437
1.47745e-05	-0.0016409726214370373
1.47748e-05	-0.001644974251066989
1.47750e-05	-0.0016494673004128996
1.47753e-05	-0.0016539603497587798
1.47755e-05	-0.0016577825295960881
1.47758e-05	-0.0016642048894262903
1.47760e-05	-0.001669772271264863
1.47763e-05	-0.01444074389363674
1.47765e-05	-0.021346259669875273
1.47768e-05	-0.01741912507261833
1.47770e-05	-0.014078171621681198
1.47773e-05	-0.0043190179119565455
1.47775e-05	0.0033335826688120954
1.47778e-05	0.0019253614411316126
1.47780e-05	0.0012203546946394329
1.47783e-05	-0.005455469858510154
1.47785e-05	-0.010180189511154687
1.47788e-05	-0.00948873283390894
1.47790e-05	-0.006247668417388544
1.47793e-05	-0.0016705053110062946
1.47795e-05	0.0018264272637101378
1.47798e-05	0.0019815069556376294
1.47800e-05	2.592628751516479e-05
1.47803e-05	-0.0035990213264225092
1.47805e-05	-0.0063484541857857305
1.47808e-05	-0.005977023582590734
1.47810e-05	-0.0040103921577089655
1.47813e-05	-0.001195850693186667
1.47815e-05	0.0009508719194731251
1.47818e-05	0.0010115228005147506
1.47820e-05	-0.00024387895888605942
1.47823e-05	-0.002539876679024368
1.47825e-05	-0.004283192666180712
1.47828e-05	-0.004068135360491062
1.47830e-05	-0.0028510830879971954
1.47833e-05	-0.0011009357026107998
1.47835e-05	0.00023195204411995086
1.47838e-05	0.0002586522062152263
1.47840e-05	-0.0005386600042462038
1.47843e-05	-0.001987521804830858
1.47845e-05	-0.003090002342924931
1.47848e-05	-0.0029657309023231335
1.47850e-05	-0.0022139232516744187
1.47853e-05	-0.0011283795419571553
1.47855e-05	-0.0003044272511964406
1.47858e-05	-0.0002988512265359273
1.47860e-05	-0.0008095579770698905
1.47863e-05	-0.001728468385202544
1.47865e-05	-0.0024304585052252426
1.47868e-05	-0.0023640931709079053
1.47870e-05	-0.0019047516733589332
1.47873e-05	-0.0012364732670741407
1.47875e-05	-0.0007321449104487326
1.47878e-05	-0.000740476089786269
1.47880e-05	-0.001072166870981094
1.47883e-05	-0.0016594580692834296
1.47885e-05	-0.0021107345307613055
1.47888e-05	-0.002080572000131995
1.47890e-05	-0.0018041066668958148
1.47893e-05	-0.0013966023255357247
1.47895e-05	-0.001091600850576488
1.47898e-05	-0.0011074779451198267
1.47900e-05	-0.0013255964489998586
1.47903e-05	-0.0017034592718974146
1.47905e-05	-0.0019957189803535887
1.47908e-05	-0.001985983667794513
1.47910e-05	-0.0018215258859013877
1.47913e-05	-0.0015745210587007371
1.47915e-05	-0.0013912231166087314
1.47918e-05	-0.0014083731443725713
1.47920e-05	-0.001551605019789336
1.47923e-05	-0.0017942510482907284
1.47925e-05	-0.0019825868314753436
1.47928e-05	-0.0019810384366309186
1.47930e-05	-0.001881802374528279
1.47933e-05	-0.0017297937592062398
1.47935e-05	-0.0016161291605555192
1.47938e-05	-0.001626199510091083
1.47940e-05	-0.001713448685803846
1.47943e-05	-0.0018612632049238745
1.47945e-05	-0.001973449150829117
1.47948e-05	-0.001965190687374354
1.47950e-05	-0.0018943480935056422
1.47953e-05	-0.0017891610136081557
1.47955e-05	-0.0017068054033908438
1.47958e-05	-0.0017008653946874086
1.47960e-05	-0.0017422730380030318
1.47963e-05	-0.001820717983283024
1.47965e-05	-0.00187604411752167
1.47968e-05	-0.0018552275225839864
1.47970e-05	-0.0017946173977399888
1.47973e-05	-0.0017120058648801867
1.47975e-05	-0.0016433083707234608
1.47978e-05	-0.0016221875158616002
1.47980e-05	-0.0016305317042229804
1.47983e-05	-0.0016619803895398845
1.47985e-05	-0.0016789515707944299
1.47988e-05	-0.001648333951131139
1.47990e-05	-0.001593000388088431
1.47993e-05	-0.0015241975257060875
1.47995e-05	-0.0014645232272002015
1.47998e-05	-0.001435161994782032
1.48000e-05	-0.00142486669504177
1.48003e-05	-0.001429751573284599
1.48005e-05	-0.0014263752498476778
1.48008e-05	-0.001394098628066442
1.48010e-05	-0.0013473514861435739
1.48013e-05	-0.0012932796472600507
1.48015e-05	-0.0012461387672934648
1.48018e-05	-0.001219297516290849
1.48020e-05	-0.0012058094846446935
1.48023e-05	-0.0012033394979283905
1.48025e-05	-0.0011973037918190036
1.48028e-05	-0.001174875133232833
1.48030e-05	-0.0011451592251621315
1.48033e-05	-0.0011124172416633815
1.48035e-05	-0.0010850581241380571
1.48038e-05	-0.0010710883088529799
1.48040e-05	-0.0010660578797034221
1.48043e-05	-0.001068467031757896
1.48045e-05	-0.0010691467685735518
1.48048e-05	-0.0010600291147424207
1.48050e-05	-0.0010467852040330983
1.48053e-05	-0.0010320508690427777
1.48055e-05	-0.0010210598093175472
1.48058e-05	-0.001018793225560199
1.48060e-05	-0.0010224296891598137
1.48063e-05	-0.001030995635974762
1.48065e-05	-0.0010387138416771738
1.48068e-05	-0.001040497403862496
1.48070e-05	-0.001039865650705082
1.48073e-05	-0.001038436125678406
1.48075e-05	-0.0010394537529631312
1.48078e-05	-0.0010460047701838478
1.48080e-05	-0.0010562878995048906
1.48083e-05	-0.0010696594649358025
1.48085e-05	-0.001082466858189756
1.48088e-05	-0.001091490472021173
1.48090e-05	-0.0010989012608729285
1.48093e-05	-0.0011056793232880877
1.48095e-05	-0.0011138232710230342
1.48098e-05	-0.0011252328823849725
1.48100e-05	-0.0011387457676194969
1.48103e-05	-0.0011539249668198431
1.48105e-05	-0.0011684490759760649
1.48108e-05	-0.0011802676420852268
1.48110e-05	-0.0011907073330159022
1.48113e-05	-0.0012003483795052373
1.48115e-05	-0.0012104093878832771
1.48118e-05	-0.0012220464383506254
1.48120e-05	-0.0012344977246365083
1.48123e-05	-0.0012474559931978464
1.48125e-05	-0.0012594333935144562
1.48128e-05	-0.0012684457959019602
1.48130e-05	-0.0012772530806593955
1.48133e-05	-0.0012844291990392394
1.48135e-05	-0.0012914277082249263
1.48138e-05	-0.0012992472999789483
1.48140e-05	-0.0013071254158452815
1.48143e-05	-0.0013151867593643644
1.48145e-05	-0.001322426866612336
1.48148e-05	-0.001327520740801145
1.48150e-05	-0.0013324666457489624
1.48153e-05	-0.0013360458713432386
1.48155e-05	-0.0013395282028650477
1.48158e-05	-0.0013432313207189536
1.48160e-05	-0.0013469500917593807
1.48163e-05	-0.001350294308734238
1.48165e-05	-0.0013536119707833229
1.48168e-05	-0.0013551816595055923
1.48170e-05	-0.0013566274213873512
1.48173e-05	-0.001357086656452943
1.48175e-05	-0.0013574759492891335
1.48178e-05	-0.0013579219334459414
1.48180e-05	-0.0013583719368724634
1.48183e-05	-0.0013580144830473183
1.48185e-05	-0.0013575997825671419
1.48188e-05	-0.0013571850820869623
1.48190e-05	-0.001356770381606783
1.48193e-05	-0.0013553027970199933
1.48195e-05	-0.0013537605656415374
1.48198e-05	-0.0013522183342630815
1.48200e-05	-0.0013508334217523091
1.48203e-05	-0.0013494596627470904
1.48205e-05	-0.0013476939201299736
1.48208e-05	-0.0013459003868768126
1.48210e-05	-0.0013441068536236395
1.48213e-05	-0.0013422569525861233
1.48215e-05	-0.0013404030552168023
1.48218e-05	-0.0013385491578474685
1.48220e-05	-0.0013369579065109145
1.48223e-05	-0.0013357094685996509
1.48225e-05	-0.0013344610306883788
1.48228e-05	-0.0013332125927771068
1.48230e-05	-0.0013320370255886075
1.48233e-05	-0.0013308666247480669
1.48235e-05	-0.001329696223907526
1.48238e-05	-0.0013276406847552308
1.48240e-05	-0.0013255223915592679
1.48243e-05	-0.001323404098363305
1.48245e-05	-0.0013201727782551733
1.48248e-05	-0.0013168625473841315
1.48250e-05	-0.00131355231651309
1.48253e-05	-0.0013089998046930192
1.48255e-05	-0.0013043592183292782
1.48258e-05	-0.0012997186319655056
1.48260e-05	-0.0012940695959674762
1.48263e-05	-0.0012867210579904165
1.48265e-05	-0.0012792570985865072
1.48268e-05	-0.0012717931391825982
1.48270e-05	-0.0012643291797787394
1.48273e-05	-0.0012568652203748304
1.48275e-05	-0.0012494012609709211
1.48278e-05	-0.0012409124283093832
1.48280e-05	-0.0012310859005442193
1.48283e-05	-0.0012212593727790554
1.48285e-05	-0.0012114328450139578
1.48288e-05	-0.0012016063172487939
1.48290e-05	-0.0011917797894836297
1.48293e-05	-0.0011819532617185324
1.48295e-05	-0.0011713294931810121
1.48298e-05	-0.0011606492023106436
1.48300e-05	-0.0011499689114403476
1.48303e-05	-0.0011393070647260628
1.48305e-05	-0.0011286465256552978
1.48308e-05	-0.0011179859865846048
1.48310e-05	-0.00110784565243474
1.48313e-05	-0.001097742199484024
1.48315e-05	-0.0010876387465333765
1.48318e-05	-0.0010784889542895535
1.48320e-05	-0.0010694067741521178
1.48323e-05	-0.0010603245940147437
1.48325e-05	-0.0010527221859833612
1.48328e-05	-0.001045224690011741
1.48330e-05	-0.001037727194040172
1.48333e-05	-0.0010312106807669572
1.48335e-05	-0.0010247637166595034
1.48338e-05	-0.0010178880799263795
1.48340e-05	-0.0010109820513999018
1.48343e-05	-0.001004076022873377
1.48345e-05	-0.0009969256908098916
1.48348e-05	-0.000989758038250163
1.48350e-05	-0.0009825903856903859
1.48353e-05	-0.0009746158350673966
1.48355e-05	-0.0009665840774343338
1.48358e-05	-0.0009585523198012168
1.48360e-05	-0.0009505205621680997
1.48363e-05	-0.000942488804535037
1.48365e-05	-0.0009338146250919886
1.48368e-05	-0.0009243019375666999
1.48370e-05	-0.0009147892500414758
1.48373e-05	-0.0009052765625161872
1.48375e-05	-0.0008957638749908986
1.48378e-05	-0.0008862511874656744
1.48380e-05	-0.0008756698654997398
1.48383e-05	-0.0008650127800835222
1.48385e-05	-0.0008543556946673767
1.48388e-05	-0.0008436986092511591
1.48390e-05	-0.000832907708657611
1.48393e-05	-0.0008219421485086978
1.48395e-05	-0.0008109765883597104
1.48398e-05	-0.0008000110282107228
1.48400e-05	-0.0007890454680618096
1.48403e-05	-0.0007781356963515283
1.48405e-05	-0.0007672298798989506
1.48408e-05	-0.0007565698254849286
1.48410e-05	-0.0007461770063896964
1.48413e-05	-0.0007360771474202692
1.48415e-05	-0.0007262642794102543
1.48418e-05	-0.0007167608974356128
1.48420e-05	-0.0007076290228075921
1.48423e-05	-0.0006989398467288122
1.48425e-05	-0.0006907640444562108
1.48428e-05	-0.0006831724936528347
1.48430e-05	-0.0006762445704884836
1.48433e-05	-0.000670107866476114
1.48435e-05	-0.0006649200910672078
1.48438e-05	-0.000660768667430483
1.48440e-05	-0.0006576669258525166
1.48443e-05	-0.0006556138488316301
1.48445e-05	-0.0006546070417424867
1.48448e-05	-0.0006551332467141953
1.48450e-05	-0.0006557632282282639
1.48453e-05	-0.0006584237700062695
1.48455e-05	-0.0006612282733167223
1.48458e-05	-0.0006666407223194251
1.48460e-05	-0.000672238068005645
1.48463e-05	-0.0006778354136918269
1.48465e-05	-0.0006862459280132157
1.48468e-05	-0.000694855888800214
1.48470e-05	-0.0007034658495871539
1.48473e-05	-0.0007145709894382089
1.48475e-05	-0.0007258530311071008
1.48478e-05	-0.0007371350727759161
1.48480e-05	-0.0007502311551730954
1.48483e-05	-0.0007634558484211438
1.48485e-05	-0.0007778090142029252
1.48488e-05	-0.0007922421858030285
1.48490e-05	-0.0008075273306580222
1.48493e-05	-0.0008228728782390096
1.48495e-05	-0.0008387150320048757
1.48498e-05	-0.0008548373134299052
1.48500e-05	-0.0008711359991055253
1.48503e-05	-0.0008875167293475536
1.48505e-05	-0.0009038848118522735
1.48508e-05	-0.0009201455427553789
1.48510e-05	-0.0009362057401071019
1.48513e-05	-0.0009519794502442461
1.48515e-05	-0.0009673854095857602
1.48518e-05	-0.0009823315630399262
1.48520e-05	-0.0009960504082483323
1.48523e-05	-0.001009684427469201
1.48525e-05	-0.0010233184466899774
1.48528e-05	-0.0010349792673348104
1.48530e-05	-0.0010465001932440912
1.48533e-05	-0.0010567404279777637
1.48535e-05	-0.0010668898649806014
1.48538e-05	-0.0010768358002534847
1.48540e-05	-0.001086767307773795
1.48543e-05	-0.0010962461181587913
1.48545e-05	-0.0011056928334739742
1.48548e-05	-0.0011151395487890932
1.48550e-05	-0.0011238280969575929
1.48553e-05	-0.0011324628930132476
1.48555e-05	-0.0011410976890688439
1.48558e-05	-0.0011498468720223085
1.48560e-05	-0.0011586041647144588
1.48563e-05	-0.00116736145740655
1.48565e-05	-0.0011760457263349786
1.48568e-05	-0.0011846346824717672
1.48570e-05	-0.0011932236386084977
1.48573e-05	-0.0012018125947452862
1.48575e-05	-0.0012104256509699346
1.48578e-05	-0.0012190404158291552
1.48580e-05	-0.0012276551806884343
1.48583e-05	-0.0012362699455477134
1.48585e-05	-0.001244884710406934
1.48588e-05	-0.0012534994752662128
1.48590e-05	-0.001262114240125492
1.48593e-05	-0.0012705034359589932
1.48595e-05	-0.0012785982123807236
1.48598e-05	-0.001286692988802509
1.48600e-05	-0.0012947877652242942
1.48603e-05	-0.001302882541646025
1.48605e-05	-0.0013109773180678102
1.48608e-05	-0.0013190720944895955
1.48610e-05	-0.001327166870911326
1.48613e-05	-0.0013340575084644173
1.48615e-05	-0.0013408627756493902
1.48618e-05	-0.0013476680428343168
1.48620e-05	-0.0013544733100192897
1.48623e-05	-0.0013612785772042623
1.48625e-05	-0.0013672288762238013
1.48628e-05	-0.001372730363242505
1.48630e-05	-0.0013778205881827168
1.48633e-05	-0.0013828945864713536
1.48635e-05	-0.001388717492937599
1.48638e-05	-0.001395726831470714
1.48640e-05	-0.001403915346945017
1.48643e-05	-0.001413628889530166
1.48645e-05	-0.0014234450294666131
1.48648e-05	-0.0014348713550994445
1.48650e-05	-0.0014464118387827922
1.48653e-05	-0.0014598670541542604
1.48655e-05	-0.0014734580191085147
1.48658e-05	-0.0014898441977283041
1.48660e-05	-0.0015064285498527865
1.48663e-05	-0.0015254832955736539
1.48665e-05	-0.0015447131858866534
1.48668e-05	-0.0015654591749584448
1.48670e-05	-0.0015871634018447772
1.48673e-05	-0.001609817069030608
1.48675e-05	-0.001633595417029706
1.48678e-05	-0.0016585451375575294
1.48680e-05	-0.0016845384413649977
1.48683e-05	-0.0017114099903474036
1.48685e-05	-0.0017389925033944144
1.48688e-05	-0.0017671188003965633
1.48690e-05	-0.001795634210393828
1.48693e-05	-0.001824480720660452
1.48695e-05	-0.0018536913573011565
1.48698e-05	-0.001883218587730654
1.48700e-05	-0.0019129054717057783
1.48703e-05	-0.001942571658395249
1.48705e-05	-0.001972035765020931
1.48708e-05	-0.002001116416511217
1.48710e-05	-0.0020296397386595517
1.48713e-05	-0.0020574925046806763
1.48715e-05	-0.0020846190168458045
1.48718e-05	-0.0021109127824103144
1.48720e-05	-0.002136198649568797
1.48723e-05	-0.002160287089327153
1.48725e-05	-0.0021829876616329858
1.48728e-05	-0.002204109911020103
1.48730e-05	-0.00222348468882689
1.48733e-05	-0.0022404075559522302
1.48735e-05	-0.0022571648430372866
1.48738e-05	-0.002270522680106257
1.48740e-05	-0.002283639504857267
1.48743e-05	-0.002296756329608366
1.48745e-05	-0.002304621715398579
1.48748e-05	-0.002312114787587932
1.48750e-05	-0.0023196078597773353
1.48753e-05	-0.0023271009319667385
1.48755e-05	-0.0023289296009030296
1.48758e-05	-0.0023303566781256472
1.48760e-05	-0.0023317837553482653
1.48763e-05	-0.0023332108325708734
1.48765e-05	-0.0023302335069237097
1.48768e-05	-0.0023269439203697237
1.48770e-05	-0.0023236543338157377
1.48773e-05	-0.0023169552236202077
1.48775e-05	-0.002310014386912457
1.48778e-05	-0.0023030735502047057
1.48780e-05	-0.00229353313833604
1.48783e-05	-0.0022838084232323346
1.48785e-05	-0.0022740837081286287
1.48788e-05	-0.0022622057012161812
1.48790e-05	-0.0022501750314177275
1.48793e-05	-0.002238144361619274
1.48795e-05	-0.0022247436062781847
1.48798e-05	-0.002211245715373639
1.48800e-05	-0.002197747824469093
1.48803e-05	-0.0021836897240303816
1.48805e-05	-0.0021695919061673545
1.48808e-05	-0.0021554940883043274
1.48810e-05	-0.0021414203311872393
1.48813e-05	-0.002127348279915443
1.48815e-05	-0.0021137848742602255
1.48818e-05	-0.002100257530279349
1.48820e-05	-0.002087960291929632
1.48823e-05	-0.0020757502649253507
1.48825e-05	-0.002063540237921152
1.48828e-05	-0.0020549102904596794
1.48830e-05	-0.002046534161488095
1.48833e-05	-0.0020381580325165675
1.48835e-05	-0.0020297819035449832
1.48838e-05	-0.002021405774573399
1.48840e-05	-0.0020130296456018714
1.48843e-05	-0.0020046535166302875
1.48845e-05	-0.0019984648416018786
1.48848e-05	-0.0019951312966224083
1.48850e-05	-0.0019917977516429155
1.48853e-05	-0.0019884642066634226
1.48855e-05	-0.00198513066168393
1.48858e-05	-0.00198179711670446
1.48860e-05	-0.001978463571724967
1.48863e-05	-0.001975130026745474
1.48865e-05	-0.00197608802779862
1.48868e-05	-0.0019773502884975805
1.48870e-05	-0.001978612549196541
1.48873e-05	-0.0019798748098954926
1.48875e-05	-0.0019811370705944526
1.48878e-05	-0.001982399331293413
1.48880e-05	-0.0019836615919923647
1.48883e-05	-0.001984923852691325
1.48885e-05	-0.001986186113390285
1.48888e-05	-0.0019886396762320725
1.48890e-05	-0.0019926481621186866
1.48893e-05	-0.001996656648005301
1.48895e-05	-0.002000665133891888
1.48898e-05	-0.0020046736197785026
1.48900e-05	-0.0020086821056651168
1.48903e-05	-0.002012690591551704
1.48905e-05	-0.002016699077438318
1.48908e-05	-0.0020207075633249323
1.48910e-05	-0.0020247160492115196
1.48913e-05	-0.0020289665233412697
1.48915e-05	-0.002033234153819016
1.48918e-05	-0.0020375017842967336
1.48920e-05	-0.0020412918959360677
1.48923e-05	-0.0020450481527101356
1.48925e-05	-0.0020488044094841783
1.48928e-05	-0.00205196538021504
1.48930e-05	-0.0020550841466867834
1.48933e-05	-0.002058108989283172
1.48935e-05	-0.0020611271729168573
