Time(s)	Current(A)
2.55000e-06	0.004325482891984858
2.55025e-06	0.004327907088826483
2.55050e-06	0.004330331285668104
2.55075e-06	0.004332755482509731
2.55100e-06	0.004335179679351356
2.55125e-06	0.004337603876192982
2.55150e-06	0.004340028073034604
2.55175e-06	0.004342452269876229
2.55200e-06	0.004344876466717855
2.55225e-06	0.004347300663559477
2.55250e-06	0.004349724860401102
2.55275e-06	0.004345037077868413
2.55300e-06	0.004334508976283289
2.55325e-06	0.004323909296038366
2.55350e-06	0.004313309615793443
2.55375e-06	0.004302709935548519
2.55400e-06	0.004292110255303613
2.55425e-06	0.00428151057505869
2.55450e-06	0.004270910894813767
2.55475e-06	0.004260311214568862
2.55500e-06	0.004249711534323938
2.55525e-06	0.004239111854079015
2.55550e-06	0.0042285121738340915
2.55575e-06	0.004217912493589186
2.55600e-06	0.00420524690332956
2.55625e-06	0.004190411269992063
2.55650e-06	0.004175575636654592
2.55675e-06	0.0041607400033170944
2.55700e-06	0.004145904369979598
2.55725e-06	0.0041310687366421265
2.55750e-06	0.00411623310330463
2.55775e-06	0.0041013974699671335
2.55800e-06	0.004086561836629636
2.55825e-06	0.004071726203292165
2.55850e-06	0.004056890569954668
2.55875e-06	0.004042054936617172
2.55900e-06	0.0040272193032797
2.55925e-06	0.004019783319336374
2.55950e-06	0.004012439420604614
2.55975e-06	0.004005095521872853
2.56000e-06	0.0039977516231411055
2.56025e-06	0.003990407724409345
2.56050e-06	0.003983063825677584
2.56075e-06	0.003975719926945836
2.56100e-06	0.003968376028214075
2.56125e-06	0.003961032129482314
2.56150e-06	0.0039536882307505666
2.56175e-06	0.003946344332018806
2.56200e-06	0.003939000433287046
2.56225e-06	0.003931656534555285
2.56250e-06	0.003924312635823537
2.56275e-06	0.003916968737091776
2.56300e-06	0.0039096248383600155
2.56325e-06	0.0039022809396282677
2.56350e-06	0.003894937040896507
2.56375e-06	0.0038875931421647465
2.56400e-06	0.003880249243432986
2.56425e-06	0.003875668277800215
2.56450e-06	0.003873989512071509
2.56475e-06	0.0038723107463428026
2.56500e-06	0.003870631980614099
2.56525e-06	0.0038689532148853925
2.56550e-06	0.003867274449156686
2.56575e-06	0.003865595683427983
2.56600e-06	0.0038639169176992766
2.56625e-06	0.0038622381519705703
2.56650e-06	0.003860559386241864
2.56675e-06	0.0038588806205131602
2.56700e-06	0.003857201854784454
2.56725e-06	0.0038555230890557476
2.56750e-06	0.0038538443233270443
2.56775e-06	0.003852165557598338
2.56800e-06	0.0038504867918696317
2.56825e-06	0.0038488080261409254
2.56850e-06	0.0038471292604122216
2.56875e-06	0.0038454504946835153
2.56900e-06	0.003843771728954809
2.56925e-06	0.0038420929632261057
2.56950e-06	0.003837118814785305
2.56975e-06	0.0038321036568319485
2.57000e-06	0.0038270884988786005
2.57025e-06	0.003822073340925244
2.57050e-06	0.003817058182971887
2.57075e-06	0.003812043025018531
2.57100e-06	0.003807027867065183
2.57125e-06	0.003802012709111826
2.57150e-06	0.00379699755115847
2.57175e-06	0.003791982393205122
2.57200e-06	0.003786967235251765
2.57225e-06	0.003781952077298409
2.57250e-06	0.003776936919345052
2.57275e-06	0.003771921761391704
2.57300e-06	0.003766906603438348
2.57325e-06	0.003761891445484991
2.57350e-06	0.0037522947354878575
2.57375e-06	0.003737885538388577
2.57400e-06	0.003723476341289297
2.57425e-06	0.003709067144190041
2.57450e-06	0.0036946579470907605
2.57475e-06	0.0036802487499914805
2.57500e-06	0.0036658395528922
2.57525e-06	0.003651430355792944
2.57550e-06	0.0036370211586936635
2.57575e-06	0.0036226119615943835
2.57600e-06	0.0036082027644951274
2.57625e-06	0.003593793567395847
2.57650e-06	0.0035793843702965665
2.57675e-06	0.0035649751731972865
2.57700e-06	0.0035505659760980304
2.57725e-06	0.00353615677899875
2.57750e-06	0.00352174758189947
2.57775e-06	0.0035114962657935315
2.57800e-06	0.003501296692592092
2.57825e-06	0.003491097119390652
2.57850e-06	0.0034808975461892294
2.57875e-06	0.0034706979729877897
2.57900e-06	0.00346049839978635
2.57925e-06	0.0034502988265849104
2.57950e-06	0.003440099253383488
2.57975e-06	0.0034298996801820484
2.58000e-06	0.0034197001069806087
2.58025e-06	0.003409500533779186
2.58050e-06	0.0033993009605777463
2.58075e-06	0.0033891013873763066
2.58100e-06	0.003378901814174867
2.58125e-06	0.0033687022409734447
2.58150e-06	0.003358502667772005
2.58175e-06	0.0033483030945705653
2.58200e-06	0.0033381035213691426
2.58225e-06	0.003341729684509487
2.58250e-06	0.0033455279025395566
2.58275e-06	0.0033493261205696195
2.58300e-06	0.003353124338599689
2.58325e-06	0.003356922556629758
2.58350e-06	0.0033607207746598274
2.58375e-06	0.0033645189926898903
2.58400e-06	0.0033683172107199597
2.58425e-06	0.003372115428750029
2.58450e-06	0.003375913646780092
2.58475e-06	0.003379711864810161
2.58500e-06	0.0033835100828402305
2.58525e-06	0.0033873083008703
2.58550e-06	0.003391106518900363
2.58575e-06	0.0033949047369304323
2.58600e-06	0.0033987029549605013
2.58625e-06	0.003402501172990564
2.58650e-06	0.0034062993910206336
2.58675e-06	0.003413963137382169
2.58700e-06	0.00342167498845469
2.58725e-06	0.0034293868395272246
2.58750e-06	0.003437098690599759
2.58775e-06	0.003444810541672294
2.58800e-06	0.0034525223927448154
2.58825e-06	0.00346023424381735
2.58850e-06	0.0034679460948898845
2.58875e-06	0.003475657945962406
2.58900e-06	0.0034833697970349407
2.58925e-06	0.0034910816481074753
2.58950e-06	0.00349879349918001
2.58975e-06	0.0035065053502525314
2.59000e-06	0.0035103307456082404
2.59025e-06	0.0035100737868112184
2.59050e-06	0.0035098168280141965
2.59075e-06	0.003509559869217174
2.59100e-06	0.003509302910420152
2.59125e-06	0.0035090459516231303
2.59150e-06	0.0035087889928261083
2.59175e-06	0.003508532034029086
2.59200e-06	0.003508275075232064
2.59225e-06	0.003508018116435042
2.59250e-06	0.0035077611576380197
2.59275e-06	0.0035075041988409978
2.59300e-06	0.003507247240043976
2.59325e-06	0.003506990281246954
2.59350e-06	0.0034971108096372135
2.59375e-06	0.003487111590309048
2.59400e-06	0.0034771123709808993
2.59425e-06	0.0034671131516527333
2.59450e-06	0.0034571139323245677
2.59475e-06	0.003447114712996419
2.59500e-06	0.003437115493668253
2.59525e-06	0.0034271162743400876
2.59550e-06	0.0034171170550119385
2.59575e-06	0.003407117835683773
2.59600e-06	0.0033971186163556074
2.59625e-06	0.0033871193970274414
2.59650e-06	0.003376132671331592
2.59675e-06	0.0033641086635939565
2.59700e-06	0.0033520846558563206
2.59725e-06	0.003340060648118705
2.59750e-06	0.0033280366403810693
2.59775e-06	0.0033160126326434334
2.59800e-06	0.003303988624905798
2.59825e-06	0.0032919646171681825
2.59850e-06	0.0032799406094305467
2.59875e-06	0.003267916601692911
2.59900e-06	0.003255892593955296
2.59925e-06	0.00324386858621766
2.59950e-06	0.003231844578480024
2.59975e-06	0.0032294712385485965
2.60000e-06	0.0032272179967115715
2.60025e-06	0.003224964754874546
2.60050e-06	0.003222711513037521
2.60075e-06	0.0032204582712005
2.60100e-06	0.0032182050293634743
2.60125e-06	0.0032159517875264493
2.60150e-06	0.0032136985456894277
2.60175e-06	0.0032114453038524027
2.60200e-06	0.0032091920620153772
2.60225e-06	0.003206938820178352
2.60250e-06	0.003204685578341331
2.60275e-06	0.0032024323365043056
2.60300e-06	0.0032001790946672806
2.60325e-06	0.003197925852830259
2.60350e-06	0.003208142622556536
2.60375e-06	0.003218514575805516
2.60400e-06	0.0032288865290544784
2.60425e-06	0.0032392584823034585
2.60450e-06	0.0032496304355524386
2.60475e-06	0.0032600023888014187
2.60500e-06	0.003270374342050381
2.60525e-06	0.003280746295299361
2.60550e-06	0.003291118248548341
2.60575e-06	0.0033014902017973035
2.60600e-06	0.0033118621550462836
2.60625e-06	0.0033222341082952637
2.60650e-06	0.0033326060615442433
2.60675e-06	0.003342978014793206
2.60700e-06	0.0033533499680421857
2.60725e-06	0.003362777751212219
2.60750e-06	0.0033721937846225686
2.60775e-06	0.003381609818032934
2.60800e-06	0.0033910258514432997
2.60825e-06	0.0034004418848536493
2.60850e-06	0.003409857918264015
2.60875e-06	0.0034192739516743804
2.60900e-06	0.003428689985084746
2.60925e-06	0.0034381060184950954
2.60950e-06	0.003447522051905461
2.60975e-06	0.003456938085315826
2.61000e-06	0.0034663541187261756
2.61025e-06	0.003475770152136541
2.61050e-06	0.0034851861855469068
2.61075e-06	0.0034946022189572723
2.61100e-06	0.003504018252367622
2.61125e-06	0.0035134342857779874
2.61150e-06	0.003522850319188353
2.61175e-06	0.00351954077416565
2.61200e-06	0.0035160728652087114
2.61225e-06	0.0035126049562517725
2.61250e-06	0.0035091370472948398
2.61275e-06	0.0035056691383379013
2.61300e-06	0.0035022012293809625
2.61325e-06	0.0034987333204240237
2.61350e-06	0.003495265411467091
2.61375e-06	0.0034917975025101525
2.61400e-06	0.0034883295935532136
2.61425e-06	0.003484861684596281
2.61450e-06	0.0034813937756393424
2.61475e-06	0.0034779258666824036
2.61500e-06	0.003474457957725465
2.61525e-06	0.0034709900487685324
2.61550e-06	0.0034675221398115935
2.61575e-06	0.003464054230854655
2.61600e-06	0.0034605863218977223
2.61625e-06	0.0034516142740591434
2.61650e-06	0.0034425737297594378
2.61675e-06	0.003433533185459748
2.61700e-06	0.0034244926411600425
2.61725e-06	0.0034154520968603373
2.61750e-06	0.003406411552560632
2.61775e-06	0.003397371008260942
2.61800e-06	0.0033883304639612368
2.61825e-06	0.0033792899196615316
2.61850e-06	0.003371973893930823
2.61875e-06	0.0033664693118535577
2.61900e-06	0.0033609647297762925
2.61925e-06	0.003355460147699037
2.61950e-06	0.003349955565621771
2.61975e-06	0.003344450983544506
2.62000e-06	0.0033389464014672407
2.62025e-06	0.0033334418193899846
2.62050e-06	0.0033279372373127194
2.62075e-06	0.003322432655235454
2.62100e-06	0.0033368599489018783
2.62125e-06	0.003351535285537806
2.62150e-06	0.003366210622173734
2.62175e-06	0.003380885958809662
2.62200e-06	0.0033955612954455648
2.62225e-06	0.0034102366320814927
2.62250e-06	0.00342491196871742
2.62275e-06	0.0034395873053533234
2.62300e-06	0.0034542626419892513
2.62325e-06	0.003468937978625179
2.62350e-06	0.003483613315261082
2.62375e-06	0.003520867175708772
2.62400e-06	0.00355840201543644
2.62425e-06	0.0035959368551641076
2.62450e-06	0.0036334716948917115
2.62475e-06	0.0036710065346193792
2.62500e-06	0.003708541374347047
2.62525e-06	0.003746076214074651
2.62550e-06	0.0037836110538023186
2.62575e-06	0.003821145893529986
2.62600e-06	0.0038586807332576536
2.62625e-06	0.0038962155729852575
2.62650e-06	0.003939987468236387
2.62675e-06	0.00398383698075715
2.62700e-06	0.0040276864932778395
2.62725e-06	0.0040715360057986035
2.62750e-06	0.004115385518319367
2.62775e-06	0.004159235030840056
2.62800e-06	0.00420308454336082
2.62825e-06	0.004246934055881583
2.62850e-06	0.004290783568402347
2.62875e-06	0.004322451787508526
2.62900e-06	0.004353968416055373
2.62925e-06	0.00438548504460222
2.62950e-06	0.004417001673149014
2.62975e-06	0.004448518301695861
2.63000e-06	0.004480034930242708
2.63025e-06	0.004511551558789556
2.63050e-06	0.0045430681873363495
2.63075e-06	0.004574584815883197
2.63100e-06	0.00459136348578544
2.63125e-06	0.004607958748612556
2.63150e-06	0.004624554011439701
2.63175e-06	0.004641149274266846
2.63200e-06	0.004657744537093962
2.63225e-06	0.004674339799921107
2.63250e-06	0.004690935062748251
2.63275e-06	0.004707530325575396
2.63300e-06	0.004724125588402513
2.63325e-06	0.004740720851229657
2.63350e-06	0.004757316114056802
2.63375e-06	0.004773911376883919
2.63400e-06	0.0047905066397110636
2.63425e-06	0.0048071019025382085
2.63450e-06	0.004823697165365353
2.63475e-06	0.00484029242819247
2.63500e-06	0.004856887691019615
2.63525e-06	0.0048734829538467596
2.63550e-06	0.004881615748538374
2.63575e-06	0.00488964323173013
2.63600e-06	0.004897670714921886
2.63625e-06	0.004905698198113628
2.63650e-06	0.004913725681305384
2.63675e-06	0.00492175316449714
2.63700e-06	0.0049297806476888955
2.63725e-06	0.004937808130880638
2.63750e-06	0.004945835614072394
2.63775e-06	0.00495386309726415
2.63800e-06	0.004961890580455892
2.63825e-06	0.004969918063647647
2.63850e-06	0.004977945546839404
2.63875e-06	0.004985973030031159
2.63900e-06	0.004994000513222902
2.63925e-06	0.005002027996414657
2.63950e-06	0.005010055479606413
2.63975e-06	0.0050180829627981555
2.64000e-06	0.005010587056325675
2.64025e-06	0.00500289796845226
2.64050e-06	0.004995208880578858
2.64075e-06	0.004987519792705443
2.64100e-06	0.004979830704832027
2.64125e-06	0.004972141616958612
2.64150e-06	0.00496445252908521
2.64175e-06	0.004956763441211795
2.64200e-06	0.004949074353338379
2.64225e-06	0.004941385265464977
2.64250e-06	0.0049204774509801945
2.64275e-06	0.004885684614402067
2.64300e-06	0.004850891777823939
2.64325e-06	0.00481609894124587
2.64350e-06	0.004781306104667742
2.64375e-06	0.004746513268089615
2.64400e-06	0.004711720431511546
2.64425e-06	0.004676927594933418
2.64450e-06	0.00464213475835529
2.64475e-06	0.004607341921777221
2.64500e-06	0.004572549085199094
2.64525e-06	0.004521801898359751
2.64550e-06	0.004470856167014187
2.64575e-06	0.0044199104356687086
2.64600e-06	0.004368964704323144
2.64625e-06	0.00431801897297758
2.64650e-06	0.004267073241632103
2.64675e-06	0.004216127510286539
2.64700e-06	0.004165181778940975
2.64725e-06	0.004115457066877935
2.64750e-06	0.004065747549834935
2.64775e-06	0.004016038032791851
2.64800e-06	0.003966328515748767
2.64825e-06	0.003916618998705768
2.64850e-06	0.0038669094816626832
2.64875e-06	0.0038171999646195993
2.64900e-06	0.0037674904475766
2.64925e-06	0.003739163674554442
2.64950e-06	0.003711102999887074
2.64975e-06	0.0036830423252197063
2.65000e-06	0.0036549816505523857
2.65025e-06	0.003626920975885018
2.65050e-06	0.00359886030121765
2.65075e-06	0.0035707996265503298
2.65100e-06	0.0035427389518829615
2.65125e-06	0.0035146782772155936
2.65150e-06	0.0034866176025482257
2.65175e-06	0.0034585569278809056
2.65200e-06	0.0034304962532135377
2.65225e-06	0.003414100362951843
2.65250e-06	0.0034099572254670603
2.65275e-06	0.0034058140879822704
2.65300e-06	0.003401670950497481
2.65325e-06	0.003397527813012698
2.65350e-06	0.0033933846755279085
2.65375e-06	0.0033892415380431186
2.65400e-06	0.0033850984005583287
2.65425e-06	0.003380955263073546
2.65450e-06	0.0033768121255887563
2.65475e-06	0.003372668988103967
2.65500e-06	0.003368525850619184
2.65525e-06	0.0033643827131343944
2.65550e-06	0.0033717697284964833
2.65575e-06	0.003379300231275403
2.65600e-06	0.0033868307340543104
2.65625e-06	0.00339436123683323
2.65650e-06	0.00340189173961215
2.65675e-06	0.003409422242391057
2.65700e-06	0.0034169527451699765
2.65725e-06	0.0034244832479488965
2.65750e-06	0.0034320137507278035
2.65775e-06	0.003439902496764561
2.65800e-06	0.003448167543461474
2.65825e-06	0.003456432590158387
2.65850e-06	0.0034646976368552865
2.65875e-06	0.0034729626835521992
2.65900e-06	0.0034812277302491124
2.65925e-06	0.0034894927769460117
2.65950e-06	0.003497757823642925
2.65975e-06	0.003506022870339838
2.66000e-06	0.0035142879170367513
2.66025e-06	0.003532224632332758
2.66050e-06	0.003550281707069223
2.66075e-06	0.003568338781805688
2.66100e-06	0.0035863958565421224
2.66125e-06	0.0036044529312785874
2.66150e-06	0.0036225100060150524
2.66175e-06	0.003640567080751487
2.66200e-06	0.003658624155487952
2.66225e-06	0.0036766812302244174
2.66250e-06	0.0036947383049608824
2.66275e-06	0.003712795379697317
2.66300e-06	0.003753636967559836
2.66325e-06	0.0037947620981454845
2.66350e-06	0.0038358872287310637
2.66375e-06	0.0038770123593167127
2.66400e-06	0.003918137489902361
2.66425e-06	0.00395926262048801
2.66450e-06	0.004000387751073589
2.66475e-06	0.004041512881659238
2.66500e-06	0.004082638012244887
2.66525e-06	0.004123763142830466
2.66550e-06	0.004164888273416115
2.66575e-06	0.0042169301502884594
2.66600e-06	0.004269107881016975
2.66625e-06	0.004321285611745578
2.66650e-06	0.004373463342474182
2.66675e-06	0.004425641073202785
2.66700e-06	0.0044778188039313
2.66725e-06	0.004529996534659904
2.66750e-06	0.004582174265388507
2.66775e-06	0.004630562356235263
2.66800e-06	0.004674969788805436
2.66825e-06	0.004719377221375608
2.66850e-06	0.00476378465394578
2.66875e-06	0.004808192086515878
2.66900e-06	0.004852599519086051
2.66925e-06	0.004897006951656223
2.66950e-06	0.004941414384226321
2.66975e-06	0.004985821816796493
2.67000e-06	0.005004278202483445
2.67025e-06	0.005022411639399468
2.67050e-06	0.005040545076315523
2.67075e-06	0.0050586785132315775
2.67100e-06	0.005076811950147632
2.67125e-06	0.005094945387063656
2.67150e-06	0.005113078823979711
2.67175e-06	0.005131212260895765
2.67200e-06	0.005149345697811789
2.67225e-06	0.0051674791347278435
2.67250e-06	0.005185612571643898
2.67275e-06	0.005203746008559953
2.67300e-06	0.005221879445475976
2.67325e-06	0.005228152449906334
2.67350e-06	0.005221967191754025
2.67375e-06	0.0052157819336017255
2.67400e-06	0.005209596675449416
2.67425e-06	0.005203411417297107
2.67450e-06	0.005197226159144808
2.67475e-06	0.0051910409009924986
2.67500e-06	0.005184855642840189
2.67525e-06	0.0051786703846878794
2.67550e-06	0.005172485126535581
2.67575e-06	0.005166299868383272
2.67600e-06	0.005160114610230962
2.67625e-06	0.005153929352078663
2.67650e-06	0.005147744093926353
2.67675e-06	0.005135044068703227
2.67700e-06	0.005122262970218234
2.67725e-06	0.005109481871733263
2.67750e-06	0.005096700773248269
2.67775e-06	0.005083919674763277
2.67800e-06	0.005071138576278305
2.67825e-06	0.005058357477793312
2.67850e-06	0.0050455763793083195
2.67875e-06	0.005032795280823348
2.67900e-06	0.005020014182338355
2.67925e-06	0.005007233083853362
2.67950e-06	0.004994451985368369
2.67975e-06	0.004981670886883398
2.68000e-06	0.0049688897883984045
2.68025e-06	0.004956108689913412
2.68050e-06	0.004950179741450106
2.68075e-06	0.004944336064823424
2.68100e-06	0.004938492388196741
2.68125e-06	0.004932648711570059
2.68150e-06	0.004926805034943387
2.68175e-06	0.004920961358316705
2.68200e-06	0.004915117681690022
2.68225e-06	0.00490927400506335
2.68250e-06	0.004903430328436668
2.68275e-06	0.004897586651809985
2.68300e-06	0.004891742975183313
2.68325e-06	0.004885899298556631
2.68350e-06	0.004880055621929949
2.68375e-06	0.004874211945303266
2.68400e-06	0.004868368268676594
2.68425e-06	0.004867894820278312
2.68450e-06	0.004867488201885655
2.68475e-06	0.004867081583492998
2.68500e-06	0.004866674965100342
2.68525e-06	0.004866268346707685
2.68550e-06	0.004865861728315028
2.68575e-06	0.004865455109922372
2.68600e-06	0.004865048491529716
2.68625e-06	0.004864641873137059
2.68650e-06	0.004864235254744402
2.68675e-06	0.004863828636351745
2.68700e-06	0.004863422017959089
2.68725e-06	0.004863015399566433
2.68750e-06	0.004862608781173776
2.68775e-06	0.004862202162781119
2.68800e-06	0.004861795544388462
2.68825e-06	0.004861388925995806
2.68850e-06	0.004860982307603149
2.68875e-06	0.004860575689210492
2.68900e-06	0.004860169070817836
2.68925e-06	0.004859762452425179
2.68950e-06	0.004859355834032523
2.68975e-06	0.004858949215639866
2.69000e-06	0.00485854259724721
2.69025e-06	0.0048581359788545525
2.69050e-06	0.004857729360461896
2.69075e-06	0.00485732274206924
2.69100e-06	0.004856916123676583
2.69125e-06	0.004856509505283926
2.69150e-06	0.00485610288689127
2.69175e-06	0.004855696268498614
2.69200e-06	0.004856564664478263
2.69225e-06	0.0048587723424670425
2.69250e-06	0.004860980020455818
2.69275e-06	0.004863187698444597
2.69300e-06	0.0048653953764333764
2.69325e-06	0.004867603054422152
2.69350e-06	0.004869810732410932
2.69375e-06	0.004872018410399711
2.69400e-06	0.004874226088388487
2.69425e-06	0.004876433766377266
2.69450e-06	0.004878641444366045
2.69475e-06	0.004880849122354825
2.69500e-06	0.004883056800343601
2.69525e-06	0.00488526447833238
2.69550e-06	0.0048874721563211595
2.69575e-06	0.0048896798343099354
2.69600e-06	0.004891887512298715
2.69625e-06	0.0048940951902874934
2.69650e-06	0.004896302868276273
2.69675e-06	0.004898510546265049
2.69700e-06	0.004900718224253828
2.69725e-06	0.004902925902242608
2.69750e-06	0.004905133580231384
2.69775e-06	0.004907341258220163
2.69800e-06	0.0049095489362089425
2.69825e-06	0.004911756614197718
2.69850e-06	0.004913964292186497
2.69875e-06	0.0049161719701752765
2.69900e-06	0.004918379648164056
2.69925e-06	0.004920587326152832
2.69950e-06	0.004922795004141611
2.69975e-06	0.004925002682130391
