Time(s)	Current(A)
1.10000e-05	-0.004669242160592575
1.10003e-05	-0.004685897526808174
1.10005e-05	-0.00470953702162752
1.10008e-05	-0.004733176516446867
1.10010e-05	-0.004756816011266053
1.10013e-05	-0.0047879091491025575
1.10015e-05	-0.004820815569631446
1.10018e-05	-0.004853721990160112
1.10020e-05	-0.00489229376581118
1.10023e-05	-0.0049322437789718855
1.10025e-05	-0.00497219379213232
1.10028e-05	-0.005016835720116175
1.10030e-05	-0.0050626190722229845
1.10033e-05	-0.0051112463382156385
1.10035e-05	-0.005160565456476976
1.10038e-05	-0.0052114247003671645
1.10040e-05	-0.0052634245606701085
1.10043e-05	-0.005316320142136208
1.10045e-05	-0.005370049744426653
1.10047e-05	-0.005424411061567361
1.10050e-05	-0.005479089541320549
1.10053e-05	-0.005533751021115798
1.10055e-05	-0.005588060781604285
1.10058e-05	-0.005641684761409515
1.10060e-05	-0.005694323164907629
1.10062e-05	-0.005745762767864042
1.10065e-05	-0.00579581500768521
1.10068e-05	-0.005844203921564888
1.10070e-05	-0.005890582137565818
1.10073e-05	-0.005933465409030119
1.10075e-05	-0.005975597510983149
1.10078e-05	-0.0060113466311837995
1.10080e-05	-0.006045542933478299
1.10083e-05	-0.00607973923577303
1.10085e-05	-0.006103518266147014
1.10088e-05	-0.006124763037925482
1.10090e-05	-0.006146007809704095
1.10093e-05	-0.006167252581482707
1.10095e-05	-0.006188497353261175
1.10098e-05	-0.00619613096516026
1.10100e-05	-0.006200453326361314
1.10103e-05	-0.006204775687562338
1.10105e-05	-0.0062090980487633915
1.10108e-05	-0.006213420409964445
1.10110e-05	-0.006202639627068016
1.10113e-05	-0.006188184631475568
1.10115e-05	-0.00617372963588312
1.10118e-05	-0.006159274640290769
1.10120e-05	-0.006144819644698321
1.10123e-05	-0.0061303646491058725
1.10125e-05	-0.006115909653513523
1.10128e-05	-0.006096596888280028
1.10130e-05	-0.006066179582552201
1.10132e-05	-0.00603576227682458
1.10135e-05	-0.006005344971096753
1.10138e-05	-0.005974927665368925
1.10140e-05	-0.005944510359641304
1.10143e-05	-0.005914093053913477
1.10145e-05	-0.005883675748185649
1.10147e-05	-0.00584888613866079
1.10150e-05	-0.005813032858285388
1.10153e-05	-0.005777179577909987
1.10155e-05	-0.005741107438891012
1.10158e-05	-0.005704982057103639
1.10160e-05	-0.005668856675316021
1.10163e-05	-0.005634168169814125
1.10165e-05	-0.0055998292199452805
1.10168e-05	-0.005565490270076205
1.10170e-05	-0.005534429205938407
1.10173e-05	-0.005504165568435625
1.10175e-05	-0.005473901930932636
1.10178e-05	-0.005447457020942953
1.10180e-05	-0.005421941110705098
1.10183e-05	-0.0053973211101226515
1.10185e-05	-0.005372919061683864
1.10188e-05	-0.005346541043050321
1.10190e-05	-0.005319682320880126
1.10193e-05	-0.005292823598709933
1.10195e-05	-0.005264839995548192
1.10198e-05	-0.005236582737311784
1.10200e-05	-0.0052083254790753755
1.10203e-05	-0.005176096429608352
1.10205e-05	-0.005142901143860904
1.10208e-05	-0.005109705858113455
1.10210e-05	-0.005076510572366232
1.10213e-05	-0.005043315286618783
1.10215e-05	-0.005010120000871334
1.10217e-05	-0.004971405432229428
1.10220e-05	-0.0049313481617522135
1.10223e-05	-0.004891290891274998
1.10225e-05	-0.0048512336207980535
1.10228e-05	-0.004811176350320839
1.10230e-05	-0.004771119079843623
1.10232e-05	-0.004727454137493635
1.10235e-05	-0.004682911539886857
1.10238e-05	-0.004638368942280079
1.10240e-05	-0.004593826344673301
1.10243e-05	-0.0045492837470668245
1.10245e-05	-0.004504741149460046
1.10248e-05	-0.004460469596984558
1.10250e-05	-0.004416263982929661
1.10253e-05	-0.004372058368874465
1.10255e-05	-0.004327852754819269
1.10258e-05	-0.004283647140764371
1.10260e-05	-0.0042394415267091754
1.10263e-05	-0.004198076393217973
1.10265e-05	-0.00415740227675578
1.10268e-05	-0.004118903887378923
1.10270e-05	-0.004080934797334425
1.10273e-05	-0.004045124954432282
1.10275e-05	-0.004011576788482881
1.10278e-05	-0.003981558259924938
1.10280e-05	-0.003952295638969431
1.10283e-05	-0.003928759236562155
1.10285e-05	-0.0039066158781974536
1.10288e-05	-0.0038915112347901928
1.10290e-05	-0.0038781189325824985
1.10293e-05	-0.0038717763007491976
1.10295e-05	-0.0038671486752912708
1.10298e-05	-0.0038713582010486977
1.10300e-05	-0.003877717582029045
1.10302e-05	-0.0038840769630093487
1.10305e-05	-0.003903603288238376
1.10308e-05	-0.003926332797748514
1.10310e-05	-0.003949062307258499
1.10313e-05	-0.003971791816768638
1.10315e-05	-0.004007915962170965
1.10317e-05	-0.004047298683468142
1.10320e-05	-0.004086681404765585
1.10323e-05	-0.004126064126063028
1.10325e-05	-0.004172925089901702
1.10328e-05	-0.004224346235115114
1.10330e-05	-0.0042789076650917475
1.10333e-05	-0.004336274650407113
1.10335e-05	-0.004396112289478109
1.10338e-05	-0.004458086520928306
1.10340e-05	-0.004521891930971258
1.10343e-05	-0.0045872880850677585
1.10345e-05	-0.004654036311875437
1.10348e-05	-0.004721805791673205
1.10350e-05	-0.004790199448109836
1.10353e-05	-0.004858808238266063
1.10355e-05	-0.004927223594958226
1.10358e-05	-0.0049950371332368945
1.10360e-05	-0.0050618580717300314
1.10363e-05	-0.0051273366168974
1.10365e-05	-0.005191124413792856
1.10368e-05	-0.005252815478047837
1.10370e-05	-0.005311961783485092
1.10373e-05	-0.005368108004482376
1.10375e-05	-0.005420799473389818
1.10378e-05	-0.00546958133024644
1.10380e-05	-0.005512272537165307
1.10383e-05	-0.005553672386744046
1.10385e-05	-0.00558613979482876
1.10387e-05	-0.005616434165976505
1.10390e-05	-0.005646728537124455
1.10393e-05	-0.005662809373168957
1.10395e-05	-0.005675432415864962
1.10398e-05	-0.005688055458561051
1.10400e-05	-0.0057006785012571415
1.10402e-05	-0.005706887117357767
1.10405e-05	-0.005698432777985953
1.10408e-05	-0.005689978438614141
1.10410e-05	-0.005681524099242328
1.10413e-05	-0.005673069759870573
1.10415e-05	-0.005651824196073977
1.10418e-05	-0.005627466851118771
1.10420e-05	-0.00560310950616373
1.10423e-05	-0.005569852742025592
1.10425e-05	-0.0055344309744430956
1.10428e-05	-0.00549900920686084
1.10430e-05	-0.005456514422318011
1.10433e-05	-0.005412298951765567
1.10435e-05	-0.0053680834812134225
1.10438e-05	-0.00531851290296188
1.10440e-05	-0.005267639562543939
1.10443e-05	-0.005216766222126342
1.10445e-05	-0.0051627157483597075
1.10448e-05	-0.005107892358461963
1.10450e-05	-0.005053068968564591
1.10453e-05	-0.004997340242983184
1.10455e-05	-0.004941391272143803
1.10458e-05	-0.0048859011179134245
1.10460e-05	-0.004830522582150995
1.10463e-05	-0.004776725184603509
1.10465e-05	-0.004723312437965811
1.10468e-05	-0.004673658117228672
1.10470e-05	-0.004624918126388316
1.10472e-05	-0.004576178135548291
1.10475e-05	-0.00453291747622329
1.10478e-05	-0.0044909897995753885
1.10480e-05	-0.004452740146680072
1.10483e-05	-0.004416406645825928
1.10485e-05	-0.004379324959312721
1.10487e-05	-0.004342000810151396
1.10490e-05	-0.004303296965114519
1.10493e-05	-0.004264257474990929
1.10495e-05	-0.0042252179848673395
1.10498e-05	-0.0041863029058325785
1.10500e-05	-0.004147418092866589
1.10503e-05	-0.004106544013388167
1.10505e-05	-0.004065185995715352
1.10508e-05	-0.004023827978042256
1.10510e-05	-0.00397869879996661
1.10513e-05	-0.003932652194012354
1.10515e-05	-0.003886605588057786
1.10518e-05	-0.0038384110961347034
1.10520e-05	-0.003789694077918185
1.10523e-05	-0.0037409770597013367
1.10525e-05	-0.0036910120919242326
1.10528e-05	-0.003638194393888669
1.10530e-05	-0.0035853766958527477
1.10533e-05	-0.003532558997816826
1.10535e-05	-0.0034782504802178
1.10538e-05	-0.003423579283950791
1.10540e-05	-0.0033689080876837824
1.10543e-05	-0.0033140212476111108
1.10545e-05	-0.0032590819468579346
1.10548e-05	-0.003203855464362204
1.10550e-05	-0.0031486746646938865
1.10553e-05	-0.0030939105642324534
1.10555e-05	-0.0030399020682404716
1.10557e-05	-0.0029869885071210694
1.10560e-05	-0.002946060712100111
1.10563e-05	-0.002922894273906475
1.10565e-05	-0.0028522515693874236
1.10568e-05	-0.013379366708424658
1.10570e-05	-0.027146711928893615
1.10572e-05	-0.021170932068999396
1.10575e-05	-0.016635755755003274
1.10578e-05	-0.006700247739504134
1.10580e-05	0.005408140974608316
1.10583e-05	0.0036281434655846736
1.10585e-05	0.0014731728469385022
1.10588e-05	-0.004456917713032108
1.10590e-05	-0.00957767644948701
1.10593e-05	-0.01022644518844373
1.10595e-05	-0.00763977226339695
1.10598e-05	-0.0026727943313917058
1.10600e-05	0.0014302237895644056
1.10603e-05	0.0025557250348071403
1.10605e-05	0.0011098351061174302
1.10608e-05	-0.002848486032102865
1.10610e-05	-0.006222875666449289
1.10613e-05	-0.006774808990746753
1.10615e-05	-0.005284491307086665
1.10618e-05	-0.0022917518260651398
1.10620e-05	0.00016821362260329288
1.10623e-05	0.0007694384879714733
1.10625e-05	-0.0002350617348908352
1.10628e-05	-0.002809289966535571
1.10630e-05	-0.005014367280084819
1.10633e-05	-0.005448652983144002
1.10635e-05	-0.004601279090342684
1.10638e-05	-0.0028106163572531864
1.10640e-05	-0.0013515456714945227
1.10642e-05	-0.0010545046134623794
1.10645e-05	-0.0017607628557570355
1.10648e-05	-0.0034474892662378987
1.10650e-05	-0.0048999091330630745
1.10653e-05	-0.005239841085438788
1.10655e-05	-0.004773485113897194
1.10657e-05	-0.003712565658335749
1.10660e-05	-0.0028553765936052754
1.10663e-05	-0.0027217440663061233
1.10665e-05	-0.0032118545670598224
1.10668e-05	-0.004311021156354408
1.10670e-05	-0.005257956898343065
1.10673e-05	-0.005502272483907166
1.10675e-05	-0.005235488297424621
1.10678e-05	-0.00458992812936183
1.10680e-05	-0.0040656331169415545
1.10683e-05	-0.0039890212728762855
1.10685e-05	-0.004298803828183067
1.10688e-05	-0.004986541753988249
1.10690e-05	-0.005575642767414777
1.10693e-05	-0.005721550882181813
1.10695e-05	-0.005544449896426006
1.10698e-05	-0.0051274344064231115
1.10700e-05	-0.004783917428367311
1.10703e-05	-0.004718531317932133
1.10705e-05	-0.004893041939178539
1.10708e-05	-0.005302321407212287
1.10710e-05	-0.005648005955184578
1.10713e-05	-0.0057144612372518324
1.10715e-05	-0.005577172426156301
1.10718e-05	-0.005288386631777747
1.10720e-05	-0.00504460935725099
1.10723e-05	-0.004974192442408088
1.10725e-05	-0.0050533510822694735
1.10727e-05	-0.00527903901051045
1.10730e-05	-0.005464536517560206
1.10733e-05	-0.005474960089873134
1.10735e-05	-0.005357786509814248
1.10738e-05	-0.005145933350727247
1.10740e-05	-0.004962673979511991
1.10742e-05	-0.004888580843317545
1.10745e-05	-0.004908924607788284
1.10748e-05	-0.00502196882197501
1.10750e-05	-0.005110927942211719
1.10753e-05	-0.005091496936109639
1.10755e-05	-0.004993603434397525
1.10758e-05	-0.004838051025702908
1.10760e-05	-0.004702239590716747
1.10763e-05	-0.004636814696394292
1.10765e-05	-0.004632722899790248
1.10768e-05	-0.004689049912528477
1.10770e-05	-0.004732818210594552
1.10773e-05	-0.004711401182176775
1.10775e-05	-0.004643730337633088
1.10778e-05	-0.004543019637433931
1.10780e-05	-0.00445790702514178
1.10783e-05	-0.004420164272362965
1.10785e-05	-0.004424026849199004
1.10788e-05	-0.004468755768037271
1.10790e-05	-0.004508467984380405
1.10793e-05	-0.004510032803920492
1.10795e-05	-0.0044851443321966425
1.10798e-05	-0.0044419149994731465
1.10800e-05	-0.004410644374345527
1.10803e-05	-0.004411064898318847
1.10805e-05	-0.004439395349476889
1.10808e-05	-0.004495003047582976
1.10810e-05	-0.004548978336970067
1.10812e-05	-0.004580401906740471
1.10815e-05	-0.004596432816667636
1.10818e-05	-0.00460198657993225
1.10820e-05	-0.004615874816624262
1.10823e-05	-0.004650289351920175
1.10825e-05	-0.004702691901193341
1.10827e-05	-0.004772517415385369
1.10830e-05	-0.0048414880119829655
1.10833e-05	-0.00489633310720617
1.10835e-05	-0.004941369849000309
1.10838e-05	-0.004979510614105019
1.10840e-05	-0.005022370967566926
1.10843e-05	-0.005077419922636523
1.10845e-05	-0.0051428981565503785
1.10848e-05	-0.00521828247606502
1.10850e-05	-0.005291955516078747
1.10853e-05	-0.005355437380451518
1.10855e-05	-0.005411265269074692
1.10858e-05	-0.005461095446440825
1.10860e-05	-0.005512036741248001
1.10863e-05	-0.00556859870584373
1.10865e-05	-0.005629511066973105
1.10868e-05	-0.005694277903452103
1.10870e-05	-0.005755453463450146
1.10873e-05	-0.00580755800596442
1.10875e-05	-0.0058520142645342955
1.10878e-05	-0.0058896916837474275
1.10880e-05	-0.005924578630255771
1.10883e-05	-0.0059583709387338
1.10885e-05	-0.005989078497262896
1.10888e-05	-0.006015995219873859
1.10890e-05	-0.006034680132980507
1.10893e-05	-0.006042046719512117
1.10895e-05	-0.0060393318950391255
1.10897e-05	-0.006027426202904802
1.10900e-05	-0.006009173240730994
1.10903e-05	-0.005985980601483507
1.10905e-05	-0.005956947429628267
1.10908e-05	-0.0059219769049271105
1.10910e-05	-0.00587863305491214
1.10912e-05	-0.005825327883539459
1.10915e-05	-0.005763181983615454
1.10918e-05	-0.005691171782175928
1.10920e-05	-0.0056165591069417585
1.10923e-05	-0.005536728947244152
1.10925e-05	-0.005447733158272978
1.10928e-05	-0.0053562501178706454
1.10930e-05	-0.005264767077468932
1.10933e-05	-0.0051643217616110584
1.10935e-05	-0.005057182207204798
1.10938e-05	-0.0049448279289955885
1.10940e-05	-0.004831139519667128
1.10943e-05	-0.00471558275399769
1.10945e-05	-0.004598360542104843
1.10948e-05	-0.004480273483914698
1.10950e-05	-0.004360926650223771
1.10953e-05	-0.004240259579984036
1.10955e-05	-0.004119273324793257
1.10958e-05	-0.0039988834726659385
1.10960e-05	-0.0038804863623573453
1.10963e-05	-0.0037651241932625755
1.10965e-05	-0.0036532723562229964
1.10968e-05	-0.0035456033436986273
1.10970e-05	-0.00344221507537509
1.10973e-05	-0.003343413684010443
1.10975e-05	-0.003252675289387051
1.10978e-05	-0.0031642452796047365
1.10980e-05	-0.0030856511651765777
1.10983e-05	-0.003010356063325863
1.10985e-05	-0.0029409059388889273
1.10988e-05	-0.0028734162515355547
1.10990e-05	-0.0028059265641826397
1.10993e-05	-0.0027434052994185997
1.10995e-05	-0.0026825504705021096
1.10997e-05	-0.002627456319794281
1.11000e-05	-0.0025742943317594367
1.11003e-05	-0.0025255733514266973
1.11005e-05	-0.0024783419091320025
1.11008e-05	-0.0024336486546138645
1.11010e-05	-0.0023898067220240555
1.11013e-05	-0.0023459647894342466
1.11015e-05	-0.002306433710757247
1.11018e-05	-0.00226834851583178
1.11020e-05	-0.002230263320906313
1.11023e-05	-0.0021957284854025537
1.11025e-05	-0.0021623844596789176
1.11028e-05	-0.0021310071684283323
1.11030e-05	-0.002100289530572981
1.11033e-05	-0.0020695718927174213
1.11035e-05	-0.0020388542548618617
1.11038e-05	-0.002011835124799712
1.11040e-05	-0.0019860564942841513
1.11043e-05	-0.001960277863768591
1.11045e-05	-0.001934499233253205
1.11048e-05	-0.0019105822247312725
1.11050e-05	-0.0018872896143094957
1.11053e-05	-0.0018651332124716218
1.11055e-05	-0.0018433579011468764
1.11058e-05	-0.001822785139352838
1.11060e-05	-0.0018035492871234236
1.11063e-05	-0.0017853754877768095
1.11065e-05	-0.0017679536223470021
1.11068e-05	-0.001751184231787202
1.11070e-05	-0.0017350886406224213
1.11073e-05	-0.001719744955899577
1.11075e-05	-0.0017052954468252275
1.11078e-05	-0.0016918770811971448
1.11080e-05	-0.001679722820021706
1.11082e-05	-0.0016691900062426796
1.11085e-05	-0.001660605744248989
1.11088e-05	-0.0016541179829547953
1.11090e-05	-0.0016496960089080414
1.11093e-05	-0.0016472933896889146
1.11095e-05	-0.0016469039936896836
1.11098e-05	-0.0016485181221782491
1.11100e-05	-0.0016530175526707283
1.11103e-05	-0.0016583162542513422
1.11105e-05	-0.001667034434996886
1.11108e-05	-0.0016768995275761279
1.11110e-05	-0.001691766523176847
1.11113e-05	-0.0017083111841441044
1.11115e-05	-0.0017248558451112494
1.11118e-05	-0.0017414005060785067
1.11120e-05	-0.001759925804185228
1.11123e-05	-0.0017844300652764134
1.11125e-05	-0.001808934326367765
1.11128e-05	-0.0018334385874591165
1.11130e-05	-0.0018579428485503019
1.11133e-05	-0.0018858622735937526
1.11135e-05	-0.0019149271631253352
1.11138e-05	-0.0019454271006177416
1.11140e-05	-0.0019764083609695783
1.11143e-05	-0.002008468773203654
1.11145e-05	-0.0020408911388241665
1.11148e-05	-0.0020739559916710102
1.11150e-05	-0.002107236338213607
1.11153e-05	-0.002140560970171292
1.11155e-05	-0.002173900455697377
1.11158e-05	-0.0022067081675356402
1.11160e-05	-0.0022393375195983597
1.11163e-05	-0.002270927210513612
1.11165e-05	-0.0023021681934484446
1.11167e-05	-0.002331272492270236
1.11170e-05	-0.0023596601356670904
1.11173e-05	-0.0023880477790639448
1.11175e-05	-0.0024133411970056863
1.11178e-05	-0.0024375967949696155
1.11180e-05	-0.002459544843832521
1.11183e-05	-0.002480718928227691
1.11185e-05	-0.0025021328338383155
1.11188e-05	-0.0025236271767838316
1.11190e-05	-0.0025457399754341284
1.11193e-05	-0.0025680602074776406
1.11195e-05	-0.0025903804395213045
1.11198e-05	-0.002612585076169883
1.11200e-05	-0.002634750941496654
1.11203e-05	-0.002656916806823575
1.11205e-05	-0.002681055305533498
1.11208e-05	-0.002705855436165105
1.11210e-05	-0.0027306555667968796
1.11213e-05	-0.0027554556974286543
1.11215e-05	-0.0027819293024205103
1.11218e-05	-0.0028089641997777358
1.11220e-05	-0.002835999097134961
1.11223e-05	-0.002863033994492003
1.11225e-05	-0.0028921433032289773
1.11228e-05	-0.0029219483807792893
1.11230e-05	-0.0029517534583293993
1.11233e-05	-0.002981558535879711
1.11235e-05	-0.003011363613430023
1.11238e-05	-0.003041168690980133
1.11240e-05	-0.00307164673830285
1.11243e-05	-0.003102350503332559
1.11245e-05	-0.0031330542683620593
1.11248e-05	-0.003163758033391768
1.11250e-05	-0.0031944617984214765
1.11252e-05	-0.003225165563450977
1.11255e-05	-0.00325504548608606
1.11258e-05	-0.003284649087519397
1.11260e-05	-0.0033130719770136908
1.11263e-05	-0.0033410988493282035
1.11265e-05	-0.0033678556542891284
1.11268e-05	-0.0033941864717799445
1.11270e-05	-0.0034182763426447993
1.11273e-05	-0.0034416145878727322
1.11275e-05	-0.003464952833100665
1.11278e-05	-0.0034826696492755676
1.11280e-05	-0.003498501007695938
1.11283e-05	-0.0035143323661163076
1.11285e-05	-0.0035301637245365707
1.11288e-05	-0.0035459950829569405
1.11290e-05	-0.0035618264413773107
1.11293e-05	-0.0035697476516631053
1.11295e-05	-0.003575015755416638
1.11298e-05	-0.003580283859170171
1.11300e-05	-0.0035855519629236685
1.11303e-05	-0.0035908200666772013
1.11305e-05	-0.003596088170430734
1.11308e-05	-0.003593087605973085
1.11310e-05	-0.003587313685407236
1.11313e-05	-0.0035815397648413876
1.11315e-05	-0.0035757658442755777
1.11318e-05	-0.003569991923709729
1.11320e-05	-0.00356421800314388
1.11323e-05	-0.0035584440825780707
1.11325e-05	-0.0035504427428271115
1.11328e-05	-0.0035357174774235094
1.11330e-05	-0.003520992212020007
1.11333e-05	-0.003506266946616405
1.11335e-05	-0.0034915416812128035
1.11337e-05	-0.0034768164158093012
1.11340e-05	-0.0034620911504056992
1.11343e-05	-0.0034473658850020976
1.11345e-05	-0.003429906930892729
1.11348e-05	-0.0034115310827832054
1.11350e-05	-0.003393155234673682
1.11353e-05	-0.0033747793865641588
1.11355e-05	-0.0033564035384547595
1.11358e-05	-0.003338027690345236
1.11360e-05	-0.003320535313024107
1.11363e-05	-0.003303339256591201
1.11365e-05	-0.003286143200158179
1.11368e-05	-0.003268947143725157
1.11370e-05	-0.0032517510872922518
1.11373e-05	-0.0032345550308592297
1.11375e-05	-0.003219693809619293
1.11378e-05	-0.0032056157047508573
1.11380e-05	-0.0031938040019041047
1.11383e-05	-0.00318275246257243
1.11385e-05	-0.0031758292305776254
1.11388e-05	-0.0031702906552263685
1.11390e-05	-0.003170321232377605
1.11393e-05	-0.003172219733445954
1.11395e-05	-0.003174118234514316
1.11398e-05	-0.003182456079060734
1.11400e-05	-0.0031929537142911086
1.11403e-05	-0.0032034513495215544
1.11405e-05	-0.0032225318120715526
1.11408e-05	-0.003244491001396975
1.11410e-05	-0.003266450190722546
1.11413e-05	-0.003288409380048117
1.11415e-05	-0.0033189892310831934
1.11418e-05	-0.0033524604987535864
1.11420e-05	-0.0033859317664239794
1.11422e-05	-0.0034194030340941456
1.11425e-05	-0.0034586430873398306
1.11428e-05	-0.003499818022516799
1.11430e-05	-0.0035435414612977226
1.11433e-05	-0.003589545184180037
1.11435e-05	-0.0036372471437149984
1.11438e-05	-0.0036863735884604685
1.11440e-05	-0.0037366906946723665
1.11443e-05	-0.0037880573019049117
1.11445e-05	-0.0038403483963593667
1.11448e-05	-0.003893338864496148
1.11450e-05	-0.003946722900112129
1.11453e-05	-0.004000178149722723
1.11455e-05	-0.004053382665942196
