Time(s)	Current(A)
2.25000e-06	0.007966091630019314
2.25025e-06	0.008009692986466057
2.25050e-06	0.0080532943429128
2.25075e-06	0.00809689569935947
2.25100e-06	0.008140497055806212
2.25125e-06	0.008184098412252955
2.25150e-06	0.008227699768699625
2.25175e-06	0.008271301125146367
2.25200e-06	0.00832360242327259
2.25225e-06	0.008380647607348421
2.25250e-06	0.008437692791424157
2.25275e-06	0.00849473797549999
2.25300e-06	0.008551783159575822
2.25325e-06	0.008608828343651558
2.25350e-06	0.00866587352772739
2.25375e-06	0.008722918711803222
2.25400e-06	0.008779963895878958
2.25425e-06	0.008837009079954791
2.25450e-06	0.008882588470312022
2.25475e-06	0.008921915816721382
2.25500e-06	0.008961243163130676
2.25525e-06	0.009000570509540036
2.25550e-06	0.009039897855949398
2.25575e-06	0.009079225202358692
2.25600e-06	0.009118552548768052
2.25625e-06	0.009157879895177412
2.25650e-06	0.009197207241586774
2.25675e-06	0.009236534587996066
2.25700e-06	0.009275861934405428
2.25725e-06	0.009315189280814788
2.25750e-06	0.00934626570921947
2.25775e-06	0.009372843094361916
2.25800e-06	0.009399420479504362
2.25825e-06	0.009425997864646762
2.25850e-06	0.009452575249789208
2.25875e-06	0.009479152634931653
2.25900e-06	0.009505730020074099
2.25925e-06	0.0095323074052165
2.25950e-06	0.009558884790358945
2.25975e-06	0.00958546217550139
2.26000e-06	0.009612039560643791
2.26025e-06	0.009638616945786237
2.26050e-06	0.009662075710448071
2.26075e-06	0.009683833960275865
2.26100e-06	0.009705592210103624
2.26125e-06	0.009727350459931419
2.26150e-06	0.009749108709759213
2.26175e-06	0.009770866959586972
2.26200e-06	0.009792625209414766
2.26225e-06	0.00981438345924256
2.26250e-06	0.009836141709070318
2.26275e-06	0.009857899958898114
2.26300e-06	0.009879658208725908
2.26325e-06	0.009901416458553703
2.26350e-06	0.009923174708381461
2.26375e-06	0.009944932958209255
2.26400e-06	0.00996669120803705
2.26425e-06	0.009988449457864809
2.26450e-06	0.010010207707692603
2.26475e-06	0.01002984690817718
2.26500e-06	0.010037202866400523
2.26525e-06	0.010044558824623854
2.26550e-06	0.010051914782847199
2.26575e-06	0.010059270741070542
2.26600e-06	0.010066626699293873
2.26625e-06	0.010073982657517218
2.26650e-06	0.010081338615740561
2.26675e-06	0.010088694573963893
2.26700e-06	0.010096050532187237
2.26725e-06	0.01010340649041058
2.26750e-06	0.010110762448633926
2.26775e-06	0.010118118406857257
2.26800e-06	0.0101254743650806
2.26825e-06	0.010132830323303945
2.26850e-06	0.010140186281527276
2.26875e-06	0.01014754223975062
2.26900e-06	0.010154898197973964
2.26925e-06	0.01015389557778075
2.26950e-06	0.010148335209481276
2.26975e-06	0.010142774841181791
2.27000e-06	0.010137214472882307
2.27025e-06	0.01013165410458283
2.27050e-06	0.010126093736283346
2.27075e-06	0.010120533367983861
2.27100e-06	0.010114972999684387
2.27125e-06	0.010109412631384903
2.27150e-06	0.010103852263085418
2.27175e-06	0.010098291894785933
2.27200e-06	0.010092731526486457
2.27225e-06	0.01008670868290685
2.27250e-06	0.010078005063665137
2.27275e-06	0.010069301444423435
2.27300e-06	0.01006059782518172
2.27325e-06	0.010051894205940005
2.27350e-06	0.010043190586698291
2.27375e-06	0.01003448696745659
2.27400e-06	0.010025783348214875
2.27425e-06	0.01001707972897316
2.27450e-06	0.01000837610973146
2.27475e-06	0.009999672490489744
2.27500e-06	0.00999096887124803
2.27525e-06	0.00998226525200633
2.27550e-06	0.009970353438006126
2.27575e-06	0.009956692266297336
2.27600e-06	0.009943031094588549
2.27625e-06	0.009929369922879783
2.27650e-06	0.009915708751170996
2.27675e-06	0.009902047579462208
2.27700e-06	0.009888386407753443
2.27725e-06	0.009859870234406171
2.27750e-06	0.009823253956924342
2.27775e-06	0.009786637679442513
2.27800e-06	0.009750021401960747
2.27825e-06	0.00971340512447892
2.27850e-06	0.009676788846997091
2.27875e-06	0.009640172569515324
2.27900e-06	0.009584788359076885
2.27925e-06	0.009519170409522097
2.27950e-06	0.009453552459967419
2.27975e-06	0.00938793451041263
2.28000e-06	0.009322316560857842
2.28025e-06	0.009256698611303052
2.28050e-06	0.009191080661748374
2.28075e-06	0.009125462712193586
2.28100e-06	0.009059844762638797
2.28125e-06	0.008991772034209351
2.28150e-06	0.008909469979917067
2.28175e-06	0.008827167925624782
2.28200e-06	0.008744865871332498
2.28225e-06	0.008662563817040352
2.28250e-06	0.008580261762748068
2.28275e-06	0.008497959708455783
2.28300e-06	0.008415657654163638
2.28325e-06	0.008333355599871353
2.28350e-06	0.00825105354557907
2.28375e-06	0.008174240328818649
2.28400e-06	0.008100420053874543
2.28425e-06	0.008026599778930436
2.28450e-06	0.007952779503986328
2.28475e-06	0.007878959229042347
2.28500e-06	0.007805138954098241
2.28525e-06	0.007745456014068195
2.28550e-06	0.007693481850367146
2.28575e-06	0.007641507686666009
2.28600e-06	0.007589533522964872
2.28625e-06	0.007537559359263735
2.28650e-06	0.007485585195562686
2.28675e-06	0.007454518756229031
2.28700e-06	0.007434852836984737
2.28725e-06	0.007415186917740477
2.28750e-06	0.007395520998496184
2.28775e-06	0.00737585507925189
2.28800e-06	0.00735618916000763
2.28825e-06	0.007336523240763337
2.28850e-06	0.0073168573215190436
2.28875e-06	0.007297191402274751
2.28900e-06	0.007277525483030491
2.28925e-06	0.007257859563786197
2.28950e-06	0.007238193644541904
2.28975e-06	0.007222942490773816
2.29000e-06	0.0072332818849855885
2.29025e-06	0.007243621279197361
2.29050e-06	0.007253960673409133
2.29075e-06	0.0072643000676208885
2.29100e-06	0.007274639461832661
2.29125e-06	0.007284978856044434
2.29150e-06	0.007295318250256189
2.29175e-06	0.007305657644467962
2.29200e-06	0.007315997038679734
2.29225e-06	0.007326336432891489
2.29250e-06	0.007336675827103262
2.29275e-06	0.007347015221315034
2.29300e-06	0.007362320528020337
2.29325e-06	0.007380333637074191
2.29350e-06	0.007398346746128075
2.29375e-06	0.007416359855181959
2.29400e-06	0.0074343729642358134
2.29425e-06	0.007452386073289697
2.29450e-06	0.007470399182343582
2.29475e-06	0.00748587040590551
2.29500e-06	0.007499955595477888
2.29525e-06	0.007514040785050291
2.29550e-06	0.007528125974622693
2.29575e-06	0.007542211164195072
2.29600e-06	0.007556296353767474
2.29625e-06	0.007570381543339877
2.29650e-06	0.007585788938694564
2.29675e-06	0.007601917303644983
2.29700e-06	0.007618045668595402
2.29725e-06	0.007634174033545819
2.29750e-06	0.007650302398496211
2.29775e-06	0.007672472325737419
2.29800e-06	0.007697936583392655
2.29825e-06	0.007723400841047848
2.29850e-06	0.007748865098703083
2.29875e-06	0.007774329356358318
2.29900e-06	0.007799793614013554
2.29925e-06	0.007825257871668746
2.29950e-06	0.007850722129323981
2.29975e-06	0.007876186386979216
2.30000e-06	0.00790165064463441
2.30025e-06	0.007927114902289645
2.30050e-06	0.00795257915994488
2.30075e-06	0.007978043417600071
2.30100e-06	0.008008625643893973
2.30125e-06	0.008041998585392545
2.30150e-06	0.008075371526891119
2.30175e-06	0.008108744468389635
2.30200e-06	0.008142117409888208
2.30225e-06	0.008175490351386781
2.30250e-06	0.008208863292885298
2.30275e-06	0.00824223623438387
2.30300e-06	0.008275609175882444
2.30325e-06	0.008308982117381016
2.30350e-06	0.008342355058879532
2.30375e-06	0.008375728000378106
2.30400e-06	0.008409100941876678
2.30425e-06	0.008432135457996934
2.30450e-06	0.008449532659211017
2.30475e-06	0.0084669298604251
2.30500e-06	0.008484327061639154
2.30525e-06	0.008501724262853238
2.30550e-06	0.008519121464067322
2.30575e-06	0.008536518665281405
2.30600e-06	0.00855391586649546
2.30625e-06	0.008571313067709542
2.30650e-06	0.008588710268923626
2.30675e-06	0.00860610747013768
2.30700e-06	0.008623504671351763
2.30725e-06	0.008640901872565847
2.30750e-06	0.00865829907377993
2.30775e-06	0.008675696274993984
2.30800e-06	0.008693093476208068
2.30825e-06	0.008710490677422151
2.30850e-06	0.008727887878636206
2.30875e-06	0.008745285079850288
2.30900e-06	0.00876014329112547
2.30925e-06	0.008760284040234568
2.30950e-06	0.008760424789343664
2.30975e-06	0.008760565538452761
2.31000e-06	0.008760706287561858
2.31025e-06	0.008760847036670955
2.31050e-06	0.008760987785780053
2.31075e-06	0.00876112853488915
2.31100e-06	0.008761269283998247
2.31125e-06	0.008761410033107344
2.31150e-06	0.00876155078221644
2.31175e-06	0.008761691531325538
2.31200e-06	0.008761832280434634
2.31225e-06	0.008761973029543731
2.31250e-06	0.008762113778652828
2.31275e-06	0.008762254527761925
2.31300e-06	0.008762395276871022
2.31325e-06	0.008762536025980119
2.31350e-06	0.008762676775089216
2.31375e-06	0.008762817524198312
2.31400e-06	0.00876042790514333
2.31425e-06	0.008756658532243004
2.31450e-06	0.008752889159342683
2.31475e-06	0.008749119786442355
2.31500e-06	0.008745350413542028
2.31525e-06	0.008741581040641707
2.31550e-06	0.008737811667741381
2.31575e-06	0.008734042294841054
2.31600e-06	0.008730272921940733
2.31625e-06	0.008714834344311079
2.31650e-06	0.008693032807201333
2.31675e-06	0.008671231270091586
2.31700e-06	0.008649429732981878
2.31725e-06	0.008627628195872133
2.31750e-06	0.008605826658762385
2.31775e-06	0.008584025121652678
2.31800e-06	0.008562223584542932
2.31825e-06	0.008540422047433185
2.31850e-06	0.008496642611861898
2.31875e-06	0.008440879113913346
2.31900e-06	0.0083851156159647
2.31925e-06	0.008329352118016053
2.31950e-06	0.008273588620067501
2.31975e-06	0.008217825122118855
2.32000e-06	0.008162061624170207
2.32025e-06	0.008106298126221656
2.32050e-06	0.00805053462827301
2.32075e-06	0.007994771130324362
2.32100e-06	0.007925445765368631
2.32125e-06	0.007848725414015474
2.32150e-06	0.007772005062662186
2.32175e-06	0.007695284711308897
2.32200e-06	0.00761856435995574
2.32225e-06	0.007541844008602453
2.32250e-06	0.0074651236572491645
2.32275e-06	0.007388403305895877
2.32300e-06	0.007311682954542719
2.32325e-06	0.007234962603189432
2.32350e-06	0.007162955682036744
2.32375e-06	0.007093518890218273
2.32400e-06	0.007024082098399684
2.32425e-06	0.006954645306581095
2.32450e-06	0.0068852085147626235
2.32475e-06	0.0068157717229440345
2.32500e-06	0.0067463349311254455
2.32525e-06	0.0066768981393068565
2.32550e-06	0.0066303272694024406
2.32575e-06	0.006596224681441773
2.32600e-06	0.006562122093481106
2.32625e-06	0.006528019505520496
2.32650e-06	0.006493916917559828
2.32675e-06	0.00645981432959916
2.32700e-06	0.0064257117416384926
2.32725e-06	0.006391609153677882
2.32750e-06	0.006392728695468466
2.32775e-06	0.006413054086297455
2.32800e-06	0.006433379477126408
2.32825e-06	0.006453704867955396
2.32850e-06	0.006474030258784384
2.32875e-06	0.006494355649613337
2.32900e-06	0.006514681040442325
2.32925e-06	0.006535006431271313
2.32950e-06	0.006555331822100301
2.32975e-06	0.006606319436716465
2.33000e-06	0.006674026484410737
2.33025e-06	0.006741733532105009
2.33050e-06	0.006809440579799166
2.33075e-06	0.006877147627493438
2.33100e-06	0.00694485467518771
2.33125e-06	0.007012561722881982
2.33150e-06	0.007080268770576139
2.33175e-06	0.0071479758182704115
2.33200e-06	0.007227989849984151
2.33225e-06	0.007314714608132198
2.33250e-06	0.0074014393662803915
2.33275e-06	0.007488164124428585
2.33300e-06	0.007574888882576631
2.33325e-06	0.007661613640724824
2.33350e-06	0.0077483383988730175
2.33375e-06	0.007835063157021212
2.33400e-06	0.007912006115927635
2.33425e-06	0.007983615275859175
2.33450e-06	0.008055224435790716
2.33475e-06	0.008126833595722135
2.33500e-06	0.008198442755653675
2.33525e-06	0.008270051915585216
2.33550e-06	0.008341661075516756
2.33575e-06	0.008413270235448175
2.33600e-06	0.008455224747100585
2.33625e-06	0.008481009234334036
2.33650e-06	0.008506793721567442
2.33675e-06	0.008532578208800892
2.33700e-06	0.008558362696034341
2.33725e-06	0.008584147183267749
2.33750e-06	0.0086099316705012
2.33775e-06	0.008635716157734648
2.33800e-06	0.008653743742813838
2.33825e-06	0.008626807812176118
2.33850e-06	0.008599871881538351
2.33875e-06	0.008572935950900586
2.33900e-06	0.008546000020262866
2.33925e-06	0.0085190640896251
2.33950e-06	0.008492128158987335
2.33975e-06	0.008465192228349568
2.34000e-06	0.00843825629771185
2.34025e-06	0.008386044638222602
2.34050e-06	0.008320050682315897
2.34075e-06	0.008254056726409302
2.34100e-06	0.008188062770502595
2.34125e-06	0.00812206881459589
2.34150e-06	0.008056074858689295
2.34175e-06	0.007990080902782588
2.34200e-06	0.007924086946875882
2.34225e-06	0.007856304129576346
2.34250e-06	0.007778152031376586
2.34275e-06	0.007699999933176694
2.34300e-06	0.007621847834976801
2.34325e-06	0.007543695736777041
2.34350e-06	0.0074655436385771485
2.34375e-06	0.007387391540377255
2.34400e-06	0.007309239442177363
2.34425e-06	0.007231087343977602
2.34450e-06	0.007165744874459612
2.34475e-06	0.007107387212403971
2.34500e-06	0.007049029550348428
2.34525e-06	0.006990671888292787
2.34550e-06	0.0069323142262371455
2.34575e-06	0.006873956564181603
2.34600e-06	0.006815598902125962
2.34625e-06	0.00675724124007032
2.34650e-06	0.006721285014759476
2.34675e-06	0.006697543797895074
2.34700e-06	0.006673802581030633
2.34725e-06	0.006650061364166191
2.34750e-06	0.006626320147301789
2.34775e-06	0.006602578930437347
2.34800e-06	0.006578837713572905
2.34825e-06	0.006555096496708463
2.34850e-06	0.006554662503115283
2.34875e-06	0.0065669374233461066
2.34900e-06	0.006579212343576929
2.34925e-06	0.006591487263807732
2.34950e-06	0.006603762184038554
2.34975e-06	0.006616037104269378
2.35000e-06	0.00662831202450018
2.35025e-06	0.006640586944731003
2.35050e-06	0.006652861864961826
2.35075e-06	0.006665136785192649
2.35100e-06	0.006680822275819241
2.35125e-06	0.006716277415794002
2.35150e-06	0.006751732555768764
2.35175e-06	0.0067871876957434655
2.35200e-06	0.0068226428357182275
2.35225e-06	0.006858097975692989
2.35250e-06	0.006893553115667751
2.35275e-06	0.006929008255642452
2.35300e-06	0.006964463395617214
2.35325e-06	0.006999918535591975
2.35350e-06	0.007035373675566677
2.35375e-06	0.007068995802770487
2.35400e-06	0.007101618428614833
2.35425e-06	0.007134241054459124
2.35450e-06	0.0071668636803034706
2.35475e-06	0.007199486306147816
2.35500e-06	0.007232108931992162
2.35525e-06	0.007264731557836453
2.35550e-06	0.0072973541836807996
2.35575e-06	0.007329976809525146
2.35600e-06	0.007350224849692322
2.35625e-06	0.007363725301733951
2.35650e-06	0.0073772257537755796
2.35675e-06	0.007390726205817208
2.35700e-06	0.007404226657858813
2.35725e-06	0.007417727109900442
2.35750e-06	0.0074312275619420705
2.35775e-06	0.0074447280139836765
2.35800e-06	0.007458228466025305
2.35825e-06	0.007456942768725326
2.35850e-06	0.007447594510922341
2.35875e-06	0.00743824625311934
2.35900e-06	0.007428897995316338
2.35925e-06	0.007419549737513337
2.35950e-06	0.007410201479710352
2.35975e-06	0.007400853221907351
2.36000e-06	0.0073915049641043494
2.36025e-06	0.007382156706301365
2.36050e-06	0.007372808448498363
2.36075e-06	0.007363460190695362
2.36100e-06	0.0073541119328923606
2.36125e-06	0.007344763675089376
2.36150e-06	0.007327287409282601
2.36175e-06	0.00730537912031774
2.36200e-06	0.0072834708313529156
2.36225e-06	0.007261562542388055
2.36250e-06	0.007239654253423193
2.36275e-06	0.0072177459644583684
2.36300e-06	0.0071958376754935076
2.36325e-06	0.007173929386528647
2.36350e-06	0.007152021097563785
2.36375e-06	0.007130112808598961
2.36400e-06	0.0071082045196340995
2.36425e-06	0.007086296230669239
2.36450e-06	0.007064387941704414
2.36475e-06	0.007047533181338518
2.36500e-06	0.007033433998448772
2.36525e-06	0.007019334815559025
2.36550e-06	0.0070052356326693035
2.36575e-06	0.006991136449779557
2.36600e-06	0.006977037266889811
2.36625e-06	0.006962938084000088
2.36650e-06	0.006948838901110342
2.36675e-06	0.006938176874368068
2.36700e-06	0.0069474386034542035
2.36725e-06	0.006956700332540355
2.36750e-06	0.006965962061626506
2.36775e-06	0.006975223790712658
2.36800e-06	0.006984485519798793
2.36825e-06	0.006993747248884945
2.36850e-06	0.007003008977971095
2.36875e-06	0.007012270707057231
2.36900e-06	0.007039376523851624
2.36925e-06	0.0070762123273689
2.36950e-06	0.007113048130886177
2.36975e-06	0.007149883934403391
2.37000e-06	0.0071867197379206675
2.37025e-06	0.007223555541437944
2.37050e-06	0.007260391344955158
2.37075e-06	0.007297227148472435
2.37100e-06	0.007334062951989711
2.37125e-06	0.007370898755506925
2.37150e-06	0.0074096983085597794
2.37175e-06	0.007459880895893863
2.37200e-06	0.007510063483227946
2.37225e-06	0.007560246070561946
2.37250e-06	0.007610428657896029
2.37275e-06	0.0076606112452301135
2.37300e-06	0.007710793832564112
2.37325e-06	0.007760976419898196
2.37350e-06	0.00781115900723228
2.37375e-06	0.007861341594566364
2.37400e-06	0.007911524181900362
2.37425e-06	0.0079540891414435
2.37450e-06	0.007992500376880313
2.37475e-06	0.008030911612317062
2.37500e-06	0.008069322847753874
2.37525e-06	0.008107734083190689
2.37550e-06	0.008146145318627437
2.37575e-06	0.00818455655406425
2.37600e-06	0.008222967789501063
2.37625e-06	0.008239993797818047
2.37650e-06	0.008245358914339756
2.37675e-06	0.008250724030861472
2.37700e-06	0.00825608914738319
2.37725e-06	0.008261454263904898
2.37750e-06	0.008266819380426615
2.37775e-06	0.008272184496948333
2.37800e-06	0.00827754961347005
2.37825e-06	0.008254833647697845
2.37850e-06	0.00821680568826323
2.37875e-06	0.008178777728828617
2.37900e-06	0.008140749769394068
2.37925e-06	0.008102721809959456
2.37950e-06	0.008064693850524843
2.37975e-06	0.008026665891090294
2.38000e-06	0.007988637931655681
2.38025e-06	0.007950609972221068
2.38050e-06	0.007907974342344627
2.38075e-06	0.007838629975100996
2.38100e-06	0.007769285607857248
2.38125e-06	0.0076999412406135
2.38150e-06	0.007630596873369869
2.38175e-06	0.007561252506126121
2.38200e-06	0.007491908138882374
2.38225e-06	0.0074225637716386255
2.38250e-06	0.007353219404394995
2.38275e-06	0.007283875037151248
2.38300e-06	0.0072126322871913
2.38325e-06	0.007140354391085188
2.38350e-06	0.007068076494978953
2.38375e-06	0.006995798598872718
2.38400e-06	0.006923520702766605
2.38425e-06	0.006851242806660371
2.38450e-06	0.006778964910554136
2.38475e-06	0.006709951361516947
2.38500e-06	0.0066598598664004745
2.38525e-06	0.006609768371283918
2.38550e-06	0.00655967687616736
2.38575e-06	0.006509585381050888
2.38600e-06	0.00645949388593433
2.38625e-06	0.006409402390817773
2.38650e-06	0.006359310895701215
2.38675e-06	0.006334137081451703
2.38700e-06	0.0063225503279695314
2.38725e-06	0.00631096357448736
2.38750e-06	0.006299376821005207
2.38775e-06	0.0062877900675230355
2.38800e-06	0.006276203314040863
2.38825e-06	0.006264616560558711
2.38850e-06	0.006253029807076539
2.38875e-06	0.006241443053594367
2.38900e-06	0.006229856300112195
2.38925e-06	0.006218269546630043
2.38950e-06	0.006230230990251618
2.38975e-06	0.006255032745406301
2.39000e-06	0.006279834500560941
2.39025e-06	0.006304636255715624
2.39050e-06	0.006329438010870306
2.39075e-06	0.006354239766024946
2.39100e-06	0.006379041521179628
2.39125e-06	0.006403843276334311
2.39150e-06	0.006428645031488993
2.39175e-06	0.006453446786643634
2.39200e-06	0.006478248541798316
2.39225e-06	0.006511514916606019
2.39250e-06	0.006549396861466686
2.39275e-06	0.0065872788063274165
2.39300e-06	0.006625160751188148
2.39325e-06	0.006663042696048878
2.39350e-06	0.006700924640909545
2.39375e-06	0.006738806585770276
2.39400e-06	0.0067734777029818125
2.39425e-06	0.0068063980268262235
2.39450e-06	0.00683931835067069
2.39475e-06	0.006872238674515157
2.39500e-06	0.006905158998359568
2.39525e-06	0.006938079322204035
2.39550e-06	0.006970999646048502
2.39575e-06	0.007001443775011249
2.39600e-06	0.007030537689621696
2.39625e-06	0.0070596316042321906
2.39650e-06	0.0070887255188426855
2.39675e-06	0.007117819433453132
2.39700e-06	0.007146913348063627
2.39725e-06	0.007176007262674122
2.39750e-06	0.007205101177284617
2.39775e-06	0.007236104610548992
2.39800e-06	0.007278176724371485
2.39825e-06	0.007320248838193977
2.39850e-06	0.007362320952016398
2.39875e-06	0.00740439306583889
2.39900e-06	0.007446465179661383
2.39925e-06	0.007488537293483804
2.39950e-06	0.007530609407306296
2.39975e-06	0.007572681521128789
2.40000e-06	0.007623818847919181
2.40025e-06	0.007679899235026055
2.40050e-06	0.007735979622133023
2.40075e-06	0.007792060009239991
2.40100e-06	0.007848140396346863
2.40125e-06	0.007904220783453831
