Time(s)	Current(A)
7.25000e-06	-0.00040513614659067434
7.25025e-06	-0.00036706895723485406
7.25050e-06	-0.00032884121615806743
7.25075e-06	-0.0002899571016838775
7.25100e-06	-0.00025107298720981934
7.25125e-06	-0.00021225006773122835
7.25150e-06	-0.0001736773278631385
7.25175e-06	-0.00013528187831234566
7.25200e-06	-9.778417960608459e-05
7.25225e-06	-6.118166273797756e-05
7.25250e-06	-2.5543041959061486e-05
7.25275e-06	9.074049709032248e-06
7.25300e-06	4.249687716324496e-05
7.25325e-06	7.448286864440912e-05
7.25350e-06	0.00010478738927582262
7.25375e-06	0.00013316582266636938
7.25400e-06	0.00015936279561771036
7.25425e-06	0.00018305168316486967
7.25450e-06	0.00020380044651389508
7.25475e-06	0.00022124950261294467
7.25500e-06	0.00023527233903925153
7.25525e-06	0.00024586147055651985
7.25550e-06	0.0002530127322047822
7.25575e-06	0.0002567220029321188
7.25600e-06	0.0002569784005991284
7.25625e-06	0.00025372644489730304
7.25650e-06	0.0002468446039496666
7.25675e-06	0.00023625679285015544
7.25700e-06	0.00022203287550789675
7.25725e-06	0.0002043173378890121
7.25750e-06	0.00018325669439597482
7.25775e-06	0.0001589974828150768
7.25800e-06	0.00013168200683088215
7.25825e-06	0.00010142461981189248
7.25850e-06	6.829833283787154e-05
7.25875e-06	3.2404574730114144e-05
7.25900e-06	-6.0637672712661935e-06
7.25925e-06	-4.686710877563932e-05
7.25950e-06	-8.976458927606229e-05
7.25975e-06	-0.0001345153551529356
7.26000e-06	-0.00018088122036296014
7.26025e-06	-0.00022874359880062757
7.26050e-06	-0.0002780188212096785
7.26075e-06	-0.0003276227749266739
7.26100e-06	-0.0003785706599556918
7.26125e-06	-0.00042951854498470975
7.26150e-06	-0.0004803947968114143
7.26175e-06	-0.0005309781951690689
7.26200e-06	-0.0005815615935267235
7.26225e-06	-0.0006315628031411284
7.26250e-06	-0.000679183887518298
7.26275e-06	-0.0007268049718954676
7.26300e-06	-0.000773542428851136
7.26325e-06	-0.0008166674079801971
7.26350e-06	-0.0008587781016873164
7.26375e-06	-0.0008967421567691457
7.26400e-06	-0.0009334342367981694
7.26425e-06	-0.0009649261820631371
7.26450e-06	-0.0009949734077901878
7.26475e-06	-0.0010191142784544565
7.26500e-06	-0.001041747608724755
7.26525e-06	-0.0010582177574185252
7.26550e-06	-0.0010731353506824224
7.26575e-06	-0.0010817057302600285
7.26600e-06	-0.0010886828978797995
7.26625e-06	-0.001089146638314297
7.26650e-06	-0.001088029750409617
7.26675e-06	-0.0010804508801280398
7.26700e-06	-0.0010713728089596307
7.26725e-06	-0.0010561656500923096
7.26750e-06	-0.00103955187145252
7.26775e-06	-0.0010171874985992545
7.26800e-06	-0.0009935118040055244
7.26825e-06	-0.0009644751160856544
7.26850e-06	-0.0009342013787279695
7.26875e-06	-0.000898870290779346
7.26900e-06	-0.0008635392028307226
7.26925e-06	-0.0011170533848963698
7.26950e-06	-0.004776054397662018
7.26975e-06	-0.009169783177442825
7.27000e-06	-0.01032277979015457
7.27025e-06	-0.008926452433768387
7.27050e-06	-0.005883389718945849
7.27075e-06	-0.0023827937900750516
7.27100e-06	-0.0008671623859370498
7.27125e-06	-0.0012263873939839937
7.27150e-06	-0.003262614884834575
7.27175e-06	-0.005809710544173785
7.27200e-06	-0.00650819946727094
7.27225e-06	-0.005600414581406897
7.27250e-06	-0.0036554863764138735
7.27275e-06	-0.0014480180639231438
7.27300e-06	-0.00045887568530345035
7.27325e-06	-0.0006582269477970993
7.27350e-06	-0.0019127506149734356
7.27375e-06	-0.0034885355681245475
7.27400e-06	-0.0039728044009101115
7.27425e-06	-0.0035647526385448845
7.27450e-06	-0.002305855861359976
7.27475e-06	-0.0005866018020535001
7.27500e-06	0.00046923782947142677
7.27525e-06	0.0005350380434384954
7.27550e-06	-0.0002223848156148478
7.27575e-06	-0.0014049059810033206
7.27600e-06	-0.002068332491208245
7.27625e-06	-0.0018907809247282652
7.27650e-06	-0.0010988710593313293
7.27675e-06	-5.324156046333984e-05
7.27700e-06	0.0005840535645821502
7.27725e-06	0.0005994254524401004
7.27750e-06	9.760886150724223e-05
7.27775e-06	-0.0006717887743564061
7.27800e-06	-0.001117144165688954
7.27825e-06	-0.0010366861054480422
7.27850e-06	-0.0005722295696762444
7.27875e-06	5.047659373298057e-05
7.27900e-06	0.0004169050859772942
7.27925e-06	0.00039347033346100597
7.27950e-06	4.598615939402844e-05
7.27975e-06	-0.00046899678022744684
7.28000e-06	-0.0007807145111482048
7.28025e-06	-0.0007626294757016307
7.28050e-06	-0.0005034286950879823
7.28075e-06	-0.00014436528616231398
7.28100e-06	5.507463627851894e-05
7.28125e-06	1.1401626194941564e-05
7.28150e-06	-0.00023396884353602383
7.28175e-06	-0.0005827907089771087
7.28200e-06	-0.0008026505555980256
7.28225e-06	-0.0008141327047184938
7.28250e-06	-0.0006726391654298799
7.28275e-06	-0.0004664932034013125
7.28300e-06	-0.0003580677699595888
7.28325e-06	-0.0003994823131531618
7.28350e-06	-0.0005646149519807137
7.28375e-06	-0.0007917494091058089
7.28400e-06	-0.0009351902902965544
7.28425e-06	-0.0009454350507116472
7.28450e-06	-0.0008580706605399573
7.28475e-06	-0.0007294296825146982
7.28500e-06	-0.0006616499510281138
7.28525e-06	-0.0006874179337929744
7.28550e-06	-0.0007903807421718846
7.28575e-06	-0.0009318920056766663
7.28600e-06	-0.00102070673401788
7.28625e-06	-0.001025840682987528
7.28650e-06	-0.0009696102431437978
7.28675e-06	-0.0008873240622305847
7.28700e-06	-0.0008429787143372617
7.28725e-06	-0.0008570627321735412
7.28750e-06	-0.0009193460685084006
7.28775e-06	-0.0010056356287226759
7.28800e-06	-0.00105879446607681
7.28825e-06	-0.0010594363053931701
7.28850e-06	-0.001021562574351975
7.28875e-06	-0.0009673115406922916
7.28900e-06	-0.0009367886398802169
7.28925e-06	-0.0009428436177179856
7.28950e-06	-0.0009790838312243475
7.28975e-06	-0.0010303711175282235
7.29000e-06	-0.0010609336704068958
7.29025e-06	-0.0010586491023415036
7.29050e-06	-0.0010323090232075205
7.29075e-06	-0.0009958008420809627
7.29100e-06	-0.0009742650238843261
7.29125e-06	-0.0009757673323724057
7.29150e-06	-0.0009963201763583446
7.29175e-06	-0.0010264583351459117
7.29200e-06	-0.0010437931619607602
7.29225e-06	-0.0010407513349168763
7.29250e-06	-0.001022860064061021
7.29275e-06	-0.0009988381339497252
7.29300e-06	-0.0009844518827931894
7.29325e-06	-0.0009847712146114213
7.29350e-06	-0.0009973158558568983
7.29375e-06	-0.0010161745132204398
7.29400e-06	-0.0010273394031713819
7.29425e-06	-0.001026068002845585
7.29450e-06	-0.0010165128812368058
7.29475e-06	-0.0010033490440981977
7.29500e-06	-0.0009943217009888683
7.29525e-06	-0.0009961369384291741
7.29550e-06	-0.001005351160843154
7.29575e-06	-0.001018715639788886
7.29600e-06	-0.0010287694664544466
7.29625e-06	-0.0010302946771974237
7.29650e-06	-0.0010267981564535899
7.29675e-06	-0.0010211744815020961
7.29700e-06	-0.001018200926437017
7.29725e-06	-0.0010221690089617993
7.29750e-06	-0.0010308793517588468
7.29775e-06	-0.0010422714059068652
7.29800e-06	-0.001051622758071371
7.29825e-06	-0.0010557136619037577
7.29850e-06	-0.001056708375884181
7.29875e-06	-0.0010564034841563162
7.29900e-06	-0.0010577667265674797
7.29925e-06	-0.0010634937996437507
7.29950e-06	-0.0010721814587494793
7.29975e-06	-0.0010825307808599288
7.30000e-06	-0.0010915842624984796
7.30025e-06	-0.0010972907459456797
7.30050e-06	-0.0011009894822245293
7.30075e-06	-0.0011038065583897584
7.30100e-06	-0.0011076258115055883
7.30125e-06	-0.0011140600681725705
7.30150e-06	-0.0011222215107705817
7.30175e-06	-0.0011313057475787337
7.30200e-06	-0.0011392365594619185
7.30225e-06	-0.0011448925978728801
7.30250e-06	-0.0011499101751663277
7.30275e-06	-0.0011536685856238494
7.30300e-06	-0.0011581272254380594
7.30325e-06	-0.001163966850811562
7.30350e-06	-0.001170155014343655
7.30375e-06	-0.0011770305614584146
7.30400e-06	-0.0011826676690869775
7.30425e-06	-0.0011858623383485523
7.30450e-06	-0.0011863025240752133
7.30475e-06	-0.0011813103440369529
7.30500e-06	-0.0011738124768208545
7.30525e-06	-0.0011613729176070374
7.30550e-06	-0.00114653608877141
7.30575e-06	-0.0011269713879928363
7.30600e-06	-0.0011043562096504612
7.30625e-06	-0.001075724908985023
7.30650e-06	-0.0010443260230242845
7.30675e-06	-0.001005685996023089
7.30700e-06	-0.0009619856695451065
7.30725e-06	-0.0009137868862775445
7.30750e-06	-0.0008613956535346664
7.30775e-06	-0.0008049882534982687
7.30800e-06	-0.0007444010427558891
7.30825e-06	-0.0006796113467090703
7.30850e-06	-0.0006105460081189346
7.30875e-06	-0.0005372069382805741
7.30900e-06	-0.0004601905165775322
7.30925e-06	-0.0003801020470153646
7.30950e-06	-0.00029738657446295275
7.30975e-06	-0.00021240780595557484
7.31000e-06	-0.00012531654963971085
7.31025e-06	-3.6351922419722925e-05
7.31050e-06	5.4278612961073443e-05
7.31075e-06	0.0001463205857525212
7.31100e-06	0.0002391471503377344
7.31125e-06	0.00033212593880288695
7.31150e-06	0.00042472503748856546
7.31175e-06	0.000516463454768098
7.31200e-06	0.0006069936335393915
7.31225e-06	0.0006959126831133162
7.31250e-06	0.0007828376170927946
7.31275e-06	0.0008673560031205575
7.31300e-06	0.0009488221890931903
7.31325e-06	0.0010265871093912496
7.31350e-06	0.001100064626916666
7.31375e-06	0.0011687005992867179
7.31400e-06	0.0012320173306860191
7.31425e-06	0.0012894774815305737
7.31450e-06	0.0013405797975746014
7.31475e-06	0.001384991335669246
7.31500e-06	0.0014224767925784896
7.31525e-06	0.0014529031493846877
7.31550e-06	0.001476182382988298
7.31575e-06	0.0014922464843270047
7.31600e-06	0.0015010753449586013
7.31625e-06	0.0015026115872439907
7.31650e-06	0.0014968203458112861
7.31675e-06	0.0014837723415369831
7.31700e-06	0.001463599426457738
7.31725e-06	0.0014364974047892348
7.31750e-06	0.001402690305269277
7.31775e-06	0.0013624147863119833
7.31800e-06	0.0013159373997460697
7.31825e-06	0.0012635013523382417
7.31850e-06	0.0012053640212522337
7.31875e-06	0.0011418487626829138
7.31900e-06	0.0010733173803813268
7.31925e-06	0.0010001715617152956
7.31950e-06	0.0009228307118984078
7.31975e-06	0.0008417221683160844
7.32000e-06	0.0007572919468412734
7.32025e-06	0.0006699713846908984
7.32050e-06	0.0005802006141107759
7.32075e-06	0.0004884611779106524
7.32100e-06	0.00039516232696588233
7.32125e-06	0.0003009335026563433
7.32150e-06	0.0002065971200428856
7.32175e-06	0.00011222624463119172
7.32200e-06	1.8568915943128387e-05
7.32225e-06	-7.382595757417399e-05
7.32250e-06	-0.00016440395324075012
7.32275e-06	-0.00025258478690143136
7.32300e-06	-0.0003377732069945198
7.32325e-06	-0.00041935830231618564
7.32350e-06	-0.0004967223134749673
7.32375e-06	-0.0005692444698602937
7.32400e-06	-0.0006363074820857808
7.32425e-06	-0.0006973887249799367
7.32450e-06	-0.0007521885698232247
7.32475e-06	-0.0008005990062734091
7.32500e-06	-0.0008425362831074914
7.32525e-06	-0.0008778769967716902
7.32550e-06	-0.0009064893313995473
7.32575e-06	-0.0009282396149703597
7.32600e-06	-0.0009429964309921199
7.32625e-06	-0.0009506876356148333
7.32650e-06	-0.0009513807856658202
7.32675e-06	-0.0009452634916512803
7.32700e-06	-0.0009325385233744255
7.32725e-06	-0.0009133838145519267
7.32750e-06	-0.0008879720319580512
7.32775e-06	-0.000856474696141375
7.32800e-06	-0.0008190646724849716
7.32825e-06	-0.0007759520131456444
7.32850e-06	-0.0007274342787688797
7.32875e-06	-0.0006738841148896232
7.32900e-06	-0.0006156837259908913
7.32925e-06	-0.0005531997452451507
7.32950e-06	-0.00048679542925834273
7.32975e-06	-0.0004168333040346387
7.33000e-06	-0.00034367675024259126
7.33025e-06	-0.000267712386068802
7.33050e-06	-0.00018938164612952073
7.33075e-06	-0.00010917296061934038
7.33100e-06	-2.7580703576989906e-05
7.33125e-06	5.491054466812424e-05
7.33150e-06	0.0001378183239337982
7.33175e-06	0.0002206606744551474
7.33200e-06	0.00030295515163573667
7.33225e-06	0.00038420475727267433
7.33250e-06	0.00046387822364608107
7.33275e-06	0.0005414148640671772
7.33300e-06	0.0006162503231981107
7.33325e-06	0.0006878264341846826
7.33350e-06	0.0007555863052957223
7.33375e-06	0.0008189735137290582
7.33400e-06	0.0008774854233013982
7.33425e-06	0.0009309683809237285
7.33450e-06	0.0009799303412123667
7.33475e-06	0.001025055614368672
7.33500e-06	0.0010664989448977995
7.33525e-06	0.0011033259510462106
7.33550e-06	0.0011360392385561884
7.33575e-06	0.0011657195958513816
7.33600e-06	0.0011894184375386735
7.33625e-06	0.001210241530966585
7.33650e-06	0.0012253931015177339
7.33675e-06	0.001238207486452919
7.33700e-06	0.0012464124965429423
7.33725e-06	0.0012522985146423602
7.33750e-06	0.001253611039188298
7.33775e-06	0.0012525600375090087
7.33800e-06	0.0012468477122899245
7.33825e-06	0.0012390170733132218
7.33850e-06	0.0012270087164514517
7.33875e-06	0.0012129924674939823
7.33900e-06	0.0011950162731842906
7.33925e-06	0.001177040078874599
7.33950e-06	0.0011569382267711183
7.33975e-06	0.001132644172945879
7.34000e-06	0.0011083501191205573
7.34025e-06	0.0010825016886416906
7.34050e-06	0.0010535877315748566
7.34075e-06	0.0010246737745079246
7.34100e-06	0.0009950355714541362
7.34125e-06	0.0009639690174765076
7.34150e-06	0.0009329024634987739
7.34175e-06	0.0009016421705861776
7.34200e-06	0.0008699997876216857
7.34225e-06	0.0008383574046570867
7.34250e-06	0.0008071483589876356
7.34275e-06	0.000776793936936176
7.34300e-06	0.0007472196669380062
7.34325e-06	0.0007191840052666955
7.34350e-06	0.000692211720846994
7.34375e-06	0.0006673366187478786
7.34400e-06	0.0006438596154794585
7.34425e-06	0.000623139929189139
7.34450e-06	0.0006037975238353296
7.34475e-06	0.000588200385773235
7.34500e-06	0.0005756645317006122
7.34525e-06	0.0005661944250676059
7.34550e-06	0.0005597864569991935
7.34575e-06	0.000556437018620394
7.34600e-06	0.0005561510005539702
7.34625e-06	0.0005589819781264587
7.34650e-06	0.0005650528283221822
7.34675e-06	0.0005744470834738292
7.34700e-06	0.0005871086734273785
7.34725e-06	0.0006029054243341667
7.34750e-06	0.0006217001592321513
7.34775e-06	0.0006438011147729233
7.34800e-06	0.0006686185621839039
7.34825e-06	0.0006951783870434189
7.34850e-06	0.0007251745118382272
7.34875e-06	0.0007567668971403402
7.34900e-06	0.0007915074119607818
7.34925e-06	0.0008275618335827989
7.34950e-06	0.0008662075294777555
7.34975e-06	0.0009058715787874132
7.35000e-06	0.0009475440148423504
7.35025e-06	0.0009898140987587734
7.35050e-06	0.001033585878083249
7.35075e-06	0.0010782414349284582
7.35100e-06	0.0011235394216796565
7.35125e-06	0.0011692086972491646
7.35150e-06	0.0012149760348768098
7.35175e-06	0.00126056832530653
7.35200e-06	0.001305714649433731
7.35225e-06	0.0013501559408215125
7.35250e-06	0.0013936503015018762
7.35275e-06	0.001435946041414365
7.35300e-06	0.0014767573913077876
7.35325e-06	0.0015157797651751774
7.35350e-06	0.001552707455292282
7.35375e-06	0.00158723467886586
7.35400e-06	0.0016190379838913172
7.35425e-06	0.0016476920718456623
7.35450e-06	0.001672630134909103
7.35475e-06	0.001693376999585341
7.35500e-06	0.0017097591709099608
7.35525e-06	0.0017217659496107842
7.35550e-06	0.0017293972976089346
7.35575e-06	0.001732653331319735
7.35600e-06	0.0017315230042236943
7.35625e-06	0.0017251339583455759
7.35650e-06	0.0017141426057352485
7.35675e-06	0.0017000077902706045
7.35700e-06	0.001679673467799364
7.35725e-06	0.001656421800447757
7.35750e-06	0.0016274165737686108
7.35775e-06	0.0015957485367063433
7.35800e-06	0.0015588289307881147
7.35825e-06	0.001518842847097368
7.35850e-06	0.0014728090856331525
7.35875e-06	0.0014267753241690932
7.35900e-06	0.001377636909001089
7.35925e-06	0.001322375525857338
7.35950e-06	0.0012671141427137737
7.35975e-06	0.00120966722666597
7.36000e-06	0.0011479100237846828
7.36025e-06	0.001086152820903605
7.36050e-06	0.0010230622021971056
7.36075e-06	0.0009573418337097433
7.36100e-06	0.0008916214652226038
7.36125e-06	0.0008255665481492414
7.36150e-06	0.0007588518375930447
7.36175e-06	0.0006924748058146656
7.36200e-06	0.0006267637408517728
7.36225e-06	0.0005618796535165643
7.36250e-06	0.000498626523451287
7.36275e-06	0.00043630013239897447
7.36300e-06	0.0003766085272415808
7.36325e-06	0.0003194615313858612
7.36350e-06	0.0002652925397630187
7.36375e-06	0.0002145349372404358
7.36400e-06	0.00016755474510720466
7.36425e-06	0.00012428381160453137
7.36450e-06	8.385970989212657e-05
7.36475e-06	4.527983786936188e-05
7.36500e-06	8.28005211465593e-06
7.36525e-06	-2.6916471404353572e-05
7.36550e-06	-6.005047289328604e-05
7.36575e-06	-9.086274719549291e-05
7.36600e-06	-0.00011913629891542043
7.36625e-06	-0.00014492609225583974
7.36650e-06	-0.00016878459861739128
7.36675e-06	-0.00019135205425551753
7.36700e-06	-0.00021280609089623876
7.36725e-06	-0.00023301906459212071
7.36750e-06	-0.000251840751026311
7.36775e-06	-0.00026912097008231116
7.36800e-06	-0.0002844949865805103
7.36825e-06	-0.00029825715481751847
7.36850e-06	-0.0003113504331470708
7.36875e-06	-0.0003231245332774947
7.36900e-06	-0.0003343809865788508
7.36925e-06	-0.00034461654181604457
7.36950e-06	-0.0003542277462763324
7.36975e-06	-0.0003626076121797397
7.37000e-06	-0.00037021659583498897
7.37025e-06	-0.0003763052529844131
7.37050e-06	-0.0003823939101338579
7.37075e-06	-0.0003880050450031665
7.37100e-06	-0.0003926744150552608
7.37125e-06	-0.00039734378510737086
7.37150e-06	-0.00040143369983496367
7.37175e-06	-0.0004043808183821924
7.37200e-06	-0.00040732793692943115
7.37225e-06	-0.0004102750554766599
7.37250e-06	-0.00041322217402388865
7.37275e-06	-0.0004153350249489367
7.37300e-06	-0.00041728475522641133
7.37325e-06	-0.000419234485503886
7.37350e-06	-0.00042118421578136723
7.37375e-06	-0.00042300845389080694
7.37400e-06	-0.00042458519756154617
7.37425e-06	-0.00042544945712673203
7.37450e-06	-0.00042490856243769363
7.37475e-06	-0.00042320885719608273
7.37500e-06	-0.0004184328043203675
7.37525e-06	-0.0004113479953462059
7.37550e-06	-0.0004020795473683816
7.37575e-06	-0.0003907525293384808
7.37600e-06	-0.0003774636129962812
7.37625e-06	-0.00036213228986238175
7.37650e-06	-0.0003443740772382059
7.37675e-06	-0.00032380379518558936
7.37700e-06	-0.0003003959994122705
7.37725e-06	-0.00027434626393666405
7.37750e-06	-0.00024586590215190576
7.37775e-06	-0.00021516626607466377
7.37800e-06	-0.0001824408861944398
7.37825e-06	-0.0001477722767680368
7.37850e-06	-0.00011105255517015566
7.37875e-06	-7.217341561853805e-05
7.37900e-06	-3.125192586897129e-05
7.37925e-06	1.145644893493868e-05
7.37950e-06	5.56863651464066e-05
7.37975e-06	0.00010117250913199241
7.38000e-06	0.00014766073309942706
7.38025e-06	0.00019509129645353546
7.38050e-06	0.0002432705486432828
7.38075e-06	0.00029181781537547026
7.38100e-06	0.00034109087682510975
7.38125e-06	0.00039035688310428194
7.38150e-06	0.00043960897524407736
7.38175e-06	0.0004886042513391462
7.38200e-06	0.0005367947127812198
7.38225e-06	0.0005840346331869224
7.38250e-06	0.0006301502563330141
7.38275e-06	0.0006749681040132416
7.38300e-06	0.000718226208828106
7.38325e-06	0.0007596083307121695
7.38350e-06	0.0007987945211925801
7.38375e-06	0.000835464715381586
7.38400e-06	0.0008693086611128216
7.38425e-06	0.0009000876656473383
7.38450e-06	0.0009277206702395656
7.38475e-06	0.0009516872163609167
7.38500e-06	0.0009725160420153787
7.38525e-06	0.0009911372602244423
7.38550e-06	0.0010054046564063124
7.38575e-06	0.001017360306711485
7.38600e-06	0.0010247567541837592
7.38625e-06	0.0010298383419080996
7.38650e-06	0.0010303545856527412
7.38675e-06	0.0010287051025415373
7.38700e-06	0.001022784393896382
7.38725e-06	0.0010148039475236957
7.38750e-06	0.0010027613063496067
7.38775e-06	0.0009887563191580974
7.38800e-06	0.0009708812121528589
7.38825e-06	0.0009512043878866322
7.38850e-06	0.0009279742342850156
7.38875e-06	0.00090319838631133
7.38900e-06	0.0008753741348643627
7.38925e-06	0.0008459502544446308
7.38950e-06	0.0008133716012543458
7.38975e-06	0.0007807929480639505
7.39000e-06	0.0007467690212185493
7.39025e-06	0.0007098947396656186
7.39050e-06	0.0006730204581125629
7.39075e-06	0.0006353808300823969
7.39100e-06	0.000596231793140968
7.39125e-06	0.0005570827561994063
7.39150e-06	0.0005178583009037331
7.39175e-06	0.000478485106259993
7.39200e-06	0.0004391119116163862
7.39225e-06	0.00040020472706852353
7.39250e-06	0.00036221660311877763
7.39275e-06	0.00032477840058884884
7.39300e-06	0.0002889101787487721
7.39325e-06	0.0002545725457026529
7.39350e-06	0.0002220264317065259
7.39375e-06	0.00019153274784045025
7.39400e-06	0.00016333292363256136
7.39425e-06	0.00013753827807471574
