Time(s)	Current(A)
1.22500e-05	0.0012337742824489245
1.22503e-05	0.001234920361110554
1.22505e-05	0.0012360664397721912
1.22508e-05	0.0012372125184338283
1.22510e-05	0.0012383585970954579
1.22513e-05	0.001239504675757095
1.22515e-05	0.0012406507544187324
1.22518e-05	0.0012417968330803617
1.22520e-05	0.001242942911741999
1.22523e-05	0.0012440889904036362
1.22525e-05	0.0012452350690652656
1.22528e-05	0.001246381147726903
1.22530e-05	0.0012516265209444703
1.22532e-05	0.0012618983276972032
1.22535e-05	0.0012721701344500056
1.22538e-05	0.001282441941202808
1.22540e-05	0.0012927137479556104
1.22543e-05	0.0013029855547083433
1.22545e-05	0.0013132573614611457
1.22548e-05	0.0013235291682139481
1.22550e-05	0.001333800974966681
1.22553e-05	0.0013440727817194834
1.22555e-05	0.0013543445884722858
1.22558e-05	0.0013646163952250186
1.22560e-05	0.001374888201977821
1.22563e-05	0.0013851600087306235
1.22565e-05	0.0013980901617829972
1.22568e-05	0.0014111625805563373
1.22570e-05	0.001424234999329677
1.22573e-05	0.0014373074181029282
1.22575e-05	0.001450379836876268
1.22578e-05	0.0014634522556496079
1.22580e-05	0.0014765246744228592
1.22583e-05	0.001489597093196199
1.22585e-05	0.001502669511969539
1.22588e-05	0.0015117979550811735
1.22590e-05	0.0015207153299280093
1.22593e-05	0.0015296327047748454
1.22595e-05	0.0015385500796216208
1.22598e-05	0.0015474674544684569
1.22600e-05	0.0015563848293152927
1.22603e-05	0.0015653022041620683
1.22605e-05	0.0015742195790089042
1.22608e-05	0.00158313695385574
1.22610e-05	0.001583767357000931
1.22613e-05	0.0015839542693924281
1.22615e-05	0.001584141181783925
1.22617e-05	0.0015843280941754206
1.22620e-05	0.0015845150065669177
1.22623e-05	0.0015847019189584146
1.22625e-05	0.0015848888313499117
1.22628e-05	0.0015850757437414072
1.22630e-05	0.0015852626561329041
1.22633e-05	0.0015854495685244012
1.22635e-05	0.0015856364809158968
1.22638e-05	0.0015822654241983275
1.22640e-05	0.0015745316911694972
1.22643e-05	0.001566797958140719
1.22645e-05	0.0015590642251118887
1.22648e-05	0.0015513304920830582
1.22650e-05	0.00154359675905428
1.22653e-05	0.0015358630260254497
1.22655e-05	0.0015281292929966194
1.22658e-05	0.0015203955599678413
1.22660e-05	0.0015126618269390108
1.22663e-05	0.0015049280939101804
1.22665e-05	0.0014971943608814023
1.22668e-05	0.0014872665654497314
1.22670e-05	0.0014772213512040146
1.22673e-05	0.001467176136958366
1.22675e-05	0.0014571309227126492
1.22678e-05	0.0014470857084669326
1.22680e-05	0.0014370404942212838
1.22683e-05	0.0014269952799755672
1.22685e-05	0.001418026798896744
1.22688e-05	0.0014103785761274956
1.22690e-05	0.0014027303533581956
1.22693e-05	0.0013950821305888953
1.22695e-05	0.0013874339078196471
1.22698e-05	0.0013797856850503469
1.22700e-05	0.0013721374622810468
1.22702e-05	0.0013644892395117984
1.22705e-05	0.0013661476293363075
1.22708e-05	0.0013683040776540027
1.22710e-05	0.001370460525971698
1.22713e-05	0.0013726169742893789
1.22715e-05	0.0013747734226070743
1.22718e-05	0.0013769298709247694
1.22720e-05	0.0013790863192424503
1.22723e-05	0.0013812427675601456
1.22725e-05	0.001395718008512801
1.22728e-05	0.0014108525096672585
1.22730e-05	0.0014259870108218188
1.22733e-05	0.001441121511976379
1.22735e-05	0.0014562560131308364
1.22738e-05	0.0014713905142853965
1.22740e-05	0.0014865250154399569
1.22743e-05	0.0015016595165944144
1.22745e-05	0.0015230554416180214
1.22748e-05	0.0015487473663375454
1.22750e-05	0.0015746512655599823
1.22753e-05	0.0016005551647825947
1.22755e-05	0.0016264590640052072
1.22758e-05	0.001652362963227644
1.22760e-05	0.0016782668624502563
1.22763e-05	0.0017041707616728687
1.22765e-05	0.0017310519239286404
1.22768e-05	0.0017591313771635115
1.22770e-05	0.0017872108303983827
1.22773e-05	0.0018152902836330637
1.22775e-05	0.0018433697368679348
1.22778e-05	0.0018714491901028062
1.22780e-05	0.0018995286433374872
1.22783e-05	0.0019276080965723583
1.22785e-05	0.0019496206115991012
1.22787e-05	0.001971308444570407
1.22790e-05	0.0019929962775418605
1.22793e-05	0.0020146841105133134
1.22795e-05	0.002036371943484767
1.22798e-05	0.0020580597764560727
1.22800e-05	0.002079747609427526
1.22803e-05	0.0020939718216306433
1.22805e-05	0.0020990443631655146
1.22808e-05	0.0021041169047004197
1.22810e-05	0.0021091894462353248
1.22813e-05	0.0021142619877701956
1.22815e-05	0.002119334529305101
1.22818e-05	0.002124407070840006
1.22820e-05	0.002129479612374877
1.22823e-05	0.0021206368141466537
1.22825e-05	0.0021110493139022534
1.22828e-05	0.0021014618136579173
1.22830e-05	0.0020791195356115203
1.22833e-05	0.0020560946649079027
1.22835e-05	0.002033069794204441
1.22838e-05	0.0020100449235008234
1.22840e-05	0.0019870200527972053
1.22843e-05	0.001963995182093744
1.22845e-05	0.0019409703113901261
1.22848e-05	0.0019118705180867375
1.22850e-05	0.0018753218346671614
1.22853e-05	0.0018387731512473377
1.22855e-05	0.0018022244678275142
1.22858e-05	0.001765675784407938
1.22860e-05	0.0017291271009881146
1.22863e-05	0.0016925784175682908
1.22865e-05	0.001656029734148715
1.22868e-05	0.001615755726796946
1.22870e-05	0.0015752823526821507
1.22872e-05	0.0015348089785676298
1.22875e-05	0.0014943356044528346
1.22878e-05	0.0014538622303380394
1.22880e-05	0.0014152984234069358
1.22883e-05	0.0013790760711842184
1.22885e-05	0.0013428537189612555
1.22888e-05	0.0013066313667382927
1.22890e-05	0.0012704090145155753
1.22893e-05	0.0012341866622926124
1.22895e-05	0.0012055769493291473
1.22898e-05	0.0011773746391248326
1.22900e-05	0.0011491723289203267
1.22903e-05	0.0011253218313985582
1.22905e-05	0.001101704228203508
1.22908e-05	0.0010780866250082977
1.22910e-05	0.0010573969471107958
1.22913e-05	0.0010368639618930655
1.22915e-05	0.0010163309766751962
1.22918e-05	0.0010015459621117754
1.22920e-05	0.0009870685595374361
1.22923e-05	0.0009725911569629986
1.22925e-05	0.0009581137543885611
1.22928e-05	0.0009436363518142216
1.22930e-05	0.0009291589492397841
1.22933e-05	0.0009146815466653467
1.22935e-05	0.0009002041440910072
1.22938e-05	0.0008881667665869597
1.22940e-05	0.0008791212755371266
1.22943e-05	0.0008700757844873547
1.22945e-05	0.0008610302934375215
1.22948e-05	0.0008519848023876884
1.22950e-05	0.0008429393113379165
1.22953e-05	0.0008338938202880834
1.22955e-05	0.0008248483292382503
1.22957e-05	0.0008158028381884784
1.22960e-05	0.000810201736115694
1.22963e-05	0.0008047849661156795
1.22965e-05	0.0007993681961157019
1.22968e-05	0.0007939514261156875
1.22970e-05	0.0007885346561156731
1.22973e-05	0.0007831178861156587
1.22975e-05	0.000777701116115681
1.22978e-05	0.0007722843461156667
1.22980e-05	0.0007668675761156522
1.22983e-05	0.0007614508061156745
1.22985e-05	0.0007586589695814438
1.22988e-05	0.0007560076106268335
1.22990e-05	0.0007533562516722413
1.22993e-05	0.0007507048927176311
1.22995e-05	0.0007480535337630208
1.22998e-05	0.0007454021748084285
1.23000e-05	0.0007427508158538183
1.23003e-05	0.0007400994568992081
1.23005e-05	0.0007374480979446158
1.23008e-05	0.0007347967389900056
1.23010e-05	0.000738203583087401
1.23013e-05	0.0007419346417650366
1.23015e-05	0.0007456657004426976
1.23018e-05	0.0007493967591203585
1.23020e-05	0.0007531278177979943
1.23023e-05	0.0007568588764756552
1.23025e-05	0.0007605899351533162
1.23028e-05	0.0007643209938309519
1.23030e-05	0.0007680520525086129
1.23033e-05	0.0007717831111862738
1.23035e-05	0.0007821641810596694
1.23038e-05	0.0007929011370879444
1.23040e-05	0.0008036380931162195
1.23042e-05	0.0008143750491444217
1.23045e-05	0.0008251120051726967
1.23048e-05	0.0008358489612009717
1.23050e-05	0.000846585917229174
1.23053e-05	0.000857322873257449
1.23055e-05	0.0008680598292857241
1.23058e-05	0.000878796785313999
1.23060e-05	0.0008923476270985324
1.23063e-05	0.0009060490585517605
1.23065e-05	0.0009197504900049884
1.23068e-05	0.0009334519214581236
1.23070e-05	0.0009471533529113516
1.23073e-05	0.0009608547843645796
1.23075e-05	0.0009745562158177147
1.23078e-05	0.0009875352302618895
1.23080e-05	0.0009996284383712284
1.23083e-05	0.0010117216464804856
1.23085e-05	0.0010238148545898247
1.23088e-05	0.0010359080626991639
1.23090e-05	0.001048001270808421
1.23093e-05	0.00106009447891776
1.23095e-05	0.0010721876870270991
1.23098e-05	0.0010776764297729749
1.23100e-05	0.0010828117238229587
1.23103e-05	0.0010879470178729426
1.23105e-05	0.0010930823119228916
1.23108e-05	0.0010982176059728755
1.23110e-05	0.0011033529000228593
1.23113e-05	0.0011084881940728083
1.23115e-05	0.0011136234881227922
1.23118e-05	0.0011187587821727758
1.23120e-05	0.001123894076222725
1.23123e-05	0.0011290293702727087
1.23125e-05	0.0011341646643226926
1.23127e-05	0.0011357635754958928
1.23130e-05	0.0011330262787507088
1.23133e-05	0.0011302889820055248
1.23135e-05	0.0011275516852603592
1.23138e-05	0.0011248143885151751
1.23140e-05	0.001122077091769991
1.23143e-05	0.001119339795024807
1.23145e-05	0.0011166024982796415
1.23148e-05	0.0011138652015344574
1.23150e-05	0.0011111279047892734
1.23153e-05	0.001108390608044108
1.23155e-05	0.0011056533112989238
1.23158e-05	0.0011029160145537397
1.23160e-05	0.0010970748792475933
1.23163e-05	0.001091067636977102
1.23165e-05	0.0010850603947066106
1.23168e-05	0.00107905315243616
1.23170e-05	0.0010730459101656686
1.23173e-05	0.0010670386678951773
1.23175e-05	0.0010610314256247267
1.23178e-05	0.0010550241833542353
1.23180e-05	0.001049016941083744
1.23183e-05	0.0010430096988132934
1.23185e-05	0.001037002456542802
1.23188e-05	0.0010315869405444606
1.23190e-05	0.001026203091739178
1.23193e-05	0.0010208192429338586
1.23195e-05	0.0010154353941285396
1.23198e-05	0.001010051545323257
1.23200e-05	0.0010046676965179376
1.23203e-05	0.0009992838477126185
1.23205e-05	0.0009938999989073357
1.23208e-05	0.0009885161501020166
1.23210e-05	0.0009831323012966975
1.23212e-05	0.0009777484524914146
1.23215e-05	0.0009692017215840679
1.23218e-05	0.0009604857239011836
1.23220e-05	0.0009517697262183583
1.23223e-05	0.000943053728535474
1.23225e-05	0.0009343377308525896
1.23228e-05	0.0009256217331697053
1.23230e-05	0.00091690573548688
1.23233e-05	0.0009081897378039957
1.23235e-05	0.0008994737401211113
1.23238e-05	0.0008907577424382861
1.23240e-05	0.0008779649080546546
1.23243e-05	0.0008649538951298196
1.23245e-05	0.0008519428822050727
1.23248e-05	0.0008389318692802376
1.23250e-05	0.0008259208563554026
1.23253e-05	0.0008129098434306556
1.23255e-05	0.0007998988305058205
1.23258e-05	0.0007868878175809854
1.23260e-05	0.0007738768046562385
1.23263e-05	0.0007608657917314034
1.23265e-05	0.0007468921081935512
1.23268e-05	0.0007328669057735052
1.23270e-05	0.0007188417033533642
1.23273e-05	0.0007048165009332231
1.23275e-05	0.0006907912985131771
1.23278e-05	0.0006767660960930362
1.23280e-05	0.0006627408936728951
1.23283e-05	0.0006511021084923773
1.23285e-05	0.0006395910363085511
1.23288e-05	0.0006280799641247251
1.23290e-05	0.0006165688919409769
1.23293e-05	0.0006050578197571507
1.23295e-05	0.0005935467475733246
1.23297e-05	0.0005820356753895765
1.23300e-05	0.0005722700852426363
1.23303e-05	0.0005625979074035434
1.23305e-05	0.000552925729564516
1.23308e-05	0.0005432535517254231
1.23310e-05	0.000531541927870774
1.23313e-05	0.0005197211597482127
1.23315e-05	0.0005079003916257316
1.23318e-05	0.0004960796235031703
1.23320e-05	0.00048252687559256904
1.23323e-05	0.0004688814379689769
1.23325e-05	0.0004552360003452923
1.23328e-05	0.0004389096270220094
1.23330e-05	0.0004224397790679322
1.23333e-05	0.00040596993111374346
1.23335e-05	0.00038765085652023556
1.23338e-05	0.0003692328175579515
1.23340e-05	0.0003508147785955426
1.23343e-05	0.0003304897482580553
1.23345e-05	0.0003100626621780797
1.23348e-05	0.0002896355760979656
1.23350e-05	0.00026751702289605413
1.23353e-05	0.00024530794808233204
1.23355e-05	0.00022309887326845947
1.23358e-05	0.0002001931546361638
1.23360e-05	0.00017725015397790402
1.23363e-05	0.00015430715331948876
1.23365e-05	0.00013096457180053798
1.23368e-05	0.00010760060606259723
1.23370e-05	8.423664032449816e-05
1.23373e-05	6.102308114015544e-05
1.23375e-05	3.812590533296888e-05
1.23378e-05	1.568801062548193e-05
1.23380e-05	-6.1979789379845605e-06
1.23382e-05	-2.7509177880550147e-05
1.23385e-05	-4.819775913198953e-05
1.23388e-05	-6.81438761803191e-05
1.23390e-05	-8.720172430155717e-05
1.23393e-05	-0.00010522430750909152
1.23395e-05	-0.00012206467106922534
1.23398e-05	-0.00013756747815358783
1.23400e-05	-0.0001513308767856492
1.23403e-05	-0.00016263748621273973
1.23405e-05	-0.00017097437473832293
1.23408e-05	-0.00017624662211048692
1.23410e-05	-0.00017850190792370745
1.23413e-05	-0.00017779442129256775
1.23415e-05	-0.0001741783397367062
1.23418e-05	-0.00016770260502100632
1.23420e-05	-0.00015826178420372497
1.23423e-05	-0.00014555277027556676
1.23425e-05	-0.00012940058389447178
1.23428e-05	-0.0001098920752460701
1.23430e-05	-8.720345963200991e-05
1.23433e-05	-6.151495783338046e-05
1.23435e-05	-3.30068260294018e-05
1.23438e-05	-1.8560108359764546e-06
1.23440e-05	3.185726753661049e-05
1.23443e-05	6.817655819536464e-05
1.23445e-05	0.00010706519416533902
1.23448e-05	0.00014832246593826052
1.23450e-05	0.0001916917195968647
1.23453e-05	0.0002369137913281661
1.23455e-05	0.000284357699940456
1.23458e-05	0.0003319155125902127
1.23460e-05	0.0003820837608884375
1.23463e-05	0.0004323917108933728
1.23465e-05	0.00048269966089830804
1.23467e-05	0.000534464989494675
1.23470e-05	0.0005863083120753553
1.23473e-05	0.0006381516346560355
1.23475e-05	0.0006899949572363644
1.23478e-05	0.0007394594418068857
1.23480e-05	0.0007887966189950214
1.23483e-05	0.0008381337961831571
1.23485e-05	0.0008874709733709585
1.23488e-05	0.0009313263342273866
1.23490e-05	0.0009748883267733091
1.23493e-05	0.0010184503193189365
1.23495e-05	0.0010572345890042197
1.23498e-05	0.001086996412449885
1.23500e-05	0.0011025199237618838
1.23503e-05	-0.0004059647644355671
1.23505e-05	-0.008185878227794471
1.23508e-05	-0.012585356254685612
1.23510e-05	-0.01103659523493119
1.23513e-05	-0.008279955583896693
1.23515e-05	-0.0019028390124026455
1.23518e-05	0.002205946370007281
1.23520e-05	0.0023166737415816095
1.23523e-05	0.0011136854199464694
1.23525e-05	-0.003759033412771595
1.23528e-05	-0.006657449441963278
1.23530e-05	-0.005875149394846981
1.23533e-05	-0.0053295649298374164
1.23535e-05	-0.0014240749734457272
1.23538e-05	0.0020039163327203093
1.23540e-05	0.003132255786898262
1.23543e-05	0.002305577833959527
1.23545e-05	-0.0002807261488620579
1.23548e-05	-0.0023678702130273373
1.23550e-05	-0.0027690455611748834
1.23552e-05	-0.001798577951842348
1.23555e-05	0.0002573337162463255
1.23558e-05	0.001987202004914279
1.23560e-05	0.002612382943933519
1.23563e-05	0.0020510977352906482
1.23565e-05	0.0003903805006428569
1.23568e-05	-0.0009549728705853333
1.23570e-05	-0.00124171313619382
1.23573e-05	-0.0006668918858202924
1.23575e-05	0.0005901026607713284
1.23578e-05	0.0016450761410820734
1.23580e-05	0.002010329409203584
1.23583e-05	0.0016347212849171686
1.23585e-05	0.0005728704314378869
1.23588e-05	-0.0002889264522189575
1.23590e-05	-0.0004850786311443064
1.23593e-05	-0.00013900435761624713
1.23595e-05	0.0006369615278625252
1.23598e-05	0.0012890018586857901
1.23600e-05	0.0015112722360754128
1.23603e-05	0.0012708037387993473
1.23605e-05	0.0006010289104760899
1.23608e-05	5.686436331295351e-05
1.23610e-05	-7.011750880289465e-05
1.23613e-05	0.0001427193163316945
1.23615e-05	0.00062496284179982
1.23618e-05	0.0010296785142109807
1.23620e-05	0.001165288029317312
1.23623e-05	0.0010111533212960775
1.23625e-05	0.0005882316292051962
1.23628e-05	0.00024412134538937463
1.23630e-05	0.00016143929574346418
1.23633e-05	0.00029169586337816434
1.23635e-05	0.0005907611974404698
1.23637e-05	0.0008413046214121389
1.23640e-05	0.0009233264742075557
1.23643e-05	0.0008239104898545456
1.23645e-05	0.0005561959416808316
1.23648e-05	0.0003379195706418558
1.23650e-05	0.0002834590498883834
1.23653e-05	0.0003624236916164487
1.23655e-05	0.0005471567054452053
1.23658e-05	0.0007015161939593342
1.23660e-05	0.0007503381414196744
1.23663e-05	0.0006855393925322841
1.23665e-05	0.0005153580234597216
1.23668e-05	0.00037618521084913624
1.23670e-05	0.00033965884940102744
1.23673e-05	0.0003867316793540445
1.23675e-05	0.00050007075338014
1.23678e-05	0.0005943929826457183
1.23680e-05	0.0006226177733330292
1.23683e-05	0.0005796863419980126
1.23685e-05	0.0004707635901716373
1.23688e-05	0.00038128525957030826
1.23690e-05	0.00035611969440796213
1.23693e-05	0.00038332879140222864
1.23695e-05	0.0004520493768471698
1.23698e-05	0.0005088782031058369
1.23700e-05	0.0005246331748904292
1.23703e-05	0.0004968218983962585
1.23705e-05	0.00042918437725592386
1.23708e-05	0.00037532658762683737
1.23710e-05	0.0003632797734249122
1.23713e-05	0.0003854732441217986
1.23715e-05	0.00043501032750174626
1.23718e-05	0.0004783490645484309
1.23720e-05	0.000497122170328949
1.23723e-05	0.0004896814100762117
1.23725e-05	0.00045828268005890374
1.23728e-05	0.00043641619186606505
1.23730e-05	0.0004415497897406005
1.23733e-05	0.00046884978799820604
1.23735e-05	0.0005139050819216964
1.23738e-05	0.0005556152657599701
1.23740e-05	0.0005823866681746796
1.23743e-05	0.000593099153446641
1.23745e-05	0.0005890779711372296
1.23748e-05	0.0005912125550477564
1.23750e-05	0.0006103545810494943
1.23753e-05	0.0006433855557388945
1.23755e-05	0.000687452052956611
1.23758e-05	0.0007292472261205424
1.23760e-05	0.0007614201909060589
1.23763e-05	0.0007831809988706871
1.23765e-05	0.00079527155504763
1.23768e-05	0.0008106880208214349
1.23770e-05	0.0008361380938393796
1.23773e-05	0.0008695783179630314
1.23775e-05	0.0009091314604030023
1.23778e-05	0.0009463728019171106
1.23780e-05	0.0009766089466528214
1.23783e-05	0.0009992566744236322
1.23785e-05	0.0010146919541186804
1.23788e-05	0.0010309667432584569
1.23790e-05	0.0010521933419918353
1.23793e-05	0.0010770020517920952
1.23795e-05	0.0011024310537894471
1.23798e-05	0.0011278736223747237
1.23800e-05	0.001144722035512459
1.23803e-05	0.0011597510207296726
1.23805e-05	0.0011704694296000256
1.23808e-05	0.0011802752667804247
1.23810e-05	0.0011954123875861675
1.23813e-05	0.0012116781691824704
1.23815e-05	0.001229714768380568
1.23818e-05	0.001248126258981124
1.23820e-05	0.0012613403569262545
1.23823e-05	0.001273454139503471
1.23825e-05	0.0012855679220806057
1.23828e-05	0.0012976817046578223
1.23830e-05	0.001309795487235039
1.23833e-05	0.0013249858174002645
1.23835e-05	0.0013408274688753215
1.23838e-05	0.0013566691203503786
1.23840e-05	0.0013725107718253282
1.23843e-05	0.0013864399181929851
1.23845e-05	0.0013999641771679247
1.23848e-05	0.0014134884361427726
1.23850e-05	0.0014270126951177122
1.23853e-05	0.0014421790688076235
1.23855e-05	0.0014576930868215917
1.23858e-05	0.0014732071048356651
1.23860e-05	0.0014887211228497383
1.23863e-05	0.0015042351408637066
1.23865e-05	0.001518713790461333
1.23868e-05	0.001532973247118206
1.23870e-05	0.0015472327037749827
1.23873e-05	0.001561492160431856
1.23875e-05	0.001575751617088729
1.23878e-05	0.00158782642326465
1.23880e-05	0.001599438727440554
1.23883e-05	0.001611051031616458
1.23885e-05	0.0016226633357922832
1.23888e-05	0.0016342756399681873
1.23890e-05	0.0016458879441440912
1.23893e-05	0.0016575002483199164
1.23895e-05	0.0016666679643355703
1.23898e-05	0.0016707650075617328
1.23900e-05	0.0016748620507878677
1.23903e-05	0.0016789590940140303
1.23905e-05	0.0016830561372401928
1.23908e-05	0.0016871531804663554
1.23910e-05	0.0016912502236924904
1.23913e-05	0.0016953472669186528
1.23915e-05	0.0016887067825695386
1.23918e-05	0.0016797931071429832
1.23920e-05	0.0016708794317163674
1.23923e-05	0.0016619657562897518
1.23925e-05	0.0016530520808631965
1.23928e-05	0.0016441384054365809
1.23930e-05	0.001635224730009965
1.23933e-05	0.00162631105458341
1.23935e-05	0.001617397379156794
1.23938e-05	0.001598180085634059
1.23940e-05	0.0015767814619532848
1.23943e-05	0.001555382838272366
1.23945e-05	0.001533984214591447
1.23948e-05	0.0015125855909106731
1.23950e-05	0.001491186967229754
1.23953e-05	0.001469788343548835
1.23955e-05	0.0014483897198680612
1.23958e-05	0.0014269910961871423
1.23960e-05	0.0014011857351496541
1.23963e-05	0.0013744474446300713
1.23965e-05	0.0013477091541103073
1.23968e-05	0.0013209708635905433
