Time(s)	Current(A)
1.10000e-05	0.0023858479175121444
1.10003e-05	0.0023799049282679507
1.10005e-05	0.0023739619390237172
1.10008e-05	0.0023680189497794833
1.10010e-05	0.00236207596053529
1.10013e-05	0.002365275473925362
1.10015e-05	0.0023735879935650986
1.10018e-05	0.002381900513204779
1.10020e-05	0.0023902130328445157
1.10023e-05	0.0023985255524842522
1.10025e-05	0.002406838072123933
1.10028e-05	0.0024151505917636693
1.10030e-05	0.0024234631114034063
1.10033e-05	0.0024317756310430864
1.10035e-05	0.0024400881506828234
1.10038e-05	0.00244840067032256
1.10040e-05	0.0024567131899622405
1.10043e-05	0.002465025709601977
1.10045e-05	0.002473338229241714
1.10047e-05	0.002481650748881394
1.10050e-05	0.002489963268521131
1.10053e-05	0.0024982757881608676
1.10055e-05	0.002506588307800548
1.10058e-05	0.0025174700541385382
1.10060e-05	0.0025297886578329845
1.10062e-05	0.0025421072615273476
1.10065e-05	0.0025544258652217943
1.10068e-05	0.0025667444689162406
1.10070e-05	0.0025790630726106874
1.10073e-05	0.0025913816763050504
1.10075e-05	0.002603700279999497
1.10078e-05	0.0026160188836939434
1.10080e-05	0.0026283374873883065
1.10083e-05	0.0026406560910827532
1.10085e-05	0.0026480776128892623
1.10088e-05	0.0026527604086265108
1.10090e-05	0.0026574432043637913
1.10093e-05	0.0026621260001010714
1.10095e-05	0.00266680879583832
1.10098e-05	0.0026714915915756004
1.10100e-05	0.0026761743873128805
1.10103e-05	0.002680857183050129
1.10105e-05	0.0026855399787874094
1.10108e-05	0.0026902227745246895
1.10110e-05	0.002694905570261938
1.10113e-05	0.0026922513899480236
1.10115e-05	0.0026854939563003247
1.10118e-05	0.0026787365226526717
1.10120e-05	0.0026719790890049728
1.10123e-05	0.0026652216553572743
1.10125e-05	0.0026584642217096213
1.10128e-05	0.0026517067880619223
1.10130e-05	0.002644949354414224
1.10132e-05	0.002638191920766571
1.10135e-05	0.002631434487118872
1.10138e-05	0.002624677053471173
1.10140e-05	0.0026169721062618903
1.10143e-05	0.0026035104660762465
1.10145e-05	0.002590048825890602
1.10147e-05	0.00257658718570505
1.10150e-05	0.0025631255455194056
1.10153e-05	0.0025496639053337617
1.10155e-05	0.002536202265148118
1.10158e-05	0.002522740624962565
1.10160e-05	0.0025092789847769212
1.10163e-05	0.002495817344591277
1.10165e-05	0.002482355704405724
1.10168e-05	0.0024688940642200803
1.10170e-05	0.0024570770396700344
1.10173e-05	0.0024461797775049286
1.10175e-05	0.002435282515339749
1.10178e-05	0.0024243852531745692
1.10180e-05	0.0024134879910094635
1.10183e-05	0.002402590728844284
1.10185e-05	0.0023916934666791045
1.10188e-05	0.0023807962045139987
1.10190e-05	0.002369898942348819
1.10193e-05	0.0023590016801836393
1.10195e-05	0.0023481044180185336
1.10198e-05	0.002337207155853354
1.10200e-05	0.002326309893688174
1.10203e-05	0.0023173931752145777
1.10205e-05	0.0023095840891565753
1.10208e-05	0.0023017750030985733
1.10210e-05	0.002293965917040624
1.10213e-05	0.002286156830982622
1.10215e-05	0.0022783477449246194
1.10217e-05	0.00227053865886667
1.10220e-05	0.002262729572808668
1.10223e-05	0.0022549204867506655
1.10225e-05	0.0022471114006927164
1.10228e-05	0.002239302314634714
1.10230e-05	0.0022314932285767116
1.10232e-05	0.0022236841425187625
1.10235e-05	0.0022168739334397494
1.10238e-05	0.0022106223530474287
1.10240e-05	0.0022043707726551076
1.10243e-05	0.002198119192262829
1.10245e-05	0.002191867611870508
1.10248e-05	0.0021856160314781873
1.10250e-05	0.0021793644510859087
1.10253e-05	0.0021731128706935876
1.10255e-05	0.0021668612903012665
1.10258e-05	0.002160609709908988
1.10260e-05	0.0021543581295166672
1.10263e-05	0.002148106549124346
1.10265e-05	0.0021418549687320675
1.10268e-05	0.0021356033883397465
1.10270e-05	0.002129351807947426
1.10273e-05	0.002123100227555147
1.10275e-05	0.002116848647162826
1.10278e-05	0.002110597066770505
1.10280e-05	0.0021043454863782264
1.10283e-05	0.0020980939059859057
1.10285e-05	0.0020918423255935847
1.10288e-05	0.002085590745201306
1.10290e-05	0.0020793391648089854
1.10293e-05	0.0020730875844166643
1.10295e-05	0.0020668360040243857
1.10298e-05	0.0020605844236320646
1.10300e-05	0.0020543328432397435
1.10302e-05	0.002051197609257625
1.10305e-05	0.0020498052130217175
1.10308e-05	0.0020484128167858103
1.10310e-05	0.002047020420549912
1.10313e-05	0.0020456280243140047
1.10315e-05	0.002044235628078097
1.10317e-05	0.002042843231842199
1.10320e-05	0.0020414508356062914
1.10323e-05	0.002040058439370384
1.10325e-05	0.002038666043134476
1.10328e-05	0.002037273646898578
1.10330e-05	0.0020358812506626705
1.10333e-05	0.0020344888544267634
1.10335e-05	0.0020330964581908653
1.10338e-05	0.0020317040619549577
1.10340e-05	0.00203031166571905
1.10343e-05	0.002028919269483152
1.10345e-05	0.0020275268732472445
1.10348e-05	0.002026134477011337
1.10350e-05	0.002024742080775439
1.10353e-05	0.002023349684539531
1.10355e-05	0.002021957288303624
1.10358e-05	0.002020564892067726
1.10360e-05	0.0020191724958318184
1.10363e-05	0.0020177800995959108
1.10365e-05	0.0020163877033600127
1.10368e-05	0.002014995307124105
1.10370e-05	0.002014478560146337
1.10373e-05	0.002014451525921602
1.10375e-05	0.0020144244916968663
1.10378e-05	0.0020143974574721307
1.10380e-05	0.0020143704232473956
1.10383e-05	0.00201434338902266
1.10385e-05	0.002014316354797925
1.10387e-05	0.0020142893205731894
1.10390e-05	0.0020142622863484542
1.10393e-05	0.0020173173983667725
1.10395e-05	0.0020220962214576713
1.10398e-05	0.0020268750445486027
1.10400e-05	0.002031653867639534
1.10402e-05	0.002036432690730433
1.10405e-05	0.002041211513821364
1.10408e-05	0.0020459903369122955
1.10410e-05	0.002050769160003227
1.10413e-05	0.002055547983094126
1.10415e-05	0.0020667162281742756
1.10418e-05	0.0020814578005926587
1.10420e-05	0.002096199373010942
1.10423e-05	0.002110940945429325
1.10425e-05	0.0021256825178477086
1.10428e-05	0.002140424090265992
1.10430e-05	0.002155165662684375
1.10433e-05	0.002169907235102758
1.10435e-05	0.0021846488075210413
1.10438e-05	0.0021993903799394244
1.10440e-05	0.002215019912991516
1.10443e-05	0.002236044320544195
1.10445e-05	0.0022570687280970164
1.10448e-05	0.0022780931356498374
1.10450e-05	0.002299117543202516
1.10453e-05	0.0023201419507553377
1.10455e-05	0.0023411663583081587
1.10458e-05	0.0023621907658608375
1.10460e-05	0.002383215173413659
1.10463e-05	0.0024042395809664805
1.10465e-05	0.0024252639885191593
1.10468e-05	0.0024437124026043004
1.10470e-05	0.0024607201749696425
1.10472e-05	0.0024777279473348693
1.10475e-05	0.0024947357197002114
1.10478e-05	0.002511743492065553
1.10480e-05	0.00252875126443078
1.10483e-05	0.002545759036796122
1.10485e-05	0.002562766809161464
1.10487e-05	0.002579774581526691
1.10490e-05	0.002596782353892033
1.10493e-05	0.0026137901262573747
1.10495e-05	0.0026299137138264175
1.10498e-05	0.002640665367288993
1.10500e-05	0.0026514170207516414
1.10503e-05	0.0026621686742142898
1.10505e-05	0.0026729203276768653
1.10508e-05	0.0026836719811395137
1.10510e-05	0.002694423634602162
1.10513e-05	0.0027051752880647376
1.10515e-05	0.002715926941527386
1.10518e-05	0.0027266785949900344
1.10520e-05	0.00273743024845261
1.10523e-05	0.0027481819019152583
1.10525e-05	0.002757489076914569
1.10528e-05	0.0027659884175911913
1.10530e-05	0.002774487758267871
1.10533e-05	0.002782987098944551
1.10535e-05	0.0027914864396211734
1.10538e-05	0.0027999857802978533
1.10540e-05	0.002808485120974533
1.10543e-05	0.002816984461651155
1.10545e-05	0.002825483802327835
1.10548e-05	0.002833983143004515
1.10550e-05	0.002842482483681137
1.10553e-05	0.002850981824357817
1.10555e-05	0.002859481165034497
1.10557e-05	0.0028679805057111193
1.10560e-05	0.0028764798463877988
1.10563e-05	0.0028849791870644787
1.10565e-05	0.002893478527741101
1.10568e-05	0.002901977868417781
1.10570e-05	0.002910477209094461
1.10572e-05	0.002918976549771083
1.10575e-05	0.0029270651676712865
1.10578e-05	0.002932658407114618
1.10580e-05	0.0029382516465579493
1.10583e-05	0.0029438448860012426
1.10585e-05	0.0029494381254445735
1.10588e-05	0.002955031364887905
1.10590e-05	0.002960624604331198
1.10593e-05	0.0029662178437745296
1.10595e-05	0.002971811083217861
1.10598e-05	0.002977404322661154
1.10600e-05	0.002982997562104485
1.10603e-05	0.0029885908015478166
1.10605e-05	0.00299418404099111
1.10608e-05	0.002999777280434441
1.10610e-05	0.003005370519877772
1.10613e-05	0.003010963759321066
1.10615e-05	0.003016556998764397
1.10618e-05	0.003022150238207728
1.10620e-05	0.0030277434776510214
1.10623e-05	0.003033336717094353
1.10625e-05	0.003038929956537684
1.10628e-05	0.0030454516405121154
1.10630e-05	0.0030524925633525547
1.10633e-05	0.0030595334861929944
1.10635e-05	0.003066574409033386
1.10638e-05	0.0030736153318738258
1.10640e-05	0.003080656254714265
1.10642e-05	0.0030876971775546567
1.10645e-05	0.0030947381003950964
1.10648e-05	0.0031017790232355357
1.10650e-05	0.0031088199460759277
1.10653e-05	0.003115860868916367
1.10655e-05	0.0031229017917568064
1.10657e-05	0.0031299427145971984
1.10660e-05	0.0031369836374376377
1.10663e-05	0.0031440245602780774
1.10665e-05	0.0031495093434524882
1.10668e-05	0.0031541238450231187
1.10670e-05	0.003158738346593781
1.10673e-05	0.0031633528481644427
1.10675e-05	0.003167967349735073
1.10678e-05	0.003172581851305735
1.10680e-05	0.003177196352876397
1.10683e-05	0.0031818108544470276
1.10685e-05	0.0031864253560176894
1.10688e-05	0.003191039857588351
1.10690e-05	0.003195654359158982
1.10693e-05	0.003200268860729644
1.10695e-05	0.0032048833623003056
1.10698e-05	0.003209497863870936
1.10700e-05	0.003214112365441598
1.10703e-05	0.0032124518631024496
1.10705e-05	0.003207282022503934
1.10708e-05	0.0032021121819053836
1.10710e-05	0.0031969423413068334
1.10713e-05	0.0031917725007083175
1.10715e-05	0.0031866026601097674
1.10718e-05	0.003181432819511217
1.10720e-05	0.0031762629789127013
1.10723e-05	0.0031710931383141508
1.10725e-05	0.0031659232977156
1.10727e-05	0.0031607534571170847
1.10730e-05	0.003155583616518534
1.10733e-05	0.003150413775919984
1.10735e-05	0.003144233397051083
1.10738e-05	0.0031319134136194907
1.10740e-05	0.003119593430187898
1.10742e-05	0.0031072734467563886
1.10745e-05	0.0030949534633247957
1.10748e-05	0.0030826334798932033
1.10750e-05	0.003070313496461694
1.10753e-05	0.003057993513030101
1.10755e-05	0.0030456735295985088
1.10758e-05	0.003033353546166916
1.10760e-05	0.0030210335627354067
1.10763e-05	0.0030087135793038142
1.10765e-05	0.0029963935958722213
1.10768e-05	0.002984073612440712
1.10770e-05	0.0029726148383193186
1.10773e-05	0.0029616377013133273
1.10775e-05	0.00295066056430741
1.10778e-05	0.002939683427301419
1.10780e-05	0.002928706290295427
1.10783e-05	0.0029177291532895104
1.10785e-05	0.002906752016283519
1.10788e-05	0.0028957748792775274
1.10790e-05	0.0028847977422716106
1.10793e-05	0.002872708026941659
1.10795e-05	0.0028599960946798742
1.10798e-05	0.0028472841624181755
1.10800e-05	0.0028345722301563905
1.10803e-05	0.0028218602978946055
1.10805e-05	0.002809148365632907
1.10808e-05	0.002796436433371122
1.10810e-05	0.002783724501109337
1.10812e-05	0.0027710125688476385
1.10815e-05	0.0027523802957067534
1.10818e-05	0.002730437031997208
1.10820e-05	0.0027084937682878116
1.10823e-05	0.0026865505045782665
1.10825e-05	0.0026646072408687215
1.10827e-05	0.0026426639771593248
1.10830e-05	0.0026207207134497797
1.10833e-05	0.0025987774497402347
1.10835e-05	0.0025768341860308384
1.10838e-05	0.002554890922321293
1.10840e-05	0.002529018411182158
1.10843e-05	0.0025009484419155044
1.10845e-05	0.002472878472649042
1.10848e-05	0.002444808503382389
1.10850e-05	0.0024167385341157355
1.10853e-05	0.002388668564849273
1.10855e-05	0.00236059859558262
1.10858e-05	0.0023325286263159665
1.10860e-05	0.002304458657049504
1.10863e-05	0.0022763886877828505
1.10865e-05	0.002251186379274118
1.10868e-05	0.00222758782938674
1.10870e-05	0.002203989279499202
1.10873e-05	0.002180390729611664
1.10875e-05	0.002156792179724286
1.10878e-05	0.002133193629836748
1.10880e-05	0.00210959507994921
1.10883e-05	0.0020859965300618322
1.10885e-05	0.0020623979801742943
1.10888e-05	0.0020387994302867563
1.10890e-05	0.002015200880399378
1.10893e-05	0.0019973918598247377
1.10895e-05	0.001982820672569003
1.10897e-05	0.001968249485313367
1.10900e-05	0.0019536782980576323
1.10903e-05	0.0019391071108018974
1.10905e-05	0.0019245359235462614
1.10908e-05	0.0019099647362905267
1.10910e-05	0.001895393549034792
1.10912e-05	0.001880822361779156
1.10915e-05	0.001866251174523421
1.10918e-05	0.0018516799872676864
1.10920e-05	0.0018393035274905305
1.10923e-05	0.001828154483859308
1.10925e-05	0.0018170054402280853
1.10928e-05	0.0018058563965968628
1.10930e-05	0.0017947073529657159
1.10933e-05	0.0017835583093344933
1.10935e-05	0.0017724092657032708
1.10938e-05	0.0017612602220721239
1.10940e-05	0.0017501111784409013
1.10943e-05	0.0017389621348096788
1.10945e-05	0.0017278130911785319
1.10948e-05	0.0017166640475473093
1.10950e-05	0.001705515003916087
1.10953e-05	0.0016947700500613801
1.10955e-05	0.0016864801753575843
1.10958e-05	0.0016781903006537885
1.10960e-05	0.0016699004259500489
1.10963e-05	0.001661610551246253
1.10965e-05	0.0016533206765424573
1.10968e-05	0.0016450308018387176
1.10970e-05	0.0016367409271349218
1.10973e-05	0.001628451052431126
1.10975e-05	0.0016201611777273864
1.10978e-05	0.0016118713030235906
1.10980e-05	0.0016035814283197948
1.10983e-05	0.0015952915536160551
1.10985e-05	0.0015870016789122593
1.10988e-05	0.0015839163982971814
1.10990e-05	0.0015837418220324994
1.10993e-05	0.0015835672457678162
1.10995e-05	0.0015833926695031331
1.10997e-05	0.001583218093238451
1.11000e-05	0.001583043516973768
1.11003e-05	0.0015828689407090847
1.11005e-05	0.0015826943644444028
1.11008e-05	0.0015831757199256738
1.11010e-05	0.001596752692272583
1.11013e-05	0.0016103296646194922
1.11015e-05	0.0016239066369663094
1.11018e-05	0.0016374836093132187
1.11020e-05	0.001651060581660128
1.11023e-05	0.0016646375540069452
1.11025e-05	0.0016782145263538545
1.11028e-05	0.0016917914987007636
1.11030e-05	0.0016991687889211379
1.11033e-05	0.0017213686111446714
1.11035e-05	-0.10894675371556062
1.11038e-05	-0.05569579190668089
1.11040e-05	-0.0014183778305280267
1.11043e-05	0.023846447680035986
1.11045e-05	0.0364689330517494
1.11048e-05	0.027410528948160918
1.11050e-05	0.007431753793706081
1.11053e-05	-0.013970936233260324
1.11055e-05	-0.025760395440643163
1.11058e-05	-0.016946140797221402
1.11060e-05	0.0008032869740449691
1.11063e-05	0.01657597274743698
1.11065e-05	0.024448786360899272
1.11068e-05	0.018745869390909237
1.11070e-05	0.006205306421760927
1.11073e-05	-0.007224802307008062
1.11075e-05	-0.014631370648733672
1.11078e-05	-0.009131067386452463
1.11080e-05	0.0019659026727287202
1.11082e-05	0.011823939596856051
1.11085e-05	0.016732902382273585
1.11088e-05	0.013137910400169563
1.11090e-05	0.0052602963903818035
1.11093e-05	-0.0031735884650872306
1.11095e-05	-0.007833284501870184
1.11098e-05	-0.004407555107339502
1.11100e-05	0.0025239383791434452
1.11103e-05	0.008679232987652394
1.11105e-05	0.011734453592734718
1.11108e-05	0.009463191535054498
1.11110e-05	0.004510031501633403
1.11113e-05	-0.0007907207842138657
1.11115e-05	-0.0037265756659173427
1.11118e-05	-0.0015973285243420508
1.11120e-05	0.002727988450564983
1.11123e-05	0.006567077225553849
1.11125e-05	0.00846437447685529
1.11128e-05	0.0070255030141987244
1.11130e-05	0.003907258662552906
1.11133e-05	0.0005719376438910427
1.11135e-05	-0.0012814111315951552
1.11138e-05	3.841199965093074e-05
1.11140e-05	0.002734050904305695
1.11143e-05	0.005125279674937281
1.11145e-05	0.0063004173604320115
1.11148e-05	0.0053861920295065315
1.11150e-05	0.0034205773359713685
1.11153e-05	0.0013196244828430187
1.11155e-05	0.0001475961721234224
1.11158e-05	0.0009637427734039044
1.11160e-05	0.00264209189634667
1.11163e-05	0.004130141767666496
1.11165e-05	0.004856881205325392
1.11167e-05	0.0042754107744581915
1.11170e-05	0.0030360281581383363
1.11173e-05	0.0017126041177412683
1.11175e-05	0.0009717925831009286
1.11178e-05	0.001477047934374556
1.11180e-05	0.0025230063375626067
1.11183e-05	0.003450388810515385
1.11185e-05	0.0039015685120642215
1.11188e-05	0.003534014156121412
1.11190e-05	0.0027549271622826117
1.11193e-05	0.0019233615062107458
1.11195e-05	0.0014565048244187314
1.11198e-05	0.0017697748694639158
1.11200e-05	0.0024213004263255976
1.11203e-05	0.002998121645542608
1.11205e-05	0.003276262482338111
1.11208e-05	0.0030412233118598786
1.11210e-05	0.0025481342841087553
1.11213e-05	0.002021944430284332
1.11215e-05	0.0017239957899476048
1.11218e-05	0.0019144979905023707
1.11220e-05	0.0023166571656698665
1.11223e-05	0.0026718140550205773
1.11225e-05	0.002839707152065161
1.11228e-05	0.0026860235628333212
1.11230e-05	0.002370624976824953
1.11233e-05	0.0020344541897905806
1.11235e-05	0.0018412363690685127
1.11238e-05	0.0019539730391312936
1.11240e-05	0.002199287882897547
1.11243e-05	0.0024151795364672963
1.11245e-05	0.002513822310221094
1.11248e-05	0.0024111246891796397
1.11250e-05	0.0022072651574165914
1.11252e-05	0.001990563027802801
1.11255e-05	0.0018635998614949074
1.11258e-05	0.0019284943790520359
1.11260e-05	0.0020766591812677072
1.11263e-05	0.0022066419032600497
1.11265e-05	0.002263460913869724
1.11268e-05	0.00219447872803627
1.11270e-05	0.0020624838042855157
1.11273e-05	0.001922830781187929
1.11275e-05	0.0018398026443008822
1.11278e-05	0.0018773867125043229
1.11280e-05	0.0019675846324240897
1.11283e-05	0.002046873386652686
1.11285e-05	0.002080843631250612
1.11288e-05	0.002036562888746675
1.11290e-05	0.0019534221338447836
1.11293e-05	0.0018661678534028958
1.11295e-05	0.0018151035110447965
1.11298e-05	0.001840289630872454
1.11300e-05	0.0018990885906238367
1.11303e-05	0.0019516691801883075
1.11305e-05	0.0019764398785817173
1.11308e-05	0.0019527362727014086
1.11310e-05	0.0019051968494867527
1.11313e-05	0.0018555487803915093
1.11315e-05	0.001828998235656818
1.11318e-05	0.001850596786457804
1.11320e-05	0.0018935940957747718
1.11323e-05	0.0019330000354220534
1.11325e-05	0.001955251571882707
1.11328e-05	0.0019473679378016046
1.11330e-05	0.0019249355891343455
1.11333e-05	0.0019012365146163297
1.11335e-05	0.0018917498258417171
1.11337e-05	0.0019127769109023411
1.11340e-05	0.0019465942452715711
1.11343e-05	0.0019784945463816785
1.11345e-05	0.0020008639204015925
1.11348e-05	0.0020033206627038014
1.11350e-05	0.001996506995417917
1.11353e-05	0.0019887602542422392
1.11355e-05	0.001989789819147339
1.11358e-05	0.0020096408937054213
1.11360e-05	0.002037156715249102
1.11363e-05	0.0020631904408385275
1.11365e-05	0.0020830323367525545
1.11368e-05	0.0020899058125246144
1.11370e-05	0.002090440830088947
1.11373e-05	0.0020899735389871324
1.11375e-05	0.002094688842817592
1.11378e-05	0.0021104981081372836
1.11380e-05	0.002130388695182712
1.11383e-05	0.002148792676995073
1.11385e-05	0.002161568060584166
1.11388e-05	0.002166042832724565
1.11390e-05	0.002168459808434702
1.11393e-05	0.0021678421087370906
1.11395e-05	0.0021713373205174886
1.11398e-05	0.0021808979288225577
1.11400e-05	0.0021907337786901417
1.11403e-05	0.002200975533043223
1.11405e-05	0.002207538995093868
1.11408e-05	0.002208678002602619
1.11410e-05	0.002208397429760311
1.11413e-05	0.0022060233721022866
1.11415e-05	0.0022061163274790722
1.11418e-05	0.002209847438543638
1.11420e-05	0.0022136628014691843
1.11422e-05	0.002217602412375116
1.11425e-05	0.0022191714459330117
1.11428e-05	0.0022172445395261258
1.11430e-05	0.002214383618211512
1.11433e-05	0.0022101452855897443
1.11435e-05	0.0022074288492306684
1.11438e-05	0.0022069567851006585
1.11440e-05	0.0022065353849875574
1.11443e-05	0.0022061887001591555
1.11445e-05	0.002204376475142552
1.11448e-05	0.0022004029873779686
1.11450e-05	0.002195885508256346
1.11453e-05	0.0021905657937101243
1.11455e-05	0.0021862619468009784
1.11458e-05	0.0021834562211296275
1.11460e-05	0.002180765983073415
1.11463e-05	0.002178246057017166
1.11465e-05	0.0021749134368512883
1.11468e-05	0.0021703823196951404
1.11470e-05	0.0021656373975651793
1.11473e-05	0.002160577172771328
1.11475e-05	0.002156301558133415
1.11478e-05	0.002153183024492336
1.11480e-05	0.0021503065209041313
1.11483e-05	0.002147786944093831
1.11485e-05	0.0021449429670416164
