Time(s)	Current(A)
5.05000e-06	-0.0006652340150112313
5.05025e-06	-0.0006157083200913079
5.05050e-06	-0.0005709283526202429
5.05075e-06	-0.0005300501868065187
5.05100e-06	-0.0004930730953428484
5.05125e-06	-0.00045983800459460195
5.05150e-06	-0.0004303243790633456
5.05175e-06	-0.00040464318804097596
5.05200e-06	-0.00038291740822105937
5.05225e-06	-0.00036526996613647544
5.05250e-06	-0.00035181428799146736
5.05275e-06	-0.00034258932935879465
5.05300e-06	-0.00033745795761454207
5.05325e-06	-0.0003361838835298556
5.05350e-06	-0.00033861758044208555
5.05375e-06	-0.0003446919263894922
5.05400e-06	-0.0003543473247741733
5.05425e-06	-0.0003675241678675208
5.05450e-06	-0.0003841568411801317
5.05475e-06	-0.0004041331148963393
5.05500e-06	-0.000427230451732148
5.05525e-06	-0.0004531642438839724
5.05550e-06	-0.0004820224473720029
5.05575e-06	-0.0005135044682307848
5.05600e-06	-0.0005461631499825831
5.05625e-06	-0.0005819008784497942
5.05650e-06	-0.0006187845178462156
5.05675e-06	-0.0006586667384845105
5.05700e-06	-0.0006985489591228056
5.05725e-06	-0.0007391908787596374
5.05750e-06	-0.0007818207532262453
5.05775e-06	-0.0008244506276928533
5.05800e-06	-0.0008672063023440008
5.05825e-06	-0.0009102911666934156
5.05850e-06	-0.0009533760310428306
5.05875e-06	-0.0009959089678712283
5.05900e-06	-0.001036997639294723
5.05925e-06	-0.001078086310718357
5.05950e-06	-0.0011181423852593996
5.05975e-06	-0.0011554963949510254
5.06000e-06	-0.0011916474061800454
5.06025e-06	-0.0012246504514260505
5.06050e-06	-0.0012560497615878028
5.06075e-06	-0.0012832524716315339
5.06100e-06	-0.001308170773712555
5.06125e-06	-0.0013271113137431536
5.06150e-06	-0.001343529208694363
5.06175e-06	-0.0013533459307074193
5.06200e-06	-0.0013606631023017407
5.06225e-06	-0.001361439534290668
5.06250e-06	-0.0013596928383849017
5.06275e-06	-0.0013513437061264566
5.06300e-06	-0.0013402726065773122
5.06325e-06	-0.0013220787544209116
5.06350e-06	-0.001301241279787949
5.06375e-06	-0.0012734860626269194
5.06400e-06	-0.0012433291777832977
5.06425e-06	-0.0012068876895916887
5.06450e-06	-0.0011682573425668488
5.06475e-06	-0.0011238992632451664
5.06500e-06	-0.0010774552612920192
5.06525e-06	-0.0010255528870393423
5.06550e-06	-0.0009718411467057444
5.06575e-06	-0.000913394717967012
5.06600e-06	-0.0008538279970105347
5.06625e-06	-0.0007907096856135312
5.06650e-06	-0.0007254390458264208
5.06675e-06	-0.0006583224594548338
5.06700e-06	-0.0005896071791501835
5.06725e-06	-0.0005195516024039727
5.06750e-06	-0.000448512281641254
5.06775e-06	-0.0003769057397041117
5.06800e-06	-0.00030515294740674913
5.06825e-06	-0.0002336748213784395
5.06850e-06	-0.0001628892169976734
5.06875e-06	-9.319350248634852e-05
5.06900e-06	-2.4947930707272732e-05
5.06925e-06	4.148022882721171e-05
5.06950e-06	0.00010566229328159043
5.06975e-06	0.00016713206648951432
5.07000e-06	0.00022542057029089553
5.07025e-06	0.0002800588747824938
5.07050e-06	0.00033056066905151355
5.07075e-06	0.000376327047872745
5.07100e-06	0.00041657676806603546
5.07125e-06	0.0004506334558905165
5.07150e-06	0.00047823120386311104
5.07175e-06	0.000499339702512635
5.07200e-06	0.0005139456736502428
5.07225e-06	0.0005220359772336894
5.07250e-06	0.0005235864364603693
5.07275e-06	0.0005185025170771371
5.07300e-06	0.0005065754261805074
5.07325e-06	0.00048766212046853357
5.07350e-06	0.0004618766969797093
5.07375e-06	0.0004294807282215384
5.07400e-06	0.00039074655979243363
5.07425e-06	0.0003459465242807327
5.07450e-06	0.00029534613545006717
5.07475e-06	0.00023916673549564824
5.07500e-06	0.00017755812754251973
5.07525e-06	0.00011071125693255877
5.07550e-06	3.897816293665801e-05
5.07575e-06	-3.719672997985983e-05
5.07600e-06	-0.00011736232881529611
5.07625e-06	-0.00020106754823046065
5.07650e-06	-0.0002878656120950883
5.07675e-06	-0.00037761837161329534
5.07700e-06	-0.0004698439283411066
5.07725e-06	-0.000563003099469368
5.07750e-06	-0.0006586053214115643
5.07775e-06	-0.0007542075433540845
5.07800e-06	-0.000849849522446254
5.07825e-06	-0.0009455955367134602
5.07850e-06	-0.001040657755897433
5.07875e-06	-0.0011339306430677477
5.07900e-06	-0.0012259369932937313
5.07925e-06	-0.0013146291121734395
5.07950e-06	-0.0014013949432222334
5.07975e-06	-0.0014831201289592472
5.08000e-06	-0.0015622199748217907
5.08025e-06	-0.0016344499194569733
5.08050e-06	-0.0017036569902701636
5.08075e-06	-0.0017649539063712915
5.08100e-06	-0.001824283527536859
5.08125e-06	-0.0018784651973757691
5.08150e-06	-0.0019305410633252988
5.08175e-06	-0.001977106532369249
5.08200e-06	-0.002023672001413357
5.08225e-06	-0.0020670668659109317
5.08250e-06	-0.0021021649988987486
5.08275e-06	-0.0021372631318866847
5.08300e-06	-0.0021700121650379133
5.08325e-06	-0.0021966141526183714
5.08350e-06	-0.00222321614019892
5.08375e-06	-0.0022460801711857116
5.08400e-06	-0.002259162842877104
5.08425e-06	-0.0022722455145685405
5.08450e-06	-0.0022853281862599325
5.08475e-06	-0.002298410857951325
5.08500e-06	-0.0023114935296427615
5.08525e-06	-0.002324576201334154
5.08550e-06	-0.0023376588730255905
5.08575e-06	-0.0023507415447169824
5.08600e-06	-0.0023532757606940916
5.08625e-06	-0.00235277364086717
5.08650e-06	-0.0023522715210402504
5.08675e-06	-0.0023517694012133304
5.08700e-06	-0.0023512672813864087
5.08725e-06	-0.002350765161559489
5.08750e-06	-0.0023502630417325692
5.08775e-06	-0.002349760921905648
5.08800e-06	-0.002347863133840373
5.08825e-06	-0.002342313207995257
5.08850e-06	-0.002336763282150122
5.08875e-06	-0.0023312133563050054
5.08900e-06	-0.002325663430459889
5.08925e-06	-0.0023201135046147536
5.08950e-06	-0.002314563578769637
5.08975e-06	-0.002309013652924502
5.09000e-06	-0.002304033336366646
5.09025e-06	-0.00230054355426424
5.09050e-06	-0.002297053772161822
5.09075e-06	-0.002293563990059416
5.09100e-06	-0.00229007420795701
5.09125e-06	-0.002286584425854592
5.09150e-06	-0.002283094643752186
5.09175e-06	-0.00227960486164978
5.09200e-06	-0.002277867959176069
5.09225e-06	-0.0022807179332529253
5.09250e-06	-0.0022835679073297814
5.09275e-06	-0.0022864178814066475
5.09300e-06	-0.0022892678554835037
5.09325e-06	-0.00229211782956036
5.09350e-06	-0.002294967803637226
5.09375e-06	-0.002297817777714082
5.09400e-06	-0.0023006677517909482
5.09425e-06	-0.0023035177258678044
5.09450e-06	-0.0023063676999446605
5.09475e-06	-0.0023108845569465813
5.09500e-06	-0.0023197632572124114
5.09525e-06	-0.0023286419574782414
5.09550e-06	-0.002337520657744102
5.09575e-06	-0.0023463993580099323
5.09600e-06	-0.0023552780582757624
5.09625e-06	-0.002364156758541623
5.09650e-06	-0.002373035458807453
5.09675e-06	-0.002381914159073283
5.09700e-06	-0.0023907928593391433
5.09725e-06	-0.0023996715596049734
5.09750e-06	-0.0024088828556894167
5.09775e-06	-0.0024189644773433424
5.09800e-06	-0.002429046098997234
5.09825e-06	-0.0024391277206511595
5.09850e-06	-0.002449209342305051
5.09875e-06	-0.002459290963958942
5.09900e-06	-0.0024693725856128677
5.09925e-06	-0.002479454207266759
5.09950e-06	-0.0024895358289206506
5.09975e-06	-0.0024970511800065658
5.10000e-06	-0.002503827839153395
5.10025e-06	-0.002510604498300224
5.10050e-06	-0.002517381157447076
5.10075e-06	-0.0025241578165939053
5.10100e-06	-0.0025309344757407344
5.10125e-06	-0.0025377111348875866
5.10150e-06	-0.0025444877940344157
5.10175e-06	-0.0025496586771616703
5.10200e-06	-0.0025506276195239245
5.10225e-06	-0.0025515965618861753
5.10250e-06	-0.0025525655042484296
5.10275e-06	-0.0025535344466106804
5.10300e-06	-0.002554503388972931
5.10325e-06	-0.002555472331335185
5.10350e-06	-0.002556441273697436
5.10375e-06	-0.0025574102160596866
5.10400e-06	-0.002558379158421941
5.10425e-06	-0.0025593481007841917
5.10450e-06	-0.0025603170431464425
5.10475e-06	-0.0025612859855086963
5.10500e-06	-0.002562254927870947
5.10525e-06	-0.002563223870233198
5.10550e-06	-0.002564192812595452
5.10575e-06	-0.002565161754957703
5.10600e-06	-0.0025631358174823746
5.10625e-06	-0.0025602478144003786
5.10650e-06	-0.0025573598113183926
5.10675e-06	-0.0025544718082363966
5.10700e-06	-0.0025515838051544107
5.10725e-06	-0.0025486958020724247
5.10750e-06	-0.0025458077989904287
5.10775e-06	-0.0025429197959084423
5.10800e-06	-0.0025400317928264563
5.10825e-06	-0.0025371437897444603
5.10850e-06	-0.0025342557866624743
5.10875e-06	-0.0025313677835804883
5.10900e-06	-0.0025284797804984924
5.10925e-06	-0.0025255917774165064
5.10950e-06	-0.0025227037743345204
5.10975e-06	-0.0025198157712525244
5.11000e-06	-0.0025169663855840294
5.11025e-06	-0.0025142624716653892
5.11050e-06	-0.0025116382910621566
5.11075e-06	-0.00250841022408827
5.11100e-06	-0.0025018928913256044
5.11125e-06	-0.00249024938008244
5.11150e-06	-0.002475730639905769
5.11175e-06	-0.0024536880972096955
5.11200e-06	-0.002428526375149857
5.11225e-06	-0.0023952024892768967
5.11250e-06	-0.0023618786034038234
5.11275e-06	-0.0023251785839137726
5.11300e-06	-0.002279644011349707
5.11325e-06	-0.0022305918403126767
5.11350e-06	-0.0021723349357180765
5.11375e-06	-0.002110969892133962
5.11400e-06	-0.002041471574817552
5.11425e-06	-0.0019694051151332875
5.11450e-06	-0.0018906184267421682
5.11475e-06	-0.001810028343083037
5.11500e-06	-0.0017233639007742298
5.11525e-06	-0.0016318187578549662
5.11550e-06	-0.0015356081849536387
5.11575e-06	-0.001435322755070318
5.11600e-06	-0.0013315830981375858
5.11625e-06	-0.0012250095592184866
5.11650e-06	-0.0011162012840289744
5.11675e-06	-0.0010056059881629878
5.11700e-06	-0.0008933639659606533
5.11725e-06	-0.0007795687192604922
5.11750e-06	-0.000664660112370595
5.11775e-06	-0.0005493129588474671
5.11800e-06	-0.00043422073483670253
5.11825e-06	-0.0003200769462623215
5.11850e-06	-0.0002075615930891412
5.11875e-06	-9.725978346970076e-05
5.11900e-06	1.043587873012034e-05
5.11925e-06	0.00011516220532679495
5.11950e-06	0.00021633909032717566
5.11975e-06	0.0003132392151903149
5.12000e-06	0.0004051236528389531
5.12025e-06	0.0004912535944903023
5.12050e-06	0.0005709196700783679
5.12075e-06	0.0006436416534893482
5.12100e-06	0.000709474772086526
5.12125e-06	0.000768761766646008
5.12150e-06	0.000821559427702378
5.12175e-06	0.0008676633817013758
5.12200e-06	0.0009068457579856224
5.12225e-06	0.0009388789745272491
5.12250e-06	0.0009635537664977414
5.12275e-06	0.000980804439228752
5.12300e-06	0.0009909008303311735
5.12325e-06	0.000994292753766899
5.12350e-06	0.0009912508263949734
5.12375e-06	0.0009818821697781725
5.12400e-06	0.0009662792697220612
5.12425e-06	0.0009445345079521833
5.12450e-06	0.0009167520061204146
5.12475e-06	0.0008831257773002498
5.12500e-06	0.0008440598350845172
5.12525e-06	0.0008000710570447709
5.12550e-06	0.0007515640008796961
5.12575e-06	0.0006988407483517714
5.12600e-06	0.0006421942165043529
5.12625e-06	0.0005819173484013679
5.12650e-06	0.0005183102711266126
5.12675e-06	0.000451729398813279
5.12700e-06	0.000382662776149027
5.12725e-06	0.0003116690778053946
5.12750e-06	0.0002391380809376427
5.12775e-06	0.00016553157605355985
5.12800e-06	9.174534320834031e-05
5.12825e-06	1.7523168643380163e-05
5.12850e-06	-5.6454563414107915e-05
5.12875e-06	-0.00012972987737677727
5.12900e-06	-0.00020176239626809887
5.12925e-06	-0.00027196757652013547
5.12950e-06	-0.00033980499768251844
5.12975e-06	-0.0004047744504378996
5.13000e-06	-0.0004663794686365902
5.13025e-06	-0.0005241235960549946
5.13050e-06	-0.0005775083931681552
5.13075e-06	-0.0006260343376832799
5.13100e-06	-0.0006692477417451767
5.13125e-06	-0.000706841415773002
5.13150e-06	-0.0007386719378254199
5.13175e-06	-0.0007646616558953843
5.13200e-06	-0.0007847364134227241
5.13225e-06	-0.0007988220699414023
5.13250e-06	-0.000806843287873291
5.13275e-06	-0.0008087239814214476
5.13300e-06	-0.0008044168984936261
5.13325e-06	-0.0007939664870962407
5.13350e-06	-0.0007775198469510612
5.13375e-06	-0.0007552652696258123
5.13400e-06	-0.0007273931523795024
5.13425e-06	-0.0006940939407524296
5.13450e-06	-0.0006555573697465894
5.13475e-06	-0.0006119725938297385
5.13500e-06	-0.000563546948304636
5.13525e-06	-0.000510545148699593
5.13550e-06	-0.00045329610236617175
5.13575e-06	-0.0003921545971883143
5.13600e-06	-0.0003274767315414218
5.13625e-06	-0.0002596185616877463
5.13650e-06	-0.00018893567314380672
5.13675e-06	-0.00011578336309919719
5.13700e-06	-4.05281547263499e-05
5.13725e-06	3.642744561412104e-05
5.13750e-06	0.00011464070846506184
5.13775e-06	0.00019365277842680557
5.13800e-06	0.00027300400550248706
5.13825e-06	0.0003522347727133067
5.13850e-06	0.0004308857917642303
5.13875e-06	0.0005084980366560643
5.13900e-06	0.0005846054091579617
5.13925e-06	0.0006587193247169139
5.13950e-06	0.0007303260761511167
5.13975e-06	0.0007989018862563878
5.14000e-06	0.000863922416665024
5.14025e-06	0.0009248635594306559
5.14050e-06	0.000981173405027329
5.14075e-06	0.0010321159144977602
5.14100e-06	0.0010766331190810224
5.14125e-06	0.0011137665783738013
5.14150e-06	0.0011431506657744908
5.14175e-06	0.001164774055459961
5.14200e-06	0.0011786515965515514
5.14225e-06	0.0011847982744380993
5.14250e-06	0.0011832116733086653
5.14275e-06	0.0011737740868639451
5.14300e-06	0.0011561662221836568
5.14325e-06	0.0011301310043640835
5.14350e-06	0.0010957830165360114
5.14375e-06	0.001053458540546673
5.14400e-06	0.0010035102466877022
5.14425e-06	0.0009462909315917595
5.14450e-06	0.0008821425124554019
5.14475e-06	0.0008113345979122667
5.14500e-06	0.0007340105553579402
5.14525e-06	0.0006503528022064882
5.14550e-06	0.0005607764099642054
5.14575e-06	0.00046583532580958976
5.14600e-06	0.000366093814808189
5.14625e-06	0.00026211612995420116
5.14650e-06	0.00015445967289159874
5.14675e-06	4.363651527827575e-05
5.14700e-06	-6.992039309972701e-05
5.14725e-06	-0.00018591616351277548
5.14750e-06	-0.0003036854100844728
5.14775e-06	-0.00042171967392350037
5.14800e-06	-0.000540447426047862
5.14825e-06	-0.0006586721370307071
5.14850e-06	-0.0007755805068494096
5.14875e-06	-0.0008912674105222501
5.14900e-06	-0.0010037580226044335
5.14925e-06	-0.0011142945206042611
5.14950e-06	-0.0012197175584983313
5.14975e-06	-0.0013223381920841088
5.15000e-06	-0.0014176255881913006
5.15025e-06	-0.0015093023634264909
5.15050e-06	-0.0015915309872227452
5.15075e-06	-0.001670832672575086
5.15100e-06	-0.0017424752437039909
5.15125e-06	-0.001812890402012622
5.15150e-06	-0.001880093707674528
5.15175e-06	-0.0019452782234740576
5.15200e-06	-0.002005180037760965
5.15225e-06	-0.0020650818520480756
5.15250e-06	-0.0021221362582846083
5.15275e-06	-0.002171739662761847
5.15300e-06	-0.0022213430672392534
5.15325e-06	-0.0022696506416821547
5.15350e-06	-0.002314567331610374
5.15375e-06	-0.002359484021538441
5.15400e-06	-0.0024044007114665082
5.15425e-06	-0.0024441548459651612
5.15450e-06	-0.002482422957079171
5.15475e-06	-0.0025206910681931805
5.15500e-06	-0.00255689525973552
5.15525e-06	-0.0025876986558569775
5.15550e-06	-0.0026185020519784346
5.15575e-06	-0.002649305448099996
5.15600e-06	-0.0026801088442214532
5.15625e-06	-0.0027109122403429107
5.15650e-06	-0.0027417156364644723
5.15675e-06	-0.0027725190325859294
5.15700e-06	-0.0028033224287073864
5.15725e-06	-0.002834125824828948
5.15750e-06	-0.0028577943832599124
5.15775e-06	-0.0028794092038093443
5.15800e-06	-0.0029010240243587033
5.15825e-06	-0.002922638844908062
5.15850e-06	-0.0029442536654574938
5.15875e-06	-0.0029658684860068524
5.15900e-06	-0.0029874833065562114
5.15925e-06	-0.0030090981271056433
5.15950e-06	-0.003030712947655002
5.15975e-06	-0.0030509129942839015
5.16000e-06	-0.0030674109080319834
5.16025e-06	-0.0030834364997563667
5.16050e-06	-0.003097776859427499
5.16075e-06	-0.0031099967968830013
5.16100e-06	-0.003117124664919005
5.16125e-06	-0.00311739707677208
5.16150e-06	-0.0031138908480605604
5.16175e-06	-0.0031004967996230842
5.16200e-06	-0.0030827970695404103
5.16225e-06	-0.0030538303763327887
5.16250e-06	-0.003024863683125167
5.16275e-06	-0.002991310889199721
5.16300e-06	-0.0029457573409381976
5.16325e-06	-0.002895771774385504
5.16350e-06	-0.002834188651215456
5.16375e-06	-0.0027686300920022992
5.16400e-06	-0.002692668745264259
5.16425e-06	-0.0026141015804756096
5.16450e-06	-0.0025271460628518167
5.16475e-06	-0.002434484739266565
5.16500e-06	-0.002335931153233788
5.16525e-06	-0.002231245166160217
5.16550e-06	-0.0021207374358031043
5.16575e-06	-0.0020050872983759876
5.16600e-06	-0.0018850026234117278
5.16625e-06	-0.001761191448896862
5.16650e-06	-0.001634341341454788
5.16675e-06	-0.0015049943387245629
5.16700e-06	-0.0013734011121894736
5.16725e-06	-0.0012397787286273754
5.16750e-06	-0.001104689262992519
5.16775e-06	-0.0009689256075133674
5.16800e-06	-0.0008332985627196874
5.16825e-06	-0.0006986189092875826
5.16850e-06	-0.0005656846408070523
5.16875e-06	-0.00043520235399950754
5.16900e-06	-0.00030769633620391496
5.16925e-06	-0.0001836696407215759
5.16950e-06	-6.384143943103167e-05
5.16975e-06	5.092465758837152e-05
5.17000e-06	0.00015975372028869327
5.17025e-06	0.0002617709480462222
5.17050e-06	0.0003561777815904874
5.17075e-06	0.0004427421871444058
5.17100e-06	0.0005224639684312386
5.17125e-06	0.0005967722657651848
5.17150e-06	0.0006660797550263951
5.17175e-06	0.0007300306593304624
5.17200e-06	0.0007882049100825967
5.17225e-06	0.0008401825129889405
5.17250e-06	0.000885591244032536
5.17275e-06	0.0009244137399872115
5.17300e-06	0.0009574043741643792
5.17325e-06	0.0009855862317790264
5.17350e-06	0.001009345712532081
5.17375e-06	0.0010279312396741845
5.17400e-06	0.0010414591075241007
5.17425e-06	0.0010523003179636712
5.17450e-06	0.0010561111735236759
5.17475e-06	0.001057531868492262
5.17500e-06	0.001052698071499364
5.17525e-06	0.0010461172237715706
5.17550e-06	0.0010349647523558343
5.17575e-06	0.001022187913549474
5.17600e-06	0.0010051604847101183
5.17625e-06	0.0009865657250498839
5.17650e-06	0.0009638696267371482
5.17675e-06	0.0009397481506392456
5.17700e-06	0.0009118967938248462
5.17725e-06	0.0008840454370105412
5.17750e-06	0.0008553172180392104
5.17775e-06	0.0008242944556250373
5.17800e-06	0.0007932716932109693
5.17825e-06	0.0007618352305862407
5.17850e-06	0.0007293162111444514
5.17875e-06	0.00069684191648484
5.17900e-06	0.0006644846561327297
5.17925e-06	0.0006328446687355135
5.17950e-06	0.0006030816171163811
5.17975e-06	0.000573318565497148
5.18000e-06	0.0005446640951470765
5.18025e-06	0.0005189105230295392
5.18050e-06	0.0004940259659807165
5.18075e-06	0.0004714154183776085
5.18100e-06	0.00044823203064791575
5.18125e-06	0.0004235496541140854
5.18150e-06	0.000397808282774231
5.18175e-06	0.00036929576939280197
5.18200e-06	0.00034018505199243473
5.18225e-06	0.00030921949450208935
5.18250e-06	0.00027724421305508524
5.18275e-06	0.00024418785664454765
5.18300e-06	0.00020931127702138023
5.18325e-06	0.00017173657456142564
5.18350e-06	0.00013128198700438796
5.18375e-06	8.825034707256824e-05
5.18400e-06	4.298359676003321e-05
5.18425e-06	-4.176377556390315e-06
5.18450e-06	-5.2915723277560454e-05
5.18475e-06	-0.00010312302343169152
5.18500e-06	-0.00015510517018409262
5.18525e-06	-0.00020925592851136094
5.18550e-06	-0.0002657420545939294
5.18575e-06	-0.0003241375370772493
5.18600e-06	-0.00038316462232144006
5.18625e-06	-0.00044384446445751465
5.18650e-06	-0.0005049831319204551
5.18675e-06	-0.000567322438089179
5.18700e-06	-0.000629661744258114
5.18725e-06	-0.0006920010504268379
5.18750e-06	-0.0007543719508159279
5.18775e-06	-0.0008168255258989825
5.18800e-06	-0.0008792791009820371
5.18825e-06	-0.0009417326760653033
5.18850e-06	-0.001003069216589539
5.18875e-06	-0.0010614827385971035
5.18900e-06	-0.0011198962606048662
5.18925e-06	-0.0011767290134346488
5.18950e-06	-0.001229425262571971
5.18975e-06	-0.0012821215117094717
5.19000e-06	-0.0013328377732321707
5.19025e-06	-0.0013783728696651844
5.19050e-06	-0.0014218665751185077
5.19075e-06	-0.0014600184372182744
5.19100e-06	-0.001496084601995966
5.19125e-06	-0.0015266929840720947
5.19150e-06	-0.0015551918821301175
5.19175e-06	-0.0015781707532596485
5.19200e-06	-0.001598920707982516
5.19225e-06	-0.0016138381091137584
5.19250e-06	-0.001626441232109707
5.19275e-06	-0.0016329884298092539
5.19300e-06	-0.001636833686313921
5.19325e-06	-0.0016336085938482312
5.19350e-06	-0.0016303835013825522
5.19375e-06	-0.0016241487534962124
5.19400e-06	-0.0016100384403885946
