Time(s)	Current(A)
4.25000e-06	7.740210005093161e-05
4.25025e-06	7.95143686385239e-05
4.25050e-06	8.129625793419504e-05
4.25075e-06	8.28832568968262e-05
4.25100e-06	8.399501958229839e-05
4.25125e-06	8.492561232928323e-05
4.25150e-06	8.54144257137193e-05
4.25175e-06	8.577965926736925e-05
4.25200e-06	8.584354581320058e-05
4.25225e-06	8.576421075221557e-05
4.25250e-06	8.533563259554811e-05
4.25275e-06	8.490705443888067e-05
4.25300e-06	8.431497985113864e-05
4.25325e-06	8.332422240409211e-05
4.25350e-06	8.233346495704557e-05
4.25375e-06	8.123312139542091e-05
4.25400e-06	7.986555423013184e-05
4.25425e-06	7.849798706484276e-05
4.25450e-06	7.713041989954907e-05
4.25475e-06	7.576285273425999e-05
4.25500e-06	7.434878773583552e-05
4.25525e-06	7.28213386779272e-05
4.25550e-06	7.129388962002406e-05
4.25575e-06	6.976644056212092e-05
4.25600e-06	6.82389915042126e-05
4.25625e-06	6.67490957841029e-05
4.25650e-06	6.537336609056318e-05
4.25675e-06	6.407848104216855e-05
4.25700e-06	6.286949300151908e-05
4.25725e-06	6.165795067292353e-05
4.25750e-06	6.0075533350551315e-05
4.25775e-06	5.760839623013405e-05
4.25800e-06	5.4003007179564714e-05
4.25825e-06	4.927619937294047e-05
4.25850e-06	4.350150985583746e-05
4.25875e-06	3.675247415187768e-05
4.25900e-06	2.9098987075181582e-05
4.25925e-06	2.0552369471880105e-05
4.25950e-06	1.0948648238400706e-05
4.25975e-06	3.271059782931675e-08
4.26000e-06	-1.2287473680665212e-05
4.26025e-06	-2.593457597083289e-05
4.26050e-06	-4.079575602590021e-05
4.26075e-06	-5.675817736744627e-05
4.26100e-06	-7.371129797021401e-05
4.26125e-06	-9.158126208631796e-05
4.26150e-06	-0.00011040402259097034
4.26175e-06	-0.00013027261439779432
4.26200e-06	-0.00015129773569822613
4.26225e-06	-0.00017329688458308883
4.26250e-06	-0.00019569538497681645
4.26275e-06	-0.00021906769623829898
4.26300e-06	-0.00024274390450561783
4.26325e-06	-0.00026716115969581893
4.26350e-06	-0.00029157841488602004
4.26375e-06	-0.0003162267541923571
4.26400e-06	-0.0003414385876097727
4.26425e-06	-0.0003666504210271883
4.26450e-06	-0.0003918065349151399
4.26475e-06	-0.0004168267778166588
4.26500e-06	-0.0004416029906777854
4.26525e-06	-0.00046578414104340624
4.26550e-06	-0.0004896114897479005
4.26575e-06	-0.0005125761000005076
4.26600e-06	-0.0005350467167997218
4.26625e-06	-0.0005563127401953048
4.26650e-06	-0.0005768977038574297
4.26675e-06	-0.0005958219166391422
4.26700e-06	-0.0006141264263438214
4.26725e-06	-0.0006305829965399439
4.26750e-06	-0.0006461168721814512
4.26775e-06	-0.0006614700635457366
4.26800e-06	-0.0006769856066005785
4.26825e-06	-0.000692468573945802
4.26850e-06	-0.0007078721060584401
4.26875e-06	-0.0007232756381711305
4.26900e-06	-0.0007384607922744029
4.26925e-06	-0.0007531134358600302
4.26950e-06	-0.0007679056685899978
4.26975e-06	-0.0007830382867267119
4.27000e-06	-0.0007981709048634775
4.27025e-06	-0.0008140509744701931
4.27050e-06	-0.0008301287453217347
4.27075e-06	-0.000846275092753686
4.27100e-06	-0.0008625886628395989
4.27125e-06	-0.0008789022329255119
4.27150e-06	-0.0008954706022779868
4.27175e-06	-0.0009126602946734221
4.27200e-06	-0.0009298499870688574
4.27225e-06	-0.0009470396794643509
4.27250e-06	-0.0009642293718597862
4.27275e-06	-0.0009817390592310067
4.27300e-06	-0.0009993333854150875
4.27325e-06	-0.0010169277115991086
4.27350e-06	-0.0010345220377831893
4.27375e-06	-0.001052083304860371
4.27400e-06	-0.0010695639579501527
4.27425e-06	-0.0010870446110399935
4.27450e-06	-0.0011043098796097233
4.27475e-06	-0.0011210499372271492
4.27500e-06	-0.0011377899948446317
4.27525e-06	-0.0011541222720657714
4.27550e-06	-0.0011694601847420066
4.27575e-06	-0.0011847980974182936
4.27600e-06	-0.0011997377490507483
4.27625e-06	-0.0012137062488937794
4.27650e-06	-0.0012272220349653137
4.27675e-06	-0.001239633887332536
4.27700e-06	-0.00125144966007804
4.27725e-06	-0.0012618119042892124
4.27750e-06	-0.0012713183716879823
4.27775e-06	-0.0012787380440169862
4.27800e-06	-0.001284932349402721
4.27825e-06	-0.0012881386213913712
4.27850e-06	-0.0012913448933800323
4.27875e-06	-0.001293087555045237
4.27900e-06	-0.001291261231476416
4.27925e-06	-0.0012894349079075888
4.27950e-06	-0.0012860485503663943
4.27975e-06	-0.001278858080403539
4.28000e-06	-0.0012716676104406596
4.28025e-06	-0.0012632133632010586
4.28050e-06	-0.0012516774197152622
4.28075e-06	-0.001239453069609567
4.28100e-06	-0.0012251218687334448
4.28125e-06	-0.0012093304162382914
4.28150e-06	-0.0011921108454085838
4.28175e-06	-0.0011734864332423923
4.28200e-06	-0.0011535310161299613
4.28225e-06	-0.0011323629006670523
4.28250e-06	-0.0011101089795543904
4.28275e-06	-0.001086896247062541
4.28300e-06	-0.0010628513018626723
4.28325e-06	-0.0010380925042565436
4.28350e-06	-0.0010127160594297258
4.28375e-06	-0.0009868125085045394
4.28400e-06	-0.0009605041057415253
4.28425e-06	-0.0009339408992795034
4.28450e-06	-0.0009072783543582206
4.28475e-06	-0.0008806720431268995
4.28500e-06	-0.0008542771240326112
4.28525e-06	-0.000828243683012904
4.28550e-06	-0.0008027079609131297
4.28575e-06	-0.0007778025828822721
4.28600e-06	-0.000753679953728923
4.28625e-06	-0.0007305100383830105
4.28650e-06	-0.0007084660967001876
4.28675e-06	-0.0006877214372379565
4.28700e-06	-0.0006684472376697272
4.28725e-06	-0.0006507783973522254
4.28750e-06	-0.0006347302287851163
4.28775e-06	-0.0006204396890441674
4.28800e-06	-0.0006077431721112478
4.28825e-06	-0.0005959611647594449
4.28850e-06	-0.0005864091711881908
4.28875e-06	-0.0005778345504741298
4.28900e-06	-0.0005716432344134079
4.28925e-06	-0.0005664354700426776
4.28950e-06	-0.0005636260772886891
4.28975e-06	-0.0005617022636354988
4.29000e-06	-0.0005619379173507077
4.29025e-06	-0.0005630179466622491
4.29050e-06	-0.0005661569694000012
4.29075e-06	-0.0005703127571703343
4.29100e-06	-0.0005769479066455213
4.29125e-06	-0.0005835830561207308
4.29150e-06	-0.000591268076758453
4.29175e-06	-0.0006015131877532789
4.29200e-06	-0.0006117582987481393
4.29225e-06	-0.0006227072183028967
4.29250e-06	-0.000635372361306584
4.29275e-06	-0.0006485095417468772
4.29300e-06	-0.000662797776271306
4.29325e-06	-0.0006774584166687809
4.29350e-06	-0.0006930271615256979
4.29375e-06	-0.0007088278411462633
4.29400e-06	-0.0007251940891653029
4.29425e-06	-0.000741674146206833
4.29450e-06	-0.0007584317243301939
4.29475e-06	-0.0007751919348056848
4.29500e-06	-0.0007919585642203178
4.29525e-06	-0.0008086027850314646
4.29550e-06	-0.0008249485148500876
4.29575e-06	-0.0008410212079703217
4.29600e-06	-0.000856428106426016
4.29625e-06	-0.0008714253228719388
4.29650e-06	-0.0008854235377258663
4.29675e-06	-0.0008987185308678637
4.29700e-06	-0.0009102987315785472
4.29725e-06	-0.0009218789322891916
4.29750e-06	-0.0009324234816168919
4.29775e-06	-0.000940442615243092
4.29800e-06	-0.000948461748869265
4.29825e-06	-0.0009553655269902157
4.29850e-06	-0.0009595495324617972
4.29875e-06	-0.0009637335379333644
4.29900e-06	-0.0009667534738687215
4.29925e-06	-0.0009669348489401279
4.29950e-06	-0.0009671162240115342
4.29975e-06	-0.0009661587470845735
4.30000e-06	-0.0009624242017680264
4.30025e-06	-0.0009586896564514792
4.30050e-06	-0.0009540747459531758
4.30075e-06	-0.0009473130821269933
4.30100e-06	-0.0009398985188091787
4.30125e-06	-0.0009308918728130246
4.30150e-06	-0.0009214302785083638
4.30175e-06	-0.0009105818804947607
4.30200e-06	-0.0008988009727168375
4.30225e-06	-0.0008861611635146883
4.30250e-06	-0.0008727360930020632
4.30275e-06	-0.0008585992774546463
4.30300e-06	-0.0008438243177898142
4.30325e-06	-0.0008284859523785081
4.30350e-06	-0.0008126637969158314
4.30375e-06	-0.0007964461940801838
4.30400e-06	-0.0007799279258632628
4.30425e-06	-0.0007632053333667261
4.30450e-06	-0.0007463746846389356
4.30475e-06	-0.0007295323377096885
4.30500e-06	-0.0007127746019068686
4.30525e-06	-0.0006961984446794028
4.30550e-06	-0.0006799039298050958
4.30575e-06	-0.0006639966371184441
4.30600e-06	-0.0006485860392098965
4.30625e-06	-0.0006338985266510816
4.30650e-06	-0.0006199795324236573
4.30675e-06	-0.0006064399439251976
4.30700e-06	-0.0005941146305617276
4.30725e-06	-0.0005827156405381363
4.30750e-06	-0.0005719031922362829
4.30775e-06	-0.0005611424856773648
4.30800e-06	-0.0005501705807425814
4.30825e-06	-0.0005390243703958772
4.30850e-06	-0.0005278195609695615
4.30875e-06	-0.0005166492198019625
4.30900e-06	-0.0005055476244978125
4.30925e-06	-0.0004946347742427019
4.30950e-06	-0.0004836254459171991
4.30975e-06	-0.0004722553360573066
4.31000e-06	-0.00046063999001476894
4.31025e-06	-0.0004484266403231768
4.31050e-06	-0.00043605732306581363
4.31075e-06	-0.00042330768194103364
4.31100e-06	-0.00041055804081625364
4.31125e-06	-0.00039765918228897566
4.31150e-06	-0.00038439646003579706
4.31175e-06	-0.0003711337377825736
4.31200e-06	-0.0003576407284543816
4.31225e-06	-0.0003435861685846899
4.31250e-06	-0.00032945641316567057
4.31275e-06	-0.00031512871959201615
4.31300e-06	-0.00030077594619156
4.31325e-06	-0.00028646125269999006
4.31350e-06	-0.0002721656640203011
4.31375e-06	-0.00025782234523317354
4.31400e-06	-0.00024343124878699668
4.31425e-06	-0.00022906603595273075
4.31450e-06	-0.00021481615735323575
4.31475e-06	-0.0002007710509151416
4.31500e-06	-0.00018701909944300246
4.31525e-06	-0.00017363182467012713
4.31550e-06	-0.0001606293023399814
4.31575e-06	-0.00014800163110475435
4.31600e-06	-0.00013578072976265482
4.31625e-06	-0.00012404470734040605
4.31650e-06	-0.00011288155292123612
4.31675e-06	-0.00010237923376050836
4.31700e-06	-9.263042886426616e-05
4.31725e-06	-8.380218872913851e-05
4.31750e-06	-7.62780080114452e-05
4.31775e-06	-7.053287696789142e-05
4.31800e-06	-6.680204486303324e-05
4.31825e-06	-6.50891137933406e-05
4.31850e-06	-6.535045711696746e-05
4.31875e-06	-6.754243972789689e-05
4.31900e-06	-7.1624368334565e-05
4.31925e-06	-7.760214243090592e-05
4.31950e-06	-8.561723384201795e-05
4.31975e-06	-9.586839137742489e-05
4.32000e-06	-0.00010840418901228766
4.32025e-06	-0.00012312808102509908
4.32050e-06	-0.00013991396263442562
4.32075e-06	-0.00015863571729059448
4.32100e-06	-0.0001791690683229625
4.32125e-06	-0.00020141896538261733
4.32150e-06	-0.00022537524019025304
4.32175e-06	-0.00025106361881200434
4.32200e-06	-0.0002786161934041864
4.32225e-06	-0.00030776119122910117
4.32250e-06	-0.0003376045749126977
4.32275e-06	-0.000369150958892428
4.32300e-06	-0.0004011990260103702
4.32325e-06	-0.0004344704376771295
4.32350e-06	-0.0004681188681812551
4.32375e-06	-0.000502686651767936
4.32400e-06	-0.0005374542317236089
4.32425e-06	-0.000572709011228221
4.32450e-06	-0.0006079216477071763
4.32475e-06	-0.0006430315192400632
4.32500e-06	-0.0006778612611128287
4.32525e-06	-0.0007120079122729163
4.32550e-06	-0.0007456816203315321
4.32575e-06	-0.0007782020658609036
4.32600e-06	-0.000810023854678815
4.32625e-06	-0.0008401419827307963
4.32650e-06	-0.0008690009633976306
4.32675e-06	-0.000894789537722018
4.32700e-06	-0.0009205781120463178
4.32725e-06	-0.0009450486171840329
4.32750e-06	-0.0009663050363156372
4.32775e-06	-0.0009868949230236032
4.32800e-06	-0.0010058594834156053
4.32825e-06	-0.0010248240438076718
4.32850e-06	-0.0010428215237538463
4.32875e-06	-0.001058460796893184
4.32900e-06	-0.0010741000700325747
4.32925e-06	-0.001088870672630005
4.32950e-06	-0.0011015230390521648
4.32975e-06	-0.0011137237017581217
4.33000e-06	-0.0011248228937615309
4.33025e-06	-0.0011359220857649775
4.33050e-06	-0.0011462668394566905
4.33075e-06	-0.0011547719100387227
4.33100e-06	-0.0011632769806207838
4.33125e-06	-0.001171782051202816
4.33150e-06	-0.001179603979868569
4.33175e-06	-0.0011857600802944591
4.33200e-06	-0.0011919161807203284
4.33225e-06	-0.0011980722811461976
4.33250e-06	-0.0012036779914562535
4.33275e-06	-0.0012079415862028449
4.33300e-06	-0.001212205180949436
4.33325e-06	-0.0012164687756960418
4.33350e-06	-0.0012207323704426331
4.33375e-06	-0.0012238326409567404
4.33400e-06	-0.0012266252116967238
4.33425e-06	-0.0012294177824367072
4.33450e-06	-0.0012322103531767002
4.33475e-06	-0.001234703487520034
4.33500e-06	-0.0012364664520499507
4.33525e-06	-0.0012382294165798732
4.33550e-06	-0.0012399923811097899
4.33575e-06	-0.001241609237403309
4.33600e-06	-0.001242869811611886
4.33625e-06	-0.0012441303858204585
4.33650e-06	-0.001245390960029031
4.33675e-06	-0.0012465777014171856
4.33700e-06	-0.001247584402912684
4.33725e-06	-0.001248423649573925
4.33750e-06	-0.0012488545608876688
4.33775e-06	-0.001248810085780672
4.33800e-06	-0.0012476063901580845
4.33825e-06	-0.0012464026945355013
4.33850e-06	-0.0012445540359764965
4.33875e-06	-0.001241132647875652
4.33900e-06	-0.0012377112597748193
4.33925e-06	-0.0012342898716739866
4.33950e-06	-0.0012300375575177527
4.33975e-06	-0.0012237590463809824
4.34000e-06	-0.0012174805352442122
4.34025e-06	-0.0012112020241074207
4.34050e-06	-0.0012042095671743558
4.34075e-06	-0.0011954761673411136
4.34100e-06	-0.001186742767507842
4.34125e-06	-0.00117758356427138
4.34150e-06	-0.0011673860477406277
4.34175e-06	-0.001156839097052034
4.34200e-06	-0.001145440057984706
4.34225e-06	-0.0011337584515807354
4.34250e-06	-0.0011213878102374398
4.34275e-06	-0.001108857771935034
4.34300e-06	-0.001095860195192436
4.34325e-06	-0.0010826031676986717
4.34350e-06	-0.0010691178468792508
4.34375e-06	-0.0010554208780005844
4.34400e-06	-0.0010415583096412787
4.34425e-06	-0.0010276062745422083
4.34450e-06	-0.0010136473260119684
4.34475e-06	-0.000999763735826567
4.34500e-06	-0.000986037439278529
4.34525e-06	-0.000972544199984699
4.34550e-06	-0.000959340621736041
4.34575e-06	-0.0009464742250070049
4.34600e-06	-0.0009340109432815406
4.34625e-06	-0.0009221286914651691
4.34650e-06	-0.0009108639374715303
4.34675e-06	-0.0009001342421885566
4.34700e-06	-0.0008907092771360015
4.34725e-06	-0.0008812843120834146
4.34750e-06	-0.000872370012047982
4.34775e-06	-0.0008647009586970962
4.34800e-06	-0.0008570319053461846
4.34825e-06	-0.0008500295706304914
4.34850e-06	-0.0008446530163034058
4.34875e-06	-0.000839276461976302
4.34900e-06	-0.0008338999076492163
4.34925e-06	-0.0008285233533221307
4.34950e-06	-0.0008231467989950269
4.34975e-06	-0.0008185534554626909
4.35000e-06	-0.0008158699561779814
4.35025e-06	-0.0008131864568932627
4.35050e-06	-0.0008105029576085533
4.35075e-06	-0.0008078194583238347
4.35100e-06	-0.0008051359590391251
4.35125e-06	-0.0008032042020316039
4.35150e-06	-0.0008031055539053221
4.35175e-06	-0.0008030069057790407
4.35200e-06	-0.0008029082576527593
4.35225e-06	-0.0008028096095264775
4.35250e-06	-0.0008027109614001961
4.35275e-06	-0.0008026123132739147
4.35300e-06	-0.000802513665147633
4.35325e-06	-0.0008024150170213515
4.35350e-06	-0.0008023163688950701
4.35375e-06	-0.0008022177207687883
4.35400e-06	-0.0008032252337257489
4.35425e-06	-0.0008045253267783918
4.35450e-06	-0.0008058254198310391
4.35475e-06	-0.000807125512883682
4.35500e-06	-0.0008084256059363293
4.35525e-06	-0.0008097256989889721
4.35550e-06	-0.0008110257920416151
4.35575e-06	-0.0008123258850942623
4.35600e-06	-0.0008136259781469053
4.35625e-06	-0.0008149260711995482
4.35650e-06	-0.0008161955506142259
4.35675e-06	-0.000817363666397926
4.35700e-06	-0.000818441961889805
4.35725e-06	-0.0008195102137386089
4.35750e-06	-0.000820905025862341
4.35775e-06	-0.0008232470036753451
4.35800e-06	-0.0008266838750139924
4.35825e-06	-0.0008308062356614148
4.35850e-06	-0.0008366001486185267
4.35875e-06	-0.0008423940615756583
4.35900e-06	-0.0008489416341425959
4.35925e-06	-0.0008573269909687112
4.35950e-06	-0.0008657123477947981
4.35975e-06	-0.0008751276680930091
4.36000e-06	-0.0008870545342295409
4.36025e-06	-0.0008989814003660322
4.36050e-06	-0.0009119967304493107
4.36075e-06	-0.0009276662586373466
4.36100e-06	-0.0009433357868253295
4.36125e-06	-0.0009590053150133124
4.36150e-06	-0.0009746748432013483
4.36175e-06	-0.0009934108279440821
4.36200e-06	-0.0010129578918013917
4.36225e-06	-0.0010325049556587675
4.36250e-06	-0.001052052019516077
4.36275e-06	-0.0010722222595761618
4.36300e-06	-0.0010939121026522062
4.36325e-06	-0.0011156019457281771
4.36350e-06	-0.0011375538051735892
4.36375e-06	-0.0011601445864251785
4.36400e-06	-0.001182735367676768
4.36425e-06	-0.0012053432352351588
4.36450e-06	-0.0012279927674191636
4.36475e-06	-0.0012506422996031684
4.36500e-06	-0.001273045423318933
4.36525e-06	-0.0012948476847906814
4.36550e-06	-0.0013163280544635123
4.36575e-06	-0.0013370234972630614
4.36600e-06	-0.0013571224823743751
4.36625e-06	-0.0013757670170466752
4.36650e-06	-0.0013944115517190384
4.36675e-06	-0.0014118475800422464
4.36700e-06	-0.0014263366892044876
4.36725e-06	-0.0014408257983667778
4.36750e-06	-0.001455314907529019
4.36775e-06	-0.0014685124713429238
4.36800e-06	-0.001478560627015772
4.36825e-06	-0.0014886087826886203
4.36850e-06	-0.0014986569383615026
4.36875e-06	-0.0015070461247816162
4.36900e-06	-0.0015113899470364776
4.36925e-06	-0.0015157337692913535
4.36950e-06	-0.0015200775915462147
4.36975e-06	-0.0015244214138010758
4.37000e-06	-0.0015287652360559518
4.37025e-06	-0.0015325651012933366
4.37050e-06	-0.0015310250118571165
4.37075e-06	-0.0015294849224208912
4.37100e-06	-0.001527944832984671
4.37125e-06	-0.001526404743548451
4.37150e-06	-0.0015248646541122257
4.37175e-06	-0.0015233245646760053
4.37200e-06	-0.0015205554353994002
4.37225e-06	-0.006439397809693397
4.37250e-06	-0.02355325231139403
4.37275e-06	-0.01901218300001287
4.37300e-06	-0.015320680744079098
4.37325e-06	-0.009356779541673778
4.37350e-06	0.003911861967215265
4.37375e-06	0.0029026953013347578
4.37400e-06	0.0019956383278030565
4.37425e-06	-0.0032066771298821578
4.37450e-06	-0.010326676163800058
4.37475e-06	-0.010344503561470904
4.37500e-06	-0.007074904113068275
4.37525e-06	-0.0025745393643791495
4.37550e-06	0.002394819466479018
4.37575e-06	0.0030915128763250553
4.37600e-06	0.0014109336671848482
4.37625e-06	-0.0020387731209717008
4.37650e-06	-0.006143597616847794
4.37675e-06	-0.006233456864090601
4.37700e-06	-0.004248899639998336
4.37725e-06	-0.0014816666200827267
4.37750e-06	0.0015884129172613075
4.37775e-06	0.0019892446264232542
4.37800e-06	0.000906696079767094
4.37825e-06	-0.0012794308758501821
4.37850e-06	-0.0038722424224026737
4.37875e-06	-0.003947277628450577
4.37900e-06	-0.0027208761362248956
4.37925e-06	-0.0010027397703339187
4.37950e-06	0.0009061655202754273
4.37975e-06	0.0011439045296176905
4.38000e-06	0.0004532001742061059
4.38025e-06	-0.0009281357096654231
4.38050e-06	-0.0025636553256717463
4.38075e-06	-0.0026216366316289324
4.38100e-06	-0.0018641738723851836
4.38125e-06	-0.0007985644723114134
4.38150e-06	0.0003866129041577007
4.38175e-06	0.0005250649598299033
4.38200e-06	8.209497047164765e-05
4.38225e-06	-0.0007932897278672596
4.38250e-06	-0.001827669332023655
4.38275e-06	-0.0018736864504872337
4.38300e-06	-0.0014087729445406837
4.38325e-06	-0.0007507173175300623
4.38350e-06	-1.7640600897275454e-05
4.38375e-06	5.9937832898519196e-05
4.38400e-06	-0.0002264499427904294
4.38425e-06	-0.0007834155155050503
4.38450e-06	-0.001439649893832581
4.38475e-06	-0.001476450563647771
4.38500e-06	-0.001192899539948636
4.38525e-06	-0.0007880551077025863
4.38550e-06	-0.0003358912470165115
4.38575e-06	-0.00029396290767075625
4.38600e-06	-0.0004796005240476883
4.38625e-06	-0.0008342623250396745
4.38650e-06	-0.0012506045693728147
4.38675e-06	-0.0012784223701082643
4.38700e-06	-0.0011050605126773224
4.38725e-06	-0.0008551758401233475
4.38750e-06	-0.0005749917348101125
4.38775e-06	-0.0005509620836044061
4.38800e-06	-0.0006685979170838255
4.38825e-06	-0.0008912545495665866
4.38850e-06	-0.0011517318975296062
4.38875e-06	-0.0011680781904232366
4.38900e-06	-0.0010577091373665008
4.38925e-06	-0.0008987641810503968
4.38950e-06	-0.0007202470358115517
4.38975e-06	-0.0007016320083824015
4.39000e-06	-0.0007712383008679803
4.39025e-06	-0.0009061511304382833
4.39050e-06	-0.0010643188453035818
4.39075e-06	-0.001069179253737689
4.39100e-06	-0.0009943386031027845
4.39125e-06	-0.0008887946736950261
4.39150e-06	-0.0007707634885242164
4.39175e-06	-0.0007527099510698294
4.39200e-06	-0.000789772550798897
4.39225e-06	-0.000867639366872181
4.39250e-06	-0.0009600129278484748
4.39275e-06	-0.0009563452103309981
4.39300e-06	-0.000902795782221874
4.39325e-06	-0.0008301063166401866
