Time(s)	Current(A)
1.47500e-05	-0.003865019081584426
1.47503e-05	-0.003918446155835682
1.47505e-05	-0.0039659894529100485
1.47508e-05	-0.004007479098952892
1.47510e-05	-0.004042806903378984
1.47513e-05	-0.004071866999614388
1.47515e-05	-0.004091601720232606
1.47518e-05	-0.004104168521393236
1.47520e-05	-0.004116735322553782
1.47523e-05	-0.0041204359308387875
1.47525e-05	-0.004113252329379904
1.47528e-05	-0.004106068727921069
1.47530e-05	-0.004091871001501285
1.47533e-05	-0.004069062678818231
1.47535e-05	-0.004041018507636338
1.47538e-05	-0.004006546766690164
1.47540e-05	-0.003967177405490717
1.47543e-05	-0.003921795686244517
1.47545e-05	-0.00387200780200177
1.47548e-05	-0.0038168108741413907
1.47550e-05	-0.00375784075726056
1.47553e-05	-0.003694238643164276
1.47555e-05	-0.0036275070816310802
1.47558e-05	-0.003556933785233634
1.47560e-05	-0.0034838847124275393
1.47563e-05	-0.0034077963565733857
1.47565e-05	-0.0033299815315717116
1.47568e-05	-0.0032500472791456834
1.47570e-05	-0.00316934135207866
1.47573e-05	-0.0030874552394000603
1.47575e-05	-0.0030052615114003626
1.47578e-05	-0.002923230276937687
1.47580e-05	-0.002841832851538085
1.47583e-05	-0.0027615507087077194
1.47585e-05	-0.002682889487987604
1.47588e-05	-0.002606379837729122
1.47590e-05	-0.002532562157856684
1.47593e-05	-0.0024619766392522655
1.47595e-05	-0.00239516332069948
1.47598e-05	-0.0023326624738124833
1.47600e-05	-0.002275013871391519
1.47603e-05	-0.002222731640504871
1.47605e-05	-0.002176225160864949
1.47608e-05	-0.0021357377707829483
1.47610e-05	-0.0021013935303345215
1.47613e-05	-0.002073282383517388
1.47615e-05	-0.0020514933999471628
1.47618e-05	-0.002037585183279484
1.47620e-05	-0.002029041229979991
1.47623e-05	-0.0020264012200324768
1.47625e-05	-0.0020310089384704025
1.47628e-05	-0.0020399588553754533
1.47630e-05	-0.002057024342556437
1.47633e-05	-0.002080206978556477
1.47635e-05	-0.002109313072069402
1.47638e-05	-0.002144148779689996
1.47640e-05	-0.0021845202818020883
1.47643e-05	-0.0022302235965139237
1.47645e-05	-0.0022810135765080446
1.47648e-05	-0.0023365799770446536
1.47650e-05	-0.0023965657657682524
1.47653e-05	-0.0024606005804947077
1.47655e-05	-0.0025283137072595278
1.47658e-05	-0.0025993344227369453
1.47660e-05	-0.0026732917801317066
1.47663e-05	-0.0027498088656215344
1.47665e-05	-0.002828482832630882
1.47668e-05	-0.0029088701605906077
1.47670e-05	-0.0029904979049328647
1.47673e-05	-0.00307288482850638
1.47675e-05	-0.0031555495420599886
1.47678e-05	-0.003238010784654382
1.47680e-05	-0.0033197870863076245
1.47683e-05	-0.0034003931667214255
1.47685e-05	-0.0034793278858014135
1.47688e-05	-0.0035560642830398275
1.47690e-05	-0.0036300570554117662
1.47693e-05	-0.0037007560241072803
1.47695e-05	-0.0037676108012739615
1.47698e-05	-0.0038300708469596345
1.47700e-05	-0.0038864954964856722
1.47703e-05	-0.003938689374704204
1.47705e-05	-0.003987676042255455
1.47708e-05	-0.004030733142946387
1.47710e-05	-0.004069278652537021
1.47713e-05	-0.004103137417622494
1.47715e-05	-0.004129781442711105
1.47718e-05	-0.004150809930343777
1.47720e-05	-0.004171838417976307
1.47723e-05	-0.004187179981596868
1.47725e-05	-0.004195540231518576
1.47728e-05	-0.004199916892711359
1.47730e-05	-0.004199403268311457
1.47733e-05	-0.004195033779198757
1.47735e-05	-0.0041859307995238525
1.47738e-05	-0.004173047523436957
1.47740e-05	-0.004155523525042289
1.47743e-05	-0.004134566447241883
1.47745e-05	-0.00410939489352599
1.47748e-05	-0.004081404004612652
1.47750e-05	-0.004049952077114669
1.47753e-05	-0.004016039633198198
1.47755e-05	-0.003979106639517959
1.47758e-05	-0.003940039599111633
1.47760e-05	-0.0038983527857648736
1.47763e-05	-0.0038550283456709805
1.47765e-05	-0.00380969354179917
1.47768e-05	-0.003763384398092722
1.47770e-05	-0.00371587914696077
1.47773e-05	-0.003667903135625365
1.47775e-05	-0.003619349215274725
1.47778e-05	-0.003570807837380331
1.47780e-05	-0.0035222818567066006
1.47783e-05	-0.0034743579139487873
1.47785e-05	-0.003427173037782503
1.47788e-05	-0.0033812843199827487
1.47790e-05	-0.0033369867766287163
1.47793e-05	-0.0032945792769596997
1.47795e-05	-0.00325449201013456
1.47798e-05	-0.0032175490152323385
1.47800e-05	-0.003184465953855131
1.47803e-05	-0.0031513828924779235
1.47805e-05	-0.003122283210788431
1.47808e-05	-0.003098073558071516
1.47810e-05	-0.003073863905354601
1.47813e-05	-0.003053763788534321
1.47815e-05	-0.003038708571064589
1.47818e-05	-0.003023653353594857
1.47820e-05	-0.0030129447244508696
1.47823e-05	-0.0030075720021281033
1.47825e-05	-0.0030021992798053366
1.47828e-05	-0.0030001526253451943
1.47830e-05	-0.003002189078569906
1.47833e-05	-0.0030067336572878276
1.47835e-05	-0.003014357231053012
1.47838e-05	-0.0030238101221094784
1.47840e-05	-0.003036692392139056
1.47843e-05	-0.003052142276655913
1.47845e-05	-0.0030699705228954127
1.47848e-05	-0.003089962847916995
1.47850e-05	-0.0031119507880660795
1.47853e-05	-0.0031357970727168487
1.47855e-05	-0.003161366916716654
1.47858e-05	-0.0031885253828124907
1.47860e-05	-0.003217132436037912
1.47863e-05	-0.003247016436484831
1.47865e-05	-0.003277952663153132
1.47868e-05	-0.0033097010040994378
1.47870e-05	-0.0033420501657350672
1.47873e-05	-0.0033748078962508882
1.47875e-05	-0.0034077839492211107
1.47878e-05	-0.003440788021279547
1.47880e-05	-0.0034736261839942066
1.47883e-05	-0.0035060850622879924
1.47885e-05	-0.0035379181809153336
1.47888e-05	-0.003568869163710222
1.47890e-05	-0.003598699837809915
1.47893e-05	-0.003627184029501026
1.47895e-05	-0.003654096487030465
1.47898e-05	-0.0036792122484168976
1.47900e-05	-0.003702250005783719
1.47903e-05	-0.0037226343495884153
1.47905e-05	-0.0037394217024803397
1.47908e-05	-0.003751831840487001
1.47910e-05	-0.003759642767184832
1.47913e-05	-0.003761922774922083
1.47915e-05	-0.0037605075138546383
1.47918e-05	-0.0037551778043510746
1.47920e-05	-0.0037450426864327874
1.47923e-05	-0.003729546783214773
1.47925e-05	-0.003707469936803892
1.47928e-05	-0.003685393090393011
1.47930e-05	-0.0036577669211721162
1.47933e-05	-0.0036233283585926633
1.47935e-05	-0.0035840775167274544
1.47938e-05	-0.003538919082068518
1.47940e-05	-0.0034937606474092753
1.47943e-05	-0.0034442125619906063
1.47945e-05	-0.0033892757059595605
1.47948e-05	-0.0033310272233111715
1.47950e-05	-0.0032687133611662244
1.47953e-05	-0.0032037284783741986
1.47955e-05	-0.003135464629130677
1.47958e-05	-0.003065217556201927
1.47960e-05	-0.0029925358619108874
1.47963e-05	-0.002918395532180277
1.47965e-05	-0.0028424645698412335
1.47968e-05	-0.0027657208563168566
1.47970e-05	-0.002687691239953025
1.47973e-05	-0.002609226555517602
1.47975e-05	-0.0025307878884163228
1.47978e-05	-0.0024528367089838438
1.47980e-05	-0.0023758257078368194
1.47983e-05	-0.0023001618876999537
1.47985e-05	-0.0022261957035171376
1.47988e-05	-0.0021543030278717012
1.47990e-05	-0.0020849453307687682
1.47993e-05	-0.0020186276168071174
1.47995e-05	-0.001955857404530157
1.47998e-05	-0.001897142252846202
1.48000e-05	-0.0018429243668987411
1.48003e-05	-0.0017932717584621036
1.48005e-05	-0.0017476798441617846
1.48008e-05	-0.0017055964341276175
1.48010e-05	-0.0016669420679591646
1.48013e-05	-0.0016328022963226923
1.48015e-05	-0.0016018175435114107
1.48018e-05	-0.0015745620549901236
1.48020e-05	-0.0015518846413365413
1.48023e-05	-0.0015327462385851583
1.48025e-05	-0.0015179523541103742
1.48028e-05	-0.001506053242481908
1.48030e-05	-0.0014977077773061288
1.48033e-05	-0.0014922306412973642
1.48035e-05	-0.0014902746892676824
1.48038e-05	-0.0014912339699666348
1.48040e-05	-0.0014957720138344469
1.48043e-05	-0.0015023639633560395
1.48045e-05	-0.0015125953594773709
1.48048e-05	-0.0015251917113873056
1.48050e-05	-0.0015399561459063505
1.48053e-05	-0.0015567998348396301
1.48055e-05	-0.0015756417293336824
1.48058e-05	-0.0015964008281141087
1.48060e-05	-0.001618979933914223
1.48063e-05	-0.0016431900062605547
1.48065e-05	-0.001668701174740075
1.48068e-05	-0.0016951719188148058
1.48070e-05	-0.0017223771451639897
1.48073e-05	-0.0017501594573536266
1.48075e-05	-0.0017783661469518222
1.48078e-05	-0.0018068448263026885
1.48080e-05	-0.001835432760223094
1.48083e-05	-0.0018639096192805725
1.48085e-05	-0.001891967197655705
1.48088e-05	-0.0019192897791981982
1.48090e-05	-0.0019456346282691194
1.48093e-05	-0.0019708013890330743
1.48095e-05	-0.0019945928467212134
1.48098e-05	-0.0020168119696677613
1.48100e-05	-0.0020373734441628904
1.48103e-05	-0.0020568054580772615
1.48105e-05	-0.0020764923909133174
1.48108e-05	-0.002097691958682968
1.48110e-05	-0.00212069652850754
1.48113e-05	-0.002145280182853451
1.48115e-05	-0.00217118209445856
1.48118e-05	-0.002198141212592282
1.48120e-05	-0.0022259671330005118
1.48123e-05	-0.0022548533263777306
1.48125e-05	-0.0022855296055500174
1.48128e-05	-0.0023186462340199438
1.48130e-05	-0.0023542488461576958
1.48133e-05	-0.0023920585896013142
1.48135e-05	-0.002431774518848792
1.48138e-05	-0.0024730957121877712
1.48140e-05	-0.002515765331755974
1.48143e-05	-0.0025597672794141282
1.48145e-05	-0.002605858548204568
1.48148e-05	-0.002653533998537031
1.48150e-05	-0.002702386192596763
1.48153e-05	-0.002753276120405654
1.48155e-05	-0.002805340928937191
1.48158e-05	-0.002858254631500217
1.48160e-05	-0.002911719091428345
1.48163e-05	-0.002965586899828779
1.48165e-05	-0.0030199207826409656
1.48168e-05	-0.0030747523410650348
1.48170e-05	-0.003129876119240945
1.48173e-05	-0.0031849591276070463
1.48175e-05	-0.0032396599319188973
1.48178e-05	-0.0032936369696218953
1.48180e-05	-0.003346566133081257
1.48183e-05	-0.003398217802269368
1.48185e-05	-0.003448493958678086
1.48188e-05	-0.0034972770667792857
1.48190e-05	-0.003544301219440614
1.48193e-05	-0.00358922072086808
1.48195e-05	-0.0036316842296210197
1.48198e-05	-0.003671340717819263
1.48200e-05	-0.0037079390460019956
1.48203e-05	-0.0037417803277328974
1.48205e-05	-0.0037739598865743932
1.48208e-05	-0.003805514798681107
1.48210e-05	-0.003836664318937154
1.48213e-05	-0.0038671786235626453
1.48215e-05	-0.0038967970229672614
1.48218e-05	-0.003925259421532743
1.48220e-05	-0.003952368065420572
1.48223e-05	-0.003978270870809824
1.48225e-05	-0.004003613352176531
1.48228e-05	-0.004029004573783179
1.48230e-05	-0.004054541311679843
1.48233e-05	-0.004080039109369213
1.48235e-05	-0.004105294216248219
1.48238e-05	-0.004130102929293198
1.48240e-05	-0.004154300588557886
1.48243e-05	-0.004177939683802041
1.48245e-05	-0.0042013839473723745
1.48248e-05	-0.004224974142448523
1.48250e-05	-0.004248730179907838
1.48253e-05	-0.004272495922022991
1.48255e-05	-0.0042961035692688524
1.48258e-05	-0.004319264876320009
1.48260e-05	-0.0043420480532934715
1.48263e-05	-0.004364527180215542
1.48265e-05	-0.004386549018387627
1.48268e-05	-0.004408467695181203
1.48270e-05	-0.004430268890964803
1.48273e-05	-0.0044517619780157945
1.48275e-05	-0.004472824347761512
1.48278e-05	-0.004493309991598548
1.48280e-05	-0.004513088626574017
1.48283e-05	-0.004532114807537077
1.48285e-05	-0.004550465314852105
1.48288e-05	-0.004568207954002448
1.48290e-05	-0.004585284249694014
1.48293e-05	-0.004601566829907649
1.48295e-05	-0.0046169236558789226
1.48298e-05	-0.004631223154504354
1.48300e-05	-0.004644342579979492
1.48303e-05	-0.004656214651736962
1.48305e-05	-0.004666605574663425
1.48308e-05	-0.0046760266009975284
1.48310e-05	-0.004684093285903866
1.48313e-05	-0.00469049737036778
1.48315e-05	-0.004696901454831651
1.48318e-05	-0.004701411668171733
1.48320e-05	-0.004703596950070036
1.48323e-05	-0.004705782231968323
1.48325e-05	-0.004707967513866626
1.48328e-05	-0.004706132269324869
1.48330e-05	-0.0047040805656930005
1.48333e-05	-0.004702028862061119
1.48335e-05	-0.0046988466650109235
1.48338e-05	-0.004693318700177041
1.48340e-05	-0.004686614729844146
1.48343e-05	-0.0046799107595112055
1.48345e-05	-0.004671979858205052
1.48348e-05	-0.004662542766556537
1.48350e-05	-0.004653105674907959
1.48353e-05	-0.004642701559858313
1.48355e-05	-0.004631110319094728
1.48358e-05	-0.004619519078331064
1.48360e-05	-0.004607200305406397
1.48363e-05	-0.0045939884081425625
1.48365e-05	-0.004580776510878638
1.48368e-05	-0.004567214435195495
1.48370e-05	-0.00455322247766521
1.48373e-05	-0.004539118160628119
1.48375e-05	-0.004524875910155812
1.48378e-05	-0.0045106573858306
1.48380e-05	-0.004496467987914402
1.48383e-05	-0.004482459305893183
1.48385e-05	-0.004468672472159956
1.48388e-05	-0.004455246547614231
1.48390e-05	-0.004442263678093448
1.48393e-05	-0.004429653842135019
1.48395e-05	-0.004417804218384596
1.48398e-05	-0.004406668076716621
1.48400e-05	-0.004396192885298224
1.48403e-05	-0.004385559236009771
1.48405e-05	-0.004372897233798416
1.48408e-05	-0.004356545678708097
1.48410e-05	-0.004336098436989649
1.48413e-05	-0.004311058784854659
1.48415e-05	-0.004283069281858643
1.48418e-05	-0.004252949233574426
1.48420e-05	-0.004218885673628999
1.48423e-05	-0.004181539963105062
1.48425e-05	-0.0041377212526521505
1.48428e-05	-0.004088445596110962
1.48430e-05	-0.004039169939569773
1.48433e-05	-0.0039848503167025555
1.48435e-05	-0.003924338680154811
1.48438e-05	-0.0038599328721458403
1.48440e-05	-0.003790746547892631
1.48443e-05	-0.0037215602236389525
1.48445e-05	-0.003648301886342111
1.48448e-05	-0.003570044713042852
1.48450e-05	-0.0034888077656255083
1.48453e-05	-0.0034039128235057907
1.48455e-05	-0.0033169672419991404
1.48458e-05	-0.0032275042790662557
1.48460e-05	-0.00313678403938359
1.48463e-05	-0.0030445203566388176
1.48465e-05	-0.0029514226527923544
1.48468e-05	-0.0028568593944140333
1.48470e-05	-0.0027615608479375996
1.48473e-05	-0.0026660896971826015
1.48475e-05	-0.0025710199266273603
1.48478e-05	-0.0024769253261372757
1.48480e-05	-0.002384357545959248
1.48483e-05	-0.002293750548713454
1.48485e-05	-0.002205376097985312
1.48488e-05	-0.0021195382660767355
1.48490e-05	-0.0020367343626108364
1.48493e-05	-0.0019575641109757205
1.48495e-05	-0.0018826339304765616
1.48498e-05	-0.0018125500075895108
1.48500e-05	-0.0017478034279619495
1.48503e-05	-0.0016882385705305743
1.48505e-05	-0.0016327451827637535
1.48508e-05	-0.0015808712484510102
1.48510e-05	-0.001531252942812914
1.48513e-05	-0.001484545558431186
1.48515e-05	-0.0014414116444261746
1.48518e-05	-0.0014017513115054036
1.48520e-05	-0.0013663551746962632
1.48523e-05	-0.0013334684960134044
1.48525e-05	-0.0013052858864264047
1.48528e-05	-0.0012790962225133038
1.48530e-05	-0.0012549395862880134
1.48533e-05	-0.0012332787112247707
1.48535e-05	-0.0012139340359361035
1.48538e-05	-0.0011974327461437447
1.48540e-05	-0.001182805821963775
1.48543e-05	-0.0011715682035117361
1.48545e-05	-0.0011627773799079602
1.48548e-05	-0.001155350140583113
1.48550e-05	-0.0011492524800438004
1.48553e-05	-0.0011447870211291479
1.48555e-05	-0.0011417455229857274
1.48558e-05	-0.0011404520905525647
1.48560e-05	-0.0011402607480991765
1.48563e-05	-0.0011420283498731006
1.48565e-05	-0.0011449362356534699
1.48568e-05	-0.0011486195681900554
1.48570e-05	-0.001152934424771473
1.48573e-05	-0.0011578609804850826
1.48575e-05	-0.0011633879430446548
1.48578e-05	-0.0011695039679036933
1.48580e-05	-0.0011761800346613241
1.48583e-05	-0.0011832875826411412
1.48585e-05	-0.0011905510763818366
1.48588e-05	-0.0011976958421356162
1.48590e-05	-0.0012045855461601336
1.48593e-05	-0.0012111617781964843
1.48595e-05	-0.0012173714528578743
1.48598e-05	-0.0012231613802371638
1.48600e-05	-0.0012286110353757252
1.48603e-05	-0.0012345171834482929
1.48605e-05	-0.0012426546927759158
1.48608e-05	-0.0012545929159757663
1.48610e-05	-0.001270719203619067
1.48613e-05	-0.0012907963776611884
1.48615e-05	-0.0013145453621050797
1.48618e-05	-0.0013416869692191033
1.48620e-05	-0.0013720252571467581
1.48623e-05	-0.0014058134315737812
1.48625e-05	-0.0014439174209939915
1.48628e-05	-0.0014870743260415246
1.48630e-05	-0.0015352807851609792
1.48633e-05	-0.0015881421844989693
1.48635e-05	-0.0016452377468228988
1.48638e-05	-0.0017068821674307644
1.48640e-05	-0.001771403205869452
1.48643e-05	-0.0018390858840452676
1.48645e-05	-0.0019106498166242783
1.48648e-05	-0.001984810743223315
1.48650e-05	-0.0020636666844926384
1.48653e-05	-0.002145650927556323
1.48655e-05	-0.0022302541269102593
1.48658e-05	-0.0023172792370063228
1.48660e-05	-0.002405695742611305
1.48663e-05	-0.002495278801195939
1.48665e-05	-0.0025862939296147423
1.48668e-05	-0.002678049585572752
1.48670e-05	-0.0027709203289501562
1.48673e-05	-0.0028639965193839167
1.48675e-05	-0.002956713333521601
1.48678e-05	-0.003048505795910916
1.48680e-05	-0.0031388295454239795
1.48683e-05	-0.0032272507629498718
1.48685e-05	-0.003313486238755542
1.48688e-05	-0.0033972209567260316
1.48690e-05	-0.0034779580721302195
1.48693e-05	-0.0035551046136686115
1.48695e-05	-0.0036280612276845636
1.48698e-05	-0.003696228760202173
1.48700e-05	-0.0037590142571032156
1.48703e-05	-0.0038158852125665917
1.48705e-05	-0.0038664682042361506
1.48708e-05	-0.003910564300462936
1.48710e-05	-0.003948054062650758
1.48713e-05	-0.0039788275377952475
1.48715e-05	-0.004002773817779041
1.48718e-05	-0.004018188613051267
1.48720e-05	-0.0040277903159649416
1.48723e-05	-0.004031021287112007
1.48725e-05	-0.004026431496633674
1.48728e-05	-0.004015703218875927
1.48730e-05	-0.003997439284695724
1.48733e-05	-0.003973385961610448
1.48735e-05	-0.0039422255380783195
1.48738e-05	-0.0039056280641497137
1.48740e-05	-0.003862356023365648
1.48743e-05	-0.0038140665818771503
1.48745e-05	-0.003759617738874831
1.48748e-05	-0.003700772346768312
1.48750e-05	-0.0036365297155713364
1.48753e-05	-0.0035685845511991936
1.48755e-05	-0.0034960941272819145
1.48758e-05	-0.0034205971720073784
1.48760e-05	-0.0033414093746249045
1.48763e-05	-0.003259953169454512
1.48765e-05	-0.003175712248612818
1.48768e-05	-0.0030903042521886756
1.48770e-05	-0.003002988603358391
1.48773e-05	-0.0029148426176704165
1.48775e-05	-0.0028263730867040186
1.48778e-05	-0.0027380868351916253
1.48780e-05	-0.00265049214179059
1.48783e-05	-0.0025641060699424408
1.48785e-05	-0.0024794699961604707
1.48788e-05	-0.0023971523205116884
1.48790e-05	-0.0023177336606128125
1.48793e-05	-0.002241796036132474
1.48795e-05	-0.002169921138749762
1.48798e-05	-0.002102690731511422
1.48800e-05	-0.00204064898324738
1.48803e-05	-0.0019841132503893234
1.48805e-05	-0.0019330182456963848
1.48808e-05	-0.001887181667399122
1.48810e-05	-0.001846625359448526
1.48813e-05	-0.0018115100592431732
1.48815e-05	-0.0017833262069552067
1.48818e-05	-0.001759906703832797
1.48820e-05	-0.0017418143217001166
1.48823e-05	-0.0017302615562002769
1.48825e-05	-0.0017224961683677503
1.48828e-05	-0.0017217411042690536
1.48830e-05	-0.00172620126789107
1.48833e-05	-0.0017357841890125712
1.48835e-05	-0.0017504039127607838
1.48838e-05	-0.00176997423953729
1.48840e-05	-0.0017943944295030494
1.48843e-05	-0.0018234747934198984
1.48845e-05	-0.0018568753937582615
1.48848e-05	-0.0018942103660406792
1.48850e-05	-0.0019351740709807575
1.48853e-05	-0.001979515340869287
1.48855e-05	-0.0020269871589690355
1.48858e-05	-0.0020773425395461368
1.48860e-05	-0.002130325203907485
1.48863e-05	-0.002185623256022298
1.48865e-05	-0.002242830455098581
1.48868e-05	-0.002301512174610246
1.48870e-05	-0.0023612839835191963
1.48873e-05	-0.0024217955473707243
1.48875e-05	-0.002482699273804378
1.48878e-05	-0.0025436473138381313
1.48880e-05	-0.002604286278904978
1.48883e-05	-0.0026642278639932367
1.48885e-05	-0.0027230246863428694
1.48888e-05	-0.0027802116482394438
1.48890e-05	-0.0028353552260737156
1.48893e-05	-0.002888043166867818
1.48895e-05	-0.002937864966406962
1.48898e-05	-0.00298440995901582
1.48900e-05	-0.00302736950035967
1.48903e-05	-0.0030670022083331664
1.48905e-05	-0.0031043876243480118
1.48908e-05	-0.0031405618838749663
1.48910e-05	-0.0031757370248189937
1.48913e-05	-0.003209669614703122
1.48915e-05	-0.0032420849133675974
1.48918e-05	-0.003272708180652708
1.48920e-05	-0.003301328538407303
1.48923e-05	-0.0033280904852437867
1.48925e-05	-0.003353652881877505
1.48928e-05	-0.0033786469590622917
1.48930e-05	-0.0034031879059637153
1.48933e-05	-0.003427105597063414
1.48935e-05	-0.0034502103799076062
1.48938e-05	-0.0034723126258317224
1.48940e-05	-0.0034932626092016783
1.48943e-05	-0.00351313304212064
1.48945e-05	-0.003532319121452819
