Time(s)	Current(A)
1.00000e-05	0.005394172230458039
1.00003e-05	0.005384137436677125
1.00005e-05	0.005374102642896278
1.00008e-05	0.005364067849115363
1.00010e-05	0.005354033055334448
1.00013e-05	0.005343998261553602
1.00015e-05	0.0053339634677726875
1.00018e-05	0.0053239286739917725
1.00020e-05	0.005313893880210926
1.00023e-05	0.005292876331627718
1.00025e-05	0.005267483442203099
1.00028e-05	0.0052420905527786514
1.00030e-05	0.005216697663354032
1.00033e-05	0.005191304773929413
1.00035e-05	0.005165911884504965
1.00038e-05	0.005140518995080346
1.00040e-05	0.005115126105655727
1.00042e-05	0.005089733216231279
1.00045e-05	0.00506434032680666
1.00048e-05	0.0050389474373820405
1.00050e-05	0.005013554547957593
1.00053e-05	0.004988161658532974
1.00055e-05	0.0049629481822494196
1.00057e-05	0.004938389339003026
1.00060e-05	0.004913830495756466
1.00063e-05	0.004889271652509906
1.00065e-05	0.004864712809263513
1.00068e-05	0.004840153966016953
1.00070e-05	0.0048155951227703934
1.00073e-05	0.004791036279523833
1.00075e-05	0.00476647743627744
1.00078e-05	0.004741918593030881
1.00080e-05	0.0047173597497843205
1.00083e-05	0.004705963376249872
1.00085e-05	0.004699810704532406
1.00088e-05	0.00469365803281494
1.00090e-05	0.004687505361097515
1.00093e-05	0.004681352689380049
1.00095e-05	0.004675200017662583
1.00098e-05	0.004669047345945159
1.00100e-05	0.004662894674227693
1.00103e-05	0.004656742002510227
1.00105e-05	0.004650589330792802
1.00108e-05	0.004649681557538824
1.00110e-05	0.004667911088219584
1.00113e-05	0.004686140618900219
1.00115e-05	0.004704370149580978
1.00118e-05	0.004722599680261737
1.00120e-05	0.004740829210942372
1.00123e-05	0.004759058741623132
1.00125e-05	0.004777288272303891
1.00127e-05	0.004795517802984526
1.00130e-05	0.004813747333665285
1.00133e-05	0.004831976864346044
1.00135e-05	0.0048600114015520165
1.00138e-05	0.004891952084919724
1.00140e-05	0.00492389276828743
1.00142e-05	0.00495583345165492
1.00145e-05	0.004987774135022626
1.00148e-05	0.005019714818390333
1.00150e-05	0.005051655501757823
1.00153e-05	0.00508359618512553
1.00155e-05	0.005115536868493236
1.00157e-05	0.005147477551860726
1.00160e-05	0.005178465957780704
1.00163e-05	0.005205979744872761
1.00165e-05	0.005233493531964818
1.00168e-05	0.005261007319056689
1.00170e-05	0.005288521106148746
1.00173e-05	0.005316034893240803
1.00175e-05	0.005343548680332674
1.00178e-05	0.005371062467424731
1.00180e-05	0.005398576254516789
1.00183e-05	0.00542609004160866
1.00185e-05	0.005446693014850397
1.00188e-05	0.005462734343494788
1.00190e-05	0.00547877567213907
1.00193e-05	0.005494817000783462
1.00195e-05	0.005510858329427853
1.00198e-05	0.005526899658072135
1.00200e-05	0.005542940986716527
1.00203e-05	0.005558982315360918
1.00205e-05	0.005575023644005201
1.00208e-05	0.005591064972649592
1.00210e-05	0.00452162801993032
1.00212e-05	-0.0008153267821753049
1.00215e-05	-0.005187220409402285
1.00218e-05	-0.004993938590243498
1.00220e-05	-0.003105508042926056
1.00223e-05	0.0009486562347568608
1.00225e-05	0.004827587499620385
1.00227e-05	0.0058951893074612825
1.00230e-05	0.004828766485876224
1.00233e-05	0.002217366544512484
1.00235e-05	-0.0007757620092244668
1.00238e-05	-0.0012364672398750313
1.00240e-05	0.0003726161037531212
1.00242e-05	0.0027219187571057984
1.00245e-05	0.005005772230368616
1.00248e-05	0.006033306592314435
1.00250e-05	0.005609550836976799
1.00253e-05	0.004364735291402675
1.00255e-05	0.0028387527772539963
1.00258e-05	0.0024866755377832062
1.00260e-05	0.003236615556421851
1.00263e-05	0.00455675621025958
1.00265e-05	0.005727128532481011
1.00268e-05	0.0061880258983559085
1.00270e-05	0.005872787726481629
1.00273e-05	0.005024847434190021
1.00275e-05	0.0042386897898647104
1.00278e-05	0.004062628664359898
1.00280e-05	0.004528814808807947
1.00283e-05	0.005352004123506771
1.00285e-05	0.006081064902512972
1.00288e-05	0.00636531802602671
1.00290e-05	0.006163025654290406
1.00293e-05	0.005626726564085778
1.00295e-05	0.0051288363711178815
1.00297e-05	0.00501281781910524
1.00300e-05	0.0052987935612804505
1.00303e-05	0.005808079080744027
1.00305e-05	0.00625810022844969
1.00308e-05	0.006429229159427547
1.00310e-05	0.006295370470403104
1.00312e-05	0.005952120941973429
1.00315e-05	0.005632793169394305
1.00318e-05	0.00555254335496005
1.00320e-05	0.005723978413422697
1.00323e-05	0.006035177501618932
1.00325e-05	0.006309156668860118
1.00327e-05	0.006408376139149659
1.00330e-05	0.006316532087555175
1.00333e-05	0.006093546547082602
1.00335e-05	0.005885597120185886
1.00338e-05	0.00582747632497958
1.00340e-05	0.005927093196148691
1.00343e-05	0.0061143553184654035
1.00345e-05	0.006278423769767686
1.00348e-05	0.006333176353772411
1.00350e-05	0.006268437821850409
1.00353e-05	0.0061217788426387336
1.00355e-05	0.005984794992592467
1.00358e-05	0.0059419422264472095
1.00360e-05	0.005998192748999079
1.00363e-05	0.006109660911239569
1.00365e-05	0.006206942210335523
1.00368e-05	0.006236120859876825
1.00370e-05	0.00619085660681163
1.00373e-05	0.006094716584140577
1.00375e-05	0.0060051053379737125
1.00378e-05	0.0059749498121881624
1.00380e-05	0.006007340363463313
1.00382e-05	0.006074542377334991
1.00385e-05	0.0061325522535922265
1.00388e-05	0.0061471355897017715
1.00390e-05	0.006114198347355864
1.00393e-05	0.0060485504543534565
1.00395e-05	0.005986202180971986
1.00397e-05	0.005960355897682148
1.00400e-05	0.005972994628517873
1.00403e-05	0.006006793484652543
1.00405e-05	0.006034239695181928
1.00408e-05	0.0060339409485393
1.00410e-05	0.006003386122036952
1.00412e-05	0.005951905755651144
1.00415e-05	0.005902108186526728
1.00418e-05	0.005874841332618003
1.00420e-05	0.0058713966614595174
1.00423e-05	0.005880970911385779
1.00425e-05	0.00588638008507441
1.00428e-05	0.0058742767085499135
1.00430e-05	0.005843140410614234
1.00433e-05	0.005798868014646675
1.00435e-05	0.005759295022564544
1.00438e-05	0.005731565591397393
1.00440e-05	0.005713318652636279
1.00443e-05	0.005707901847711653
1.00445e-05	0.005696443407202508
1.00448e-05	0.005676810428837616
1.00450e-05	0.005649177611733361
1.00453e-05	0.005610720741490538
1.00455e-05	0.005579166529122079
1.00458e-05	0.005556951846970205
1.00460e-05	0.005534737164818481
1.00463e-05	0.005514996276720957
1.00465e-05	0.005498602515880859
1.00467e-05	0.0054822087550408715
1.00470e-05	0.005460924136922977
1.00473e-05	0.005433022023028355
1.00475e-05	0.005405119909133923
1.00478e-05	0.005383294227932086
1.00480e-05	0.005369690166254034
1.00482e-05	0.005354865171340887
1.00485e-05	0.00533838821235079
1.00488e-05	0.005321911253360693
1.00490e-05	0.005305434294370708
1.00493e-05	0.005288957335380611
1.00495e-05	0.005270813264148432
1.00497e-05	0.0052525339890160064
1.00500e-05	0.005234254713883456
1.00503e-05	0.005215975438750906
1.00505e-05	0.0051959738639697954
1.00508e-05	0.005173641959350015
1.00510e-05	0.0051513100547300825
1.00513e-05	0.00512897815011015
1.00515e-05	0.00510664624549037
1.00518e-05	0.005083802813481491
1.00520e-05	0.005060267267566125
1.00523e-05	0.00503673172165092
1.00525e-05	0.005013196175735554
1.00528e-05	0.004989660629820189
1.00530e-05	0.004964508116697951
1.00533e-05	0.00493716779210238
1.00535e-05	0.00490982746750681
1.00538e-05	0.0048824871429114245
1.00540e-05	0.004855146818315854
1.00543e-05	0.004827806493720283
1.00545e-05	0.004800466169124898
1.00548e-05	0.004773125844529327
1.00550e-05	0.004745785519933757
1.00552e-05	0.004718445195338371
1.00555e-05	0.004692579806377867
1.00558e-05	0.004668710055356601
1.00560e-05	0.004644840304335497
1.00563e-05	0.004620970553314231
1.00565e-05	0.0045971008022929645
1.00567e-05	0.0045732310512718605
1.00570e-05	0.004549361300250594
1.00573e-05	0.004525491549229329
1.00575e-05	0.004501621798208224
1.00578e-05	0.004477752047186958
1.00580e-05	0.004462117803321083
1.00582e-05	0.004457626479958882
1.00585e-05	0.00445313515659665
1.00588e-05	0.004448643833234419
1.00590e-05	0.004444152509872188
1.00593e-05	0.004439661186509987
1.00595e-05	0.004435169863147756
1.00598e-05	0.004430678539785524
1.00600e-05	0.0044261872164233235
1.00603e-05	0.004421695893061092
1.00605e-05	0.00441720456969886
1.00608e-05	0.00441271324633666
1.00610e-05	0.004435451816893663
1.00613e-05	0.004460398749777044
1.00615e-05	0.004485345682660256
1.00618e-05	0.004510292615543637
1.00620e-05	0.004535239548427018
1.00623e-05	0.00456018648131023
1.00625e-05	0.004585133414193612
1.00628e-05	0.004610080347076992
1.00630e-05	0.004635027279960204
1.00633e-05	0.0046599742128435855
1.00635e-05	0.004684921145726966
1.00637e-05	0.004716244906021688
1.00640e-05	0.004756196730087399
1.00643e-05	0.0047961485541531115
1.00645e-05	0.004836100378218552
1.00648e-05	0.004876052202284264
1.00650e-05	0.004916004026349976
1.00652e-05	0.004955955850415417
1.00655e-05	0.004995907674481129
1.00658e-05	0.00503585949854684
1.00660e-05	0.00507335775815742
1.00663e-05	0.005107536261842948
1.00665e-05	0.005141714765528475
1.00667e-05	0.005175893269213771
1.00670e-05	0.0052100717728992985
1.00673e-05	0.005244250276584825
1.00675e-05	0.005278428780270353
1.00678e-05	0.0053126072839556485
1.00680e-05	0.005346785787641176
1.00683e-05	0.005368437722592035
1.00685e-05	0.005373140785178495
1.00688e-05	0.005377843847764987
1.00690e-05	0.005382546910351478
1.00693e-05	0.005387249972937938
1.00695e-05	0.00539195303552443
1.00698e-05	0.005396656098110922
1.00700e-05	0.005401359160697381
1.00703e-05	0.005406062223283873
1.00705e-05	0.005410765285870364
1.00708e-05	0.005415468348456825
1.00710e-05	0.005420171411043316
1.00713e-05	0.005409846245669634
1.00715e-05	0.005379187378149234
1.00718e-05	0.005348528510628626
1.00720e-05	0.005317869643108018
1.00722e-05	0.005287210775587618
1.00725e-05	0.0052565519080670095
1.00728e-05	0.005225893040546402
1.00730e-05	0.0051952341730260015
1.00733e-05	0.005164575305505394
1.00735e-05	0.005133916437984786
1.00737e-05	0.005103257570464386
1.00740e-05	0.005072598702943778
1.00743e-05	0.005035972208288723
1.00745e-05	0.004991271311714634
1.00748e-05	0.004946570415140243
1.00750e-05	0.004901869518565852
1.00752e-05	0.004857168621991764
1.00755e-05	0.004812467725417372
1.00758e-05	0.004767766828842981
1.00760e-05	0.00472306593226859
1.00763e-05	0.0046783650356945015
1.00765e-05	0.004637511962690476
1.00768e-05	0.004601865125485782
1.00770e-05	0.004566218288281328
1.00773e-05	0.004530571451076633
1.00775e-05	0.0044949246138719385
1.00778e-05	0.004459277776667486
1.00780e-05	0.004423630939462791
1.00783e-05	0.004387984102258096
1.00785e-05	0.004352337265053643
1.00788e-05	0.004322542369937415
1.00790e-05	0.004300665350950894
1.00793e-05	0.0042787883319645205
1.00795e-05	0.004256911312977999
1.00798e-05	0.004235034293991477
1.00800e-05	0.004213157275005104
1.00803e-05	0.0041912802560185826
1.00805e-05	0.004169403237032061
1.00808e-05	0.004147526218045688
1.00810e-05	0.004125649199059166
1.00813e-05	0.004103772180072645
1.00815e-05	0.004081895161086271
1.00818e-05	0.00406001814209975
1.00820e-05	0.004038141123113228
1.00822e-05	0.004016264104126855
1.00825e-05	0.0039943870851403334
1.00828e-05	0.003972510066153812
1.00830e-05	0.003950633047167439
1.00833e-05	0.003928756028180917
1.00835e-05	0.0039136939085706235
1.00837e-05	0.003899184481788462
1.00840e-05	0.003884675055006202
1.00843e-05	0.0038701656282239417
1.00845e-05	0.0038556562014416818
1.00848e-05	0.00384114677465952
1.00850e-05	0.00382663734787726
1.00853e-05	0.003812127921095
1.00855e-05	0.003797618494312838
1.00858e-05	0.003783109067530578
1.00860e-05	0.003768599640748318
1.00863e-05	0.0037540902139661563
1.00865e-05	0.0037395807871838964
1.00868e-05	0.003725071360401636
1.00870e-05	0.0037105619336194745
1.00873e-05	0.003696052506837214
1.00875e-05	0.003681543080054954
1.00878e-05	0.0036670336532727923
1.00880e-05	0.003659097805649529
1.00883e-05	0.0036600562335915767
1.00885e-05	0.0036610146615336184
1.00888e-05	0.0036619730894756667
1.00890e-05	0.0036629315174177145
1.00893e-05	0.0036638899453597562
1.00895e-05	0.003664848373301804
1.00898e-05	0.0036658068012438523
1.00900e-05	0.003666765229185894
1.00903e-05	0.003667723657127942
1.00905e-05	0.00366868208506999
1.00907e-05	0.0036696405130120313
1.00910e-05	0.0036805321301183673
1.00913e-05	0.0037048636890798163
1.00915e-05	0.0037291952480411
1.00918e-05	0.0037535268070025486
1.00920e-05	0.003777858365963997
1.00922e-05	0.0038021899249252814
1.00925e-05	0.00382652148388673
1.00928e-05	0.0038508530428481786
1.00930e-05	0.0038751846018096276
1.00933e-05	0.0038995161607709113
1.00935e-05	0.00392384771973236
1.00938e-05	0.003948179278693809
1.00940e-05	0.0039769634465124885
1.00943e-05	0.004011772145140173
1.00945e-05	0.004046580843767856
1.00948e-05	0.004081389542395304
1.00950e-05	0.004116198241022988
1.00953e-05	0.004151006939650672
1.00955e-05	0.00418581563827812
1.00958e-05	0.004220624336905804
1.00960e-05	0.004255433035533488
1.00963e-05	0.004287300306551407
1.00965e-05	0.0043151877262454065
1.00968e-05	0.0043430751459394065
1.00970e-05	0.004370962565633217
1.00973e-05	0.004398849985327217
1.00975e-05	0.004426737405021217
1.00978e-05	0.004454624824715028
1.00980e-05	0.004482512244409027
1.00983e-05	0.004510399664103027
1.00985e-05	0.004528132325557759
1.00988e-05	0.004532125254681107
1.00990e-05	0.004536118183804453
1.00992e-05	0.0045401111129277725
1.00995e-05	0.004544104042051119
1.00998e-05	0.004548096971174465
1.01000e-05	0.004552089900297785
1.01003e-05	0.004556082829421131
1.01005e-05	0.004560075758544478
1.01007e-05	0.004564068687667798
1.01010e-05	0.004568061616791144
1.01013e-05	0.004572054545914491
1.01015e-05	0.004565194075518544
1.01018e-05	0.004543648587441773
1.01020e-05	0.004522103099364855
1.01023e-05	0.004500557611287938
1.01025e-05	0.004479012123211166
1.01028e-05	0.004457466635134249
1.01030e-05	0.004435921147057331
1.01033e-05	0.00441437565898056
1.01035e-05	0.004392830170903642
1.01038e-05	0.0043712846828267244
1.01040e-05	0.004349739194749953
1.01043e-05	0.004328193706673035
1.01045e-05	0.004302781122907312
1.01048e-05	0.004272136227508202
1.01050e-05	0.004241491332108884
1.01053e-05	0.004210846436709566
1.01055e-05	0.004180201541310455
1.01058e-05	0.0041495566459111375
1.01060e-05	0.00411891175051182
1.01063e-05	0.004088266855112709
1.01065e-05	0.004057621959713391
1.01068e-05	0.004033788306944628
1.01070e-05	0.004010507050440867
1.01073e-05	0.003987225793936948
1.01075e-05	0.003963944537433029
1.01077e-05	0.003940663280929268
1.01080e-05	0.00391738202442535
1.01083e-05	0.0038941007679214315
1.01085e-05	0.0038708195114176705
1.01088e-05	0.0038604898548958324
1.01090e-05	0.0038676841524533686
1.01092e-05	0.003874878450010856
1.01095e-05	0.003882072747568392
1.01098e-05	0.0038892670451259282
1.01100e-05	0.003896461342683465
1.01103e-05	0.003903655640240952
1.01105e-05	0.003910849937798488
1.01108e-05	0.0039180442353560245
1.01110e-05	0.003925238532913512
1.01113e-05	0.003932432830471048
1.01115e-05	0.003955030394145435
1.01118e-05	0.003998469099337564
1.01120e-05	0.004041907804529989
1.01123e-05	0.004085346509722414
1.01125e-05	0.004128785214914543
1.01128e-05	0.004172223920106968
1.01130e-05	0.004215662625299392
1.01133e-05	0.0042591013304915225
1.01135e-05	0.004302540035683947
1.01138e-05	0.004345978740876371
1.01140e-05	0.004389417446068501
1.01143e-05	0.004438970037689347
1.01145e-05	0.004496794925024647
1.01148e-05	0.0045546198123595566
1.01150e-05	0.004612444699694857
1.01153e-05	0.0046702695870301575
1.01155e-05	0.004728094474365066
1.01158e-05	0.004785919361700366
1.01160e-05	0.004843744249035667
1.01162e-05	0.004897443106347966
1.01165e-05	0.004945559305088865
1.01168e-05	0.004993675503829765
1.01170e-05	0.005041791702570338
1.01173e-05	0.005089907901311238
1.01175e-05	0.005138024100052137
1.01177e-05	0.005186140298792711
1.01180e-05	0.00523425649753361
1.01183e-05	0.005266381696653865
1.01185e-05	0.005276870530885971
1.01188e-05	0.005287359365118006
1.01190e-05	0.005297848199350113
1.01193e-05	0.005308337033582218
1.01195e-05	0.005318825867814254
1.01198e-05	0.00532931470204636
1.01200e-05	0.005339803536278466
1.01203e-05	0.005350292370510501
1.01205e-05	0.005360781204742607
1.01208e-05	0.005350414690552659
1.01210e-05	0.005311830182551064
1.01213e-05	0.005273245674549207
1.01215e-05	0.00523466116654735
1.01218e-05	0.005196076658545755
1.01220e-05	0.005157492150543898
1.01223e-05	0.005118907642542042
1.01225e-05	0.005080323134540447
1.01228e-05	0.00504173862653859
1.01230e-05	0.0050031541185367335
1.01233e-05	0.004952419370614781
1.01235e-05	0.004885244935952915
1.01238e-05	0.00481807050129105
1.01240e-05	0.00475089606662964
1.01243e-05	0.004683721631967775
1.01245e-05	0.00461654719730591
1.01247e-05	0.0045493727626445
1.01250e-05	0.00448019621969091
1.01253e-05	0.004408310756308394
1.01255e-05	0.004336425292926364
1.01258e-05	0.004264539829543848
1.01260e-05	0.004192654366161331
1.01262e-05	0.004120768902779301
1.01265e-05	0.004048883439396785
1.01268e-05	0.003985763392294225
1.01270e-05	0.003934503250736383
1.01273e-05	0.0038832431091788884
1.01275e-05	0.0038319829676210465
1.01278e-05	0.0037807228260632046
1.01280e-05	0.00372946268450571
1.01283e-05	0.0036782025429478683
1.01285e-05	0.0036269424013900264
1.01288e-05	0.0035756822598325315
1.01290e-05	0.0035244221182746897
1.01293e-05	0.0035089971695258368
1.01295e-05	0.003496478478528864
1.01298e-05	0.0034839597875318067
1.01300e-05	0.0034714410965347494
1.01303e-05	0.003458922405537777
1.01305e-05	0.00344640371454072
1.01308e-05	0.003433885023543662
1.01310e-05	0.0034213663325466897
1.01313e-05	0.0034088476415496324
1.01315e-05	0.0034101246425866
1.01318e-05	0.0034300676828890515
1.01320e-05	0.0034500107231916384
1.01323e-05	0.0034699537634942258
1.01325e-05	0.0034898968037966774
1.01328e-05	0.0035098398440992647
1.01330e-05	0.0035297828844018516
1.01332e-05	0.0035497259247043037
1.01335e-05	0.0035696689650068906
1.01338e-05	0.003605426672587646
1.01340e-05	0.003642466960106597
1.01343e-05	0.0036795072476258
1.01345e-05	0.0037165475351450023
1.01347e-05	0.003753587822663954
1.01350e-05	0.0037906281101831563
1.01353e-05	0.0038276683977023587
1.01355e-05	0.0038647086852215615
1.01358e-05	0.003900545651065189
1.01360e-05	0.003934754481866005
1.01363e-05	0.003968963312666822
1.01365e-05	0.0040031721434674065
1.01368e-05	0.004037380974268223
1.01370e-05	0.00407158980506904
1.01373e-05	0.004105798635869624
1.01375e-05	0.00414000746667044
1.01378e-05	0.004174216297471257
1.01380e-05	0.004208425128271842
1.01383e-05	0.004242633959072658
1.01385e-05	0.004254819560173657
1.01388e-05	0.0042652190628313024
1.01390e-05	0.004275618565489018
1.01393e-05	0.004286018068146734
1.01395e-05	0.004296417570804378
1.01398e-05	0.004306817073462094
1.01400e-05	0.004317216576119809
1.01403e-05	0.0043276160787774545
1.01405e-05	0.00433801558143517
1.01408e-05	0.004348415084092885
1.01410e-05	0.004348221952103154
1.01413e-05	0.004333696626134283
1.01415e-05	0.004319171300165412
1.01417e-05	0.0043046459741966385
1.01420e-05	0.004290120648227767
1.01423e-05	0.004275595322258896
1.01425e-05	0.004261069996290123
1.01428e-05	0.004246544670321251
1.01430e-05	0.00423201934435238
1.01432e-05	0.004217494018383607
1.01435e-05	0.004197255647088642
1.01438e-05	0.004169287331681008
1.01440e-05	0.004141319016273374
1.01443e-05	0.00411335070086593
1.01445e-05	0.004085382385458297
1.01448e-05	0.004057414070050663
1.01450e-05	0.004029445754643218
1.01453e-05	0.004001477439235584
1.01455e-05	0.0039735091238279506
1.01458e-05	0.003945540808420507
1.01460e-05	0.0039184281060826425
1.01463e-05	0.003892473077250663
1.01465e-05	0.0038665180484188594
1.01468e-05	0.00384056301958688
1.01470e-05	0.0038146079907549002
1.01473e-05	0.0037886529619230967
1.01475e-05	0.003762697933091117
1.01478e-05	0.003736742904259138
1.01480e-05	0.003710787875427334
1.01483e-05	0.003701443475524249
1.01485e-05	0.003693446208576013
1.01488e-05	0.0036854489416278313
1.01490e-05	0.0036774516746795956
1.01493e-05	0.0036694544077313595
1.01495e-05	0.003661457140783178
1.01498e-05	0.0036534598738349423
1.01500e-05	0.003645462606886706
1.01502e-05	0.0036491567725588474
1.01505e-05	0.003668669843142191
