Time(s)	Current(A)
8.25000e-06	-0.0004263370148322098
8.25025e-06	-0.0004044345779760293
8.25050e-06	-0.00038284841213021166
8.25075e-06	-0.00036203005415343727
8.25100e-06	-0.0003412116961766629
8.25125e-06	-0.0003206505075758591
8.25150e-06	-0.00030071364641595834
8.25175e-06	-0.0002807767852560575
8.25200e-06	-0.0002610461748470482
8.25225e-06	-0.00024181627725809114
8.25250e-06	-0.00022292117194623134
8.25275e-06	-0.00020483883839230577
8.25300e-06	-0.00018714123576048296
8.25325e-06	-0.00017037764042017515
8.25350e-06	-0.00015384597342759843
8.25375e-06	-0.00013805279341910936
8.25400e-06	-0.0001228941430505965
8.25425e-06	-0.00010848377676619397
8.25450e-06	-9.493543718140407e-05
8.25475e-06	-8.236444106082251e-05
8.25500e-06	-7.090505126998655e-05
8.25525e-06	-6.0736362500843005e-05
8.25550e-06	-5.203131746616204e-05
8.25575e-06	-4.487269123792805e-05
8.25600e-06	-3.927561208288531e-05
8.25625e-06	-3.524408526226574e-05
8.25650e-06	-3.2782093755462445e-05
8.25675e-06	-3.18946185179188e-05
8.25700e-06	-3.259849504833362e-05
8.25725e-06	-3.493863539108136e-05
8.25750e-06	-3.895610154718687e-05
8.25775e-06	-4.463545717812357e-05
8.25800e-06	-5.191889785179579e-05
8.25825e-06	-6.0741651478201504e-05
8.25850e-06	-7.103894369131156e-05
8.25875e-06	-8.27466146531773e-05
8.25900e-06	-9.580793705770096e-05
8.25925e-06	-0.0001101837789199544
8.25950e-06	-0.00012583259427880798
8.25975e-06	-0.00014267744635369756
8.26000e-06	-0.0001606148529865486
8.26025e-06	-0.00017965378120506474
8.26050e-06	-0.00019961956914698505
8.26075e-06	-0.0002200713146312364
8.26100e-06	-0.00024170281422841827
8.26125e-06	-0.0002633343138254536
8.26150e-06	-0.00028530879366194515
8.26175e-06	-0.00030811592308787315
8.26200e-06	-0.0003309230525136466
8.26225e-06	-0.00035373388109847284
8.26250e-06	-0.00037655369009320313
8.26275e-06	-0.0003993734990877788
8.26300e-06	-0.00042194059920745193
8.26325e-06	-0.0004438942005975753
8.26350e-06	-0.00046546810186491003
8.26375e-06	-0.0004861202090608387
8.26400e-06	-0.0005062191660546247
8.26425e-06	-0.0005249752460076615
8.26450e-06	-0.0005430008963280193
8.26475e-06	-0.0005592532901623122
8.26500e-06	-0.0005745808235154317
8.26525e-06	-0.0005876630826171363
8.26550e-06	-0.0005996724695975901
8.26575e-06	-0.0006090772559943617
8.26600e-06	-0.0006173742730783222
8.26625e-06	-0.0006229819700269141
8.26650e-06	-0.000627462572600019
8.26675e-06	-0.0006292069397822678
8.26700e-06	-0.0006297941381724772
8.26725e-06	-0.0006275720898209285
8.26750e-06	-0.0006241919386892515
8.26775e-06	-0.0006180002733825431
8.26800e-06	-0.0006107203676049616
8.26825e-06	-0.0006007985516601934
8.26850e-06	-0.0005898681389563532
8.26875e-06	-0.0005764891663030536
8.26900e-06	-0.0005621745243792495
8.26925e-06	-0.0005455883678172788
8.26950e-06	-0.0005283526140465005
8.26975e-06	-0.0005091498913125203
8.27000e-06	-0.0004886459696819462
8.27025e-06	-0.0004669622788263721
8.27050e-06	-0.0004442202520488511
8.27075e-06	-0.0004205410436834829
8.27100e-06	-0.00039604343085022475
8.27125e-06	-0.0003708421009032034
8.27150e-06	-0.0003450583649865905
8.27175e-06	-0.0003188327012326723
8.27200e-06	-0.00029231785401634966
8.27225e-06	-0.0002656684228846478
8.27250e-06	-0.00023903900738513227
8.27275e-06	-0.0002125840372493504
8.27300e-06	-0.00018645638368960764
8.27325e-06	-0.00016080634318436964
8.27350e-06	-0.0001357884107295115
8.27375e-06	-0.00011156903038274667
8.27400e-06	-8.861755531734877e-05
8.27425e-06	-7.208893075830802e-05
8.27450e-06	-4.93976287842121e-05
8.27475e-06	-3.105294374213152e-05
8.27500e-06	-0.05527582806851414
8.27525e-06	-0.026566385952548868
8.27550e-06	-0.009172081284344224
8.27575e-06	0.011583308874089173
8.27600e-06	0.02557859741559401
8.27625e-06	0.021354622844128122
8.27650e-06	0.008320163300636936
8.27675e-06	-0.008758216013267917
8.27700e-06	-0.020981451295436594
8.27725e-06	-0.01631911330938543
8.27750e-06	-0.004394152274077817
8.27775e-06	0.008370802712618473
8.27800e-06	0.01694014733152379
8.27825e-06	0.014175712411511112
8.27850e-06	0.005930865542324833
8.27875e-06	-0.004827711091004394
8.27900e-06	-0.01253489685999207
8.27925e-06	-0.009659829953251325
8.27950e-06	-0.0022330610785250304
8.27975e-06	0.005721088425341603
8.28000e-06	0.011047974703827828
8.28025e-06	0.009276506564357691
8.28050e-06	0.004073630029378054
8.28075e-06	-0.0027021214648179884
8.28100e-06	-0.00756477012280218
8.28125e-06	-0.005797362026880128
8.28150e-06	-0.0011778294367697664
8.28175e-06	0.0037728881629138554
8.28200e-06	0.007078824073220937
8.28225e-06	0.005939611254372233
8.28250e-06	0.0026525633042488485
8.28275e-06	-0.001617949197245149
8.28300e-06	-0.004688279063146138
8.28325e-06	-0.0036039301431614818
8.28350e-06	-0.0007316174963225379
8.28375e-06	0.0023495040100145904
8.28400e-06	0.0044017798551735906
8.28425e-06	0.003671290067609173
8.28450e-06	0.0015973106757868195
8.28475e-06	-0.0010906595608391333
8.28500e-06	-0.0030248081480862936
8.28525e-06	-0.0023548048167968127
8.28550e-06	-0.0005636629466055392
8.28575e-06	0.001359160534545921
8.28600e-06	0.0026383441921622214
8.28625e-06	0.0021752926819483716
8.28650e-06	0.000871633842854432
8.28675e-06	-0.000815668809048543
8.28700e-06	-0.0020298726864323713
8.28725e-06	-0.0016120779869973506
8.28750e-06	-0.0004913965815602234
8.28775e-06	0.0007122938588971829
8.28800e-06	0.001513301036425679
8.28825e-06	0.0012234885087863997
8.28850e-06	0.00040766330545161886
8.28875e-06	-0.0006479434101952937
8.28900e-06	-0.0014067162204365563
8.28925e-06	-0.0011428261356403607
8.28950e-06	-0.00043837807136671723
8.28975e-06	0.0003182717523990664
8.29000e-06	0.0008228526750602224
8.29025e-06	0.0006443173924837045
8.29050e-06	0.0001364644099600141
8.29075e-06	-0.0005214311026108764
8.29100e-06	-0.0009932769998053591
8.29125e-06	-0.0008244937666627959
8.29150e-06	-0.00037979367622758176
8.29175e-06	9.750297175450023e-05
8.29200e-06	0.00041676705897597185
8.29225e-06	0.0003079780016355485
8.29250e-06	-7.2558834942140375e-06
8.29275e-06	-0.00041666248134887156
8.29300e-06	-0.0007097542586366638
8.29325e-06	-0.0006018457293661586
8.29350e-06	-0.00032145714002501544
8.29375e-06	-2.105126050146804e-05
8.29400e-06	0.00017992739597042268
8.29425e-06	0.00011231700358904688
8.29450e-06	-8.508701422752436e-05
8.29475e-06	-0.0003419884046242424
8.29500e-06	-0.0005265990360017278
8.29525e-06	-0.00046071981487131496
8.29550e-06	-0.0002876286508727143
8.29575e-06	-0.00010286523191513031
8.29600e-06	1.878900169845213e-05
8.29625e-06	-2.8570357712922054e-05
8.29650e-06	-0.00015794270413785596
8.29675e-06	-0.0003252410891996552
8.29700e-06	-0.00044786579897754865
8.29725e-06	-0.0004141541305188343
8.29750e-06	-0.00031381708247425294
8.29775e-06	-0.00020665549073011722
8.29800e-06	-0.00013946236001909554
8.29825e-06	-0.00017852076433369155
8.29850e-06	-0.00026927773549209356
8.29875e-06	-0.0003840650546122158
8.29900e-06	-0.0004710936702224527
8.29925e-06	-0.0004603750100728075
8.29950e-06	-0.00040806130106402856
8.29975e-06	-0.00035156473811411487
8.30000e-06	-0.000320146292800669
8.30025e-06	-0.000355272201665314
8.30050e-06	-0.00042271679240626876
8.30075e-06	-0.0005050972249261993
8.30100e-06	-0.0005699236594465726
8.30125e-06	-0.0005733095447208552
8.30150e-06	-0.0005503830697324884
8.30175e-06	-0.0005245309426245945
8.30200e-06	-0.0005140321371379737
8.30225e-06	-0.0005448087645653345
8.30250e-06	-0.0005953694761837134
8.30275e-06	-0.000654774685521266
8.30300e-06	-0.0007026231442713806
8.30325e-06	-0.0007113769024483719
8.30350e-06	-0.0007029929797209881
8.30375e-06	-0.0006920718388346895
8.30400e-06	-0.000690013137139433
8.30425e-06	-0.0007130031019257125
8.30450e-06	-0.0007475278590256263
8.30475e-06	-0.0007866789441894307
8.30500e-06	-0.0008175558322621249
8.30525e-06	-0.0008226139863507283
8.30550e-06	-0.0008152633740004278
8.30575e-06	-0.0008045261191715979
8.30600e-06	-0.0007976090273969841
8.30625e-06	-0.0008047499729643999
8.30650e-06	-0.0008175828421282043
8.30675e-06	-0.000831879600679541
8.30700e-06	-0.0008396592786775859
8.30725e-06	-0.000830032907557607
8.30750e-06	-0.0008115013888715885
8.30775e-06	-0.0007898163728511368
8.30800e-06	-0.0007695919503316522
8.30825e-06	-0.0007573404577489766
8.30850e-06	-0.0007479205142608643
8.30875e-06	-0.0007387831650744102
8.30900e-06	-0.000725029071572421
8.30925e-06	-0.0006999377175681637
8.30950e-06	-0.0006689345273344803
8.30975e-06	-0.0006357223428903508
8.31000e-06	-0.0006032911192507123
8.31025e-06	-0.0005758195200898479
8.31050e-06	-0.0005501863152690854
8.31075e-06	-0.0005248943640951111
8.31100e-06	-0.0004969744691833434
8.31125e-06	-0.00046231694610804146
8.31150e-06	-0.00042442030588084605
8.31175e-06	-0.0003857038279096656
8.31200e-06	-0.00034813998789443815
8.31225e-06	-0.0003144456688925968
8.31250e-06	-0.0002827650684370232
8.31275e-06	-0.0002522598424211155
8.31300e-06	-0.00022116965343336854
8.31325e-06	-0.0001870199582997245
8.31350e-06	-0.0001521019904195144
8.31375e-06	-0.00011803078355748201
8.31400e-06	-8.614133856392807e-05
8.31425e-06	-5.8234828258679895e-05
8.31450e-06	-3.324806017333598e-05
8.31475e-06	-1.0746030381291516e-05
8.31500e-06	1.0409839616938788e-05
8.31525e-06	3.217144733887795e-05
8.31550e-06	5.372190736195638e-05
8.31575e-06	7.440560750690026e-05
8.31600e-06	9.345714870315662e-05
8.31625e-06	0.00010976371588597338
8.31650e-06	0.00012400674262616794
8.31675e-06	0.00013647412432074162
8.31700e-06	0.0001478944354324516
8.31725e-06	0.00015950563361611622
8.31750e-06	0.0001708112568427302
8.31775e-06	0.00018141593917352208
8.31800e-06	0.0001908555751142117
8.31825e-06	0.0001984484937160623
8.31850e-06	0.0002046369432140452
8.31875e-06	0.00020961665743743886
8.31900e-06	0.00021385935812276148
8.31925e-06	0.00021815578427961406
8.31950e-06	0.00022213148480626794
8.31975e-06	0.0002256021529680215
8.32000e-06	0.00022862085102818715
8.32025e-06	0.00023028996792476508
8.32050e-06	0.0002309935548423046
8.32075e-06	0.0002309285005052764
8.32100e-06	0.00023080836785917345
8.32125e-06	0.00023054786939897537
8.32150e-06	0.00023009467139247246
8.32175e-06	0.00022923084060068224
8.32200e-06	0.00022836700980889202
8.32225e-06	0.00022721566685245304
8.32250e-06	0.0002252553425697102
8.32275e-06	0.00022300377808344752
8.32300e-06	0.00022075221359720007
8.32325e-06	0.00021857832381448118
8.32350e-06	0.00021660963867519952
8.32375e-06	0.00021468772842589485
8.32400e-06	0.00021276581817657715
8.32425e-06	0.00021080606148852205
8.32450e-06	0.00020883933093167879
8.32475e-06	0.0002070720929893354
8.32500e-06	0.00020530485504698
8.32525e-06	0.0002037645225955608
8.32550e-06	0.00020276646493771477
8.32575e-06	0.00020188461812622552
8.32600e-06	0.0002012805002161569
8.32625e-06	0.00020067638230609238
8.32650e-06	0.00020023086771824662
8.32675e-06	0.00020016439456948328
8.32700e-06	0.00020009792142072042
8.32725e-06	0.00020028997426283925
8.32750e-06	0.0002010998708061545
8.32775e-06	0.00020190976734946425
8.32800e-06	0.00020286475788655687
8.32825e-06	0.00020416650431394885
8.32850e-06	0.00020546825074133199
8.32875e-06	0.00020695071538038117
8.32900e-06	0.00020886507318569532
8.32925e-06	0.00021077943099099652
8.32950e-06	0.0002128567206556074
8.32975e-06	0.00021532339640341423
8.33000e-06	0.00021779007215120432
8.33025e-06	0.00022034034518600553
8.33050e-06	0.00022309040493096957
8.33075e-06	0.00022584046467591498
8.33100e-06	0.0002286873305428348
8.33125e-06	0.00023176555052811375
8.33150e-06	0.00023484377051337182
8.33175e-06	0.0002379479273790039
8.33200e-06	0.00024111407003609263
8.33225e-06	0.0002442802126931599
8.33250e-06	0.00024742186513137886
8.33275e-06	0.0002505049891120898
8.33300e-06	0.0002535881130928007
8.33325e-06	0.00025662112334604476
8.33350e-06	0.00025953436826837967
8.33375e-06	0.00026244761319071464
8.33400e-06	0.00026528325066280724
8.33425e-06	0.00026788430713970833
8.33450e-06	0.00027031460552788604
8.33475e-06	0.0002725396187354855
8.33500e-06	0.00027427424760932575
8.33525e-06	0.0002745299671381851
8.33550e-06	0.0002719833497038798
8.33575e-06	0.0002660187592068616
8.33600e-06	0.0002566845001744381
8.33625e-06	0.00024414828719589355
8.33650e-06	0.00022859455046116936
8.33675e-06	0.00021019179715026039
8.33700e-06	0.00018895157556949986
8.33725e-06	0.00016444486938194745
8.33750e-06	0.00013603287164755385
8.33775e-06	0.00010352027755581984
8.33800e-06	6.71275994056989e-05
8.33825e-06	2.715017964761468e-05
8.33850e-06	-1.6106210407362328e-05
8.33875e-06	-6.23457828169323e-05
8.33900e-06	-0.00011137108617371661
8.33925e-06	-0.00016326063342550089
8.33950e-06	-0.00021822431583542706
8.33975e-06	-0.00027619422762037573
8.34000e-06	-0.0003368419638486327
8.34025e-06	-0.000400036083162103
8.34050e-06	-0.00046524612568346054
8.34075e-06	-0.0005312415980702845
8.34100e-06	-0.0005991141463133154
8.34125e-06	-0.0006676018648147775
8.34150e-06	-0.0007375597607176943
8.34175e-06	-0.0008078236190845373
8.34200e-06	-0.0008788186881934407
8.34225e-06	-0.0009496224974931725
8.34250e-06	-0.0010199692205705147
8.34275e-06	-0.001089640872160476
8.34300e-06	-0.0011576991901533122
8.34325e-06	-0.0012247516448462355
8.34350e-06	-0.0012894002162704217
8.34375e-06	-0.0013526251182563991
8.34400e-06	-0.0014124476343061834
8.34425e-06	-0.00147031091567623
8.34450e-06	-0.0015234918794085322
8.34475e-06	-0.0015737296668760148
8.34500e-06	-0.001616933643502212
8.34525e-06	-0.0016601376201284097
8.34550e-06	-0.0017004179382571025
8.34575e-06	-0.0017337110904851003
8.34600e-06	-0.001767004242713098
8.34625e-06	-0.0017971858507471177
8.34650e-06	-0.0018199312703512005
8.34675e-06	-0.0018426766899552836
8.34700e-06	-0.001862713781830182
8.34725e-06	-0.0018762783205064737
8.34750e-06	-0.0018880955840201628
8.34775e-06	-0.0018957370857448567
8.34800e-06	-0.0019016820184358542
8.34825e-06	-0.0019035723704316865
8.34850e-06	-0.001903733459702811
8.34875e-06	-0.00189976183458335
8.34900e-06	-0.001894191481108156
8.34925e-06	-0.001884800373511731
8.34950e-06	-0.001874457852035006
8.34975e-06	-0.001861271838718948
8.35000e-06	-0.001846176405481565
8.35025e-06	-0.0018292454475347362
8.35050e-06	-0.0018105521633380198
8.35075e-06	-0.001790173265896018
8.35100e-06	-0.0017682284751369805
8.35125e-06	-0.0017449655811501712
8.35150e-06	-0.0017207153462806368
8.35175e-06	-0.0016957278811247731
8.35200e-06	-0.0016701598924366225
8.35225e-06	-0.0016441497561277497
8.35250e-06	-0.0016178353288925054
8.35275e-06	-0.0015913566501916056
8.35300e-06	-0.0015648806855231958
8.35325e-06	-0.0015386546704483585
8.35350e-06	-0.0015129776277535152
8.35375e-06	-0.0014880983244441061
8.35400e-06	-0.001464397348523546
8.35425e-06	-0.00144193699123751
8.35450e-06	-0.0014201009048694902
8.35475e-06	-0.0014002304947434052
8.35500e-06	-0.001381866304487568
8.35525e-06	-0.001364521356608452
8.35550e-06	-0.0013474552466972377
8.35575e-06	-0.0013303295785768272
8.35600e-06	-0.0013132524357570073
8.35625e-06	-0.0012963473594210064
8.35650e-06	-0.0012796787456993534
8.35675e-06	-0.0012635752470616772
8.35700e-06	-0.001247632194772922
8.35725e-06	-0.0012320725885188212
8.35750e-06	-0.0012162758957685559
8.35775e-06	-0.00119991259693778
8.35800e-06	-0.0011835492981068932
8.35825e-06	-0.0011670991537976081
8.35850e-06	-0.0011504414600204877
8.35875e-06	-0.0011337837662432544
8.35900e-06	-0.001117126072466021
8.35925e-06	-0.0011003175309603791
8.35950e-06	-0.0010831484828821374
8.35975e-06	-0.0010659794348037792
8.36000e-06	-0.001048810386725421
8.36025e-06	-0.0010315472527067707
8.36050e-06	-0.001014059265451714
8.36075e-06	-0.0009965712781966572
8.36100e-06	-0.000979170451222806
8.36125e-06	-0.0009619779260545461
8.36150e-06	-0.0009447854008862862
8.36175e-06	-0.0009276611879032457
8.36200e-06	-0.0009107002322126532
8.36225e-06	-0.0008937392765220606
8.36250e-06	-0.0008770255754548007
8.36275e-06	-0.0008609027809775316
8.36300e-06	-0.0008450638755718038
8.36325e-06	-0.0008299034283525198
8.36350e-06	-0.0008151126081499299
8.36375e-06	-0.0008012051487406433
8.36400e-06	-0.000787297689331451
8.36425e-06	-0.0007739139614443223
8.36450e-06	-0.0007617818841992805
8.36475e-06	-0.0007500444235815015
8.36500e-06	-0.0007394280752060273
8.36525e-06	-0.0007292065096712583
8.36550e-06	-0.0007186860269735482
8.36575e-06	-0.0007076264258808372
8.36600e-06	-0.0006963114482553668
8.36625e-06	-0.000684386153725801
8.36650e-06	-0.0006724608591961544
8.36675e-06	-0.0006604241674396638
8.36700e-06	-0.0006481212507099243
8.36725e-06	-0.0006352630649515104
8.36750e-06	-0.0006210778579868984
8.36775e-06	-0.0006068926510222864
8.36800e-06	-0.0005927074440577704
8.36825e-06	-0.0005778839116659333
8.36850e-06	-0.0005615348640106936
8.36875e-06	-0.0005451858163555648
8.36900e-06	-0.000528836768700325
8.36925e-06	-0.0005119905989363619
8.36950e-06	-0.0004939563715888618
8.36975e-06	-0.00047592214424123944
8.37000e-06	-0.00045754221488180367
8.37025e-06	-0.00043833610239841744
8.37050e-06	-0.00041901566073023074
8.37075e-06	-0.0003994219870884373
8.37100e-06	-0.0003797783800154676
8.37125e-06	-0.0003600154384957378
8.37150e-06	-0.0003401830185900264
8.37175e-06	-0.00032018455432246103
8.37200e-06	-0.0003002330443078246
8.37225e-06	-0.0002803937488888916
8.37250e-06	-0.00026068036023936986
8.37275e-06	-0.00024139859574461394
8.37300e-06	-0.00022265131404476958
8.37325e-06	-0.00020443475362477847
8.37350e-06	-0.00018654920823973776
8.37375e-06	-0.00016945474600288258
8.37400e-06	-0.00015268676778876605
8.37425e-06	-0.00013696560337166368
8.37450e-06	-0.00012218470033556188
8.37475e-06	-0.00010847444063982609
8.37500e-06	-9.604319196949504e-05
8.37525e-06	-8.530667896031576e-05
8.37550e-06	-7.674364903688564e-05
8.37575e-06	-7.057875513683948e-05
8.37600e-06	-6.681556856873959e-05
8.37625e-06	-6.541824665578941e-05
8.37650e-06	-6.635092191013204e-05
8.37675e-06	-6.958153499841155e-05
8.37700e-06	-7.51268537304228e-05
8.37725e-06	-8.313352872731825e-05
8.37750e-06	-9.378768176481754e-05
8.37775e-06	-0.00010711623892446303
8.37800e-06	-0.0001230076538231039
8.37825e-06	-0.0001413256806986852
8.37850e-06	-0.00016193406101924028
8.37875e-06	-0.00018469895595338244
8.37900e-06	-0.00020951710386991925
8.37925e-06	-0.00023636660183874418
8.37950e-06	-0.00026525026234591883
8.37975e-06	-0.00029607116981644375
8.38000e-06	-0.0003288542990497804
8.38025e-06	-0.00036327326019918756
8.38050e-06	-0.0003985466030208738
8.38075e-06	-0.00043586180760522397
8.38100e-06	-0.0004731770121893213
8.38125e-06	-0.0005110905708438198
8.38150e-06	-0.0005504341183854679
8.38175e-06	-0.0005900159830152194
8.38200e-06	-0.0006301673946826856
8.38225e-06	-0.0006702778447956949
8.38250e-06	-0.0007102904020877809
8.38275e-06	-0.0007499875614206972
8.38300e-06	-0.0007889309603973957
8.38325e-06	-0.000827327469820859
8.38350e-06	-0.000864416983901294
8.38375e-06	-0.000900690057189255
8.38400e-06	-0.0009350119425121743
8.38425e-06	-0.0009682085054992549
8.38450e-06	-0.0009987156935567817
8.38475e-06	-0.0010278005772765358
8.38500e-06	-0.0010534863374689347
8.38525e-06	-0.0010775947816143458
8.38550e-06	-0.0010979336442830687
8.38575e-06	-0.0011166442958940915
8.38600e-06	-0.0011314637335320167
8.38625e-06	-0.0011445888172040887
8.38650e-06	-0.0011536646139013466
8.38675e-06	-0.0011609869195154084
8.38700e-06	-0.0011641186080878854
8.38725e-06	-0.0011651157283278876
8.38750e-06	-0.0011610115061568699
8.38775e-06	-0.001156907283985852
8.38800e-06	-0.0011508028054836323
8.38825e-06	-0.001139917972892777
8.38850e-06	-0.0011275323556520446
8.38875e-06	-0.0011115600570821755
8.38900e-06	-0.0010945243206625526
8.38925e-06	-0.0010742918233919855
8.38950e-06	-0.001051886599454712
8.38975e-06	-0.0010274708008723842
8.39000e-06	-0.0010011993939130286
8.39025e-06	-0.0009732247967931553
8.39050e-06	-0.0009436992912298927
8.39075e-06	-0.0009127756149953143
8.39100e-06	-0.0008806123032874883
8.39125e-06	-0.0008473887849009025
8.39150e-06	-0.0008133083849794224
8.39175e-06	-0.0007785801496633455
8.39200e-06	-0.0007434084748704068
8.39225e-06	-0.000707996156091463
8.39250e-06	-0.0006725459544752643
8.39275e-06	-0.000637260823833528
