Time(s)	Current(A)
0.00000e+00	2.023719340596003e-20
2.50000e-10	-8.248030083253651e-15
5.00000e-10	4.415596450244447e-15
7.50000e-10	-4.4122635065712084e-07
1.00000e-09	-2.9180113745278627e-06
1.25000e-09	-8.529059822062867e-06
1.50000e-09	-1.5996518647372653e-05
1.75000e-09	-2.3628889063824187e-05
2.00000e-09	-3.0936369702454214e-05
2.25000e-09	-3.7875459961075865e-05
2.50000e-09	-4.440265733090989e-05
2.75000e-09	-5.075082939235475e-05
3.00000e-09	-5.7875097496271226e-05
3.25000e-09	-6.642004076191295e-05
3.50000e-09	-7.554158392024084e-05
3.75000e-09	-8.413661749187649e-05
4.00000e-09	-9.185485143560989e-05
4.25000e-09	-9.862556294982971e-05
4.50000e-09	-0.0001043780374960852
4.75000e-09	-0.00010918433422620028
5.00000e-09	-0.00011346578701913607
5.25000e-09	-0.000117397568972721
5.50000e-09	-0.00012034457790481086
5.75000e-09	-0.00012164932775855066
6.00000e-09	-0.00012116603288977959
6.25000e-09	-0.0001189253787661435
6.50000e-09	-0.00011495805036168676
6.75000e-09	-0.00010938415592573113
7.00000e-09	-0.00010254257064527318
7.25000e-09	-9.461796535520111e-05
7.50000e-09	-8.52874628012751e-05
7.75000e-09	-7.421419253575155e-05
8.00000e-09	-6.138183710845544e-05
8.25000e-09	-4.688461515531827e-05
8.50000e-09	-3.0816740543900085e-05
8.75000e-09	-1.332843796243721e-05
9.00000e-09	5.293046429555089e-06
9.25000e-09	2.4857085642391876e-05
9.50000e-09	4.549097966251969e-05
9.75000e-09	6.733077431339288e-05
1.00000e-08	9.031170967593711e-05
1.02500e-08	0.0001142998058766546
1.05000e-08	0.00013938395606201835
1.07500e-08	0.00016482695392879403
1.10000e-08	0.00019090158766228604
1.12500e-08	0.00021726095601078024
1.15000e-08	0.00024362032435927422
1.17500e-08	0.0002703390849650612
1.20000e-08	0.0002972198557121454
1.22500e-08	0.0003241006264592294
1.25000e-08	0.00035098139720631357
1.27500e-08	0.0003767013210824524
1.30000e-08	0.0004018979477484544
1.32500e-08	0.00042709457441445636
1.35000e-08	0.0004522912010804581
1.37500e-08	0.00047561307612351065
1.40000e-08	0.000498089833418009
1.42500e-08	0.0005187871975743706
1.45000e-08	0.0005386824305554415
1.47500e-08	0.0005561416138373959
1.50000e-08	0.0005725026522707837
1.52500e-08	0.0005854257500179923
1.55000e-08	0.0005967990612991965
1.57500e-08	0.0006045854812789411
1.60000e-08	0.0006107549694668204
1.62500e-08	0.0006133735953505523
1.65000e-08	0.0006143915309246071
1.67500e-08	0.0006117675086060985
1.70000e-08	0.0006075017310722246
1.72500e-08	0.0005992866257700533
1.75000e-08	0.0005892912062379926
1.77500e-08	0.0005755735058149064
1.80000e-08	0.0005601778414377681
1.82500e-08	0.0005414027333433605
1.85000e-08	0.0005211042085836507
1.87500e-08	0.0004976893962240106
1.90000e-08	0.00047286979512966036
1.92500e-08	0.0004450616428721204
1.95000e-08	0.0004159062840835627
1.97500e-08	0.00038422480310260787
2.00000e-08	0.0003514045735676168
2.02500e-08	0.00031659314011045644
2.05000e-08	0.0002808840934681604
2.07500e-08	0.00024366877996746358
2.10000e-08	0.000205774457663408
2.12500e-08	0.00016677392878987148
2.15000e-08	0.0001272747339629407
2.17500e-08	8.729145465152078e-05
2.20000e-08	4.7089955291838576e-05
2.22500e-08	6.888455932156374e-06
2.25000e-08	-3.304618634692914e-05
2.27500e-08	-7.246415763078213e-05
2.30000e-08	-0.00011117413666810289
2.32500e-08	-0.0001489784548815655
2.35000e-08	-0.0001856409080662714
2.37500e-08	-0.0002208959526421996
2.40000e-08	-0.000254477455812411
2.42500e-08	-0.00028612166962216427
2.45000e-08	-0.00031556488525089435
2.47500e-08	-0.0003425468679115878
2.50000e-08	-0.0003668381711829117
2.52500e-08	-0.0003882788950366251
2.55000e-08	-0.0004067770592720234
2.57500e-08	-0.0004222756539281783
2.60000e-08	-0.0004347285463885157
2.62500e-08	-0.00044409133522530636
2.65000e-08	-0.00045031971733985947
2.67500e-08	-0.0004533715121176985
2.70000e-08	-0.00045322387508281214
2.72500e-08	-0.00044989750095041607
2.75000e-08	-0.00044345567401235584
2.77500e-08	-0.00043398350459804963
2.80000e-08	-0.0004215729835547202
2.82500e-08	-0.00040631719397531
2.85000e-08	-0.00038830920990961946
2.87500e-08	-0.000367643489594985
2.90000e-08	-0.00034442656989888633
2.92500e-08	-0.0003187922782625022
2.95000e-08	-0.0002909010670839282
2.97500e-08	-0.00026092709332160933
3.00000e-08	-0.00022904882284673536
3.02500e-08	-0.0001954453641663057
3.05000e-08	-0.0001602958077010356
3.07500e-08	-0.0001237801064812644
3.10000e-08	-8.608578913422522e-05
3.12500e-08	-4.7417448314859876e-05
3.15000e-08	-7.996345106434267e-06
3.17500e-08	3.2022838318669785e-05
3.20000e-08	7.221602489677778e-05
3.22500e-08	0.0001123887716857083
3.25000e-08	0.0001525523050985597
3.27500e-08	0.00019205002926110814
3.30000e-08	0.0002312476138170592
3.32500e-08	0.00026909897067569244
3.35000e-08	0.0003063434626533096
3.37500e-08	0.00034212653344262096
3.40000e-08	0.0003760318436695267
3.42500e-08	0.0004079850130747471
3.45000e-08	0.0004369674817284169
3.47500e-08	0.00046489582302491835
3.50000e-08	0.0004919036394886429
3.52500e-08	0.0005184964933169763
3.55000e-08	0.0005476397929230315
3.57500e-08	0.0005779328058922274
3.60000e-08	0.0006082258188614241
3.62500e-08	0.0006401991151351155
3.65000e-08	0.0006729298649433673
3.67500e-08	0.0007066202378671141
3.70000e-08	0.0007407431985090942
3.72500e-08	0.0007777336942083154
3.75000e-08	0.0008160168436872734
3.77500e-08	0.0008579473273234281
3.80000e-08	0.0009015219897368762
3.82500e-08	0.0009450966521503243
3.85000e-08	0.000991467787973939
3.87500e-08	0.0010390995437556095
3.90000e-08	0.0010867312995372811
3.92500e-08	0.001137759650925255
3.95000e-08	0.0011903191508645379
3.97500e-08	0.0012428786508038206
4.00000e-08	0.001298373960835357
4.02500e-08	0.0013551927022937404
4.05000e-08	0.0014120114437521252
4.07500e-08	0.0014688301852105086
4.10000e-08	0.001525648926668892
4.12500e-08	0.0015826112488049472
4.15000e-08	0.0016401885525003553
4.17500e-08	0.0016977658561957631
4.20000e-08	0.0017553431598911725
4.22500e-08	0.0018129204635865806
4.25000e-08	0.0018704977672819884
4.27500e-08	0.0019247200196099367
4.30000e-08	0.0019774298510799775
4.32500e-08	0.0020301396825500185
4.35000e-08	0.0020828495140200604
4.37500e-08	0.0021293265873131816
4.40000e-08	0.0021723224646529667
4.42500e-08	0.0022153183419927522
4.45000e-08	0.0022583142193325374
4.47500e-08	0.002284681252958759
4.50000e-08	0.0022996814399357363
4.52500e-08	0.002314681626912713
4.55000e-08	0.0023296818138896897
4.57500e-08	0.0023446820008666664
4.60000e-08	0.002359682187843643
4.62500e-08	0.0023746823748206193
4.65000e-08	0.0023896825617975965
4.67500e-08	0.002404682748774573
4.70000e-08	0.00241968293575155
4.72500e-08	0.0023883858836045314
4.75000e-08	0.0023568083730781276
4.77500e-08	0.002325230862551724
4.80000e-08	0.002293653352025319
4.82500e-08	0.0022620758414989154
4.85000e-08	0.0022304983309725116
4.87500e-08	0.002198920820446108
4.90000e-08	0.002167343309919704
4.92500e-08	0.0021357657993933002
4.95000e-08	0.002094271282592432
4.97500e-08	0.002037522344466562
5.00000e-08	0.001980773406340693
5.02500e-08	0.0019203086046804727
5.05000e-08	0.0018541280309041085
5.07500e-08	0.001787947457127744
5.10000e-08	0.00172176688335138
5.12500e-08	0.0016555863095750138
5.15000e-08	0.0015874713544590637
5.17500e-08	0.0015163809179185197
5.20000e-08	0.0014452904813779758
5.22500e-08	0.0013742000448374316
5.25000e-08	0.0013031096082968877
5.27500e-08	0.0012331046410216642
5.30000e-08	0.0011647693515756481
5.32500e-08	0.001096434062129632
5.35000e-08	0.0010300040304129703
5.37500e-08	0.0009665046819420291
5.40000e-08	0.000905363387318041
5.42500e-08	0.000847849270684356
5.45000e-08	0.0007932653298651708
5.47500e-08	0.0007431886097932143
5.50000e-08	0.0006945925316498508
5.52500e-08	0.0006482739892047723
5.55000e-08	0.0006020382906993986
5.57500e-08	0.0005559300234293688
5.60000e-08	0.0005103681821727151
5.62500e-08	0.0004656468579431022
5.65000e-08	0.00042200938470319166
5.67500e-08	0.00038003910004750173
5.70000e-08	0.00033806881539181176
5.72500e-08	0.00029604947080978883
5.75000e-08	0.0002540243079713892
5.77500e-08	0.00021154003605874914
5.80000e-08	0.00016834955875924516
5.82500e-08	0.00012519190371266923
5.85000e-08	8.22614789433636e-05
5.87500e-08	3.977639206240604e-05
5.90000e-08	-2.486757646035651e-06
5.92500e-08	-4.5069920557976064e-05
5.95000e-08	-8.835511235688164e-05
5.97500e-08	-0.00013212639297293725
6.00000e-08	-0.00017589723309238242
6.02500e-08	-0.0002196673956362829
6.05000e-08	-0.0002634375581801857
6.07500e-08	-0.0003068103526486374
6.10000e-08	-0.0003495719122467853
6.12500e-08	-0.00039233347184493316
6.15000e-08	-0.0004348924144681477
6.17500e-08	-0.00047713968997957143
6.20000e-08	-0.000519386965490993
6.22500e-08	-0.000560719246410049
6.25000e-08	-0.0006006440750561326
6.27500e-08	-0.0006405689037022142
6.30000e-08	-0.0006792508936141949
6.32500e-08	-0.0007160211386745176
6.35000e-08	-0.0007527913837348422
6.37500e-08	-0.0007883285669836811
6.40000e-08	-0.0008219690443243495
6.42500e-08	-0.0008542180760003656
6.45000e-08	-0.0008843267744112773
6.47500e-08	-0.0009123604069934975
6.50000e-08	-0.000937202156102824
6.52500e-08	-0.0009587600173074127
6.55000e-08	-0.0009752665748930834
6.57500e-08	-0.0009882808562335051
6.60000e-08	-0.0009959232892808
6.62500e-08	-0.0010001864463632306
6.65000e-08	-0.0009992515731212994
6.67500e-08	-0.0009948452120164969
6.70000e-08	-0.0009850989794808066
6.72500e-08	-0.0009724329022572192
6.75000e-08	-0.0009524085679479553
6.77500e-08	-0.0009279743015688523
6.80000e-08	-0.0009008766111279603
6.82500e-08	-0.000868041950484796
6.85000e-08	-0.0008311466859908822
6.87500e-08	-0.00078965338883062
6.90000e-08	-0.0007447260094813734
6.92500e-08	-0.0006975595046370985
6.95000e-08	-0.0006455689051338542
6.97500e-08	-0.0005896817052507689
7.00000e-08	-0.0005310655720768412
7.02500e-08	-0.00047097064304688936
7.05000e-08	-0.0004078124583196942
7.07500e-08	-0.0003427715701196415
7.10000e-08	-0.00027610317163609274
7.12500e-08	-0.00020801010788356093
7.15000e-08	-0.00013869672532839349
7.17500e-08	-6.870315540529437e-05
7.20000e-08	1.379573516304219e-06
7.22500e-08	7.142360990852772e-05
7.25000e-08	0.00014084464464833406
7.27500e-08	0.0002092125684938793
7.30000e-08	0.0002761545319799705
7.32500e-08	0.0003413305085712558
7.35000e-08	0.00040434406238056214
7.37500e-08	0.00046472500980305874
7.40000e-08	0.0005219797948631352
7.42500e-08	0.0005756150317893537
7.45000e-08	0.0006251373524478064
7.47500e-08	0.0006701145040262046
7.50000e-08	0.0007103414342227024
7.52500e-08	0.0007458648655372755
7.55000e-08	0.0007767411438046179
7.57500e-08	0.0008028934418030191
7.60000e-08	0.0008241880212602811
7.62500e-08	0.0008404912250444413
7.65000e-08	0.0008516695124388595
7.67500e-08	0.0008576275730876275
7.70000e-08	0.0008584123606879568
7.72500e-08	0.0008542286791727795
7.75000e-08	0.0008452872910515364
7.77500e-08	0.0008317155488410249
7.80000e-08	0.0008136051172646798
7.82500e-08	0.0007910477315961027
7.85000e-08	0.0007641351500414693
7.87500e-08	0.0007329831306265383
7.90000e-08	0.0006977966030497003
7.92500e-08	0.0006588792596700307
7.95000e-08	0.0006165384733011771
7.97500e-08	0.0005710294160564831
8.00000e-08	0.0005225849291696816
8.02500e-08	0.0004714378679694294
8.05000e-08	0.00041782101548179935
8.07500e-08	0.00036198223553183807
8.10000e-08	0.000304225197228066
8.12500e-08	0.0002449154555273447
8.15000e-08	0.0001842917711201134
8.17500e-08	0.0001228778940003408
8.20000e-08	6.120070214805844e-05
8.22500e-08	-8.815226102801862e-07
8.25000e-08	-6.284501813395161e-05
8.27500e-08	-0.0001243687215639774
8.30000e-08	-0.0001850832935847545
8.32500e-08	-0.00024458466493482644
8.35000e-08	-0.0003024673112982069
8.37500e-08	-0.0003583462843801302
8.40000e-08	-0.0004118454727320823
8.42500e-08	-0.00046258873844923774
8.45000e-08	-0.000510199989491936
8.47500e-08	-0.0005542966112543626
8.50000e-08	-0.0005944967978507253
8.52500e-08	-0.0006304913363453407
8.55000e-08	-0.0006621093289978075
8.57500e-08	-0.0006892752448788589
8.60000e-08	-0.0007119358821864187
8.62500e-08	-0.000730037970320679
8.65000e-08	-0.0007435282475194728
8.67500e-08	-0.0007523494546667677
8.70000e-08	-0.0007564448382202195
8.72500e-08	-0.0007558030864339163
8.75000e-08	-0.0007504995145053236
8.77500e-08	-0.0007406692956239861
8.80000e-08	-0.0007264614167168334
8.82500e-08	-0.0007080249828785485
8.85000e-08	-0.000685509018063573
8.87500e-08	-0.0006590599989577104
8.90000e-08	-0.000628824766267142
8.92500e-08	-0.0005949785731057975
8.95000e-08	-0.0005577510719145649
8.97500e-08	-0.0005174092212301613
9.00000e-08	-0.000474228692534675
9.02500e-08	-0.00042848515731019454
9.05000e-08	-0.00038045427557251203
9.07500e-08	-0.0003304101073519742
9.10000e-08	-0.00027862691594475193
9.12500e-08	-0.00022521720153977342
9.15000e-08	-0.00017076942082726575
9.17500e-08	-0.0001158831864139434
9.20000e-08	-6.032251888051887e-05
9.22500e-08	-4.782518671553209e-06
9.25000e-08	5.052554600985421e-05
9.27500e-08	0.00010518681999893043
9.30000e-08	0.00015884742568472048
9.32500e-08	0.00021114235409973705
9.35000e-08	0.00026168535383213335
9.37500e-08	0.0003100755096958848
9.40000e-08	0.0003559085456771593
9.42500e-08	0.00039878025014102774
9.45000e-08	0.00043828707120230847
9.47500e-08	0.00047420497480147065
9.50000e-08	0.0005069134883013465
9.52500e-08	0.0005372885504959069
9.55000e-08	0.0005658964713394248
9.57500e-08	0.0005922911197914001
9.60000e-08	0.0006168649390375432
9.62500e-08	0.000639561107556718
9.65000e-08	0.0006593690581502491
9.67500e-08	0.0006772681353112325
9.70000e-08	0.0006922309675218179
9.72500e-08	0.0007059911923851274
9.75000e-08	0.0007179015566497497
9.77500e-08	0.000728363602455135
9.80000e-08	0.0007365978327909364
9.82500e-08	0.0007448320631267383
9.85000e-08	0.000751094351617119
9.87500e-08	0.0007543233828011864
9.90000e-08	0.0007575524139852536
9.92500e-08	0.0007594780720722715
9.95000e-08	0.0007593988708483219
9.97500e-08	0.0007593196696243724
1.00000e-07	0.000758095353027359
1.00250e-07	0.0007551096104633564
1.00500e-07	0.0007521238678993537
1.00750e-07	0.0007477062926699617
1.01000e-07	0.0007410862605558522
1.01250e-07	0.0007344662284417423
1.01500e-07	0.000727846196327633
1.01750e-07	0.000721226164213523
1.02000e-07	0.0007146061320994137
1.02250e-07	0.0007079860999853037
1.02500e-07	0.000700615392847726
1.02750e-07	0.0006920899911612751
1.03000e-07	0.0006835645894748239
1.03250e-07	0.0006750391877883731
1.03500e-07	0.0006665137861019218
1.03750e-07	0.0006579883844154706
1.04000e-07	0.0006494629827290198
1.04250e-07	0.0006409265862114101
1.04500e-07	0.0006323732773532978
1.04750e-07	0.0006238199684951848
1.05000e-07	0.0006152666596370723
1.05250e-07	0.0006067133507789595
1.05500e-07	0.0005981600419208466
1.05750e-07	0.0005866413294969389
1.06000e-07	0.0005747709353747448
1.06250e-07	0.0005629005412525513
1.06500e-07	0.0005510301471303573
1.06750e-07	0.0005391597530081631
1.07000e-07	0.000525941534460201
1.07250e-07	0.0005106500811986517
1.07500e-07	0.0004953586279371032
1.07750e-07	0.0004789584303719373
1.08000e-07	0.00046085275312054464
1.08250e-07	0.0004427470758691511
1.08500e-07	0.00042379624137101545
1.08750e-07	0.000403545378984318
1.09000e-07	0.00038329451659761945
1.09250e-07	0.00036216779406371224
1.09500e-07	0.00033969381618502247
1.09750e-07	0.0003172198383063327
1.10000e-07	0.0002941178746989641
1.10250e-07	0.0002700499382338199
1.10500e-07	0.00024598200176867706
1.10750e-07	0.00022157799601032414
1.11000e-07	0.00019665704567704807
1.11250e-07	0.0001717360953437707
1.11500e-07	0.0001466612186772653
1.11750e-07	0.00012134957124798046
1.12000e-07	9.603792381869427e-05
1.12250e-07	7.081905109111281e-05
1.12500e-07	4.586849694462597e-05
1.12750e-07	2.127341000012801e-05
1.13000e-07	-2.8908755777606597e-06
1.13250e-07	-2.65728347601739e-05
1.13500e-07	-4.969678014867383e-05
1.13750e-07	-7.21496400671124e-05
1.14000e-07	-9.380578959554677e-05
1.14250e-07	-0.00011453962365863185
1.14500e-07	-0.00013422531556929953
1.14750e-07	-0.00015267232076070328
1.15000e-07	-0.00016948850691450617
1.15250e-07	-0.00018416572223654072
1.15500e-07	-0.00019639554180751452
1.15750e-07	-0.00020613282578379105
1.16000e-07	-0.00021341707379644585
1.16250e-07	-0.00021828781149475703
1.16500e-07	-0.00022078441325683204
1.16750e-07	-0.00022090570473796105
1.17000e-07	-0.0002185242682461574
1.17250e-07	-0.0002134400215324083
1.17500e-07	-0.00020557803289841486
1.17750e-07	-0.0001950282740999171
1.18000e-07	-0.00018193372917032233
1.18250e-07	-0.00016643739404743622
1.18500e-07	-0.00014868215838683254
1.18750e-07	-0.00012878551888924314
1.19000e-07	-0.00010678588793346786
1.19250e-07	-8.267616516034726e-05
1.19500e-07	-5.652762718308972e-05
1.19750e-07	-2.8514865513370214e-05
1.20000e-07	1.1543409891059185e-06
1.20250e-07	3.227222581184633e-05
1.20500e-07	6.463109432572949e-05
1.20750e-07	9.803917095396565e-05
1.21000e-07	0.000132495046723464
1.21250e-07	0.00016767918759357878
1.21500e-07	0.00020326795995560508
1.21750e-07	0.0002394791398354134
1.22000e-07	0.0002756903197152178
1.22250e-07	0.00031161723881866204
1.22500e-07	0.0003471069056376174
1.22750e-07	0.00038259657245656893
1.23000e-07	0.0004172636056429279
1.23250e-07	0.0004506652569508684
1.23500e-07	0.0004829996604559285
1.23750e-07	0.0005136924145364475
1.24000e-07	0.0005428911340625637
1.24250e-07	0.0005697917172422341
1.24500e-07	0.0005947775333166937
1.24750e-07	0.0006168180387445608
1.25000e-07	0.0006367001642861903
1.25250e-07	0.0006532622519803732
1.25500e-07	0.0006676044660791627
1.25750e-07	0.000678532052196922
1.26000e-07	0.0006871474496246783
1.26250e-07	0.0006922062192270069
1.26500e-07	0.0006948621820555274
1.26750e-07	0.0006938221275703255
1.27000e-07	0.0006903996189747026
1.27250e-07	0.0006833123997010311
1.27500e-07	0.0006739771456256101
1.27750e-07	0.0006611839457679119
1.28000e-07	0.000646257821186069
1.28250e-07	0.0006280508140983019
1.28500e-07	0.0006078270472626
1.28750e-07	0.0005845010838511198
1.29000e-07	0.0005593440343132473
1.29250e-07	0.0005313703929046399
1.29500e-07	0.0005018227510405169
1.29750e-07	0.00046985396861745274
1.30000e-07	0.0004365561687414711
1.30250e-07	0.00040121406319356984
1.30500e-07	0.00036478853664182376
1.30750e-07	0.0003266964829136456
1.31000e-07	0.00028781011633175293
1.31250e-07	0.00024770193112846835
1.31500e-07	0.00020706607159457028
1.31750e-07	0.00016561853902760751
1.32000e-07	0.00012417100646064036
1.32250e-07	8.27234738936776e-05
1.32500e-07	4.1311128501796855e-05
1.32750e-07	1.3256500080986884e-07
1.33000e-07	-4.049789374021797e-05
1.33250e-07	-8.034168920818459e-05
1.33500e-07	-0.00011915426778574583
1.33750e-07	-0.00015669467944965659
1.34000e-07	-0.00019272426397139308
1.34250e-07	-0.000227004387140648
1.34500e-07	-0.0002592965730657512
1.34750e-07	-0.0002894003014440445
1.35000e-07	-0.00031725168485803693
1.35250e-07	-0.00034292729832480895
1.35500e-07	-0.0003664880066049701
1.35750e-07	-0.0003878993791658469
1.36000e-07	-0.0004070890224385921
1.36250e-07	-0.00042398460193823317
1.36500e-07	-0.0004385138572725649
1.36750e-07	-0.0004506283355706932
1.37000e-07	-0.00045993862080187997
1.37250e-07	-0.0004671933035160003
1.37500e-07	-0.0004727900926694341
1.37750e-07	-0.0004758366961935602
1.38000e-07	-0.0004772832363867443
1.38250e-07	-0.0004762685458897855
1.38500e-07	-0.0004737114388310005
1.38750e-07	-0.0004687817738205775
1.39000e-07	-0.00046247742112722075
1.39250e-07	-0.0004540585124352557
1.39500e-07	-0.00044448387631953936
1.39750e-07	-0.0004331314906924323
1.40000e-07	-0.0004207811079162565
1.40250e-07	-0.0004068955976457727
1.40500e-07	-0.00039200448043226325
1.40750e-07	-0.00037556653027625506
1.41000e-07	-0.0003591285801202469
1.41250e-07	-0.00034193728438740425
1.41500e-07	-0.0003235871862383493
1.41750e-07	-0.00030523708808929636
1.42000e-07	-0.00028688698994024336
1.42250e-07	-0.00026822060334710405
1.42500e-07	-0.0002495167065619494
1.42750e-07	-0.00023081280977679472
1.43000e-07	-0.00021249571965918028
1.43250e-07	-0.0001947736187666085
1.43500e-07	-0.00017749247409247943
1.43750e-07	-0.00016127061379044304
1.44000e-07	-0.00014608012998312638
1.44250e-07	-0.00013208426605556447
