Time(s)	Current(A)
1.25000e-05	-0.0022006462974700444
1.25003e-05	-0.002220395178663242
1.25005e-05	-0.0022401825496147472
1.25008e-05	-0.0022599699205663867
1.25010e-05	-0.002279757291518026
1.25012e-05	-0.002299544662469531
1.25015e-05	-0.0023193320334211707
1.25018e-05	-0.0023391194043728097
1.25020e-05	-0.002358906775324449
1.25023e-05	-0.0023786941462759542
1.25025e-05	-0.0024008220015426895
1.25028e-05	-0.0024281225392617707
1.25030e-05	-0.002455423076980666
1.25033e-05	-0.0024827236146997473
1.25035e-05	-0.002510024152418828
1.25038e-05	-0.002537324690137724
1.25040e-05	-0.0025646252278568047
1.25043e-05	-0.002591925765575886
1.25045e-05	-0.0026192263032947813
1.25048e-05	-0.0026465268410138625
1.25050e-05	-0.002673827378732943
1.25053e-05	-0.002701127916451839
1.25055e-05	-0.0027300912423378885
1.25058e-05	-0.002762729480770395
1.25060e-05	-0.002795367719202681
1.25063e-05	-0.0028280059576351875
1.25065e-05	-0.002860644196067694
1.25068e-05	-0.00289328243449998
1.25070e-05	-0.0029259206729324865
1.25073e-05	-0.002958558911364993
1.25075e-05	-0.002991197149797279
1.25078e-05	-0.0030238353882297855
1.25080e-05	-0.003056473626662292
1.25083e-05	-0.003089111865094578
1.25085e-05	-0.003120368999040424
1.25088e-05	-0.0031485737669017235
1.25090e-05	-0.003176778534762833
1.25093e-05	-0.0032049833026241326
1.25095e-05	-0.0032331880704854327
1.25097e-05	-0.0032613928383465416
1.25100e-05	-0.0032895976062078417
1.25103e-05	-0.003317802374069142
1.25105e-05	-0.003346007141930442
1.25108e-05	-0.0033736671143616784
1.25110e-05	-0.0034001230395183514
1.25113e-05	-0.003426578964675024
1.25115e-05	-0.0034530348898315173
1.25118e-05	-0.0034794908149881902
1.25120e-05	-0.003505946740144863
1.25123e-05	-0.0035324026653013566
1.25125e-05	-0.0035588585904580295
1.25128e-05	-0.003585314515614702
1.25130e-05	-0.0036138397598312025
1.25133e-05	-0.0036469383867130402
1.25135e-05	-0.003680037013594878
1.25138e-05	-0.003713135640476492
1.25140e-05	-0.0037462342673583297
1.25143e-05	-0.0037793328942401674
1.25145e-05	-0.003812431521121781
1.25148e-05	-0.0038455301480036187
1.25150e-05	-0.0038786287748854564
1.25153e-05	-0.00391172740176707
1.25155e-05	-0.003944826028648908
1.25158e-05	-0.003977924655530746
1.25160e-05	-0.00401102328241236
1.25163e-05	-0.004045972327302608
1.25165e-05	-0.00408135114849678
1.25168e-05	-0.004116729969690713
1.25170e-05	-0.004152108790884884
1.25173e-05	-0.004187487612079056
1.25175e-05	-0.004222866433272988
1.25178e-05	-0.00425824525446716
1.25180e-05	-0.0042936240756613325
1.25182e-05	-0.004329002896855264
1.25185e-05	-0.004364381718049436
1.25188e-05	-0.004399760539243608
1.25190e-05	-0.00443513936043778
1.25193e-05	-0.004466788653361475
1.25195e-05	-0.004490195350798675
1.25198e-05	-0.004513602048235873
1.25200e-05	-0.0045370087456729135
1.25203e-05	-0.004560415443110113
1.25205e-05	-0.004583822140547311
1.25208e-05	-0.004607228837984352
1.25210e-05	-0.00463063553542155
1.25213e-05	-0.004654042232858749
1.25215e-05	-0.00467744893029579
1.25218e-05	-0.004692215925410173
1.25220e-05	-0.004687888395368831
1.25223e-05	-0.004683560865327517
1.25225e-05	-0.004679233335286174
1.25228e-05	-0.004674905805244832
1.25230e-05	-0.004670578275203518
1.25233e-05	-0.004666250745162175
1.25235e-05	-0.004661923215120833
1.25238e-05	-0.004657595685079519
1.25240e-05	-0.004653268155038176
1.25243e-05	-0.004641516010462255
1.25245e-05	-0.004613354794866545
1.25248e-05	-0.004585193579270644
1.25250e-05	-0.004557032363674743
1.25253e-05	-0.004528871148079033
1.25255e-05	-0.004500709932483132
1.25258e-05	-0.004472548716887231
1.25260e-05	-0.004444387501291521
1.25263e-05	-0.004413218213215965
1.25265e-05	-0.004375400812335808
1.25267e-05	-0.004337583411455906
1.25270e-05	-0.004299766010575748
1.25273e-05	-0.00426194860969559
1.25275e-05	-0.004224131208815432
1.25278e-05	-0.00418631380793553
1.25280e-05	-0.004148496407055372
1.25283e-05	-0.004110862980709111
1.25285e-05	-0.004076664005257384
1.25288e-05	-0.004049156853829322
1.25290e-05	-0.004021649702401262
1.25293e-05	-0.003994142550973387
1.25295e-05	-0.003966635399545325
1.25298e-05	-0.003939128248117265
1.25300e-05	-0.00391162109668939
1.25303e-05	-0.0038841139452613286
1.25305e-05	-0.003856606793833267
1.25308e-05	-0.0038290996424053926
1.25310e-05	-0.0038264898303009116
1.25313e-05	-0.0038296626502447207
1.25315e-05	-0.003832835470188508
1.25318e-05	-0.003836008290132317
1.25320e-05	-0.0038391811100761263
1.25323e-05	-0.0038423539300199137
1.25325e-05	-0.003845526749963723
1.25328e-05	-0.0038486995699075315
1.25330e-05	-0.0038518723898513193
1.25333e-05	-0.003865135297106911
1.25335e-05	-0.0039006982117996045
1.25338e-05	-0.003936261126492057
1.25340e-05	-0.003971824041184751
1.25343e-05	-0.004007386955877443
1.25345e-05	-0.004042949870569895
1.25348e-05	-0.004078512785262589
1.25350e-05	-0.004114075699955282
1.25352e-05	-0.004149638614647734
1.25355e-05	-0.004191140646522236
1.25358e-05	-0.004245768665639883
1.25360e-05	-0.00430039668475753
1.25363e-05	-0.004355024703874806
1.25365e-05	-0.004409652722992453
1.25368e-05	-0.004464280742110099
1.25370e-05	-0.004518908761227377
1.25373e-05	-0.0045735367803450225
1.25375e-05	-0.004628164799462669
1.25378e-05	-0.004683012246314743
1.25380e-05	-0.004738344648348209
1.25383e-05	-0.004793677050381674
1.25385e-05	-0.004849009452414764
1.25388e-05	-0.00490434185444823
1.25390e-05	-0.004959674256481694
1.25393e-05	-0.005015006658514785
1.25395e-05	-0.005066461954354329
1.25398e-05	-0.005109348494115837
1.25400e-05	-0.005152235033877056
1.25403e-05	-0.005195121573638565
1.25405e-05	-0.005238008113400075
1.25408e-05	-0.005280894653161294
1.25410e-05	-0.005323781192922802
1.25413e-05	-0.005363139827853937
1.25415e-05	-0.0053947014733685475
1.25418e-05	-0.0054262631188833725
1.25420e-05	-0.005457824764398197
1.25423e-05	-0.005489386409912808
1.25425e-05	-0.0055209480554276325
1.25428e-05	-0.0055525097009424575
1.25430e-05	-0.005584071346457068
1.25433e-05	-0.005615632991971893
1.25435e-05	-0.005647194637486718
1.25437e-05	-0.005678756283001329
1.25440e-05	-0.005710317928516154
1.25443e-05	-0.005741879574030979
1.25445e-05	-0.005773441219545803
1.25448e-05	-0.005805002865060414
1.25450e-05	-0.005836564510575239
1.25453e-05	-0.005868126156090064
1.25455e-05	-0.0058974905260439575
1.25458e-05	-0.005921998717864411
1.25460e-05	-0.005946506909684864
1.25463e-05	-0.00597101510150515
1.25465e-05	-0.005995523293325604
1.25468e-05	-0.006020031485146057
1.25470e-05	-0.006044539676966344
1.25473e-05	-0.006069047868786797
1.25475e-05	-0.006093556060607251
1.25478e-05	-0.0061180642524275375
1.25480e-05	-0.006142572444247991
1.25483e-05	-0.006167080636068444
1.25485e-05	-0.006191588827888731
1.25488e-05	-0.006216097019709184
1.25490e-05	-0.006240605211529637
1.25493e-05	-0.006265113403349925
1.25495e-05	-0.006289621595170378
1.25498e-05	-0.006310499408242058
1.25500e-05	-0.006323353755247475
1.25503e-05	-0.006336208102252979
1.25505e-05	-0.006349062449258483
1.25508e-05	-0.0063619167962639
1.25510e-05	-0.006374771143269404
1.25513e-05	-0.0063876254902749076
1.25515e-05	-0.006400479837280324
1.25518e-05	-0.006413334184285828
1.25520e-05	-0.006426188531291332
1.25522e-05	-0.006432173161133925
1.25525e-05	-0.006422975093424109
1.25528e-05	-0.0064137770257142925
1.25530e-05	-0.006404578958004476
1.25533e-05	-0.0063953808902947225
1.25535e-05	-0.006386182822584907
1.25538e-05	-0.006376984754875091
1.25540e-05	-0.006367786687165337
1.25543e-05	-0.006358588619455521
1.25545e-05	-0.006349390551745705
1.25548e-05	-0.006334632079504495
1.25550e-05	-0.006307584609292512
1.25553e-05	-0.006280537139080529
1.25555e-05	-0.00625348966886873
1.25558e-05	-0.006226442198656747
1.25560e-05	-0.006199394728444764
1.25563e-05	-0.006172347258232965
1.25565e-05	-0.006145299788020983
1.25568e-05	-0.006118252317809
1.25570e-05	-0.0060912048475972
1.25573e-05	-0.006063690989430519
1.25575e-05	-0.006035146371613713
1.25578e-05	-0.0060066017537971006
1.25580e-05	-0.005978057135980295
1.25583e-05	-0.005949512518163489
1.25585e-05	-0.005920967900346877
1.25588e-05	-0.0058924232825300705
1.25590e-05	-0.005863878664713265
1.25593e-05	-0.0058353340468966525
1.25595e-05	-0.005806789429079847
1.25598e-05	-0.005784414639445484
1.25600e-05	-0.005775675729287057
1.25603e-05	-0.005766936819128571
1.25605e-05	-0.005758197908970084
1.25607e-05	-0.0057494589988116565
1.25610e-05	-0.00574072008865317
1.25613e-05	-0.005731981178494684
1.25615e-05	-0.005723242268336197
1.25618e-05	-0.00571450335817777
1.25620e-05	-0.0057057644480192835
1.25623e-05	-0.005697025537860797
1.25625e-05	-0.005711088941193769
1.25628e-05	-0.005730448387901019
1.25630e-05	-0.0057498078346082705
1.25633e-05	-0.005769167281315391
1.25635e-05	-0.005788526728022642
1.25638e-05	-0.005807886174729893
1.25640e-05	-0.005827245621437012
1.25643e-05	-0.005846605068144263
1.25645e-05	-0.005865964514851514
1.25648e-05	-0.005885323961558634
1.25650e-05	-0.005910614143857277
1.25653e-05	-0.005949011789337031
1.25655e-05	-0.005987409434816525
1.25658e-05	-0.006025807080296279
1.25660e-05	-0.006064204725776034
1.25663e-05	-0.006102602371255528
1.25665e-05	-0.006141000016735282
1.25668e-05	-0.006179397662215037
1.25670e-05	-0.006217795307694531
1.25673e-05	-0.006256192953174285
1.25675e-05	-0.006296689333317677
1.25678e-05	-0.006337673163552905
1.25680e-05	-0.006378656993788412
1.25683e-05	-0.0064196408240239184
1.25685e-05	-0.006460624654259147
1.25688e-05	-0.0065016084844946535
1.25690e-05	-0.006542592314730159
1.25692e-05	-0.0065835761449653885
1.25695e-05	-0.006624559975200894
1.25698e-05	-0.006660252228533512
1.25700e-05	-0.006684249617313667
1.25703e-05	-0.00670824700609366
1.25705e-05	-0.006732244394873815
1.25708e-05	-0.00675624178365397
1.25710e-05	-0.006780239172433963
1.25713e-05	-0.0068042365612141185
1.25715e-05	-0.006828233949994274
1.25718e-05	-0.006852231338774267
1.25720e-05	-0.006849204755057396
1.25723e-05	-0.006839901609508504
1.25725e-05	-0.0068305984639596765
1.25728e-05	-0.0068212953184107845
1.25730e-05	-0.006811992172861893
1.25733e-05	-0.006802689027313065
1.25735e-05	-0.006793385881764174
1.25738e-05	-0.006784082736215282
1.25740e-05	-0.0067651436180732605
1.25743e-05	-0.006724908127151595
1.25745e-05	-0.00668467263622993
1.25748e-05	-0.0066444371453085365
1.25750e-05	-0.006604201654386871
1.25753e-05	-0.006563966163465205
1.25755e-05	-0.0065237306725438125
1.25758e-05	-0.006483495181622147
1.25760e-05	-0.006443259690700481
1.25763e-05	-0.006390838237855359
1.25765e-05	-0.00633558648522636
1.25768e-05	-0.00628033473259736
1.25770e-05	-0.006225082979968735
1.25773e-05	-0.006169831227339735
1.25775e-05	-0.006114579474710736
1.25777e-05	-0.006059327722082111
1.25780e-05	-0.006004075969453111
1.25783e-05	-0.005951366711558314
1.25785e-05	-0.005904276597463957
1.25788e-05	-0.005857186483369919
1.25790e-05	-0.005810096369275562
1.25793e-05	-0.005763006255181205
1.25795e-05	-0.005715916141087168
1.25798e-05	-0.005668826026992811
1.25800e-05	-0.005621735912898454
1.25803e-05	-0.005585020051316468
1.25805e-05	-0.005571232228052901
1.25808e-05	-0.005557444404789333
1.25810e-05	-0.00554365658152586
1.25813e-05	-0.005529868758262292
1.25815e-05	-0.005516080934998725
1.25818e-05	-0.0055022931117352505
1.25820e-05	-0.0054885052884716835
1.25823e-05	-0.005488510619509577
1.25825e-05	-0.0055190000716926445
1.25828e-05	-0.005549489523875919
1.25830e-05	-0.005579978976059193
1.25833e-05	-0.005610468428242261
1.25835e-05	-0.005640957880425535
1.25838e-05	-0.005671447332608809
1.25840e-05	-0.005701936784791877
1.25843e-05	-0.00576205133600992
1.25845e-05	-0.005829046584208491
1.25848e-05	-0.005896041832406606
1.25850e-05	-0.005963037080605176
1.25853e-05	-0.006030032328803746
1.25855e-05	-0.006097027577001861
1.25858e-05	-0.006164022825200431
1.25860e-05	-0.006237255630898227
1.25862e-05	-0.006324274004009521
1.25865e-05	-0.006411292377121405
1.25868e-05	-0.006498310750233289
1.25870e-05	-0.006585329123345173
1.25873e-05	-0.0066723474964564666
1.25875e-05	-0.00675936586956835
1.25878e-05	-0.006846384242680234
1.25880e-05	-0.006930705824686613
1.25883e-05	-0.007014401052587754
1.25885e-05	-0.007098096280488895
1.25888e-05	-0.007181791508389468
1.25890e-05	-0.00726548673629061
1.25893e-05	-0.0073491819641917505
1.25895e-05	-0.007432877192092324
1.25898e-05	-0.0075071960373528715
1.25900e-05	-0.007560792227146332
1.25903e-05	-0.007614388416939431
1.25905e-05	-0.0076679846067328914
1.25908e-05	-0.007721580796526353
1.25910e-05	-0.0077751769863194506
1.25913e-05	-0.007828773176112911
1.25915e-05	-0.007882369365906373
1.25918e-05	-0.00793596555569947
1.25920e-05	-0.007958093981025963
1.25923e-05	-0.007972913733670064
1.25925e-05	-0.007987733486314066
1.25928e-05	-0.008002553238958168
1.25930e-05	-0.008017372991602269
1.25933e-05	-0.008032192744246271
1.25935e-05	-0.008047012496890374
1.25938e-05	-0.008061832249534474
1.25940e-05	-0.008066633834607411
1.25943e-05	-0.008049294361345846
1.25945e-05	-0.008031954888084279
1.25947e-05	-0.00801461541482283
1.25950e-05	-0.007997275941561263
1.25953e-05	-0.007979936468299696
1.25955e-05	-0.007962596995038247
1.25958e-05	-0.007945257521776682
1.25960e-05	-0.007927918048515115
1.25963e-05	-0.007897260581166791
1.25965e-05	-0.007863509889332375
1.25968e-05	-0.00782975919749773
1.25970e-05	-0.007796008505663085
1.25973e-05	-0.007762257813828669
1.25975e-05	-0.007728507121994024
1.25978e-05	-0.007694756430159379
1.25980e-05	-0.007661005738324963
1.25983e-05	-0.007628697484351916
1.25985e-05	-0.00759957714878951
1.25988e-05	-0.007570456813227302
1.25990e-05	-0.007541336477664896
1.25993e-05	-0.007512216142102491
1.25995e-05	-0.007483095806540283
1.25998e-05	-0.007453975470977877
1.26000e-05	-0.0074248551354154715
1.26003e-05	-0.007395734799853264
1.26005e-05	-0.007373776806407688
1.26008e-05	-0.007367648238205426
1.26010e-05	-0.007361519670003206
1.26013e-05	-0.007355391101800945
1.26015e-05	-0.007349262533598682
1.26018e-05	-0.007343133965396462
1.26020e-05	-0.0073370053971942
1.26023e-05	-0.0073308768289919385
1.26025e-05	-0.007324748260789719
1.26028e-05	-0.007326692675380848
1.26030e-05	-0.00734647911364833
1.26032e-05	-0.0073662655519156775
1.26035e-05	-0.00738605199018316
1.26038e-05	-0.007405838428450642
1.26040e-05	-0.0074256248667179895
1.26043e-05	-0.007445411304985472
1.26045e-05	-0.007465197743252953
1.26048e-05	-0.007484984181520435
1.26050e-05	-0.007504770619787783
1.26053e-05	-0.007538766527149167
1.26055e-05	-0.0075760627121250436
1.26058e-05	-0.007613358897100667
1.26060e-05	-0.007650655082076544
1.26063e-05	-0.00768795126705242
1.26065e-05	-0.0077252474520280445
1.26068e-05	-0.007762543637003921
1.26070e-05	-0.007799839821979798
1.26073e-05	-0.00783713600695542
1.26075e-05	-0.007875723422644485
1.26078e-05	-0.007917164575242143
1.26080e-05	-0.007958605727839522
1.26083e-05	-0.008000046880437182
1.26085e-05	-0.00804148803303484
1.26088e-05	-0.008082929185632219
1.26090e-05	-0.008120239134306527
1.26093e-05	-0.008150021508681365
1.26095e-05	-0.008179803883056003
1.26098e-05	-0.008209586257430842
1.26100e-05	-0.008239368631805681
1.26103e-05	-0.008269151006180319
1.26105e-05	-0.008319519086573414
1.26108e-05	-0.008750986394746427
1.26110e-05	-0.017742238729340935
1.26113e-05	-0.02301458253314598
1.26115e-05	-0.020958955279469588
1.26117e-05	-0.01848750456200247
1.26120e-05	-0.011839541140006252
1.26123e-05	-0.006990911320732578
1.26125e-05	-0.00700176666344631
1.26128e-05	-0.007946976580143443
1.26130e-05	-0.01270100818150134
1.26133e-05	-0.016789673018000602
1.26135e-05	-0.015663816846341015
1.26138e-05	-0.014055957163446904
1.26140e-05	-0.01012180555489737
1.26143e-05	-0.006785140140614317
1.26145e-05	-0.005770864244821126
1.26148e-05	-0.006837852082741061
1.26150e-05	-0.009450216935191883
1.26153e-05	-0.011757960296679054
1.26155e-05	-0.01206499733326725
1.26158e-05	-0.010817542586096069
1.26160e-05	-0.008595521759606697
1.26163e-05	-0.006566320133548631
1.26165e-05	-0.005930253592799627
1.26168e-05	-0.006595636251981031
1.26170e-05	-0.008227249377147803
1.26173e-05	-0.009666724915894945
1.26175e-05	-0.009852156104797
1.26178e-05	-0.009063561478435974
1.26180e-05	-0.007664647596699417
1.26183e-05	-0.006387025028554616
1.26185e-05	-0.005982836756017382
1.26188e-05	-0.006394861052197546
1.26190e-05	-0.007413321336281239
1.26193e-05	-0.008312846104338337
1.26195e-05	-0.00842853583370899
1.26198e-05	-0.007936082267191506
1.26200e-05	-0.007063569902703603
1.26202e-05	-0.006269517614743099
1.26205e-05	-0.006025410980261033
1.26208e-05	-0.006295837558262851
1.26210e-05	-0.0069495913865226955
1.26213e-05	-0.007532217834687789
1.26215e-05	-0.007627078413746055
1.26218e-05	-0.007344081582693699
1.26220e-05	-0.0068259393360712226
1.26223e-05	-0.006359685866894798
1.26225e-05	-0.006240447710228241
1.26228e-05	-0.00644581811672239
1.26230e-05	-0.006893388334259181
1.26233e-05	-0.007298281574648563
1.26235e-05	-0.007399334445004368
1.26238e-05	-0.007265217772671816
1.26240e-05	-0.006985143752141935
1.26243e-05	-0.0067387140667690415
1.26245e-05	-0.0067105826287674536
1.26248e-05	-0.006886492627557262
1.26250e-05	-0.007214603839923013
1.26253e-05	-0.007516261427786048
1.26255e-05	-0.007627679204116314
1.26258e-05	-0.007591684724338992
1.26260e-05	-0.007463966756108267
1.26263e-05	-0.007356826980367162
1.26265e-05	-0.007385720619444204
1.26268e-05	-0.007541500433349411
1.26270e-05	-0.007791479684298729
1.26273e-05	-0.008023540691367174
1.26275e-05	-0.008134889348558643
1.26278e-05	-0.00815215715251303
1.26280e-05	-0.008110029961322455
1.26283e-05	-0.008078650222320918
1.26285e-05	-0.008130129628631032
1.26288e-05	-0.008258525356279777
1.26290e-05	-0.008443151096154317
1.26293e-05	-0.008613569896499616
1.26295e-05	-0.008705189693448728
1.26298e-05	-0.008734493926192834
1.26300e-05	-0.008723008656088238
1.26303e-05	-0.008714537762130041
1.26305e-05	-0.00875473960805974
1.26308e-05	-0.008841157090403746
1.26310e-05	-0.008953638963048615
1.26313e-05	-0.009070763487015724
1.26315e-05	-0.009134307996947878
1.26318e-05	-0.009156021523971387
1.26320e-05	-0.009154986276467224
1.26323e-05	-0.009149721044291619
1.26325e-05	-0.009186353020785732
1.26328e-05	-0.009234588545231341
1.26330e-05	-0.009303278916217524
1.26333e-05	-0.009377634313591213
1.26335e-05	-0.009409509401324524
1.26338e-05	-0.009429619449678265
1.26340e-05	-0.009431348871828206
1.26343e-05	-0.009427987728656429
1.26345e-05	-0.009450606486933669
1.26348e-05	-0.009480420450853648
1.26350e-05	-0.009522877385777426
1.26353e-05	-0.00956883582652842
1.26355e-05	-0.00958811311306866
1.26358e-05	-0.009600000980072299
1.26360e-05	-0.009600404055359736
1.26363e-05	-0.009597626385780936
1.26365e-05	-0.009611249205903305
1.26368e-05	-0.009629414187059955
1.26370e-05	-0.009655719243173518
1.26373e-05	-0.009684278715585292
1.26375e-05	-0.009696443897618352
1.26378e-05	-0.009704068635536755
1.26380e-05	-0.00970491860808688
1.26383e-05	-0.00970389229060965
1.26385e-05	-0.009713654252745691
1.26388e-05	-0.00972640405879222
1.26390e-05	-0.009742295827289565
1.26393e-05	-0.009759057770987532
1.26395e-05	-0.0097758197146855
1.26398e-05	-0.009782550425433061
1.26400e-05	-0.009786502958439743
1.26403e-05	-0.009796836964509366
1.26405e-05	-0.009808938337213234
1.26408e-05	-0.009821039709917186
1.26410e-05	-0.009833141082621137
1.26413e-05	-0.009845769397727683
1.26415e-05	-0.009858543650991775
1.26418e-05	-0.009871317904255866
1.26420e-05	-0.009884092157519871
1.26423e-05	-0.009899165520656786
1.26425e-05	-0.009914875628638945
1.26428e-05	-0.009930585736620997
1.26430e-05	-0.009946295844603156
1.26433e-05	-0.009962005952585314
1.26435e-05	-0.009978427305177881
1.26438e-05	-0.009995045638934805
1.26440e-05	-0.010011663972691728
1.26443e-05	-0.01002828230644854
1.26445e-05	-0.010044900640205464
1.26448e-05	-0.010064303042759615
1.26450e-05	-0.010084476500875874
1.26453e-05	-0.01010464995899227
1.26455e-05	-0.010124823417108665
1.26458e-05	-0.010144996875224924
1.26460e-05	-0.010165170333341318
1.26463e-05	-0.010185343791457713
1.26465e-05	-0.010205517249573972
