Time(s)	Current(A)
8.25000e-06	-0.014832994294091446
8.25025e-06	-0.01478330674527974
8.25050e-06	-0.014736028775661422
8.25075e-06	-0.014688750806042783
8.25100e-06	-0.014646824388439575
8.25125e-06	-0.014607929098094885
8.25150e-06	-0.01456970625718936
8.25175e-06	-0.014531864292676297
8.25200e-06	-0.01449190400342631
8.25225e-06	-0.01445074389180032
8.25250e-06	-0.01440958378017433
8.25275e-06	-0.014367652720031284
8.25300e-06	-0.014325284993466877
8.25325e-06	-0.01428291726690247
8.25350e-06	-0.014237677013909005
8.25375e-06	-0.014190809757545773
8.25400e-06	-0.01414394250118254
8.25425e-06	-0.014090403402179551
8.25450e-06	-0.014033085361285414
8.25475e-06	-0.013975767320391278
8.25500e-06	-0.013918449279497529
8.25525e-06	-0.013861131238603391
8.25550e-06	-0.013803813197709253
8.25575e-06	-0.013746495156815504
8.25600e-06	-0.013689177115921367
8.25625e-06	-0.013631859075027229
8.25650e-06	-0.013569646171672481
8.25675e-06	-0.01350466081072269
8.25700e-06	-0.013439342792423802
8.25725e-06	-0.013373836356493073
8.25750e-06	-0.013307930375007299
8.25775e-06	-0.013241798090306428
8.25800e-06	-0.013175405982082122
8.25825e-06	-0.013109034970416896
8.25850e-06	-0.013043203994294747
8.25875e-06	-0.012978347307836997
8.25900e-06	-0.012914893298506196
8.25925e-06	-0.0128531477370278
8.25950e-06	-0.012793184942913918
8.25975e-06	-0.012735055258886713
8.26000e-06	-0.012679016352912855
8.26025e-06	-0.012625474112252151
8.26050e-06	-0.012577198051085968
8.26075e-06	-0.012531361147931118
8.26100e-06	-0.012485524244776268
8.26125e-06	-0.012445480157614165
8.26150e-06	-0.012408717130303793
8.26175e-06	-0.012371954102993422
8.26200e-06	-0.012337553468054888
8.26225e-06	-0.01230449089577432
8.26250e-06	-0.012271428323493755
8.26275e-06	-0.0122419311669859
8.26300e-06	-0.012214453467433283
8.26325e-06	-0.012186975767880665
8.26350e-06	-0.012159498068328233
8.26375e-06	-0.012135642523241539
8.26400e-06	-0.012112259485215765
8.26425e-06	-0.012088876447190151
8.26450e-06	-0.012065802156953279
8.26475e-06	-0.01204477953395333
8.26500e-06	-0.012023756910953379
8.26525e-06	-0.012002734287953572
8.26550e-06	-0.011981711664953622
8.26575e-06	-0.011960689041953671
8.26600e-06	-0.011940487356161303
8.26625e-06	-0.011921620542460184
8.26650e-06	-0.011902753728759062
8.26675e-06	-0.011883886915058069
8.26700e-06	-0.011865020101356948
8.26725e-06	-0.011846153287655828
8.26750e-06	-0.011827871655569784
8.26775e-06	-0.011809932520137541
8.26800e-06	-0.011791993384705298
8.26825e-06	-0.011774460198265162
8.26850e-06	-0.011757164606731978
8.26875e-06	-0.011740720568113244
8.26900e-06	-0.011724774928652072
8.26925e-06	-0.011709473461505856
8.26950e-06	-0.011694549017247643
8.26975e-06	-0.011679781430270078
8.27000e-06	-0.011665381764951487
8.27025e-06	-0.01165150500590843
8.27050e-06	-0.011638282082551155
8.27075e-06	-0.011625836817551166
8.27100e-06	-0.011614334343877115
8.27125e-06	-0.011604156513803554
8.27150e-06	-0.011596234601231313
8.27175e-06	-0.01159173489314683
8.27200e-06	-0.011591209718237752
8.27225e-06	-0.011594652517738684
8.27250e-06	-0.011601932763054653
8.27275e-06	-0.011612916443938649
8.27300e-06	-0.01162749319279642
8.27325e-06	-0.01164700993539154
8.27350e-06	-0.01166864921541273
8.27375e-06	-0.011696026123263165
8.27400e-06	-0.011726761165209338
8.27425e-06	-0.011765839376062825
8.27450e-06	-0.011809800699032388
8.27475e-06	-0.01185376202200225
8.27500e-06	-0.011897723344972109
8.27525e-06	-0.011943709194166322
8.27550e-06	-0.012003148270484003
8.27575e-06	-0.012062587346801684
8.27600e-06	-0.012122026423118963
8.27625e-06	-0.012181465499436644
8.27650e-06	-0.012247142704290373
8.27675e-06	-0.012316470977625995
8.27700e-06	-0.012385799250962089
8.27725e-06	-0.012457888682420024
8.27750e-06	-0.012531594171856309
8.27775e-06	-0.012605299661293095
8.27800e-06	-0.012680237293063387
8.27825e-06	-0.012755896076379487
8.27850e-06	-0.0128315548596961
8.27875e-06	-0.012906399982587462
8.27900e-06	-0.012980768884137728
8.27925e-06	-0.013053242573752162
8.27950e-06	-0.013124607028677222
8.27975e-06	-0.013193236468360164
8.28000e-06	-0.013260265151039102
8.28025e-06	-0.013314356632956862
8.28050e-06	-0.013360876195558589
8.28075e-06	-0.013407395758160632
8.28100e-06	-0.013453915320762675
8.28125e-06	-0.013500434883364403
8.28150e-06	-0.013546954445966446
8.28175e-06	-0.01359347400856849
8.28200e-06	-0.013639993571170532
8.28225e-06	-0.01368651313377226
8.28250e-06	-0.013733032696374303
8.28275e-06	-0.013779552258976346
8.28300e-06	-0.013823678053817614
8.28325e-06	-0.01385189696585932
8.28350e-06	-0.013880115877901026
8.28375e-06	-0.01390833478994254
8.28400e-06	-0.013936553701984246
8.28425e-06	-0.013964772614025952
8.28450e-06	-0.013992991526067465
8.28475e-06	-0.014021210438109171
8.28500e-06	-0.014049429350150877
8.28525e-06	-0.014077648262192391
8.28550e-06	-0.014105867174234097
8.28575e-06	-0.014134086086275803
8.28600e-06	-0.01415808179628293
8.28625e-06	-0.0141796057393558
8.28650e-06	-0.014201129682428672
8.28675e-06	-0.014222653625501397
8.28700e-06	-0.014244177568574268
8.28725e-06	-0.01426570151164714
8.28750e-06	-0.014287225454719865
8.28775e-06	-0.014308749397792735
8.28800e-06	-0.014330273340865608
8.28825e-06	-0.01435100984486189
8.28850e-06	-0.014366513718812448
8.28875e-06	-0.014382017592763004
8.28900e-06	-0.014397521466713456
8.28925e-06	-0.014413025340664012
8.28950e-06	-0.01442852921461457
8.28975e-06	-0.014444033088565022
8.29000e-06	-0.014459536962515578
8.29025e-06	-0.014475040836466134
8.29050e-06	-0.014490544710416692
8.29075e-06	-0.014503060859771771
8.29100e-06	-0.014513828345718188
8.29125e-06	-0.014521059688914581
8.29150e-06	-0.014526221389063947
8.29175e-06	-0.014531383089213347
8.29200e-06	-0.01452950050709742
8.29225e-06	-0.014523495028695469
8.29250e-06	-0.014517489550293477
8.29275e-06	-0.014504714338823763
8.29300e-06	-0.014487976919953707
8.29325e-06	-0.014471239501083538
8.29350e-06	-0.014444207701429776
8.29375e-06	-0.014411150779173054
8.29400e-06	-0.014378093856916106
8.29425e-06	-0.01434503693465916
8.29450e-06	-0.014311980012402437
8.29475e-06	-0.014267345142906653
8.29500e-06	-0.014215933901613699
8.29525e-06	-0.014164522660321094
8.29550e-06	-0.01411311141902814
8.29575e-06	-0.014061700177735186
8.29600e-06	-0.014001549681689665
8.29625e-06	-0.01393628425134519
8.29650e-06	-0.013871018821000712
8.29675e-06	-0.01380575339065668
8.29700e-06	-0.013739543157947074
8.29725e-06	-0.013667054596674453
8.29750e-06	-0.013594566035402322
8.29775e-06	-0.013522077474129701
8.29800e-06	-0.01344958891285708
8.29825e-06	-0.013375895429179325
8.29850e-06	-0.013301596596982889
8.29875e-06	-0.013227725743151286
8.29900e-06	-0.013154707407344009
8.29925e-06	-0.013082919174015667
8.29950e-06	-0.01301265457869168
8.29975e-06	-0.012944210471639296
8.30000e-06	-0.012877977625274982
8.30025e-06	-0.01281544833184871
8.30050e-06	-0.012754574294404119
8.30075e-06	-0.0127069094502876
8.30100e-06	-0.012666975718025235
8.30125e-06	-0.012627041985762873
8.30150e-06	-0.012587108253500779
8.30175e-06	-0.012547174521238415
8.30200e-06	-0.01250724078897605
8.30225e-06	-0.012467307056713957
8.30250e-06	-0.012427373324451593
8.30275e-06	-0.012387439592189228
8.30300e-06	-0.012347505859927135
8.30325e-06	-0.01230757212766477
8.30350e-06	-0.012267638395402406
8.30375e-06	-0.012227704663140312
8.30400e-06	-0.012190294482536538
8.30425e-06	-0.012169653614808764
8.30450e-06	-0.012149012747081129
8.30475e-06	-0.012128371879353355
8.30500e-06	-0.01210773101162558
8.30525e-06	-0.012087090143897947
8.30550e-06	-0.012066449276170172
8.30575e-06	-0.012045808408442398
8.30600e-06	-0.012025167540714764
8.30625e-06	-0.01200452667298699
8.30650e-06	-0.011983885805259215
8.30675e-06	-0.011963244937531581
8.30700e-06	-0.011942604069803808
8.30725e-06	-0.011921963202076034
8.30750e-06	-0.011906044441291386
8.30775e-06	-0.011892889447836862
8.30800e-06	-0.011879734454382245
8.30825e-06	-0.01186657946092763
8.30850e-06	-0.011853424467473105
8.30875e-06	-0.011840269474018488
8.30900e-06	-0.011827114480563873
8.30925e-06	-0.011814413044220411
8.30950e-06	-0.011804725550975604
8.30975e-06	-0.011795038057730797
8.31000e-06	-0.011785350564486055
8.31025e-06	-0.01177566307124125
8.31050e-06	-0.011765975577996442
8.31075e-06	-0.0117562880847517
8.31100e-06	-0.011746600591506893
8.31125e-06	-0.011738105278869274
8.31150e-06	-0.011730307728873216
8.31175e-06	-0.011722510178877104
8.31200e-06	-0.011714712628880995
8.31225e-06	-0.011706915078884935
8.31250e-06	-0.011699117528888824
8.31275e-06	-0.011691319978892714
8.31300e-06	-0.011683522428896654
8.31325e-06	-0.011675724878900545
8.31350e-06	-0.011667709047279014
8.31375e-06	-0.011659565459206347
8.31400e-06	-0.011651421871133622
8.31425e-06	-0.0116432782830609
8.31450e-06	-0.01163513469498823
8.31475e-06	-0.011626991106915506
8.31500e-06	-0.011618847518842783
8.31525e-06	-0.011610703930770114
8.31550e-06	-0.01160256034269739
8.31575e-06	-0.01159425774944896
8.31600e-06	-0.01158586209322772
8.31625e-06	-0.011577466437006535
8.31650e-06	-0.011569070780785295
8.31675e-06	-0.011560675124564053
8.31700e-06	-0.011554782112229623
8.31725e-06	-0.015993995700002164
8.31750e-06	-0.025081423286354678
8.31775e-06	-0.024929240348555377
8.31800e-06	-0.022884273642109137
8.31825e-06	-0.0186251277271341
8.31850e-06	-0.01152588441035254
8.31875e-06	-0.01018398514586571
8.31900e-06	-0.011094716523325127
8.31925e-06	-0.013323463059875602
8.31950e-06	-0.018872430873777296
8.31975e-06	-0.01983352377152049
8.32000e-06	-0.017834125245922188
8.32025e-06	-0.015627433444781732
8.32050e-06	-0.01110094545413092
8.32075e-06	-0.009797669384704374
8.32100e-06	-0.010599008898366874
8.32125e-06	-0.011699893812353148
8.32150e-06	-0.013721674577938204
8.32175e-06	-0.014866933687027016
8.32200e-06	-0.014300812601830196
8.32225e-06	-0.013235802681610696
8.32250e-06	-0.011595330604793739
8.32275e-06	-0.010515467745215206
8.32300e-06	-0.010581734512645468
8.32325e-06	-0.011205206587936086
8.32350e-06	-0.012511907853738607
8.32375e-06	-0.013270554131857234
8.32400e-06	-0.012958209274167616
8.32425e-06	-0.012334362933705083
8.32450e-06	-0.011350989150755761
8.32475e-06	-0.010719614203607215
8.32500e-06	-0.010806838646410393
8.32525e-06	-0.011243581332912965
8.32550e-06	-0.012108604335973133
8.32575e-06	-0.012630480182582286
8.32600e-06	-0.012481530974936608
8.32625e-06	-0.01213737509328218
8.32650e-06	-0.011567779205135844
8.32675e-06	-0.011218267363274389
8.32700e-06	-0.01131826768136413
8.32725e-06	-0.011636374200879828
8.32750e-06	-0.012221716570865009
8.32775e-06	-0.012590881143519136
8.32800e-06	-0.012538448491425071
8.32825e-06	-0.012362176023889898
8.32850e-06	-0.012042941590164247
8.32875e-06	-0.011859625360077173
8.32900e-06	-0.011955721728161412
8.32925e-06	-0.012186060534428372
8.32950e-06	-0.012581199052304298
8.32975e-06	-0.012838126062814908
8.33000e-06	-0.012827982201792822
8.33025e-06	-0.01273709535875015
8.33050e-06	-0.012553289985686774
8.33075e-06	-0.012451050571735905
8.33100e-06	-0.012520097710795996
8.33125e-06	-0.012669789435222279
8.33150e-06	-0.012920701246755402
8.33175e-06	-0.013084879449459434
8.33200e-06	-0.013082416044190876
8.33225e-06	-0.013030046271336368
8.33250e-06	-0.012920109175763618
8.33275e-06	-0.012861861986769058
8.33300e-06	-0.012911457448490335
8.33325e-06	-0.013012070666972804
8.33350e-06	-0.013176543041724486
8.33375e-06	-0.013287101828600928
8.33400e-06	-0.013293657799728452
8.33425e-06	-0.013269299654667407
8.33450e-06	-0.013209190551825529
8.33475e-06	-0.013181729131970901
8.33500e-06	-0.013222043314403752
8.33525e-06	-0.013294492425492289
8.33550e-06	-0.013407076513584429
8.33575e-06	-0.013485980628241464
8.33600e-06	-0.013499793945575368
8.33625e-06	-0.013494260512026872
8.33650e-06	-0.013466312226165518
8.33675e-06	-0.013458752407498312
8.33700e-06	-0.013493540010104763
8.33725e-06	-0.013548307931171599
8.33750e-06	-0.013628022654474634
8.33775e-06	-0.013686405374694491
8.33800e-06	-0.013703742642630346
8.33825e-06	-0.013708648975074712
8.33850e-06	-0.013699161876594012
8.33875e-06	-0.013702052489729456
8.33900e-06	-0.01373103422948673
8.33925e-06	-0.013772051630196921
8.33950e-06	-0.013828173324120379
8.33975e-06	-0.013870370556577279
8.34000e-06	-0.013886252685589531
8.34025e-06	-0.013893705718602312
8.34050e-06	-0.013891459607042947
8.34075e-06	-0.013896242773960472
8.34100e-06	-0.013916583157134333
8.34125e-06	-0.013943449298046053
8.34150e-06	-0.013978152610207111
8.34175e-06	-0.014001833812697291
8.34200e-06	-0.014006532450307932
8.34225e-06	-0.01400357195511706
8.34250e-06	-0.013992294199314333
8.34275e-06	-0.013983455311725027
8.34300e-06	-0.013982792675713186
8.34325e-06	-0.013983178977389824
8.34350e-06	-0.01398745786486923
8.34375e-06	-0.013982788404054482
8.34400e-06	-0.013963403390325212
8.34425e-06	-0.013942239901753486
8.34450e-06	-0.013912336746921434
8.34475e-06	-0.013882897469310537
8.34500e-06	-0.013857535692958608
8.34525e-06	-0.013832663447299571
8.34550e-06	-0.013809332933783365
8.34575e-06	-0.013779931285754653
8.34600e-06	-0.013740954039023133
8.34625e-06	-0.013700996012419728
8.34650e-06	-0.01365626055342979
8.34675e-06	-0.013611525094439853
8.34700e-06	-0.01356734325246836
8.34725e-06	-0.013525858109263829
8.34750e-06	-0.013484372966059298
8.34775e-06	-0.013441710210189285
8.34800e-06	-0.013393311238631668
8.34825e-06	-0.013344762732315002
8.34850e-06	-0.013295485834010716
8.34875e-06	-0.013246208935706093
8.34900e-06	-0.013197929050360855
8.34925e-06	-0.013154505669658416
8.34950e-06	-0.013111246787765924
8.34975e-06	-0.013068789188573066
8.35000e-06	-0.013027493418409072
8.35025e-06	-0.012991856980973127
8.35050e-06	-0.012956220543537181
8.35075e-06	-0.012920584106101238
8.35100e-06	-0.012884947668665533
8.35125e-06	-0.01284931123122959
8.35150e-06	-0.012815304315517922
8.35175e-06	-0.012789234889229893
8.35200e-06	-0.012763165462941685
8.35225e-06	-0.012737096036653477
8.35250e-06	-0.012711026610365446
8.35275e-06	-0.01268495718407724
8.35300e-06	-0.012660008698170746
8.35325e-06	-0.012640520374158802
8.35350e-06	-0.012621032050146728
8.35375e-06	-0.012601543726134652
8.35400e-06	-0.012582055402122708
8.35425e-06	-0.012562567078110634
8.35450e-06	-0.012543078754098559
8.35475e-06	-0.012523590430086615
8.35500e-06	-0.012504102106074541
8.35525e-06	-0.012484613782062465
8.35550e-06	-0.012465125458050522
8.35575e-06	-0.012448032448674099
8.35600e-06	-0.012432117476334742
8.35625e-06	-0.012416202503995492
8.35650e-06	-0.012400287531656135
8.35675e-06	-0.012384372559316776
8.35700e-06	-0.012368457586977527
8.35725e-06	-0.01235254261463817
8.35750e-06	-0.012336627642298812
8.35775e-06	-0.012320712669959563
8.35800e-06	-0.012304797697620204
8.35825e-06	-0.012289296109272494
8.35850e-06	-0.012275808136953458
8.35875e-06	-0.012262320164634332
8.35900e-06	-0.012248832192315207
8.35925e-06	-0.012235344219996079
8.35950e-06	-0.012222258214875634
8.35975e-06	-0.012211130213960584
8.36000e-06	-0.012200002213045534
8.36025e-06	-0.012188874212130558
8.36050e-06	-0.012177746211215508
8.36075e-06	-0.01216701435050807
8.36100e-06	-0.012158212110414582
8.36125e-06	-0.012149409870321032
8.36150e-06	-0.012140276517546957
8.36175e-06	-0.012129530296799399
8.36200e-06	-0.01211878407605177
8.36225e-06	-0.012107512632970134
8.36250e-06	-0.012093682803178045
8.36275e-06	-0.012079852973385864
8.36300e-06	-0.012065227325740299
8.36325e-06	-0.012046725205811825
8.36350e-06	-0.012028223085883227
8.36375e-06	-0.012009720965954629
8.36400e-06	-0.011991218846026157
8.36425e-06	-0.011972716726097558
8.36450e-06	-0.011952983297412352
8.36475e-06	-0.011927252096439333
8.36500e-06	-0.011901520895466141
8.36525e-06	-0.011875789694492949
8.36550e-06	-0.01185005849351993
8.36575e-06	-0.011824327292546736
8.36600e-06	-0.0117977247819327
8.36625e-06	-0.01176687807441004
8.36650e-06	-0.011736031366887171
8.36675e-06	-0.011705184659364301
8.36700e-06	-0.011674337951841642
8.36725e-06	-0.011643183058891341
8.36750e-06	-0.01161052697787051
8.36775e-06	-0.011577870896849677
8.36800e-06	-0.011545214815829067
8.36825e-06	-0.011512558734808234
8.36850e-06	-0.011479960030084035
8.36875e-06	-0.01144764080843866
8.36900e-06	-0.011415544540580497
8.36925e-06	-0.011384534292813525
8.36950e-06	-0.011353722966462221
8.36975e-06	-0.011324033198800047
8.37000e-06	-0.011295277117279914
8.37025e-06	-0.011267672569566333
8.37050e-06	-0.011241422665798329
8.37075e-06	-0.011216912687096568
8.37100e-06	-0.011194660131160144
8.37125e-06	-0.01117308635093065
8.37150e-06	-0.011154818924290854
8.37175e-06	-0.011137234477040459
8.37200e-06	-0.01112297685974567
8.37225e-06	-0.011109434106373255
8.37250e-06	-0.01109937349426104
8.37275e-06	-0.011090254586281672
8.37300e-06	-0.011085722770633582
8.37325e-06	-0.011081190954985524
8.37350e-06	-0.01107816963844846
8.37375e-06	-0.011082506045687252
8.37400e-06	-0.011086842452926016
8.37425e-06	-0.011091178860164808
8.37450e-06	-0.0110955152674036
8.37475e-06	-0.011099851674642362
8.37500e-06	-0.011110798413448723
8.37525e-06	-0.011124996172101689
8.37550e-06	-0.011139193930754557
8.37575e-06	-0.011153391689407521
8.37600e-06	-0.011167589448060485
8.37625e-06	-0.011183024548013218
8.37650e-06	-0.011204486805104889
8.37675e-06	-0.011225949062196705
8.37700e-06	-0.01124741131928852
8.37725e-06	-0.01126887357638019
8.37750e-06	-0.011290335833472005
8.37775e-06	-0.011311798090563822
8.37800e-06	-0.011334983294233013
8.37825e-06	-0.01135901585835037
8.37850e-06	-0.011383048422467729
8.37875e-06	-0.011407080986584925
8.37900e-06	-0.011431113550702282
8.37925e-06	-0.011455146114819641
8.37950e-06	-0.011478840676041118
8.37975e-06	-0.011500888806672565
8.38000e-06	-0.011522936937304011
8.38025e-06	-0.011543947931449828
8.38050e-06	-0.011559906977054484
8.38075e-06	-0.011575866022659139
8.38100e-06	-0.011591825068263686
8.38125e-06	-0.011607784113868343
8.38150e-06	-0.011623743159472998
8.38175e-06	-0.011639702205077545
8.38200e-06	-0.011655661250682202
8.38225e-06	-0.011671620296286857
8.38250e-06	-0.011687579341891404
8.38275e-06	-0.011701778150284883
8.38300e-06	-0.011715111258364944
8.38325e-06	-0.011728444366444915
8.38350e-06	-0.011741777474524975
8.38375e-06	-0.011755110582605036
8.38400e-06	-0.011768443690685007
8.38425e-06	-0.011781776798765069
8.38450e-06	-0.011795109906845128
8.38475e-06	-0.01180844301492519
8.38500e-06	-0.011821861048239637
8.38525e-06	-0.011835692757015962
8.38550e-06	-0.011849524465792285
8.38575e-06	-0.011863356174568514
8.38600e-06	-0.011877187883344837
8.38625e-06	-0.011891019592121162
8.38650e-06	-0.011904851300897391
8.38675e-06	-0.011918683009673714
8.38700e-06	-0.011932514718450037
8.38725e-06	-0.011946346427226268
8.38750e-06	-0.011959549048015524
8.38775e-06	-0.0119724422777385
8.38800e-06	-0.01198533550746139
8.38825e-06	-0.011998228737184367
8.38850e-06	-0.012011121966907344
8.38875e-06	-0.012024015196630234
8.38900e-06	-0.01203690842635321
8.38925e-06	-0.012049801656076187
8.38950e-06	-0.012062694885799075
8.38975e-06	-0.012075168328941543
8.39000e-06	-0.012085596968691228
8.39025e-06	-0.012096025608440844
8.39050e-06	-0.01210616741958417
8.39075e-06	-0.012114912072898523
8.39100e-06	-0.012123545764865148
8.39125e-06	-0.012131638958038557
8.39150e-06	-0.012140508166812806
8.39175e-06	-0.012153157390021147
8.39200e-06	-0.012167081412910681
8.39225e-06	-0.012187215054769577
8.39250e-06	-0.012207348696628336
8.39275e-06	-0.012228750211346012
8.39300e-06	-0.01225632760410295
8.39325e-06	-0.01228390499685989
8.39350e-06	-0.012314118891516115
8.39375e-06	-0.01235717533112445
8.39400e-06	-0.012400231770732786
8.39425e-06	-0.01244328821034083
8.39450e-06	-0.012486344649949166
8.39475e-06	-0.012529401089557501
8.39500e-06	-0.012575453670619732
8.39525e-06	-0.012636100620576548
8.39550e-06	-0.012696747570533361
8.39575e-06	-0.012757394520489766
8.39600e-06	-0.01281804147044658
8.39625e-06	-0.012878688420403394
8.39650e-06	-0.01294123598179136
8.39675e-06	-0.013013041525415797
8.39700e-06	-0.013084847069040235
8.39725e-06	-0.013156652612664186
