Time(s)	Current(A)
9.75000e-06	-0.005915233954683091
9.75025e-06	-0.005903414637922601
9.75050e-06	-0.005895758395513059
9.75075e-06	-0.005888126305048092
9.75100e-06	-0.0058804942145830735
9.75125e-06	-0.005872862124118055
9.75150e-06	-0.005865230033653036
9.75175e-06	-0.005857597943188069
9.75200e-06	-0.0058499658527230505
9.75225e-06	-0.005842333762258032
9.75250e-06	-0.005834701671793065
9.75275e-06	-0.005829139305451906
9.75300e-06	-0.005825694973260732
9.75325e-06	-0.005822250641069581
9.75350e-06	-0.0058188063088784065
9.75375e-06	-0.005815361976687233
9.75400e-06	-0.005811917644496082
9.75425e-06	-0.005808473312304907
9.75450e-06	-0.0058050289801137335
9.75475e-06	-0.005801584647922583
9.75500e-06	-0.005798140315731408
9.75525e-06	-0.005794695983540234
9.75550e-06	-0.005791251651349084
9.75575e-06	-0.005787807319157909
9.75600e-06	-0.005784362986966735
9.75625e-06	-0.005780918654775585
9.75650e-06	-0.005777474322584411
9.75675e-06	-0.005774029990393236
9.75700e-06	-0.005771692694855266
9.75725e-06	-0.005770488275631565
9.75750e-06	-0.005769283856407864
9.75775e-06	-0.0057680794371841706
9.75800e-06	-0.005766875017960469
9.75825e-06	-0.005765670598736768
9.75850e-06	-0.005764466179513075
9.75875e-06	-0.0057632617602893736
9.75900e-06	-0.005762057341065672
9.75925e-06	-0.00576085292184198
9.75950e-06	-0.005759648502618278
9.75975e-06	-0.0057584440833945766
9.76000e-06	-0.005757239664170875
9.76025e-06	-0.005756035244947183
9.76050e-06	-0.005754830825723482
9.76075e-06	-0.00575362640649978
9.76100e-06	-0.005752421987276087
9.76125e-06	-0.005752113064798402
9.76150e-06	-0.005752720541114118
9.76175e-06	-0.0057533280174298295
9.76200e-06	-0.005753935493745545
9.76225e-06	-0.005754542970061261
9.76250e-06	-0.005755150446376973
9.76275e-06	-0.005755757922692689
9.76300e-06	-0.005756365399008405
9.76325e-06	-0.005756972875324116
9.76350e-06	-0.005757580351639833
9.76375e-06	-0.005758187827955548
9.76400e-06	-0.005760309761052679
9.76425e-06	-0.005763981500303103
9.76450e-06	-0.005767653239553527
9.76475e-06	-0.005771324978803926
9.76500e-06	-0.00577499671805435
9.76525e-06	-0.005778668457304774
9.76550e-06	-0.005782340196555173
9.76575e-06	-0.005786011935805596
9.76600e-06	-0.00578968367505602
9.76625e-06	-0.005793355414306419
9.76650e-06	-0.005797027153556842
9.76675e-06	-0.005801420120289151
9.76700e-06	-0.005806551148881703
9.76725e-06	-0.005811682177474289
9.76750e-06	-0.005816813206066876
9.76775e-06	-0.005821944234659427
9.76800e-06	-0.005827075263252014
9.76825e-06	-0.0058322062918446
9.76850e-06	-0.005837337320437187
9.76875e-06	-0.00584192487769847
9.76900e-06	-0.005846509282027929
9.76925e-06	-0.005851093686357388
9.76950e-06	-0.005855678090686816
9.76975e-06	-0.005860262495016274
9.77000e-06	-0.005864846899345733
9.77025e-06	-0.005869431303675161
9.77050e-06	-0.005873371088024152
9.77075e-06	-0.0058766512061319475
9.77100e-06	-0.005879931324239722
9.77125e-06	-0.005884261746073949
9.77150e-06	-0.005889666987076589
9.77175e-06	-0.005895072228079191
9.77200e-06	-0.005902489163962983
9.77225e-06	-0.005911964750277979
9.77250e-06	-0.005921440336592911
9.77275e-06	-0.005934301559769393
9.77300e-06	-0.005950627444933279
9.77325e-06	-0.005966953330097054
9.77350e-06	-0.00598327921526094
9.77375e-06	-0.005999605100424826
9.77400e-06	-0.006015930985588602
9.77425e-06	-0.006032256870752488
9.77450e-06	-0.006053568939619993
9.77475e-06	-0.006079983576142345
9.77500e-06	-0.006106398212664877
9.77525e-06	-0.006132812849187408
9.77550e-06	-0.006159227485709761
9.77575e-06	-0.006185642122232293
9.77600e-06	-0.006212056758754824
9.77625e-06	-0.006241625589853987
9.77650e-06	-0.006274422238495414
9.77675e-06	-0.006307218887136841
9.77700e-06	-0.006340015535778269
9.77725e-06	-0.006372812184419474
9.77750e-06	-0.006405608833060902
9.77775e-06	-0.0064384054817023285
9.77800e-06	-0.006471202130343533
9.77825e-06	-0.006503116903537679
9.77850e-06	-0.006535026560559043
9.77875e-06	-0.006566936217580191
9.77900e-06	-0.006598845874601554
9.77925e-06	-0.006630755531622918
9.77950e-06	-0.006662665188644065
9.77975e-06	-0.006694574845665428
9.78000e-06	-0.0067219106144582085
9.78025e-06	-0.0067445657345775074
9.78050e-06	-0.00676722085469696
9.78075e-06	-0.006789875974816412
9.78100e-06	-0.006812531094935711
9.78125e-06	-0.006835186215055164
9.78150e-06	-0.006857841335174616
9.78175e-06	-0.006880496455293915
9.78200e-06	-0.0069005835632404335
9.78225e-06	-0.006918042718300784
9.78250e-06	-0.0069355018733610165
9.78275e-06	-0.006952961028421367
9.78300e-06	-0.006970420183481718
9.78325e-06	-0.006987879338541951
9.78350e-06	-0.007005338493602302
9.78375e-06	-0.007022797648662653
9.78400e-06	-0.007040082777710737
9.78425e-06	-0.0070571898187554065
9.78450e-06	-0.007074296859800075
9.78475e-06	-0.007091403900844628
9.78500e-06	-0.007108510941889297
9.78525e-06	-0.007125617982933965
9.78550e-06	-0.007142725023978634
9.78575e-06	-0.007159832065023186
9.78600e-06	-0.007176939106067855
9.78625e-06	-0.007194046147112524
9.78650e-06	-0.007211153188157076
9.78675e-06	-0.0072276464332691704
9.78700e-06	-0.00724351155566059
9.78725e-06	-0.007259376678051901
9.78750e-06	-0.00727524180044332
9.78775e-06	-0.0072911069228347395
9.78800e-06	-0.0073069720452260505
9.78825e-06	-0.00732283716761747
9.78850e-06	-0.007338702290008888
9.78875e-06	-0.0073545674124002
9.78900e-06	-0.007370432534791619
9.78925e-06	-0.007386297657183038
9.78950e-06	-0.007398136557393571
9.78975e-06	-0.007405855258208465
9.79000e-06	-0.0074135739590233595
9.79025e-06	-0.007421292659838202
9.79050e-06	-0.007429011360653096
9.79075e-06	-0.00743673006146799
9.79100e-06	-0.0074444487622828326
9.79125e-06	-0.007452167463097727
9.79150e-06	-0.007459886163912621
9.79175e-06	-0.007467604864727463
9.79200e-06	-0.007475323565542358
9.79225e-06	-0.007483042266357252
9.79250e-06	-0.007490760967172094
9.79275e-06	-0.007498479667986988
9.79300e-06	-0.007506198368801883
9.79325e-06	-0.007513917069616725
9.79350e-06	-0.007521635770431619
9.79375e-06	-0.007529354471246513
9.79400e-06	-0.007537073172061408
9.79425e-06	-0.00753694974613672
9.79450e-06	-0.00753678082435839
9.79475e-06	-0.007536611902580059
9.79500e-06	-0.007536442980801729
9.79525e-06	-0.007536274059023397
9.79550e-06	-0.007536105137245066
9.79575e-06	-0.0075359362154667365
9.79600e-06	-0.007535767293688406
9.79625e-06	-0.007535598371910075
9.79650e-06	-0.007535429450131745
9.79675e-06	-0.007535260528353414
9.79700e-06	-0.0075350916065750825
9.79725e-06	-0.0075349226847967535
9.79750e-06	-0.007534753763018422
9.79775e-06	-0.007534584841240091
9.79800e-06	-0.007534415919461761
9.79825e-06	-0.00753424699768343
9.79850e-06	-0.0075340780759050995
9.79875e-06	-0.007533001925248451
9.79900e-06	-0.007530997369821913
9.79925e-06	-0.007528992814395375
9.79950e-06	-0.007526988258968851
9.79975e-06	-0.0075249893996238
9.80000e-06	-0.007522996369314123
9.80025e-06	-0.007521003339004459
9.80050e-06	-0.007519010308694782
9.80075e-06	-0.007516873783160555
9.80100e-06	-0.007514590413038257
9.80125e-06	-0.007509120420951274
9.80150e-06	-0.007500389427034683
9.80175e-06	-0.007491658433118152
9.80200e-06	-0.007477701773494172
9.80225e-06	-0.007458397474387972
9.80250e-06	-0.007439093175281771
9.80275e-06	-0.007415050580241992
9.80300e-06	-0.0073861590913322705
9.80325e-06	-0.007357267602422549
9.80350e-06	-0.007320254721078848
9.80375e-06	-0.007274930883530353
9.80400e-06	-0.007229607045981859
9.80425e-06	-0.007184283208433672
9.80450e-06	-0.007138959370885177
9.80475e-06	-0.007085137209902213
9.80500e-06	-0.0070226183636590165
9.80525e-06	-0.006960099517415396
9.80550e-06	-0.0068975806711717765
9.80575e-06	-0.00683506182492858
9.80600e-06	-0.006766932173483001
9.80625e-06	-0.0066930607534075055
9.80650e-06	-0.00661918933333251
9.80675e-06	-0.006543307062240971
9.80700e-06	-0.006465367004277838
9.80725e-06	-0.0063862840477025146
9.80750e-06	-0.0063060315157866115
9.80775e-06	-0.006225190734000771
9.80800e-06	-0.006143659826412454
9.80825e-06	-0.006062189690900647
9.80850e-06	-0.005981263689254002
9.80875e-06	-0.005901363331359753
9.80900e-06	-0.0058229148601426995
9.80925e-06	-0.005746214840764451
9.80950e-06	-0.005671519893878035
9.80975e-06	-0.005599206013414965
9.81000e-06	-0.005529760890092399
9.81025e-06	-0.0054673395247168514
9.81050e-06	-0.005410486006826875
9.81075e-06	-0.0053536324889368984
9.81100e-06	-0.005296778971046922
9.81125e-06	-0.0052399254531573305
9.81150e-06	-0.005195323703401043
9.81175e-06	-0.005150793031897235
9.81200e-06	-0.005106262360393727
9.81225e-06	-0.005061731688889919
9.81250e-06	-0.005023048155629426
9.81275e-06	-0.004990348240359636
9.81300e-06	-0.004957648325089626
9.81325e-06	-0.004924948409819615
9.81350e-06	-0.004892248494549826
9.81375e-06	-0.004859548579279815
9.81400e-06	-0.0048268486640098045
9.81425e-06	-0.004794148748740016
9.81450e-06	-0.004770842726785125
9.81475e-06	-0.004747591203210932
9.81500e-06	-0.004724339679636896
9.81525e-06	-0.004701088156062703
9.81550e-06	-0.00467783663248851
9.81575e-06	-0.004654585108914474
9.81600e-06	-0.00463133358534028
9.81625e-06	-0.004611207027963051
9.81650e-06	-0.00459427837752438
9.81675e-06	-0.0045773497270855945
9.81700e-06	-0.004560421076646809
9.81725e-06	-0.004543492426208138
9.81750e-06	-0.004526563775769352
9.81775e-06	-0.004509635125330567
9.81800e-06	-0.004492706474891897
9.81825e-06	-0.004478168279983393
9.81850e-06	-0.004466076336920551
9.81875e-06	-0.004453984393857791
9.81900e-06	-0.004441892450794949
9.81925e-06	-0.0044298005077321075
9.81950e-06	-0.0044177085646692656
9.81975e-06	-0.004405616621606505
9.82000e-06	-0.004393524678543663
9.82025e-06	-0.004382835141428592
9.82050e-06	-0.00437358074422513
9.82075e-06	-0.004364326347021605
9.82100e-06	-0.004356003498875069
9.82125e-06	-0.004348633943342186
9.82150e-06	-0.0043412643878092535
9.82175e-06	-0.004335298320452135
9.82200e-06	-0.004330768500495314
9.82225e-06	-0.004326238680538462
9.82250e-06	-0.00432170886058161
9.82275e-06	-0.004317179040624788
9.82300e-06	-0.004312649220667936
9.82325e-06	-0.004308119400711084
9.82350e-06	-0.004305465227234304
9.82375e-06	-0.004304730480245972
9.82400e-06	-0.00430399573325764
9.82425e-06	-0.004303260986269313
9.82450e-06	-0.004302526239280981
9.82475e-06	-0.0043017914922926495
9.82500e-06	-0.004301056745304322
9.82525e-06	-0.004301772797667859
9.82550e-06	-0.0043039735129116775
9.82575e-06	-0.004306174228155482
9.82600e-06	-0.0043083749433993
9.82625e-06	-0.004310575658643118
9.82650e-06	-0.004312776373886921
9.82675e-06	-0.00431497708913074
9.82700e-06	-0.0043171778043745584
9.82725e-06	-0.00432087652266125
9.82750e-06	-0.004324583931566279
9.82775e-06	-0.004328291340471308
9.82800e-06	-0.004331998749376337
9.82825e-06	-0.004335706158281342
9.82850e-06	-0.004339413567186371
9.82875e-06	-0.0043431209760914
9.82900e-06	-0.004346595326928709
9.82925e-06	-0.004349831179822375
9.82950e-06	-0.004353067032716041
9.82975e-06	-0.004356302885609686
9.83000e-06	-0.004359538738503352
9.83025e-06	-0.004362774591397018
9.83050e-06	-0.0043660104442906624
9.83075e-06	-0.004369246297184329
9.83100e-06	-0.004372482150077995
9.83125e-06	-0.004372989988805643
9.83150e-06	-0.0043734820010434446
9.83175e-06	-0.004373974013281246
9.83200e-06	-0.004374466025519045
9.83225e-06	-0.004374958037756846
9.83250e-06	-0.004375450049994648
9.83275e-06	-0.004375942062232446
9.83300e-06	-0.004376434074470248
9.83325e-06	-0.004375312538303036
9.83350e-06	-0.004372539791429301
9.83375e-06	-0.004369767044555548
9.83400e-06	-0.004366994297681794
9.83425e-06	-0.0043642215508080595
9.83450e-06	-0.004361448803934306
9.83475e-06	-0.004358676057060553
9.83500e-06	-0.004354707544047699
9.83525e-06	-0.004349515354171177
9.83550e-06	-0.004344323164294654
9.83575e-06	-0.004339130974418167
9.83600e-06	-0.004333938784541645
9.83625e-06	-0.004328746594665122
9.83650e-06	-0.0043235544047886
9.83675e-06	-0.004317713593786516
9.83700e-06	-0.0043112090220048084
9.83725e-06	-0.0043047044502231
9.83750e-06	-0.004298199878441435
9.83775e-06	-0.004291695306659726
9.83800e-06	-0.004285190734878017
9.83825e-06	-0.004278686163096353
9.83850e-06	-0.0042722261081752306
9.83875e-06	-0.004265766311517301
9.83900e-06	-0.004259306514859416
9.83925e-06	-0.004252846718201487
9.83950e-06	-0.004246386921543558
9.83975e-06	-0.004239927124885673
9.84000e-06	-0.004233775792948127
9.84025e-06	-0.004228157557136452
9.84050e-06	-0.004225089596821793
9.84075e-06	-0.004219312223954262
9.84100e-06	-0.055123706125096136
9.84125e-06	-0.032592169963392176
9.84150e-06	-0.021380444517633643
9.84175e-06	-0.007933573535721952
9.84200e-06	0.005884849682419254
9.84225e-06	0.011311536988844316
9.84250e-06	0.007271104692004245
9.84275e-06	-0.0025313346502605135
9.84300e-06	-0.013229925672941964
9.84325e-06	-0.017263349047760997
9.84350e-06	-0.01308596417701411
9.84375e-06	-0.004853628082571972
9.84400e-06	0.0032388135426479267
9.84425e-06	0.006363726127579091
9.84450e-06	0.0036451435179620604
9.84475e-06	-0.002630584703765482
9.84500e-06	-0.00943612961821422
9.84525e-06	-0.01204763423549415
9.84550e-06	-0.009504667044452518
9.84575e-06	-0.004415116403709641
9.84600e-06	0.0005907500846327827
9.84625e-06	0.0024876210587498663
9.84650e-06	0.0007263129934749345
9.84675e-06	-0.003261141943309934
9.84700e-06	-0.007578485391590051
9.84725e-06	-0.009266840034960696
9.84750e-06	-0.007724813246614257
9.84775e-06	-0.004586105437638443
9.84800e-06	-0.0014982569279757378
9.84825e-06	-0.00035608207365359437
9.84850e-06	-0.001503239079243185
9.84875e-06	-0.0040423736662399306
9.84900e-06	-0.006785431858300284
9.84925e-06	-0.007878872594874452
9.84950e-06	-0.0069459801590829075
9.84975e-06	-0.005010068475894543
9.85000e-06	-0.0031030243424582686
9.85025e-06	-0.0024115251295133756
9.85050e-06	-0.003150541397434734
9.85075e-06	-0.004757691001632949
9.85100e-06	-0.006488572613308803
9.85125e-06	-0.007182084189578845
9.85150e-06	-0.0066024049406830515
9.85175e-06	-0.0053907828435842105
9.85200e-06	-0.004193813979866426
9.85225e-06	-0.0037549931716377733
9.85250e-06	-0.004209098714244158
9.85275e-06	-0.005203985989429404
9.85300e-06	-0.006273530613736539
9.85325e-06	-0.006690641927184282
9.85350e-06	-0.0063078639606200275
9.85375e-06	-0.005527122791730749
9.85400e-06	-0.004753658405038139
9.85425e-06	-0.004453367678161286
9.85450e-06	-0.004710822278613782
9.85475e-06	-0.005305592424035855
9.85500e-06	-0.005945874997297758
9.85525e-06	-0.006176431395125984
9.85550e-06	-0.005905130308447708
9.85575e-06	-0.005383965520242374
9.85600e-06	-0.004866982563337302
9.85625e-06	-0.004646197909572011
9.85650e-06	-0.004774750305401201
9.85675e-06	-0.005114729401576349
9.85700e-06	-0.005483531198062781
9.85725e-06	-0.005596197807196704
9.85750e-06	-0.00539523571046875
9.85775e-06	-0.005038706645111823
9.85800e-06	-0.00468594326592919
9.85825e-06	-0.004520046532299671
9.85850e-06	-0.004574475378180908
9.85875e-06	-0.004763018014030107
9.85900e-06	-0.004971475752830932
9.85925e-06	-0.005021547693628699
9.85950e-06	-0.004877427413397547
9.85975e-06	-0.004638328825034524
9.86000e-06	-0.004404251532915631
9.86025e-06	-0.004290075023053472
9.86050e-06	-0.004316936118755227
9.86075e-06	-0.004430999140590723
9.86100e-06	-0.004560708380575857
9.86125e-06	-0.0045938232894765256
9.86150e-06	-0.004507045319486365
9.86175e-06	-0.004361993859342752
9.86200e-06	-0.0042211650125686655
9.86225e-06	-0.004156452196893429
9.86250e-06	-0.004181023971653572
9.86275e-06	-0.004261087954706695
9.86300e-06	-0.004351755238823073
9.86325e-06	-0.004382656734454793
9.86350e-06	-0.00433914101123609
9.86375e-06	-0.004259747449026138
9.86400e-06	-0.004183561300876865
9.86425e-06	-0.004155550014771165
9.86450e-06	-0.004183893562707626
9.86475e-06	-0.004247356206048053
9.86500e-06	-0.004317753656388201
9.86525e-06	-0.004350943981696743
9.86550e-06	-0.004337688983472222
9.86575e-06	-0.004302068373038106
9.86600e-06	-0.004268501488346166
9.86625e-06	-0.00426509003001618
9.86650e-06	-0.004296890609202277
9.86675e-06	-0.004350534023135137
9.86700e-06	-0.004408299708208657
9.86725e-06	-0.004442473235265363
9.86750e-06	-0.004447206057932021
9.86775e-06	-0.0044375185453961186
9.86800e-06	-0.004428642944806927
9.86825e-06	-0.004438116524108289
9.86850e-06	-0.004469039632359678
9.86875e-06	-0.004510957063330366
9.86900e-06	-0.004554835395110651
9.86925e-06	-0.004588940138521064
9.86950e-06	-0.004599825013373062
9.86975e-06	-0.004602174749023855
9.87000e-06	-0.004603954040802664
9.87025e-06	-0.004612047846071382
9.87050e-06	-0.004635224112973523
9.87075e-06	-0.0046639603709774154
9.87100e-06	-0.004692849997242086
9.87125e-06	-0.0047154624711915945
9.87150e-06	-0.004723400794040439
9.87175e-06	-0.004726615132337761
9.87200e-06	-0.0047300335518479
9.87225e-06	-0.004737673467502752
9.87250e-06	-0.004755439802120749
9.87275e-06	-0.004777223966109669
9.87300e-06	-0.0047995317029086385
9.87325e-06	-0.004818105301092515
9.87350e-06	-0.004827988314082206
9.87375e-06	-0.0048352926798921735
9.87400e-06	-0.004843021958769551
9.87425e-06	-0.0048535257006591245
9.87450e-06	-0.004870696654838176
9.87475e-06	-0.004890607376521662
9.87500e-06	-0.004911009860163763
9.87525e-06	-0.0049291350535470265
9.87550e-06	-0.004941962278441371
9.87575e-06	-0.004953241111327778
9.87600e-06	-0.004964818382252744
9.87625e-06	-0.0049785183536597616
9.87650e-06	-0.004996339443955672
9.87675e-06	-0.005014658102779986
9.87700e-06	-0.005033942766501905
9.87725e-06	-0.005051418737752179
9.87750e-06	-0.005065383221266513
9.87775e-06	-0.005079581607899261
9.87800e-06	-0.005094234105965686
9.87825e-06	-0.005108886604032012
9.87850e-06	-0.005123539102098437
9.87875e-06	-0.005138418300175304
9.87900e-06	-0.00515373762520505
9.87925e-06	-0.0051690569502349
9.87950e-06	-0.005182926946636574
9.87975e-06	-0.0051939831425811215
9.88000e-06	-0.005205039338525594
9.88025e-06	-0.005216309648830553
9.88050e-06	-0.005227995651666185
9.88075e-06	-0.005238527723656453
9.88100e-06	-0.00524681949549884
9.88125e-06	-0.005255111267341225
9.88150e-06	-0.0052634030391835555
9.88175e-06	-0.005271694811025942
9.88200e-06	-0.005276454929966526
9.88225e-06	-0.005280542194305627
9.88250e-06	-0.005284629458644757
9.88275e-06	-0.005288716722983886
9.88300e-06	-0.005290682438986813
9.88325e-06	-0.005288529272934443
9.88350e-06	-0.005286376106882073
9.88375e-06	-0.005284222940829719
9.88400e-06	-0.0052820697747773485
9.88425e-06	-0.005279916608724979
9.88450e-06	-0.005277763442672625
9.88475e-06	-0.0052756102766202545
9.88500e-06	-0.005273457110567885
9.88525e-06	-0.00526930832303966
9.88550e-06	-0.0052612851342797706
9.88575e-06	-0.0052532619455198815
9.88600e-06	-0.005245238756760046
9.88625e-06	-0.005237215568000157
9.88650e-06	-0.005229192379240268
9.88675e-06	-0.005221169190480433
9.88700e-06	-0.005213146001720544
9.88725e-06	-0.005205122812960654
9.88750e-06	-0.005196313931357513
9.88775e-06	-0.005185979665628721
9.88800e-06	-0.0051756453998999296
9.88825e-06	-0.005165311134171138
9.88850e-06	-0.005154976868442416
9.88875e-06	-0.005144642602713625
9.88900e-06	-0.005134308336984833
9.88925e-06	-0.005123974071256112
9.88950e-06	-0.005115160769203644
9.88975e-06	-0.005106637242912592
9.89000e-06	-0.005098113716621597
9.89025e-06	-0.0050895901903305445
9.89050e-06	-0.005081066664039492
9.89075e-06	-0.005072543137748497
9.89100e-06	-0.005064019611457445
9.89125e-06	-0.005057445536391613
9.89150e-06	-0.005054656225280654
9.89175e-06	-0.005051866914169675
9.89200e-06	-0.005049077603058697
9.89225e-06	-0.005046288291947737
9.89250e-06	-0.005043498980836759
9.89275e-06	-0.005040709669725781
9.89300e-06	-0.005037920358614821
9.89325e-06	-0.005041362909852443
9.89350e-06	-0.005045992762723552
9.89375e-06	-0.0050506226155946285
9.89400e-06	-0.005055252468465737
9.89425e-06	-0.005059882321336846
9.89450e-06	-0.005064512174207923
9.89475e-06	-0.005069142027079031
9.89500e-06	-0.005075909258412741
9.89525e-06	-0.005086826105216988
9.89550e-06	-0.005097742952021309
9.89575e-06	-0.0051086597988256295
9.89600e-06	-0.005119576645629877
9.89625e-06	-0.0051304934924341974
