Time(s)	Current(A)
1.12500e-05	0.002499643436048975
1.12503e-05	0.0025137363072820114
1.12505e-05	0.0025278291785149525
1.12508e-05	0.002541922049747989
1.12510e-05	0.002556014920981026
1.12513e-05	0.002570107792213967
1.12515e-05	0.0025842006634470035
1.12518e-05	0.00259829353468004
1.12520e-05	0.0026111932810174462
1.12523e-05	0.0026214341530648956
1.12525e-05	0.002631675025112345
1.12527e-05	0.0026419158971597253
1.12530e-05	0.0026521567692071746
1.12533e-05	0.002662397641254624
1.12535e-05	0.002672638513302004
1.12538e-05	0.0026828793853494533
1.12540e-05	0.0026931202573969026
1.12542e-05	0.002703361129444283
1.12545e-05	0.0027123429405073963
1.12548e-05	0.0027200302193414695
1.12550e-05	0.0027274828416840456
1.12553e-05	0.002734935464026571
1.12555e-05	0.002742388086369147
1.12558e-05	0.002749840708711723
1.12560e-05	0.0027572933310542483
1.12563e-05	0.0027632413632302133
1.12565e-05	0.0027658364219441843
1.12568e-05	0.0027684314806581374
1.12570e-05	0.002771026539372108
1.12573e-05	0.0027736215980860785
1.12575e-05	0.0027762166568000316
1.12578e-05	0.0027788117155140026
1.12580e-05	0.0027625950604337067
1.12583e-05	0.0027419583736727035
1.12585e-05	0.0027213216869115603
1.12588e-05	0.0027006850001504174
1.12590e-05	0.0026800483133894142
1.12593e-05	0.0026594116266282714
1.12595e-05	0.002638774939867128
1.12598e-05	0.002618138253106125
1.12600e-05	0.002597501566344982
1.12603e-05	0.002567528307201751
1.12605e-05	0.0025167485320249177
1.12608e-05	0.00246596875684774
1.12610e-05	0.0024151889816705625
1.12612e-05	0.002364409206493729
1.12615e-05	0.0023136294313165513
1.12618e-05	0.0022628496561393737
1.12620e-05	0.00221206988096254
1.12623e-05	0.0021612901057853624
1.12625e-05	0.002110510330608185
1.12627e-05	0.0020477916408497975
1.12630e-05	0.0019822677637872164
1.12633e-05	0.0019167438867246356
1.12635e-05	0.0018512200096620548
1.12638e-05	0.001785696132599918
1.12640e-05	0.0017199966956425966
1.12643e-05	0.0016539060241276737
1.12645e-05	0.0015878153526131986
1.12648e-05	0.0015217246810982756
1.12650e-05	0.0014556340095833527
1.12653e-05	0.0013895433380688776
1.12655e-05	0.0013284997380403985
1.12658e-05	0.001268642006355356
1.12660e-05	0.0012087842746707194
1.12663e-05	0.001154451116353783
1.12665e-05	0.00110141602101973
1.12668e-05	0.0010544140659810436
1.12670e-05	0.0010088296676592362
1.12673e-05	0.0009700513465216863
1.12675e-05	0.0009328721926436965
1.12678e-05	0.0009025159424920946
1.12680e-05	0.0008737628131923645
1.12683e-05	0.0008503136268822052
1.12685e-05	0.0008317665954996929
1.12688e-05	0.00081782428823637
1.12690e-05	0.0008085685566524791
1.12693e-05	0.000803954335100196
1.12695e-05	0.0008038025732963805
1.12697e-05	0.000807945379548287
1.12700e-05	0.0008179277292755602
1.12703e-05	0.0008290915220813442
1.12705e-05	0.000846714326958475
1.12708e-05	0.0008658547520966505
1.12710e-05	0.0008910856079004685
1.12712e-05	0.0009177474814625492
1.12715e-05	0.0009497479880288508
1.12718e-05	0.000983002868719798
1.12720e-05	0.0010218001469732942
1.12723e-05	0.0010618996762120612
1.12725e-05	0.0011019992054511
1.12728e-05	0.001147310155262642
1.12730e-05	0.0011938455891532457
1.12733e-05	0.0012403810230441645
1.12735e-05	0.0012904726610542517
1.12738e-05	0.001341399870721768
1.12740e-05	0.0013923270803896295
1.12743e-05	0.0014432542900574908
1.12745e-05	0.0014941814997250073
1.12748e-05	0.0015441216653560913
1.12750e-05	0.0015938299134721674
1.12753e-05	0.0016435381615879064
1.12755e-05	0.0016932464097039824
1.12758e-05	0.0017429546578200585
1.12760e-05	0.0017871552753723704
1.12763e-05	0.0018300618108513002
1.12765e-05	0.0018729683463302297
1.12768e-05	0.0019087214174357233
1.12770e-05	0.0019427936986076016
1.12773e-05	0.0019768659797794797
1.12775e-05	0.002002623780860883
1.12778e-05	0.002026427997816982
1.12780e-05	0.0020502322147730808
1.12782e-05	0.00206529040031517
1.12785e-05	0.002078293603712195
1.12788e-05	0.0020912968071092205
1.12790e-05	0.0020951505819833643
1.12793e-05	0.002096854591854056
1.12795e-05	0.002098558601724748
1.12797e-05	0.002091667092111076
1.12800e-05	0.002082755964886471
1.12803e-05	0.0020738448376618666
1.12805e-05	0.0020569887544162084
1.12808e-05	0.002038265911037553
1.12810e-05	0.002019543067658771
1.12813e-05	0.001993773123765264
1.12815e-05	0.0019663473813677445
1.12818e-05	0.0019389216389700385
1.12820e-05	0.0019037221282324278
1.12823e-05	0.0018666960799051929
1.12825e-05	0.0018296700315777073
1.12828e-05	0.0017926439832502215
1.12830e-05	0.0017556179349229866
1.12833e-05	0.001718591886595501
1.12835e-05	0.0016765036884519688
1.12838e-05	0.0016332260791350089
1.12840e-05	0.001589948469817756
1.12843e-05	0.0015466708605005029
1.12845e-05	0.0015033932511835432
1.12848e-05	0.00146011564186629
1.12850e-05	0.001418593652085369
1.12853e-05	0.0013774841656026102
1.12855e-05	0.0013363746791195726
1.12858e-05	0.0012952651926365353
1.12860e-05	0.0012541557061537764
1.12863e-05	0.0012208581470263796
1.12865e-05	0.0011893960913953977
1.12867e-05	0.001157934035764629
1.12870e-05	0.001126471980133647
1.12873e-05	0.001095009924502665
1.12875e-05	0.0010729270401858874
1.12878e-05	0.001053047901623059
1.12880e-05	0.001039641608716687
1.12882e-05	0.0010277561864348065
1.12885e-05	0.0010223723610443321
1.12888e-05	0.0010185161617164628
1.12890e-05	0.0010212804762733227
1.12893e-05	0.001025600357828001
1.12895e-05	0.0010368468832201753
1.12898e-05	0.0010497209044150941
1.12900e-05	0.0010692352354268759
1.12903e-05	0.001090309784721884
1.12905e-05	0.0011174824709553053
1.12908e-05	0.001146087985626765
1.12910e-05	0.0011803056470993459
1.12913e-05	0.001215841947955966
1.12915e-05	0.0012577854222489999
1.12918e-05	0.001301234336712321
1.12920e-05	0.0013446832511756425
1.12923e-05	0.0013942134760344931
1.12925e-05	0.0014451725757395136
1.12928e-05	0.0014961316754445342
1.12930e-05	0.0015521794209489791
1.12933e-05	0.001609422803168543
1.12935e-05	0.0016666661853881068
1.12938e-05	0.0017239095676072828
1.12940e-05	0.0017811529498268466
1.12943e-05	0.0018384785196197606
1.12945e-05	0.0018959872441070115
1.12948e-05	0.001953495968594652
1.12950e-05	0.0020110046930822928
1.12952e-05	0.0020685134175695437
1.12955e-05	0.0021260221420571846
1.12958e-05	0.002171766268252571
1.12960e-05	0.002214746164786551
1.12963e-05	0.0022577260613208215
1.12965e-05	0.0023007059578550922
1.12967e-05	0.0023436858543890715
1.12970e-05	0.0023866657509233422
1.12973e-05	0.002429645647457613
1.12975e-05	0.0024726255439918837
1.12978e-05	0.0024907557481379425
1.12980e-05	0.002503047227062406
1.12983e-05	0.00251533870598687
1.12985e-05	0.0025276301849112503
1.12988e-05	0.002539921663835714
1.12990e-05	0.0025522131427601776
1.12993e-05	0.002564504621684558
1.12995e-05	0.0025767961006090217
1.12998e-05	0.002570631769027444
1.13000e-05	0.0025601310293884637
1.13003e-05	0.002549630289749412
1.13005e-05	0.002530077907209877
1.13008e-05	0.0025083987355385543
1.13010e-05	0.002486719563867084
1.13013e-05	0.002453291141409319
1.13015e-05	0.002417102095365948
1.13018e-05	0.002380913049322332
1.13020e-05	0.0023447240032787157
1.13023e-05	0.002308534957235345
1.13025e-05	0.002272345911191729
1.13028e-05	0.0022324793787295944
1.13030e-05	0.002184417581764413
1.13033e-05	0.0021363557847989055
1.13035e-05	0.002088293987833398
1.13037e-05	0.0020402321908682165
1.13040e-05	0.001992170393902709
1.13043e-05	0.0019441085969372019
1.13045e-05	0.0018953492000201196
1.13048e-05	0.0018464258938529939
1.13050e-05	0.0017975025876858682
1.13052e-05	0.001748579281519074
1.13055e-05	0.0016996559753519483
1.13058e-05	0.0016536000950142101
1.13060e-05	0.001613934262237295
1.13063e-05	0.001574268429460649
1.13065e-05	0.001534602596683734
1.13068e-05	0.0014949367639068192
1.13070e-05	0.001455270931130173
1.13073e-05	0.0014233308765526868
1.13075e-05	0.0013932060837235308
1.13078e-05	0.0013630812908945792
1.13080e-05	0.00133855965421293
1.13083e-05	0.0013153545444574213
1.13085e-05	0.0012921494347020702
1.13088e-05	0.0012689443249465616
1.13090e-05	0.001245739215191053
1.13093e-05	0.0012225341054357016
1.13095e-05	0.001199328995680193
1.13098e-05	0.0011761238859246844
1.13100e-05	0.0011592135409172612
1.13103e-05	0.0011437822243478136
1.13105e-05	0.0011283509077783661
1.13108e-05	0.0011129195912090233
1.13110e-05	0.0010974882746395758
1.13113e-05	0.0010820569580701283
1.13115e-05	0.0010666256415007853
1.13118e-05	0.0010511943249313378
1.13120e-05	0.0010396715092919674
1.13122e-05	0.0010290670415589133
1.13125e-05	0.0010184625738257874
1.13128e-05	0.0010078581060926615
1.13130e-05	0.0009972536383596074
1.13133e-05	0.0009866491706264815
1.13135e-05	0.0009760447028933555
1.13137e-05	0.0009654402351603014
1.13140e-05	0.0009548357674271754
1.13143e-05	0.0009453849839798199
1.13145e-05	0.0009385051815786913
1.13148e-05	0.0009316253791776093
1.13150e-05	0.0009247455767764808
1.13153e-05	0.0009178657743753522
1.13155e-05	0.0009109859719742703
1.13158e-05	0.0009041061695731417
1.13160e-05	0.0008972263671720131
1.13163e-05	0.0008903465647709312
1.13165e-05	0.0008834667623698026
1.13168e-05	0.0008787620979773153
1.13170e-05	0.0008745685076442699
1.13173e-05	0.000870374917311196
1.13175e-05	0.0008707988852915244
1.13178e-05	0.0008723078024853792
1.13180e-05	0.0008788541717116551
1.13183e-05	0.0008865841490809897
1.13185e-05	0.0008988971440040721
1.13188e-05	0.0009122869723861774
1.13190e-05	0.0009301861727406932
1.13193e-05	0.0009491449026651988
1.13195e-05	0.0009738706825594391
1.13198e-05	0.000999951498146632
1.13200e-05	0.0010317514057006148
1.13203e-05	0.0010648950806553868
1.13205e-05	0.0011029174631189465
1.13207e-05	0.0011420861548469452
1.13210e-05	0.0011866634252044705
1.13213e-05	0.001232511504230216
1.13215e-05	0.0012783595832556506
1.13218e-05	0.0013305714889091335
1.13220e-05	0.0013842786498960934
1.13222e-05	0.0014379858108826893
1.13225e-05	0.0014971005264235357
1.13228e-05	0.0015574858100142535
1.13230e-05	0.001617871093604971
1.13233e-05	0.0016782563771952797
1.13235e-05	0.0017386416607859975
1.13238e-05	0.001799681284911208
1.13240e-05	0.0018621791044306402
1.13243e-05	0.001924676923950496
1.13245e-05	0.0019871747434703517
1.13248e-05	0.002049672562989784
1.13250e-05	0.0021121703825096394
1.13253e-05	0.0021617974010460375
1.13255e-05	0.0022084002746853774
1.13258e-05	0.002255003148325033
1.13260e-05	0.0023016060219646886
1.13263e-05	0.0023482088956040285
1.13265e-05	0.0023948117692436845
1.13268e-05	0.00244141464288334
1.13270e-05	0.00248801751652268
1.13273e-05	0.0025346203901623356
1.13275e-05	0.002581223263801991
1.13278e-05	0.002627826137441331
1.13280e-05	0.0026464042611199544
1.13283e-05	0.0026583976427380605
1.13285e-05	0.0026703910243560855
1.13288e-05	0.0026823844059741917
1.13290e-05	0.0026943777875922978
1.13292e-05	0.002706371169210323
1.13295e-05	0.002718364550828429
1.13298e-05	0.002730357932446535
1.13300e-05	0.00274235131406456
1.13303e-05	0.002754344695682666
1.13305e-05	0.0027663380773007723
1.13307e-05	0.002757622051493855
1.13310e-05	0.0027440401087269386
1.13313e-05	0.0027304581659600225
1.13315e-05	0.002716876223193106
1.13318e-05	0.0027032942804262818
1.13320e-05	0.0026897123376593652
1.13323e-05	0.002676130394892449
1.13325e-05	0.0026625484521256245
1.13328e-05	0.002639628556007081
1.13330e-05	0.0026145145987714912
1.13333e-05	0.0025894006415360716
1.13335e-05	0.002564286684300482
1.13338e-05	0.0025391727270648924
1.13340e-05	0.002514058769829473
1.13343e-05	0.0024889448125938836
1.13345e-05	0.002463830855358294
1.13348e-05	0.0024388226178278347
1.13350e-05	0.002413839220375674
1.13353e-05	0.0023888558229235132
1.13355e-05	0.0023638724254715217
1.13358e-05	0.002338889028019361
1.13360e-05	0.0023139056305672002
1.13363e-05	0.002288922233115209
1.13365e-05	0.0022639388356630484
1.13368e-05	0.0022436633586699357
1.13370e-05	0.0022244940625320768
1.13373e-05	0.002205324766394088
1.13375e-05	0.0021861554702560996
1.13377e-05	0.002166986174118241
1.13380e-05	0.0021478168779802526
1.13383e-05	0.002128647581842264
1.13385e-05	0.002109478285704405
1.13388e-05	0.002088487620348796
1.13390e-05	0.002067069003039361
1.13392e-05	0.0020456503857300703
1.13395e-05	0.002024231768420635
1.13398e-05	0.002002813151111199
1.13400e-05	0.0019813945338017637
1.13403e-05	0.001959975916492473
1.13405e-05	0.0019385572991830378
1.13408e-05	0.0019171386818736022
1.13410e-05	0.0018957200645643118
1.13413e-05	0.0018743014472548762
1.13415e-05	0.0018515352385648132
1.13418e-05	0.001825765927602093
1.13420e-05	0.0017999966166391984
1.13423e-05	0.0017742273056763037
1.13425e-05	0.0017484579947135836
1.13428e-05	0.0017226886837506889
1.13430e-05	0.0016969193727877942
1.13433e-05	0.0016711500618250743
1.13435e-05	0.0016453807508621794
1.13438e-05	0.0016196114398992847
1.13440e-05	0.0015938421289365648
1.13443e-05	0.00156807281797367
1.13445e-05	0.0015444448443777301
1.13448e-05	0.001521320002986778
1.13450e-05	0.001498195161595669
1.13453e-05	0.0014750703202045601
1.13455e-05	0.001451945478813608
1.13458e-05	0.001428820637422499
1.13460e-05	0.00140569579603139
1.13462e-05	0.0013825709546404377
1.13465e-05	0.0013648268008226614
1.13468e-05	0.0013483469023456882
1.13470e-05	0.0013318670038688267
1.13473e-05	0.0013153871053918536
1.13475e-05	0.0012989072069148804
1.13477e-05	0.0012824273084380189
1.13480e-05	0.0012659474099610457
1.13483e-05	0.0012494675114840725
1.13485e-05	0.0012344787778614701
1.13488e-05	0.0012198404108242089
1.13490e-05	0.0012052020437868483
1.13493e-05	0.0011905636767494878
1.13495e-05	0.0011759253097122265
1.13498e-05	0.001161286942674866
1.13500e-05	0.0011466485756375057
1.13503e-05	0.0011320102086002444
1.13505e-05	0.0011173718415628839
1.13508e-05	0.0011027334745255233
1.13510e-05	0.001088095107488262
1.13513e-05	0.0010734567404509015
1.13515e-05	0.001058818373413541
1.13518e-05	0.0010438381059717516
1.13520e-05	0.0010287775050396373
1.13523e-05	0.0010137169041075228
1.13525e-05	0.0009986563031755106
1.13528e-05	0.0009835957022433961
1.13530e-05	0.0009685351013112817
1.13533e-05	0.0009534745003792694
1.13535e-05	0.000938413899447155
1.13538e-05	0.0009233532985150406
1.13540e-05	0.0009082926975830282
1.13543e-05	0.0008932320966509139
1.13545e-05	0.0008781714957187994
1.13548e-05	0.0008631108947867871
1.13550e-05	0.000849634064716573
1.13553e-05	0.0008365293600939798
1.13555e-05	0.0008234246554714754
1.13558e-05	0.0008103199508488823
1.13560e-05	0.000798028285395788
1.13562e-05	0.0007875484746447123
1.13565e-05	0.0007770686638935656
1.13568e-05	0.0007665888531424188
1.13570e-05	0.0007561090423912721
1.13573e-05	0.0007496887305760725
1.13575e-05	0.000744222245412857
1.13578e-05	0.0007441751323733773
1.13580e-05	0.0007454013640620066
1.13583e-05	0.0007518934079998006
1.13585e-05	0.0007596227159810348
1.13588e-05	0.000772274235387038
1.13590e-05	0.0007860822858128079
1.13593e-05	0.0008054406207477066
1.13595e-05	0.0008261030598033074
1.13598e-05	0.0008530971335280304
1.13600e-05	0.0008815788987125818
1.13603e-05	0.0009157217349269453
1.13605e-05	0.0009511947058484916
1.13608e-05	0.0009915390315021466
1.13610e-05	0.0010330279388018012
1.13613e-05	0.0010792073979857774
1.13615e-05	0.0011264889570768387
1.13618e-05	0.001179324264964707
1.13620e-05	0.001233464490948863
1.13623e-05	0.0012876047169330192
1.13625e-05	0.0013475968861541819
1.13628e-05	0.0014089640377356102
1.13630e-05	0.0014703311893170382
1.13633e-05	0.0015316983408980508
1.13635e-05	0.0015930654924794791
1.13638e-05	0.0016551991598801508
1.13640e-05	0.001719041004873277
1.13643e-05	0.001782882849866836
1.13645e-05	0.0018467246948603946
1.13647e-05	0.0019105665398535209
1.13650e-05	0.0019744083848470795
1.13653e-05	0.002028554916184078
1.13655e-05	0.0020804234204260634
1.13658e-05	0.0021322919246676976
1.13660e-05	0.002184160428909683
1.13663e-05	0.0022360289331516685
1.13665e-05	0.0022878974373933022
1.13668e-05	0.0023397659416352877
1.13670e-05	0.002391634445877273
1.13673e-05	0.0024373671112567045
1.13675e-05	0.002469426083026374
1.13678e-05	0.0025014850547960435
1.13680e-05	0.0025335440265654955
1.13683e-05	0.002565602998335165
1.13685e-05	0.0025976619701048344
1.13688e-05	0.002629720941874287
1.13690e-05	0.002661779913643956
1.13693e-05	0.0026938388854136257
1.13695e-05	0.002714622010798113
1.13698e-05	0.002732755744476594
1.13700e-05	0.002750889478155075
1.13703e-05	0.0027690232118334325
1.13705e-05	0.002787156945511913
1.13708e-05	0.002805290679190394
1.13710e-05	0.0028234244128687515
1.13713e-05	0.0028415581465472324
1.13715e-05	0.0028596918802257128
1.13718e-05	0.002877825613904071
1.13720e-05	0.0028959593475825513
1.13723e-05	0.002914093081261032
1.13725e-05	0.00293222681493939
1.13728e-05	0.0029503605486178707
1.13730e-05	0.002965668410543463
1.13732e-05	0.0029746788279945203
1.13735e-05	0.002983689245445639
1.13738e-05	0.0029926996628967576
1.13740e-05	0.0030017100803478762
1.13743e-05	0.0030107204977989337
1.13745e-05	0.0030197309152500524
1.13748e-05	0.003028741332701171
1.13750e-05	0.0030377517501522285
1.13753e-05	0.003046762167603347
1.13755e-05	0.003055772585054466
1.13758e-05	0.0030647830025055233
1.13760e-05	0.003073793419956642
1.13763e-05	0.0030828038374077606
1.13765e-05	0.003091814254858818
1.13768e-05	0.003091759114682083
1.13770e-05	0.0030895739159375883
1.13773e-05	0.003087388717193108
1.13775e-05	0.003085203518448613
1.13778e-05	0.003083018319704118
1.13780e-05	0.003080833120959638
1.13783e-05	0.0030786479222151427
1.13785e-05	0.003076462723470648
1.13788e-05	0.0030742775247261677
1.13790e-05	0.003072092325981673
1.13793e-05	0.0030699071272371776
1.13795e-05	0.0030677219284926975
1.13798e-05	0.0030655367297482026
1.13800e-05	0.0030633515310037078
1.13803e-05	0.0030472188994514083
1.13805e-05	0.003027809155781557
1.13808e-05	0.0030083994121117056
1.13810e-05	0.002988989668441986
1.13813e-05	0.0029695799247721347
1.13815e-05	0.002950170181102283
1.13817e-05	0.0029307604374325634
1.13820e-05	0.002911350693762712
1.13823e-05	0.0028919409500928607
1.13825e-05	0.002872531206423141
1.13828e-05	0.0028531214627532894
1.13830e-05	0.002833711719083438
1.13833e-05	0.0028143019754135867
1.13835e-05	0.002794892231743867
1.13838e-05	0.0027732138338369926
1.13840e-05	0.002751002389139783
1.13843e-05	0.0027287909444427237
1.13845e-05	0.002706579499745514
1.13848e-05	0.0026843680550483044
1.13850e-05	0.002662156610351245
1.13853e-05	0.002639945165654035
1.13855e-05	0.002617733720956825
1.13858e-05	0.002595522276259766
1.13860e-05	0.0025733108315625563
1.13863e-05	0.0025510993868653464
1.13865e-05	0.0025288879421682875
1.13868e-05	0.0025066764974710776
1.13870e-05	0.0024844650527738677
1.13873e-05	0.0024713039851074962
1.13875e-05	0.0024602694091512877
1.13878e-05	0.0024492348331950796
1.13880e-05	0.002438200257238946
1.13883e-05	0.0024271656812827375
1.13885e-05	0.002416131105326529
1.13888e-05	0.0024050965293703954
1.13890e-05	0.0023940619534141873
1.13893e-05	0.0023830273774579787
1.13895e-05	0.002371992801501845
1.13898e-05	0.0023609582255456367
1.13900e-05	0.0023499236495894285
1.13902e-05	0.002338889073633295
1.13905e-05	0.0023278544976770865
1.13908e-05	0.002322466781693807
1.13910e-05	0.0023184058613659325
1.13913e-05	0.0023143449410380308
1.13915e-05	0.0023102840207101286
1.13918e-05	0.002306223100382227
1.13920e-05	0.0023021621800543525
1.13923e-05	0.0022981012597264507
1.13925e-05	0.002294040339398549
1.13928e-05	0.0022899794190706746
1.13930e-05	0.002285918498742773
1.13933e-05	0.002281857578414871
1.13935e-05	0.0022777966580869967
1.13938e-05	0.002274551846723741
1.13940e-05	0.002273125731091684
1.13943e-05	0.0022716996154596367
1.13945e-05	0.0022702734998275792
1.13948e-05	0.0022688473841955222
1.13950e-05	0.0022674212685634748
1.13953e-05	0.0022659951529314173
1.13955e-05	0.0022645690372993603
1.13958e-05	0.002263142921667313
1.13960e-05	0.0022617168060352555
1.13963e-05	0.0022602906904031985
1.13965e-05	0.002258864574771151
1.13968e-05	0.0022574384591390936
1.13970e-05	0.0022497160106436367
1.13973e-05	0.0022405141652567023
1.13975e-05	0.0022313123198697054
1.13978e-05	0.0022221104744827086
1.13980e-05	0.002212908629095774
1.13983e-05	0.0022037067837087773
