Time(s)	Current(A)
7.75000e-06	-0.0019625201846209203
7.75025e-06	-0.0019343969486977082
7.75050e-06	-0.0019047706905543154
7.75075e-06	-0.001873543036347918
7.75100e-06	-0.0018406528075655567
7.75125e-06	-0.0018062495440429281
7.75150e-06	-0.001770546111904826
7.75175e-06	-0.0017337597652460027
7.75200e-06	-0.0016961079447838873
7.75225e-06	-0.0016577997252733832
7.75250e-06	-0.0016189434274275969
7.75275e-06	-0.0015795330840833789
7.75300e-06	-0.0015396353448789916
7.75325e-06	-0.0014994485929638542
7.75350e-06	-0.001459210920054466
7.75375e-06	-0.0014191632010039578
7.75400e-06	-0.0013795464039759661
7.75425e-06	-0.001340596160657522
7.75450e-06	-0.0013024851199070462
7.75475e-06	-0.0012653141467459652
7.75500e-06	-0.0012292298066229133
7.75525e-06	-0.0011944609325561528
7.75550e-06	-0.0011612614522392888
7.75575e-06	-0.0011298869204079745
7.75600e-06	-0.0011005927638304957
7.75625e-06	-0.0010736399554785972
7.75650e-06	-0.001049341253881783
7.75675e-06	-0.001028023024557866
7.75700e-06	-0.001011336410416728
7.75725e-06	-0.000995127090251511
7.75750e-06	-0.0009847942582208084
7.75775e-06	-0.0009751087944830792
7.75800e-06	-0.0009713877992070252
7.75825e-06	-0.0009683238643518725
7.75850e-06	-0.0009713890071581195
7.75875e-06	-0.0009751293441369402
7.75900e-06	-0.0009850388952136603
7.75925e-06	-0.0009956280619909047
7.75950e-06	-0.0010120128934971897
7.75975e-06	-0.0010290361895925052
7.76000e-06	-0.0010514195743931145
7.76025e-06	-0.0010743934396637291
7.76050e-06	-0.0011034954475642536
7.76075e-06	-0.0011332725466322198
7.76100e-06	-0.001163049645700186
7.76125e-06	-0.0011990475516204442
7.76150e-06	-0.001235730756824901
7.76175e-06	-0.0012724139620296064
7.76200e-06	-0.0013130306603521967
7.76225e-06	-0.0013540806818885668
7.76250e-06	-0.0013974174054568465
7.76275e-06	-0.0014410060377089138
7.76300e-06	-0.0014860995634949849
7.76325e-06	-0.0015313588720305906
7.76350e-06	-0.0015771791993389997
7.76375e-06	-0.0016230613298460685
7.76400e-06	-0.0016685364333690333
7.76425e-06	-0.0017139666978047419
7.76450e-06	-0.0017580410794864531
7.76475e-06	-0.0018019660938109394
7.76500e-06	-0.0018435556970907688
7.76525e-06	-0.0018848880257825672
7.76550e-06	-0.0019217218577778814
7.76575e-06	-0.0019580601243840137
7.76600e-06	-0.0019943983909899
7.76625e-06	-0.0020238006479334765
7.76650e-06	-0.0020524388171029024
7.76675e-06	-0.002081076986272134
7.76700e-06	-0.0021037257220194324
7.76725e-06	-0.0021257146471443497
7.76750e-06	-0.0021477035722691187
7.76775e-06	-0.0021665867233458575
7.76800e-06	-0.0021808261133274
7.76825e-06	-0.0021950655033088455
7.76850e-06	-0.002209304893290388
7.76875e-06	-0.002217594258485003
7.76900e-06	-0.0022252281544086457
7.76925e-06	-0.0022328620503323394
7.76950e-06	-0.002235849172822122
7.76975e-06	-0.0022383243953948175
7.77000e-06	-0.002240799617967496
7.77025e-06	-0.0022386045078132072
7.77050e-06	-0.002235894902392572
7.77075e-06	-0.002233185296971955
7.77100e-06	-0.002227032958780718
7.77125e-06	-0.002220501360734281
7.77150e-06	-0.0022139697626878886
7.77175e-06	-0.002204528347273345
7.77200e-06	-0.002194766379266655
7.77225e-06	-0.0021850044112600303
7.77250e-06	-0.002173219489953947
7.77275e-06	-0.002161211715168786
7.77300e-06	-0.0021483044228074854
7.77325e-06	-0.002135298037391693
7.77350e-06	-0.0021217187836477477
7.77375e-06	-0.002108076421328907
7.77400e-06	-0.0020941092973017048
7.77425e-06	-0.0020801063967310737
7.77450e-06	-0.0020661698746433704
7.77475e-06	-0.002052240664971456
7.77500e-06	-0.002038971779638242
7.77525e-06	-0.002025775637247961
7.77550e-06	-0.0020136269745811473
7.77575e-06	-0.002001593704840506
7.77600e-06	-0.001990930998718605
7.77625e-06	-0.001980419277234242
7.77650e-06	-0.0019706467373067204
7.77675e-06	-0.0019609556274259813
7.77700e-06	-0.0019502955280181586
7.77725e-06	-0.0019395286823560118
7.77750e-06	-0.001927666172273943
7.77775e-06	-0.0019156829611216874
7.77800e-06	-0.0019036997499694318
7.77825e-06	-0.00189078692546758
7.77850e-06	-0.0018777716924874169
7.77875e-06	-0.0018647564595071656
7.77900e-06	-0.0018495186484169823
7.77925e-06	-0.001834035992690714
7.77950e-06	-0.0018185533369643409
7.77975e-06	-0.0018010462948066437
7.78000e-06	-0.0017833162412925216
7.78025e-06	-0.0017655861877782794
7.78050e-06	-0.0017478561342640373
7.78075e-06	-0.0017279985874572611
7.78100e-06	-0.0017079066707899636
7.78125e-06	-0.0016878147541226662
7.78150e-06	-0.0016677228374555049
7.78175e-06	-0.0016463212041122137
7.78200e-06	-0.0016247752891791283
7.78225e-06	-0.001602932086728311
7.78250e-06	-0.0015810561343578462
7.78275e-06	-0.0015588832614911307
7.78300e-06	-0.0015366776791370634
7.78325e-06	-0.0015143562228120335
7.78350e-06	-0.0014920220015271967
7.78375e-06	-0.0014716078101911327
7.78400e-06	-0.0014514051340463938
7.78425e-06	-0.0014312024579016547
7.78450e-06	-0.0014246132568361553
7.78475e-06	-0.002618382910702587
7.78500e-06	-0.009088415083679701
7.78525e-06	-0.013851729874530693
7.78550e-06	-0.012702513009934099
7.78575e-06	-0.010413917000602211
7.78600e-06	-0.005665431235384096
7.78625e-06	-0.001010881676768436
7.78650e-06	-0.000668203936329848
7.78675e-06	-0.001999409409340518
7.78700e-06	-0.005070012638192551
7.78725e-06	-0.0087078529022335
7.78750e-06	-0.008633265823754068
7.78775e-06	-0.0065648706896875445
7.78800e-06	-0.004036041455502752
7.78825e-06	-0.0011381552619905773
7.78850e-06	0.0002555222361792704
7.78875e-06	-0.0012078911833019617
7.78900e-06	-0.0022019663445103665
7.78925e-06	-0.00411560002093863
7.78950e-06	-0.0048699243420304815
7.78975e-06	-0.004005620267427398
7.79000e-06	-0.0027843879124057067
7.79025e-06	-0.0012079748603713346
7.79050e-06	-0.0004419660533157236
7.79075e-06	-0.0007710475658921194
7.79100e-06	-0.001527135544356415
7.79125e-06	-0.0027602610171839227
7.79150e-06	-0.003251875611235562
7.79175e-06	-0.002729007240933721
7.79200e-06	-0.001982042894083976
7.79225e-06	-0.001012094105423952
7.79250e-06	-0.0005492580650107558
7.79275e-06	-0.0007717908196722997
7.79300e-06	-0.001261140371911112
7.79325e-06	-0.002048594005121674
7.79350e-06	-0.002370832209260109
7.79375e-06	-0.002056882342165466
7.79400e-06	-0.0016018403797206583
7.79425e-06	-0.0010063756153549676
7.79450e-06	-0.0007277700439589869
7.79475e-06	-0.0008776046960684197
7.79500e-06	-0.0011936259290015404
7.79525e-06	-0.00169536827607365
7.79550e-06	-0.0019046451632345578
7.79575e-06	-0.0017143405509374725
7.79600e-06	-0.0014345524536884032
7.79625e-06	-0.0010656702560474939
7.79650e-06	-0.0008942744879875561
7.79675e-06	-0.000990616403688749
7.79700e-06	-0.0011906985141599384
7.79725e-06	-0.0015068333104721558
7.79750e-06	-0.0016395085678991609
7.79775e-06	-0.0015216619053861188
7.79800e-06	-0.0013475667113728009
7.79825e-06	-0.0011174863270201221
7.79850e-06	-0.0010109450745653262
7.79875e-06	-0.00107194848217239
7.79900e-06	-0.0011977717369176502
7.79925e-06	-0.0013961339063224337
7.79950e-06	-0.0014794358412185855
7.79975e-06	-0.0014056949502340272
7.80000e-06	-0.0012966253130579125
7.80025e-06	-0.0011524073588181356
7.80050e-06	-0.0010855053491098893
7.80075e-06	-0.001123488392371003
7.80100e-06	-0.0012020149927689998
7.80125e-06	-0.0013259285939870823
7.80150e-06	-0.0013777306810841491
7.80175e-06	-0.001331142942832504
7.80200e-06	-0.0012624242742011866
7.80225e-06	-0.0011717016750454562
7.80250e-06	-0.0011294330895919823
7.80275e-06	-0.0011528941768437497
7.80300e-06	-0.001201789124996989
7.80325e-06	-0.0012791611061162154
7.80350e-06	-0.0013114214752359009
7.80375e-06	-0.0012821262758512641
7.80400e-06	-0.001239058709571272
7.80425e-06	-0.001182311317494619
7.80450e-06	-0.0011560296234725833
7.80475e-06	-0.001171043361588327
7.80500e-06	-0.001202120170225121
7.80525e-06	-0.0012511761471511679
7.80550e-06	-0.0012721276544129577
7.80575e-06	-0.0012546885828836271
7.80600e-06	-0.0012288039908729348
7.80625e-06	-0.0011945542962159663
7.80650e-06	-0.0011797376430480316
7.80675e-06	-0.0011914179799252772
7.80700e-06	-0.001213967828545606
7.80725e-06	-0.001248593543088775
7.80750e-06	-0.0012663852314968884
7.80775e-06	-0.0012608547745736544
7.80800e-06	-0.0012507141319832251
7.80825e-06	-0.0012359671286374426
7.80850e-06	-0.0012339793492730095
7.80875e-06	-0.0012491273011295343
7.80900e-06	-0.0012715740794715738
7.80925e-06	-0.0013020275979895679
7.80950e-06	-0.001322332092741318
7.80975e-06	-0.0013283774725216
7.81000e-06	-0.0013318388701853794
7.81025e-06	-0.0013326720775749274
7.81050e-06	-0.0013417075363084722
7.81075e-06	-0.001361639142144816
7.81100e-06	-0.0013862571406075912
7.81125e-06	-0.0014159578458391503
7.81150e-06	-0.0014393214298118449
7.81175e-06	-0.0014537273463220922
7.81200e-06	-0.0014664423582552457
7.81225e-06	-0.00147739179086518
7.81250e-06	-0.0014933130124195279
7.81275e-06	-0.0015158458972824884
7.81300e-06	-0.0015410532673903283
7.81325e-06	-0.001569136176858141
7.81350e-06	-0.0015928943866756085
7.81375e-06	-0.0016106399195915605
7.81400e-06	-0.0016268780266749515
7.81425e-06	-0.0016415152966988106
7.81450e-06	-0.0016587248429910091
7.81475e-06	-0.0016794864762997089
7.81500e-06	-0.0017012869627880888
7.81525e-06	-0.0017242051174821075
7.81550e-06	-0.0017436839363838856
7.81575e-06	-0.0017586193207111982
7.81600e-06	-0.0017717867939368395
7.81625e-06	-0.001783080600855438
7.81650e-06	-0.0017950697204837586
7.81675e-06	-0.0018083454024123294
7.81700e-06	-0.001821351381072108
7.81725e-06	-0.0018341809059947917
7.81750e-06	-0.0018440279042161868
7.81775e-06	-0.0018502502309061494
7.81800e-06	-0.001854635434537419
7.81825e-06	-0.0018571663297295151
7.81850e-06	-0.0018595011264023686
7.81875e-06	-0.0018620589545738885
7.81900e-06	-0.0018639139790506771
7.81925e-06	-0.001865173395253213
7.81950e-06	-0.0018641287402368387
7.81975e-06	-0.0018604265632847109
7.82000e-06	-0.0018552357985872519
7.82025e-06	-0.0018485946748760904
7.82050e-06	-0.0018415908838167753
7.82075e-06	-0.001834535753094221
7.82100e-06	-0.0018268984194534056
7.82125e-06	-0.0018187949338202777
7.82150e-06	-0.0018092039379851597
7.82175e-06	-0.0017979532536750071
7.82200e-06	-0.001785823937801076
7.82225e-06	-0.0017728889931343272
7.82250e-06	-0.0017598786167968223
7.82275e-06	-0.001747036833020392
7.82300e-06	-0.0017340899514298432
7.82325e-06	-0.001721130364973513
7.82350e-06	-0.0017075944264956329
7.82375e-06	-0.001693416276760556
7.82400e-06	-0.0016791330273368615
7.82425e-06	-0.0016650874335286192
7.82450e-06	-0.0016510669542443923
7.82475e-06	-0.0016381915843206008
7.82500e-06	-0.0016254349097701271
7.82525e-06	-0.0016138922241316057
7.82550e-06	-0.0016024753735201156
7.82575e-06	-0.001591058522908548
7.82600e-06	-0.0015811047035080897
7.82625e-06	-0.0015713025334103282
7.82650e-06	-0.0015630587499824904
7.82675e-06	-0.0015549764998493336
7.82700e-06	-0.0015474196540754548
7.82725e-06	-0.001539917268660318
7.82750e-06	-0.0015324148832451812
7.82775e-06	-0.0015253061203825587
7.82800e-06	-0.0015182381581433726
7.82825e-06	-0.0015111701959041866
7.82850e-06	-0.0015048735158723528
7.82875e-06	-0.0014986567824663653
7.82900e-06	-0.001492440049060378
7.82925e-06	-0.0014863047826891426
7.82950e-06	-0.0014801779607167545
7.82975e-06	-0.0014740511387443247
7.83000e-06	-0.001467924316771895
7.83025e-06	-0.0014617974947995066
7.83050e-06	-0.0014556706728270769
7.83075e-06	-0.0014495438508546471
7.83100e-06	-0.001443417028882259
7.83125e-06	-0.0014372902069098293
7.83150e-06	-0.0014311633849373995
7.83175e-06	-0.0014254440915218809
7.83200e-06	-0.0014197670401453295
7.83225e-06	-0.0014140899887687781
7.83250e-06	-0.001408412937392265
7.83275e-06	-0.0014027358860157137
7.83300e-06	-0.0013970588346391623
7.83325e-06	-0.0013913817832626495
7.83350e-06	-0.0013857047318860981
7.83375e-06	-0.0013800276805095467
7.83400e-06	-0.0013743506291330337
7.83425e-06	-0.0013696022281154171
7.83450e-06	-0.0013649500855906977
7.83475e-06	-0.0013602979430660102
7.83500e-06	-0.0013556458005412907
7.83525e-06	-0.0013509936580165716
7.83550e-06	-0.0013474932701993494
7.83575e-06	-0.0013441122665736585
7.83600e-06	-0.0013407312629479676
7.83625e-06	-0.0013373502593222995
7.83650e-06	-0.0013339692556966086
7.83675e-06	-0.0013308593470779523
7.83700e-06	-0.0013277775385903989
7.83725e-06	-0.0013246957301028246
7.83750e-06	-0.0013216139216152504
7.83775e-06	-0.0013185321131276761
7.83800e-06	-0.0013154503046401227
7.83825e-06	-0.0013123684961525485
7.83850e-06	-0.0013088964183920894
7.83875e-06	-0.001304853547095711
7.83900e-06	-0.0013008106757993053
7.83925e-06	-0.0012967678045028995
7.83950e-06	-0.001292724933206521
7.83975e-06	-0.0012886820619101153
7.84000e-06	-0.0012846391906137095
7.84025e-06	-0.001280596319317331
7.84050e-06	-0.0012754218503645272
7.84075e-06	-0.0012701300865827355
7.84100e-06	-0.0012648383228009796
7.84125e-06	-0.001259546559019188
7.84150e-06	-0.0012542547952373966
7.84175e-06	-0.0012489630314556407
7.84200e-06	-0.001243671267673849
7.84225e-06	-0.0012383795038920574
7.84250e-06	-0.0012330877401103015
7.84275e-06	-0.0012277959763285099
7.84300e-06	-0.0012225521124063646
7.84325e-06	-0.0012173783050635524
7.84350e-06	-0.0012122044977207053
7.84375e-06	-0.0012070306903778582
7.84400e-06	-0.001201856883035046
7.84425e-06	-0.0011966830756921989
7.84450e-06	-0.0011915092683493515
7.84475e-06	-0.0011863354610065395
7.84500e-06	-0.0011811616536636922
7.84525e-06	-0.001175987846320845
7.84550e-06	-0.0011708140389780329
7.84575e-06	-0.001166778344042376
7.84600e-06	-0.0011628606192169342
7.84625e-06	-0.0011597687633795976
7.84650e-06	-0.00115676251231641
7.84675e-06	-0.0011559380447834706
7.84700e-06	-0.001155339728236941
7.84725e-06	-0.0011582871966933088
7.84750e-06	-0.0011616022005925528
7.84775e-06	-0.0011649172044917969
7.84800e-06	-0.0011721689964840328
7.84825e-06	-0.0011798288530245114
7.84850e-06	-0.00118748870956499
7.84875e-06	-0.0011997395868765998
7.84900e-06	-0.001212466342689364
7.84925e-06	-0.0012251930985021282
7.84950e-06	-0.0012447229048181646
7.84975e-06	-0.0012649578757671816
7.85000e-06	-0.0012851928467161988
7.85025e-06	-0.0013054278176650787
7.85050e-06	-0.0013256627886140957
7.85075e-06	-0.001345897759563113
7.85100e-06	-0.0013692432315219267
7.85125e-06	-0.0013971380082662649
7.85150e-06	-0.0014250327850106029
7.85175e-06	-0.0014529275617547522
7.85200e-06	-0.0014808223384990902
7.85225e-06	-0.0015087171152434284
7.85250e-06	-0.0015366118919875776
7.85275e-06	-0.001567163368751012
7.85300e-06	-0.001597990223580999
7.85325e-06	-0.001628817078410777
7.85350e-06	-0.0016598346441585024
7.85375e-06	-0.0016908719778903523
7.85400e-06	-0.001721909311621992
7.85425e-06	-0.0017517207721704162
7.85450e-06	-0.0017814051658371008
7.85475e-06	-0.0018110895595037854
7.85500e-06	-0.0018389081928202097
7.85525e-06	-0.0018665334322744195
7.85550e-06	-0.00189191017102182
7.85575e-06	-0.0019170538432681356
7.85600e-06	-0.0019400633569731079
7.85625e-06	-0.001961154455630939
7.85650e-06	-0.0019797361661322574
7.85675e-06	-0.001994701643446106
7.85700e-06	-0.0020033238839469785
7.85725e-06	-0.0020113248761854732
7.85750e-06	-0.0020114489168240996
7.85775e-06	-0.002010756478489871
7.85800e-06	-0.002002504693961308
7.85825e-06	-0.0019934693515883234
7.85850e-06	-0.001976470668101185
7.85875e-06	-0.001958646551006967
7.85900e-06	-0.0019318758451106915
7.85925e-06	-0.001904177787872679
7.85950e-06	-0.0018701380124708776
7.85975e-06	-0.0018315409164830336
7.86000e-06	-0.0017888857910944174
7.86025e-06	-0.0017424301096366818
7.86050e-06	-0.001692264263129326
7.86075e-06	-0.0016383029378115364
7.86100e-06	-0.0015806142122331086
7.86125e-06	-0.0015195074947606901
7.86150e-06	-0.001455362745253434
7.86175e-06	-0.0013885643053572433
7.86200e-06	-0.001319496883975384
7.86225e-06	-0.001248536267802237
7.86250e-06	-0.001175953731142935
7.86275e-06	-0.0011019102367597958
7.86300e-06	-0.001026662751635646
7.86325e-06	-0.0009506197127279208
7.86350e-06	-0.0008742334390222305
7.86375e-06	-0.0007979591308263114
7.86400e-06	-0.0007222521302715757
7.86425e-06	-0.0006475620998779318
7.86450e-06	-0.0005742732932422544
7.86475e-06	-0.0005027008000859903
7.86500e-06	-0.00043321984912276265
7.86525e-06	-0.00036630051901478873
7.86550e-06	-0.0003024403054063681
7.86575e-06	-0.00024213849544301198
7.86600e-06	-0.00018589444444664182
7.86625e-06	-0.0001342107595030101
7.86650e-06	-8.760297578476184e-05
7.86675e-06	-4.6514643659135054e-05
7.86700e-06	-1.1193207691661212e-05
7.86725e-06	1.825708242840891e-05
7.86750e-06	4.176254471151715e-05
7.86775e-06	5.9251358687514754e-05
7.86800e-06	7.065175572235028e-05
7.86825e-06	7.588990609347353e-05
7.86850e-06	7.488388785338437e-05
7.86875e-06	6.759691621300097e-05
7.86900e-06	5.411503667073308e-05
7.86925e-06	3.4614009172248645e-05
7.86950e-06	9.288713171198556e-06
7.86975e-06	-2.166478861021877e-05
7.87000e-06	-5.805042707792845e-05
7.87025e-06	-9.967342574083331e-05
7.87050e-06	-0.0001463440776364092
7.87075e-06	-0.00019784440931166185
7.87100e-06	-0.0002538795218120843
7.87125e-06	-0.0003140983433191503
7.87150e-06	-0.00037813782530781695
7.87175e-06	-0.0004456342517420567
7.87200e-06	-0.0005162238329408948
7.87225e-06	-0.0005906024138352068
7.87250e-06	-0.0006653439608311447
7.87275e-06	-0.0007436097833517303
7.87300e-06	-0.0008222409117690583
7.87325e-06	-0.0009027968966599362
7.87350e-06	-0.0009835524009732454
7.87375e-06	-0.0010645365896176334
7.87400e-06	-0.0011455444823492106
7.87425e-06	-0.0012250849663790542
7.87450e-06	-0.0013044733473610362
7.87475e-06	-0.001380668322547524
7.87500e-06	-0.0014565322878683424
7.87525e-06	-0.001527329123175875
7.87550e-06	-0.0015976007292672848
7.87575e-06	-0.0016608711455924413
7.87600e-06	-0.0017234158593205711
7.87625e-06	-0.0017772351266367279
7.87650e-06	-0.0018301499649429752
7.87675e-06	-0.0018744544901157026
7.87700e-06	-0.0019178665203245585
7.87725e-06	-0.0019529203914085845
7.87750e-06	-0.0019871079043465175
7.87775e-06	-0.002012344820179111
7.87800e-06	-0.002036653969190916
7.87825e-06	-0.0020492705418274104
7.87850e-06	-0.0020606751300251045
7.87875e-06	-0.0020720797182227214
7.87900e-06	-0.002072880266051752
7.87925e-06	-0.002072581660751265
7.87950e-06	-0.0020643522027021756
7.87975e-06	-0.002055300678599457
7.88000e-06	-0.0020385132319338723
7.88025e-06	-0.0020209239245436595
7.88050e-06	-0.001997799464826958
7.88075e-06	-0.001970826056568427
7.88100e-06	-0.00194055661278973
7.88125e-06	-0.0019072281655679651
7.88150e-06	-0.0018710374875571991
7.88175e-06	-0.0018321784102684805
7.88200e-06	-0.0017908450816580398
7.88225e-06	-0.0017472371675306545
7.88250e-06	-0.001701634962852154
7.88275e-06	-0.001654433070316449
7.88300e-06	-0.0016060147187832695
7.88325e-06	-0.0015566893025918056
7.88350e-06	-0.0015067410821612342
7.88375e-06	-0.0014564522700982272
7.88400e-06	-0.0014061052681066325
7.88425e-06	-0.001355986191617121
7.88450e-06	-0.0013064313260994964
7.88475e-06	-0.0012578486766471485
7.88500e-06	-0.0012106388019558793
7.88525e-06	-0.0011651565769150115
7.88550e-06	-0.0011217405867592998
7.88575e-06	-0.001080728414055079
7.88600e-06	-0.0010424574522716716
7.88625e-06	-0.0010086545834759658
7.88650e-06	-0.0009752878567647995
7.88675e-06	-0.000946985148356573
7.88700e-06	-0.000919207346623109
7.88725e-06	-0.0008961647239861542
7.88750e-06	-0.0008736129224648231
7.88775e-06	-0.0008562246612327059
7.88800e-06	-0.0008393716225455611
7.88825e-06	-0.0008280329035483528
7.88850e-06	-0.0008172657668479014
7.88875e-06	-0.000811455347188933
7.88900e-06	-0.0008061587119802636
7.88925e-06	-0.00080530570444284
7.88950e-06	-0.0008049132974967905
7.88975e-06	-0.0008089257536964077
7.89000e-06	-0.0008133947923822066
7.89025e-06	-0.0008221813553642278
7.89050e-06	-0.0008314154477953394
7.89075e-06	-0.0008450832086670272
7.89100e-06	-0.0008592105378141375
7.89125e-06	-0.0008733378669611522
7.89150e-06	-0.0008917650170587416
7.89175e-06	-0.0009106378615796978
7.89200e-06	-0.0009295107061005262
7.89225e-06	-0.000951826596445305
7.89250e-06	-0.0009744993728885679
7.89275e-06	-0.0009971721493316772
7.89300e-06	-0.0010217405374462788
7.89325e-06	-0.0010465054136380937
7.89350e-06	-0.0010712702898297405
