Time(s)	Current(A)
3.50000e-06	-0.0011695517550725856
3.50025e-06	-0.00115367936613922
3.50050e-06	-0.0011392193474640887
3.50075e-06	-0.0011264518355384179
3.50100e-06	-0.0011156656878098337
3.50125e-06	-0.0011069859764066723
3.50150e-06	-0.0011004201689080464
3.50175e-06	-0.0010959640374734179
3.50200e-06	-0.0010937804404935348
3.50225e-06	-0.0010942539598150663
3.50250e-06	-0.0010954232047625312
3.50275e-06	-0.0011002879100233702
3.50300e-06	-0.0011060415498678896
3.50325e-06	-0.0011165169109667414
3.50350e-06	-0.001126992272065593
3.50375e-06	-0.0011382772687986169
3.50400e-06	-0.0011538627774618242
3.50425e-06	-0.0011700310485591291
3.50450e-06	-0.0011892947575230868
3.50475e-06	-0.0012089779123104908
3.50500e-06	-0.0012311521878883888
3.50525e-06	-0.0012549640343493711
3.50550e-06	-0.0012802645471512147
3.50575e-06	-0.0013068998990163273
3.50600e-06	-0.0013347165992171138
3.50625e-06	-0.0013635617853371786
3.50650e-06	-0.0013932916619541025
3.50675e-06	-0.0014237862719482979
3.50700e-06	-0.001454928068395686
3.50725e-06	-0.0014865591372449128
3.50750e-06	-0.0015184928934773739
3.50775e-06	-0.001550539757615707
3.50800e-06	-0.001582509948492338
3.50825e-06	-0.0016142146543504543
3.50850e-06	-0.0016454702851240646
3.50875e-06	-0.0016761085078549787
3.50900e-06	-0.0017059624239163383
3.50925e-06	-0.00173483980812408
3.50950e-06	-0.0017625305722606059
3.50975e-06	-0.0017888224670013749
3.51000e-06	-0.0018135036775425095
3.51025e-06	-0.0018363635338367506
3.51050e-06	-0.0018572095024695103
3.51075e-06	-0.0018757458501678019
3.51100e-06	-0.0018915311275232642
3.51125e-06	-0.001906424230215537
3.51150e-06	-0.0019165784014414625
3.51175e-06	-0.0019267325726673877
3.51200e-06	-0.0019357617292421695
3.51225e-06	-0.0019388151867183664
3.51250e-06	-0.0019418686441945686
3.51275e-06	-0.001943462073858127
3.51300e-06	-0.0019373003272891577
3.51325e-06	-0.0019311385807201777
3.51350e-06	-0.0019249768341511977
3.51375e-06	-0.0019188150875822283
3.51400e-06	-0.0019110513239372845
3.51425e-06	-0.0018947781848926365
3.51450e-06	-0.0018785050458479885
3.51475e-06	-0.001862231906803368
3.51500e-06	-0.0018459587677587203
3.51525e-06	-0.0018286719363112263
3.51550e-06	-0.0018060007120722927
3.51575e-06	-0.001783329487833321
3.51600e-06	-0.001760116162007138
3.51625e-06	-0.0017340233750443505
3.51650e-06	-0.0017079305880816074
3.51675e-06	-0.0016815360187545138
3.51700e-06	-0.0016535384831011014
3.51725e-06	-0.0016254385068293394
3.51750e-06	-0.0015967608130881329
3.51775e-06	-0.0015678971337567077
3.51800e-06	-0.0015390116144388885
3.51825e-06	-0.001510268585183111
3.51850e-06	-0.0014818349973047614
3.51875e-06	-0.0014538887901949958
3.51900e-06	-0.0014266205069933535
3.51925e-06	-0.0014002230581858703
3.51950e-06	-0.0013748862618290652
3.51975e-06	-0.0013507996605113873
3.52000e-06	-0.001328152876347536
3.52025e-06	-0.001307131301918916
3.52050e-06	-0.001287873484295091
3.52075e-06	-0.0012704851348500712
3.52100e-06	-0.0012551189526531859
3.52125e-06	-0.0012402635994348194
3.52150e-06	-0.0012281215977836125
3.52175e-06	-0.0012165295089550416
3.52200e-06	-0.0012078583719164232
3.52225e-06	-0.0011998988258268542
3.52250e-06	-0.0011957190113068702
3.52275e-06	-0.0011915391967868864
3.52300e-06	-0.0011881155442916283
3.52325e-06	-0.001188708369915478
3.52350e-06	-0.0011893011955393287
3.52375e-06	-0.0011906051171854636
3.52400e-06	-0.001195686141516809
3.52425e-06	-0.0012007671658481628
3.52450e-06	-0.0012063937839207708
3.52475e-06	-0.00121491841227687
3.52500e-06	-0.0012237971192341902
3.52525e-06	-0.001234556572523401
3.52550e-06	-0.0012456236427793987
3.52575e-06	-0.0012583246708060176
3.52600e-06	-0.0012712916220619782
3.52625e-06	-0.0012856710679910585
3.52650e-06	-0.0013002565110476767
3.52675e-06	-0.001315936141498581
3.52700e-06	-0.0013317172903440867
3.52725e-06	-0.0013480828781364223
3.52750e-06	-0.001364718620078974
3.52775e-06	-0.0013815286879174595
3.52800e-06	-0.0013984171554266651
3.52825e-06	-0.001415287450824725
3.52850e-06	-0.0014320357737882402
3.52875e-06	-0.0014485344162153324
3.52900e-06	-0.0014646378903410782
3.52925e-06	-0.0014800905759066107
3.52950e-06	-0.0014943600675642254
3.52975e-06	-0.0015086295592218399
3.53000e-06	-0.0015225331124803024
3.53025e-06	-0.0015344929241528707
3.53050e-06	-0.001546203348068654
3.53075e-06	-0.0015565891081747829
3.53100e-06	-0.0015668520526649866
3.53125e-06	-0.0015764626419481947
3.53150e-06	-0.0015860732312314026
3.53175e-06	-0.0015954346986656739
3.53200e-06	-0.0016034729147033496
3.53225e-06	-0.0016115111307410254
3.53250e-06	-0.0016195493467786874
3.53275e-06	-0.0016274008816660579
3.53300e-06	-0.0016342608291276927
3.53325e-06	-0.001641120776589316
3.53350e-06	-0.0016479807240509508
3.53375e-06	-0.0016546607891277944
3.53400e-06	-0.001660385379532552
3.53425e-06	-0.0016661099699372996
3.53450e-06	-0.0016718345603420571
3.53475e-06	-0.0016775591507468145
3.53500e-06	-0.0016832837411515623
3.53525e-06	-0.0016890083315563196
3.53550e-06	-0.001694564568691103
3.53575e-06	-0.001699226569930505
3.53600e-06	-0.0017038885711698991
3.53625e-06	-0.001708550572409301
3.53650e-06	-0.001713212573648703
3.53675e-06	-0.001717874574888097
3.53700e-06	-0.001722536576127499
3.53725e-06	-0.0017270603633837566
3.53750e-06	-0.0017308500044901074
3.53775e-06	-0.001734639645596465
3.53800e-06	-0.0017384292867028224
3.53825e-06	-0.0017422189278091798
3.53850e-06	-0.0017460085689155309
3.53875e-06	-0.0017497982100218884
3.53900e-06	-0.001752894420521985
3.53925e-06	-0.0017556309148969436
3.53950e-06	-0.001758367409271907
3.53975e-06	-0.0017611039036468702
3.54000e-06	-0.0017638403980218336
3.54025e-06	-0.0017665768923967923
3.54050e-06	-0.0017689867794943972
3.54075e-06	-0.0017696618386841515
3.54100e-06	-0.0017703368978739045
3.54125e-06	-0.0017710119570636586
3.54150e-06	-0.0017716870162534128
3.54175e-06	-0.001772362075443166
3.54200e-06	-0.0017730371346329201
3.54225e-06	-0.0017732428504226314
3.54250e-06	-0.0017709555720716553
3.54275e-06	-0.0017686682937206833
3.54300e-06	-0.0017663810153697073
3.54325e-06	-0.0017640937370187314
3.54350e-06	-0.0017618064586677595
3.54375e-06	-0.0017595191803167834
3.54400e-06	-0.0017567611070147995
3.54425e-06	-0.0017515023294220544
3.54450e-06	-0.0017462435518293183
3.54475e-06	-0.0017409847742365732
3.54500e-06	-0.001735725996643828
3.54525e-06	-0.0017304672190510918
3.54550e-06	-0.0017252084414583469
3.54575e-06	-0.0017199496638656017
3.54600e-06	-0.0017146908862728655
3.54625e-06	-0.0017091791775346436
3.54650e-06	-0.0017023239836986498
3.54675e-06	-0.0016954687898626563
3.54700e-06	-0.0016886135960266742
3.54725e-06	-0.0016817584021906807
3.54750e-06	-0.0016749032083546872
3.54775e-06	-0.0016680480145187051
3.54800e-06	-0.0016611928206827114
3.54825e-06	-0.0016543376268467178
3.54850e-06	-0.0016475676292738875
3.54875e-06	-0.0016412501655704446
3.54900e-06	-0.0016349327018669911
3.54925e-06	-0.0016286152381635376
3.54950e-06	-0.0016222977744600948
3.54975e-06	-0.0016162124861285973
3.55000e-06	-0.0016113604352132368
3.55025e-06	-0.0016065083842978847
3.55050e-06	-0.0016016563333825242
3.55075e-06	-0.0015968042824671637
3.55100e-06	-0.0015921898999618894
3.55125e-06	-0.0015888379320421395
3.55150e-06	-0.0015854859641223837
3.55175e-06	-0.001582133996202628
3.55200e-06	-0.0015787820282828781
3.55225e-06	-0.0015754300603631225
3.55250e-06	-0.0015720780924433667
3.55275e-06	-0.0015687261245236111
3.55300e-06	-0.0015653741566038612
3.55325e-06	-0.0015620221886841056
3.55350e-06	-0.0015586702207643498
3.55375e-06	-0.0015553182528445998
3.55400e-06	-0.0015519662849248442
3.55425e-06	-0.0015486143170050887
3.55450e-06	-0.0015459801480828053
3.55475e-06	-0.0015437183363534227
3.55500e-06	-0.0015414565246240398
3.55525e-06	-0.0015391947128946572
3.55550e-06	-0.0015369329011652782
3.55575e-06	-0.0015346710894358956
3.55600e-06	-0.001532409277706513
3.55625e-06	-0.001530147465977134
3.55650e-06	-0.0015278856542477511
3.55675e-06	-0.0015256238425183685
3.55700e-06	-0.0015233620307889858
3.55725e-06	-0.0015211002190596069
3.55750e-06	-0.001518838407330224
3.55775e-06	-0.001516665752781007
3.55800e-06	-0.0015149666711589459
3.55825e-06	-0.0015132675895368818
3.55850e-06	-0.0015115685079148177
3.55875e-06	-0.0015098694262927564
3.55900e-06	-0.0015081703446706922
3.55925e-06	-0.0015064712630486281
3.55950e-06	-0.001504772181426564
3.55975e-06	-0.0015031155958766455
3.56000e-06	-0.001501697406510915
3.56025e-06	-0.0015003710542691895
3.56050e-06	-0.0014992681478553113
3.56075e-06	-0.0014989849582102042
3.56100e-06	-0.0015004278679165894
3.56125e-06	-0.0015023534879980058
3.56150e-06	-0.0015068431030919186
3.56175e-06	-0.0015118679184647939
3.56200e-06	-0.0015197355375496091
3.56225e-06	-0.001527603156634411
3.56250e-06	-0.0015361147326198436
3.56275e-06	-0.0015480467908796924
3.56300e-06	-0.0015599788491395211
3.56325e-06	-0.0015748417478362216
3.56350e-06	-0.0015912250157753066
3.56375e-06	-0.0016081522260600295
3.56400e-06	-0.0016279686749720204
3.56425e-06	-0.0016480912468481703
3.56450e-06	-0.0016700428223122535
3.56475e-06	-0.0016932953024265355
3.56500e-06	-0.0017179507550734963
3.56525e-06	-0.0017439691869520645
3.56550e-06	-0.0017711916216725338
3.56575e-06	-0.0017994463650796368
3.56600e-06	-0.001828561784100146
3.56625e-06	-0.0018583686688345541
3.56650e-06	-0.001888725591489261
3.56675e-06	-0.0019195742972520802
3.56700e-06	-0.0019508927656055912
3.56725e-06	-0.001982569754709038
3.56750e-06	-0.0020144197421291267
3.56775e-06	-0.0020462488168285923
3.56800e-06	-0.0020778633006008655
3.56825e-06	-0.0021090712605169822
3.56850e-06	-0.0021396978096586148
3.56875e-06	-0.0021696207196260403
3.56900e-06	-0.0021987399043474866
3.56925e-06	-0.00222689974189435
3.56950e-06	-0.002253897593430551
3.56975e-06	-0.0022795265208997682
3.57000e-06	-0.0023035787540929857
3.57025e-06	-0.002325841404335834
3.57050e-06	-0.0023460411269003367
3.57075e-06	-0.002363737473708872
3.57100e-06	-0.002378466584967722
3.57125e-06	-0.002389777877197493
3.57150e-06	-0.0023970842192106673
3.57175e-06	-0.0024031420976971325
3.57200e-06	-0.002402568558211598
3.57225e-06	-0.0024019950187260633
3.57250e-06	-0.0023998557522863367
3.57275e-06	-0.0023893998713513374
3.57300e-06	-0.002378943990416338
3.57325e-06	-0.0023669182632609135
3.57350e-06	-0.0023465540414545857
3.57375e-06	-0.0023261898196482583
3.57400e-06	-0.0023044512876571224
3.57425e-06	-0.0022754128826113044
3.57450e-06	-0.0022463744775654375
3.57475e-06	-0.0022161031330932774
3.57500e-06	-0.0021792828294446296
3.57525e-06	-0.0021424625257959193
3.57550e-06	-0.0021048005269406317
3.57575e-06	-0.0020626677264957423
3.57600e-06	-0.0020200343983122395
3.57625e-06	-0.0019747424352788614
3.57650e-06	-0.0019291580535268757
3.57675e-06	-0.0018818606759323517
3.57700e-06	-0.0018335910784370367
3.57725e-06	-0.0017845862941686206
3.57750e-06	-0.0017351306613261962
3.57775e-06	-0.0016855131227383698
3.57800e-06	-0.001636022676567427
3.57825e-06	-0.0015869476373308925
3.57850e-06	-0.001538566663528398
3.57875e-06	-0.0014911328049335782
3.57900e-06	-0.0014448955865565367
3.57925e-06	-0.0014001449259268201
3.57950e-06	-0.001357200550302049
3.57975e-06	-0.0013163849670127115
3.58000e-06	-0.0012780208239975461
3.58025e-06	-0.0012424180621503822
3.58050e-06	-0.0012097480536403184
3.58075e-06	-0.0011797349966737184
3.58100e-06	-0.0011518292276516307
3.58125e-06	-0.0011258180107465644
3.58150e-06	-0.001101815671341602
3.58175e-06	-0.0010799736104370467
3.58200e-06	-0.0010606441920177358
3.58225e-06	-0.0010444359777980763
3.58250e-06	-0.001028954909368259
3.58275e-06	-0.0010173361945886633
3.58300e-06	-0.001006415646253395
3.58325e-06	-0.0009992035230406758
3.58350e-06	-0.0009919913998279691
3.58375e-06	-0.0009856380268136594
3.58400e-06	-0.0009838460457647763
3.58425e-06	-0.0009820540647158965
3.58450e-06	-0.0009809360263665398
3.58475e-06	-0.0009833977447618943
3.58500e-06	-0.000986248955151722
3.58525e-06	-0.0009911690158980896
3.58550e-06	-0.0009964465305845548
3.58575e-06	-0.0010036227202679326
3.58600e-06	-0.0010111401143082465
3.58625e-06	-0.0010204698710301007
3.58650e-06	-0.0010300721264367245
3.58675e-06	-0.0010411218031232499
3.58700e-06	-0.001052295113130725
3.58725e-06	-0.001064186541823712
3.58750e-06	-0.0010764553230764372
3.58775e-06	-0.00108903632539055
3.58800e-06	-0.0011018641417997028
3.58825e-06	-0.0011148715450828512
3.58850e-06	-0.0011279699785876037
3.58875e-06	-0.0011410021939211184
3.58900e-06	-0.0011537291724587019
3.58925e-06	-0.0011659125597568388
3.58950e-06	-0.0011779635064968188
3.58975e-06	-0.001189203386949517
3.59000e-06	-0.001199749682583106
3.59025e-06	-0.0012095365541679266
3.59050e-06	-0.001218778695118283
3.59075e-06	-0.0012285513999077528
3.59100e-06	-0.0012403291355913867
3.59125e-06	-0.0012547161613432319
3.59150e-06	-0.0012715730707144727
3.59175e-06	-0.001290680984455575
3.59200e-06	-0.0013118209069016683
3.59225e-06	-0.0013347899755558094
3.59250e-06	-0.001359561071750789
3.59275e-06	-0.0013866460025249157
3.59300e-06	-0.0014168067350414368
3.59325e-06	-0.0014502599978800578
3.59350e-06	-0.0014867566056841332
3.59375e-06	-0.0015259976223516174
3.59400e-06	-0.0015676842097515167
3.59425e-06	-0.0016115276188808716
3.59450e-06	-0.001657348891107124
3.59475e-06	-0.0017055033145882787
3.59500e-06	-0.0017567596420124771
3.59525e-06	-0.0018085549262403483
3.59550e-06	-0.001863500498508372
3.59575e-06	-0.0019202055911346247
3.59600e-06	-0.0019783213258439732
3.59625e-06	-0.002037505156564927
3.59650e-06	-0.002097483027876761
3.59675e-06	-0.0021581934342608257
3.59700e-06	-0.0022196719320802982
3.59725e-06	-0.0022817406457763443
3.59750e-06	-0.0023440387242463444
3.59775e-06	-0.002406185832885423
3.59800e-06	-0.0024678020773578704
3.59825e-06	-0.0025285109480130416
3.59850e-06	-0.0025879799148704787
3.59875e-06	-0.002646008123235874
3.59900e-06	-0.0027024567087093627
3.59925e-06	-0.0027570526111652034
3.59950e-06	-0.002809408282551059
3.59975e-06	-0.002859124307646129
3.60000e-06	-0.002905800830960587
3.60025e-06	-0.002949064086591854
3.60050e-06	-0.002988819882662339
3.60075e-06	-0.003025858638934938
3.60100e-06	-0.0030614541905501246
3.60125e-06	-0.0030961148565971006
3.60150e-06	-0.0031296508182433714
3.60175e-06	-0.003161795362238106
3.60200e-06	-0.0031922822893777044
3.60225e-06	-0.0032208610183800876
3.60250e-06	-0.0032474567903673494
3.60275e-06	-0.0032725483284201276
3.60300e-06	-0.003296917624618309
3.60325e-06	-0.003320866336133946
3.60350e-06	-0.003344259781901146
3.60375e-06	-0.003366829333228141
3.60400e-06	-0.0033881949208277163
3.60425e-06	-0.003409285851738921
3.60450e-06	-0.0034287662851905185
3.60475e-06	-0.0034473723421701184
3.60500e-06	-0.0034655778798003637
3.60525e-06	-0.0034835207732488377
3.60550e-06	-0.0035010198587645453
3.60575e-06	-0.003518278022538061
3.60600e-06	-0.003534256491120095
3.60625e-06	-0.003550234959702129
3.60650e-06	-0.0035659607574108658
3.60675e-06	-0.0035803444524991927
3.60700e-06	-0.003594640978995135
3.60725e-06	-0.0036084744952724845
3.60750e-06	-0.0036221814455572763
3.60775e-06	-0.0036352161198962727
3.60800e-06	-0.0036480144036859083
3.60825e-06	-0.0036595570604552635
3.60850e-06	-0.0036710997172246184
3.60875e-06	-0.0036824152979048875
3.60900e-06	-0.003692524726842107
3.60925e-06	-0.003702634155779343
3.60950e-06	-0.0037125993243236014
3.60975e-06	-0.0037217059340670677
3.61000e-06	-0.003730217606852426
3.61025e-06	-0.0037380500249063957
3.61050e-06	-0.003745053229353307
3.61075e-06	-0.0037508805903804145
3.61100e-06	-0.0037551190876571497
3.61125e-06	-0.0037574590545917013
3.61150e-06	-0.0037576027110988357
3.61175e-06	-0.0037570848872240914
3.61200e-06	-0.003753053502239435
3.61225e-06	-0.0037490221172547847
3.61250e-06	-0.0037439146159746715
3.61275e-06	-0.0037330911471934896
3.61300e-06	-0.0037222676784123077
3.61325e-06	-0.0037114442096311444
3.61350e-06	-0.0037006207408499625
3.61375e-06	-0.003684658444691819
3.61400e-06	-0.00366603038925511
3.61425e-06	-0.00364740233381837
3.61450e-06	-0.00362877427838163
3.61475e-06	-0.003609266700168283
3.61500e-06	-0.003585087393045299
3.61525e-06	-0.003560908085922274
3.61550e-06	-0.0035361791088293613
3.61575e-06	-0.003508530469895511
3.61600e-06	-0.003480881830961614
3.61625e-06	-0.0034529291532895113
3.61650e-06	-0.0034233615241906694
3.61675e-06	-0.003393622656578948
3.61700e-06	-0.0033629742276322146
3.61725e-06	-0.003332244015880022
3.61750e-06	-0.0033010794013963608
3.61775e-06	-0.003269947286078911
3.61800e-06	-0.003238987795392256
3.61825e-06	-0.0032081710096145
3.61850e-06	-0.00317811222427282
3.61875e-06	-0.0031482859131034416
3.61900e-06	-0.0031196944264780683
3.61925e-06	-0.0030914454722118173
3.61950e-06	-0.003065015934528092
3.61975e-06	-0.003038921680524473
3.62000e-06	-0.003014873756566937
3.62025e-06	-0.002992504000206569
3.62050e-06	-0.0029716725629592967
3.62075e-06	-0.0029512819626348772
3.62100e-06	-0.002929766082214815
3.62125e-06	-0.002906378529572087
3.62150e-06	-0.0028810372423168
3.62175e-06	-0.002855341212459549
3.62200e-06	-0.0028277609093195644
3.62225e-06	-0.0027999984669815963
3.62250e-06	-0.0027710783631047374
3.62275e-06	-0.002740424653005901
3.62300e-06	-0.002705928852893217
3.62325e-06	-0.002671433052780532
3.62350e-06	-0.002636118459352486
3.62375e-06	-0.002596454711468153
3.62400e-06	-0.0025562432917655307
3.62425e-06	-0.0025131228237302633
3.62450e-06	-0.002470002355694923
3.62475e-06	-0.00242611073642502
3.62500e-06	-0.0023781230213943912
3.62525e-06	-0.0023301353063636815
3.62550e-06	-0.002281595849433713
3.62575e-06	-0.0022301257252709795
3.62600e-06	-0.0021784431391922363
3.62625e-06	-0.0021256320269373782
3.62650e-06	-0.0020726924673534377
3.62675e-06	-0.0020190706387974676
3.62700e-06	-0.001965338604498837
3.62725e-06	-0.0019110000939146089
3.62750e-06	-0.0018565808787357027
3.62775e-06	-0.0018024121236638552
3.62800e-06	-0.001748824779014361
3.62825e-06	-0.001696145344235669
3.62850e-06	-0.0016446527587261849
3.62875e-06	-0.0015944783331494274
3.62900e-06	-0.001545681369703597
3.62925e-06	-0.001498464270409426
3.62950e-06	-0.0014531535275561017
3.62975e-06	-0.0014100889943570684
3.63000e-06	-0.001369610627745004
3.63025e-06	-0.001332053449679761
3.63050e-06	-0.0012976992677635345
3.63075e-06	-0.0012666400734465811
3.63100e-06	-0.0012388024776779098
3.63125e-06	-0.0012141710998107276
3.63150e-06	-0.0011928255267337677
3.63175e-06	-0.0011748574937206298
3.63200e-06	-0.0011606454646425912
3.63225e-06	-0.0011509410252074288
3.63250e-06	-0.00114235978978935
3.63275e-06	-0.0011397446359998318
3.63300e-06	-0.0011381689667519955
3.63325e-06	-0.0011421146894623401
3.63350e-06	-0.0011468085293310508
3.63375e-06	-0.0011559613714146786
3.63400e-06	-0.0011681668950720386
3.63425e-06	-0.0011833596320079088
3.63450e-06	-0.0012014529722908208
3.63475e-06	-0.001222285778141723
3.63500e-06	-0.0012456323609846363
3.63525e-06	-0.0012712895320349635
3.63550e-06	-0.0012990913108340328
3.63575e-06	-0.0013288767745180852
3.63600e-06	-0.001360484804281712
3.63625e-06	-0.0013937531930953778
3.63650e-06	-0.001428506631192931
3.63675e-06	-0.0014645230201465363
3.63700e-06	-0.001501540063786946
3.63725e-06	-0.0015393091018788138
3.63750e-06	-0.0015776054667460326
3.63775e-06	-0.0016162070932879186
3.63800e-06	-0.0016548921734275712
3.63825e-06	-0.0016934380207005986
3.63850e-06	-0.0017316137863803368
3.63875e-06	-0.0017691595040145204
3.63900e-06	-0.0018057897395273859
3.63925e-06	-0.0018412280034261108
3.63950e-06	-0.0018752124177690303
3.63975e-06	-0.001907483204639835
3.64000e-06	-0.0019377803659874082
3.64025e-06	-0.001965862666341915
3.64050e-06	-0.0019916911769294414
3.64075e-06	-0.002015864329355631
3.64100e-06	-0.0020393227015818305
3.64125e-06	-0.0020624427291266565
3.64150e-06	-0.0020850917732179513
3.64175e-06	-0.0021070818288593924
3.64200e-06	-0.0021282243770074883
3.64225e-06	-0.0021483427998551003
3.64250e-06	-0.0021673872757365788
3.64275e-06	-0.0021857074077287608
3.64300e-06	-0.0022038664565356284
3.64325e-06	-0.002222074810281596
3.64350e-06	-0.0022401984441428086
