Time(s)	Current(A)
1.10000e-05	0.004484900573949232
1.10003e-05	0.004506118980832241
1.10005e-05	0.004527337387715394
1.10008e-05	0.004548555794598548
1.10010e-05	0.004569774201481557
1.10013e-05	0.00459099260836471
1.10015e-05	0.004612211015247863
1.10018e-05	0.004630260804646182
1.10020e-05	0.004643504923845086
1.10023e-05	0.00465674904304399
1.10025e-05	0.004669993162242805
1.10028e-05	0.004683237281441709
1.10030e-05	0.004696481400640614
1.10033e-05	0.004709725519839428
1.10035e-05	0.004722969639038333
1.10038e-05	0.004736213758237237
1.10040e-05	0.004725157217569015
1.10043e-05	0.004711320996347378
1.10045e-05	0.0046974847751257405
1.10047e-05	0.004683648553904197
1.10050e-05	0.004669812332682559
1.10053e-05	0.004655976111460922
1.10055e-05	0.004642139890239379
1.10058e-05	0.004628303669017741
1.10060e-05	0.004602099723546987
1.10062e-05	0.004557138321820241
1.10065e-05	0.0045121769200931906
1.10068e-05	0.00446721551836614
1.10070e-05	0.0044222541166390895
1.10073e-05	0.004377292714912343
1.10075e-05	0.004332331313185293
1.10078e-05	0.004287369911458242
1.10080e-05	0.004234694689259374
1.10083e-05	0.004170320334125751
1.10085e-05	0.004105945978992128
1.10088e-05	0.004041571623858942
1.10090e-05	0.003977197268725319
1.10093e-05	0.003912822913591696
1.10095e-05	0.0038484485584585094
1.10098e-05	0.0037840742033248866
1.10100e-05	0.0037187677166568077
1.10103e-05	0.0036520475166711137
1.10105e-05	0.0035853273166849674
1.10108e-05	0.0035186071166988216
1.10110e-05	0.0034518869167131276
1.10113e-05	0.0033851667167269814
1.10115e-05	0.0033184465167408355
1.10118e-05	0.0032647568650299584
1.10120e-05	0.00321255773916692
1.10123e-05	0.0031603586133038815
1.10125e-05	0.0031081594874411964
1.10128e-05	0.003055960361578158
1.10130e-05	0.003003761235715119
1.10132e-05	0.002960091911848794
1.10135e-05	0.0029293592758192727
1.10138e-05	0.0028986266397897508
1.10140e-05	0.002874594894573021
1.10143e-05	0.0028607260268428887
1.10145e-05	0.0028468571591127563
1.10147e-05	0.0028398859334350895
1.10150e-05	0.0028433759871732624
1.10153e-05	0.0028468660409114352
1.10155e-05	0.002857330771905489
1.10158e-05	0.0028783736174277583
1.10160e-05	0.0028994164629501697
1.10163e-05	0.0029268110737704386
1.10165e-05	0.0029638390623530375
1.10168e-05	0.003000867050935887
1.10170e-05	0.0030435504041117596
1.10173e-05	0.00309481094188975
1.10175e-05	0.0031460714796680877
1.10178e-05	0.0032040201860875864
1.10180e-05	0.003272112474966373
1.10183e-05	0.0033402047638456207
1.10185e-05	0.003408297052724868
1.10188e-05	0.003476389341603655
1.10190e-05	0.0035444816304829024
1.10193e-05	0.00361257391936215
1.10195e-05	0.0036895877152273242
1.10198e-05	0.0037676220158709885
1.10200e-05	0.003845656316514653
1.10203e-05	0.003923690617157788
1.10205e-05	0.004001724917801452
1.10208e-05	0.004079759218445117
1.10210e-05	0.004153944031503505
1.10213e-05	0.004222290535625524
1.10215e-05	0.004290637039747543
1.10217e-05	0.0043589835438690985
1.10220e-05	0.004427330047991117
1.10223e-05	0.004495676552113136
1.10225e-05	0.004564023056234692
1.10228e-05	0.004619474010068899
1.10230e-05	0.004655366982525492
1.10232e-05	0.004691259954981841
1.10235e-05	0.0047271529274384326
1.10238e-05	0.004763045899895024
1.10240e-05	0.004798938872351617
1.10243e-05	0.004834831844807966
1.10245e-05	0.004858392047773363
1.10248e-05	0.00486324780845699
1.10250e-05	0.004868103569140584
1.10253e-05	0.004865322852944954
1.10255e-05	0.004850960306640027
1.10258e-05	0.004836597760335198
1.10260e-05	0.004810401521284132
1.10263e-05	0.004766257762569933
1.10265e-05	0.004722114003856033
1.10268e-05	0.004677970245141834
1.10270e-05	0.004633826486427635
1.10273e-05	0.004589682727713735
1.10275e-05	0.004545538968999536
1.10278e-05	0.004501395210285337
1.10280e-05	0.004430424023993937
1.10283e-05	0.004356384127664693
1.10285e-05	0.004282344231335449
1.10288e-05	0.004208304335006707
1.10290e-05	0.004134264438677463
1.10293e-05	0.004060224542348219
1.10295e-05	0.003986184646019477
1.10298e-05	0.003908745680823858
1.10300e-05	0.003826151532319621
1.10302e-05	0.0037435573838159432
1.10305e-05	0.003660963235311706
1.10308e-05	0.003578369086807469
1.10310e-05	0.003495774938303791
1.10313e-05	0.003417621446776562
1.10315e-05	0.003346202858726852
1.10317e-05	0.0032747842706776263
1.10320e-05	0.0032033656826279166
1.10323e-05	0.0031319470945782068
1.10325e-05	0.003060528506528497
1.10328e-05	0.002996796893814355
1.10330e-05	0.0029447236994794507
1.10333e-05	0.002892650505144546
1.10335e-05	0.002845863566374954
1.10338e-05	0.0028070940045775736
1.10340e-05	0.002768324442780193
1.10343e-05	0.0027351765388179987
1.10345e-05	0.002710554698251602
1.10348e-05	0.0026859328576852052
1.10350e-05	0.0026670250986944454
1.10353e-05	0.0026567835771720196
1.10355e-05	0.0026465420556495934
1.10358e-05	0.002641229060165314
1.10360e-05	0.00264339089269165
1.10363e-05	0.0026455527252179857
1.10365e-05	0.0026524771404563183
1.10368e-05	0.0026666247064669048
1.10370e-05	0.0026807722724774916
1.10373e-05	0.0027009940814461636
1.10375e-05	0.002730428365109283
1.10378e-05	0.002759862648772403
1.10380e-05	0.002789296932435323
1.10383e-05	0.0028187312160984426
1.10385e-05	0.002848165499761562
1.10387e-05	0.002877599783424482
1.10390e-05	0.0029117574449341933
1.10393e-05	0.0029530787973244994
1.10395e-05	0.002994400149714526
1.10398e-05	0.003035721502104832
1.10400e-05	0.0030770428544951386
1.10402e-05	0.003118364206885165
1.10405e-05	0.003159685559275471
1.10408e-05	0.003199463938749734
1.10410e-05	0.0032369021749267014
1.10413e-05	0.0032743404111034153
1.10415e-05	0.003311778647280383
1.10418e-05	0.0033492168834573506
1.10420e-05	0.0033866551196340645
1.10423e-05	0.003424093355811032
1.10425e-05	0.0034615315919879997
1.10428e-05	0.0034989698281647137
1.10430e-05	0.0035307785631847615
1.10433e-05	0.0035540493392661777
1.10435e-05	0.003577320115347436
1.10438e-05	0.0036005908914288525
1.10440e-05	0.0036238616675102688
1.10443e-05	0.0036471324435915276
1.10445e-05	0.003670403219672944
1.10448e-05	0.0036936739957543602
1.10450e-05	0.003716944771835619
1.10453e-05	0.003736262918308044
1.10455e-05	0.0037495863259282406
1.10458e-05	0.003762909733548347
1.10460e-05	0.003776233141168544
1.10463e-05	0.0037895565487887405
1.10465e-05	0.003802879956408847
1.10468e-05	0.0038162033640290437
1.10470e-05	0.0038295267716492404
1.10472e-05	0.003842850179269347
1.10475e-05	0.0038561735868895435
1.10478e-05	0.0038694969945097402
1.10480e-05	0.0038828204021298467
1.10483e-05	0.0038961438097500434
1.10485e-05	0.0039094672173702405
1.10487e-05	0.003922790624990347
1.10490e-05	0.003936114032610544
1.10493e-05	0.00394943744023074
1.10495e-05	0.003962760847850937
1.10498e-05	0.003969400868558506
1.10500e-05	0.003975276396417243
1.10503e-05	0.003981151924275979
1.10505e-05	0.003987027452134676
1.10508e-05	0.0039929029799934115
1.10510e-05	0.003998778507852148
1.10513e-05	0.004004654035710845
1.10515e-05	0.004010529563569581
1.10518e-05	0.004016405091428318
1.10520e-05	0.0040222806192870145
1.10523e-05	0.004028156147145751
1.10525e-05	0.004034031675004487
1.10528e-05	0.004039907202863183
1.10530e-05	0.00404578273072192
1.10533e-05	0.0040516582585806565
1.10535e-05	0.004057533786439353
1.10538e-05	0.00406340931429809
1.10540e-05	0.004063533764043635
1.10543e-05	0.004054935865675037
1.10545e-05	0.00404633796730638
1.10548e-05	0.004037740068937723
1.10550e-05	0.004029142170569125
1.10553e-05	0.004020544272200469
1.10555e-05	0.0040119463738318125
1.10557e-05	0.004003348475463214
1.10560e-05	0.003994750577094557
1.10563e-05	0.003986152678725901
1.10565e-05	0.0039775547803573025
1.10568e-05	0.003968956881988646
1.10570e-05	0.00396035898361999
1.10572e-05	0.003946792271943622
1.10575e-05	0.003925689630735944
1.10578e-05	0.0039045869895282656
1.10580e-05	0.003883484348320587
1.10583e-05	0.0038623817071130515
1.10585e-05	0.003841279065905373
1.10588e-05	0.0038201764246976948
1.10590e-05	0.003799073783490159
1.10593e-05	0.0037779711422824807
1.10595e-05	0.0037568685010748023
1.10598e-05	0.0037357658598672666
1.10600e-05	0.0037146632186595883
1.10603e-05	0.0036935605774519095
1.10605e-05	0.0036728412453298494
1.10608e-05	0.0036527032572989115
1.10610e-05	0.0036325652692679737
1.10613e-05	0.003612427281237172
1.10615e-05	0.0035922892932062347
1.10618e-05	0.003572151305175297
1.10620e-05	0.0035520133171444953
1.10623e-05	0.0035318753291135574
1.10625e-05	0.0035117373410826196
1.10628e-05	0.0034915993530518184
1.10630e-05	0.003477306477368438
1.10633e-05	0.0034718785664221248
1.10635e-05	0.0034664506554758483
1.10638e-05	0.003461022744529535
1.10640e-05	0.003455594833583222
1.10642e-05	0.0034501669226369453
1.10645e-05	0.0034447390116906325
1.10648e-05	0.003439311100744319
1.10650e-05	0.0034338831897980427
1.10653e-05	0.0034284552788517294
1.10655e-05	0.003431075888838301
1.10657e-05	0.0034459032538051836
1.10660e-05	0.0034607306187721663
1.10663e-05	0.0034755579837391494
1.10665e-05	0.003490385348706132
1.10668e-05	0.0035052127136730145
1.10670e-05	0.0035200400786399976
1.10673e-05	0.0035348674436069803
1.10675e-05	0.0035496948085738628
1.10678e-05	0.0035645221735408454
1.10680e-05	0.0035793495385078285
1.10683e-05	0.003605181071046904
1.10685e-05	0.0036322713377486423
1.10688e-05	0.003659361604450381
1.10690e-05	0.003686451871151936
1.10693e-05	0.0037135421378536745
1.10695e-05	0.003740632404555413
1.10698e-05	0.003767722671256968
1.10700e-05	0.003794812937958706
1.10703e-05	0.0038219032046604446
1.10705e-05	0.0038489934713619996
1.10708e-05	0.003873457675567289
1.10710e-05	0.0038939390732755643
1.10713e-05	0.003914420470983701
1.10715e-05	0.003934901868691977
1.10718e-05	0.003955383266400252
1.10720e-05	0.003975864664108389
1.10723e-05	0.003996346061816664
1.10725e-05	0.00401682745952494
1.10727e-05	0.004037308857233077
1.10730e-05	0.004057790254941352
1.10733e-05	0.004078271652649628
1.10735e-05	0.004098753050357765
1.10738e-05	0.00411923444806604
1.10740e-05	0.004139715845774316
1.10742e-05	0.004160197243482453
1.10745e-05	0.004173692343899891
1.10748e-05	0.004176591706295101
1.10750e-05	0.004179491068690291
1.10753e-05	0.004182390431085501
1.10755e-05	0.004185289793480711
1.10758e-05	0.00418818915587592
1.10760e-05	0.00419108851827111
1.10763e-05	0.00419398788066632
1.10765e-05	0.00419688724306153
1.10768e-05	0.00419978660545672
1.10770e-05	0.004202685967851929
1.10773e-05	0.004205585330247139
1.10775e-05	0.004208484692642329
1.10778e-05	0.004211384055037539
1.10780e-05	0.004214283417432748
1.10783e-05	0.004213750877419175
1.10785e-05	0.00420801335723796
1.10788e-05	0.004202275837056744
1.10790e-05	0.004196538316875567
1.10793e-05	0.004190800796694352
1.10795e-05	0.0041850632765131355
1.10798e-05	0.004179325756331959
1.10800e-05	0.004173588236150743
1.10803e-05	0.0041678507159695274
1.10805e-05	0.00416211319578835
1.10808e-05	0.004156375675607135
1.10810e-05	0.004150638155425919
1.10812e-05	0.004144900635244742
1.10815e-05	0.004138702597603519
1.10818e-05	0.004131806118118393
1.10820e-05	0.004124909638633312
1.10823e-05	0.004118013159148185
1.10825e-05	0.004111116679663059
1.10827e-05	0.004104220200177979
1.10830e-05	0.0040973237206928526
1.10833e-05	0.004090427241207726
1.10835e-05	0.004083530761722646
1.10838e-05	0.004076634282237519
1.10840e-05	0.004069737802752393
1.10843e-05	0.0040628413232672664
1.10845e-05	0.004055944843782186
1.10848e-05	0.004045799912137219
1.10850e-05	0.0040307282293619694
1.10853e-05	0.004015656546586822
1.10855e-05	0.004000584863811572
1.10858e-05	0.003985513181036322
1.10860e-05	0.003970441498261174
1.10863e-05	0.003955369815485925
1.10865e-05	0.003940298132710675
1.10868e-05	0.003925226449935527
1.10870e-05	0.003910154767160277
1.10873e-05	0.0038950830843850273
1.10875e-05	0.0038800114016098795
1.10878e-05	0.00386493971883463
1.10880e-05	0.003847292255369881
1.10883e-05	0.0038257382450945622
1.10885e-05	0.0038041842348190973
1.10888e-05	0.0037826302245436323
1.10890e-05	0.003761076214268314
1.10893e-05	0.003739522203992849
1.10895e-05	0.003717968193717384
1.10897e-05	0.0036964141834420657
1.10900e-05	0.0036748601731666007
1.10903e-05	0.0036533061628911357
1.10905e-05	0.003631752152615817
1.10908e-05	0.0036101981423403524
1.10910e-05	0.0035886441320648874
1.10912e-05	0.003570224166922395
1.10915e-05	0.003556557437981087
1.10918e-05	0.003542890709039779
1.10920e-05	0.0035292239800985632
1.10923e-05	0.0035155572511572555
1.10925e-05	0.0035018905222159473
1.10928e-05	0.003488223793274639
1.10930e-05	0.0034745570643334237
1.10933e-05	0.0034608903353921154
1.10935e-05	0.0034472236064508072
1.10938e-05	0.003433556877509592
1.10940e-05	0.0034198901485682836
1.10943e-05	0.0034062234196269754
1.10945e-05	0.0034011885855461397
1.10948e-05	0.0034092452780386515
1.10950e-05	0.0034173019705311634
1.10953e-05	0.0034253586630236203
1.10955e-05	0.003433415355516132
1.10958e-05	0.003441472048008644
1.10960e-05	0.0034495287405011013
1.10963e-05	0.003457585432993613
1.10965e-05	0.0034656421254861246
1.10968e-05	0.003473698817978582
1.10970e-05	0.003481755510471094
1.10973e-05	0.0034898122029636057
1.10975e-05	0.003497868895456063
1.10978e-05	0.003511889899773603
1.10980e-05	0.003534956652216791
1.10983e-05	0.003558023404659823
1.10985e-05	0.003581090157103011
1.10988e-05	0.0036041569095461995
1.10990e-05	0.003627223661989231
1.10993e-05	0.0036502904144324194
1.10995e-05	0.0036733571668756074
1.10997e-05	0.0036964239193186393
1.11000e-05	0.0037194906717618274
1.11003e-05	0.003743070780090121
1.11005e-05	0.0037667096096788504
1.11008e-05	0.0037903484392677405
1.11010e-05	0.0038139872688566306
1.11013e-05	0.0038376260984455206
1.11015e-05	0.0038612649280342507
1.11018e-05	0.0038849037576231408
1.11020e-05	0.003908542587212031
1.11023e-05	0.0039321814168007604
1.11025e-05	0.003950528651871929
1.11028e-05	0.0039608504126549095
1.11030e-05	0.00397117217343782
1.11033e-05	0.003981493934220801
1.11035e-05	0.003991815695003782
1.11038e-05	0.0040021374557866925
1.11040e-05	0.004012459216569673
1.11043e-05	0.004022780977352654
1.11045e-05	0.004033102738135565
1.11048e-05	0.004043424498918546
1.11050e-05	0.004053746259701526
1.11053e-05	0.004064068020484437
1.11055e-05	0.004074389781267417
1.11058e-05	0.004084711542050398
1.11060e-05	0.004095033302833309
1.11063e-05	0.00410535506361629
1.11065e-05	0.004111018607740388
1.11068e-05	0.004109617287407736
1.11070e-05	0.004108215967075074
1.11073e-05	0.004106814646742412
1.11075e-05	0.00410541332640976
1.11078e-05	0.004104012006077098
1.11080e-05	0.004102610685744436
1.11082e-05	0.004101209365411784
1.11085e-05	0.004099808045079122
1.11088e-05	0.00409840672474646
1.11090e-05	0.004097005404413807
1.11093e-05	0.004095604084081146
1.11095e-05	0.004094202763748484
1.11098e-05	0.0040928014434158215
1.11100e-05	0.00409140012308317
1.11103e-05	0.004089998802750508
1.11105e-05	0.004087683938182234
1.11108e-05	0.004083983550639592
1.11110e-05	0.004080283163096925
1.11113e-05	0.0040765827755542584
1.11115e-05	0.004072882388011617
1.11118e-05	0.004069182000468951
1.11120e-05	0.004065481612926284
1.11123e-05	0.004061781225383642
1.11125e-05	0.004058080837840975
1.11128e-05	0.004054380450298308
1.11130e-05	0.004050680062755666
1.11133e-05	0.004046979675213
1.11135e-05	0.004051260764660894
1.11138e-05	0.004056454831644067
1.11140e-05	0.004061648898627275
1.11143e-05	0.004066842965610483
1.11145e-05	0.004072037032593657
1.11148e-05	0.004077231099576865
1.11150e-05	0.004082425166560074
1.11153e-05	0.004087619233543247
1.11155e-05	0.004092813300526455
1.11158e-05	0.004098007367509663
1.11160e-05	0.004103201434492837
1.11163e-05	0.004113796697085916
1.11165e-05	0.004132583659999346
1.11167e-05	0.00415137062291265
1.11170e-05	0.00417015758582608
1.11173e-05	0.00418894454873951
1.11175e-05	0.004207731511652813
1.11178e-05	0.004226518474566243
1.11180e-05	0.004245305437479674
1.11183e-05	0.004264092400393104
1.11185e-05	0.0042828793633064065
1.11188e-05	0.004301666326219837
1.11190e-05	0.004320453289133267
1.11193e-05	0.004343053344195959
1.11195e-05	0.0043660895675867875
1.11198e-05	0.004389125790977616
1.11200e-05	0.004412162014368288
1.11203e-05	0.004435198237759116
1.11205e-05	0.004458234461149943
1.11208e-05	0.004481270684540615
1.11210e-05	0.004504306907931443
1.11213e-05	0.004527343131322271
1.11215e-05	0.004550379354712943
1.11218e-05	0.004573415578103771
1.11220e-05	0.004591161255816045
1.11223e-05	0.004600883049953436
1.11225e-05	0.0046106048440908935
1.11228e-05	0.0046203266382283505
1.11230e-05	0.004630048432365742
1.11233e-05	0.004639770226503199
1.11235e-05	0.004649492020640655
1.11238e-05	0.004659213814778046
1.11240e-05	0.004668935608915503
1.11243e-05	0.00467865740305296
1.11245e-05	0.004688379197190351
1.11248e-05	0.004698100991327808
1.11250e-05	0.004707822785465265
1.11252e-05	0.004717544579602656
1.11255e-05	0.0047272663737401134
1.11258e-05	0.0047369881678775705
1.11260e-05	0.004746709962014962
1.11263e-05	0.004741630384673657
1.11265e-05	0.004734857722245361
1.11268e-05	0.004728085059817066
1.11270e-05	0.004721312397388817
1.11273e-05	0.0047145397349605215
1.11275e-05	0.004707767072532227
1.11278e-05	0.004700994410103978
1.11280e-05	0.004694221747675682
1.11283e-05	0.004687449085247387
1.11285e-05	0.004680676422819138
1.11288e-05	0.004673903760390842
1.11290e-05	0.0046671310979625475
1.11293e-05	0.004660358435534299
1.11295e-05	0.004653585773106003
1.11298e-05	0.004646813110677708
1.11300e-05	0.004640040448249459
1.11303e-05	0.004631988052363229
1.11305e-05	0.004621994754177033
1.11308e-05	0.004612001455990905
1.11310e-05	0.004602008157804709
1.11313e-05	0.004592014859618513
1.11315e-05	0.004582021561432384
1.11318e-05	0.0045720282632461876
1.11320e-05	0.0045620349650599915
1.11323e-05	0.004552041666873863
1.11325e-05	0.004541097938902411
1.11328e-05	0.004528712745643887
1.11330e-05	0.004516327552385447
1.11333e-05	0.004503942359126923
1.11335e-05	0.004491557165868399
1.11337e-05	0.004479171972609959
1.11340e-05	0.004466786779351435
1.11343e-05	0.004454401586092911
1.11345e-05	0.004442016392834472
1.11348e-05	0.0044228514761150105
1.11350e-05	0.004393404120674326
1.11353e-05	0.004363956765233641
1.11355e-05	0.004334509409793155
1.11358e-05	0.0043050620543524706
1.11360e-05	0.004275614698911787
1.11363e-05	0.004246167343471301
1.11365e-05	0.004216719988030616
1.11368e-05	0.0041872726325899315
1.11370e-05	0.004157825277149446
1.11373e-05	0.004128377921708761
1.11375e-05	0.004084371039876472
1.11378e-05	0.004038698736899821
1.11380e-05	0.0039930264339228605
1.11383e-05	0.0039473541309459
1.11385e-05	0.0039016818279692493
1.11388e-05	0.0038560095249922893
1.11390e-05	0.003810337222015329
1.11393e-05	0.003764664919038678
1.11395e-05	0.003718992616061718
1.11398e-05	0.0036733203130847577
1.11400e-05	0.003627167154660923
1.11403e-05	0.003580284708869985
1.11405e-05	0.003533402263079047
1.11408e-05	0.0034865198172884266
1.11410e-05	0.0034396373714974888
1.11413e-05	0.003392754925706551
1.11415e-05	0.0033458724799159305
1.11418e-05	0.00330394569385042
1.11420e-05	0.0032695348880098425
1.11422e-05	0.0032351240821694984
1.11425e-05	0.0032007132763289207
1.11428e-05	0.0031663024704883433
1.11430e-05	0.0031318916646479993
1.11433e-05	0.003097480858807422
1.11435e-05	0.0030704752656216766
1.11438e-05	0.0030547007566834477
1.11440e-05	0.003038926247745326
1.11443e-05	0.0030285642173749116
1.11445e-05	0.0030264109995823954
1.11448e-05	0.0030242577817898944
1.11450e-05	0.0030277243714965487
1.11453e-05	0.0030397142183222025
1.11455e-05	0.0030517040651477753
1.11458e-05	0.003069347056163828
1.11460e-05	0.003095563864249468
1.11463e-05	0.0031217806723349306
1.11465e-05	0.0031562149162020865
1.11468e-05	0.0032031120990640505
1.11470e-05	0.0032500092819256966
1.11473e-05	0.0032969064647876607
1.11475e-05	0.0033438036476496243
1.11478e-05	0.0033907008305112704
1.11480e-05	0.0034375980133732344
1.11483e-05	0.0034844951962351984
1.11485e-05	0.00354805124600894
1.11488e-05	0.0036135128542797443
1.11490e-05	0.0036789744625505484
1.11493e-05	0.003744436070820909
1.11495e-05	0.003809897679091713
1.11498e-05	0.003875359287362517
