Time(s)	Current(A)
1.35500e-05	0.004790864119994533
1.35503e-05	0.004755197640350083
1.35505e-05	0.004719531160705875
1.35508e-05	0.0046838646810614245
1.35510e-05	0.004654877203733931
1.35513e-05	0.004632101593756504
1.35515e-05	0.004609325983778921
1.35518e-05	0.00458655037380134
1.35520e-05	0.004563774763823912
1.35523e-05	0.00454099915384633
1.35525e-05	0.004518223543868748
1.35528e-05	0.004495447933891166
1.35530e-05	0.0044901429835993755
1.35533e-05	0.0045010867805507174
1.35535e-05	0.00451203057750206
1.35538e-05	0.0045229743744533285
1.35540e-05	0.0045339181714046705
1.35543e-05	0.004544861968356012
1.35545e-05	0.004555805765307281
1.35548e-05	0.0045667495622586235
1.35550e-05	0.004593616707653744
1.35553e-05	0.004635293509282826
1.35555e-05	0.004676970310912191
1.35558e-05	0.004718647112541555
1.35560e-05	0.004766032734468483
1.35563e-05	0.0048273157368334966
1.35565e-05	0.004896585938326551
1.35568e-05	0.004965856139819136
1.35570e-05	0.00503512634131219
1.35573e-05	0.005104396542805245
1.35575e-05	0.00517366674429783
1.35578e-05	0.005242936945790885
1.35580e-05	0.00531220714728394
1.35583e-05	0.005388402792525638
1.35585e-05	0.005471039510232556
1.35588e-05	0.005553676227939475
1.35590e-05	0.005636312945645833
1.35593e-05	0.005718949663352752
1.35595e-05	0.005801586381059671
1.35598e-05	0.00588422309876603
1.35600e-05	0.005966859816472949
1.35603e-05	0.006042730272947552
1.35605e-05	0.006112307706116031
1.35608e-05	0.006181885139284983
1.35610e-05	0.006251462572453933
1.35613e-05	0.006321040005622884
1.35615e-05	0.006390617438791364
1.35618e-05	0.0064601948719603145
1.35620e-05	0.006529020147865858
1.35623e-05	0.00655708511903453
1.35625e-05	0.006585150090203391
1.35628e-05	0.006613215061372252
1.35630e-05	0.006641280032540923
1.35633e-05	0.006669345003709785
1.35635e-05	0.006697409974878646
1.35638e-05	0.006725474946047317
1.35640e-05	0.006722971672108599
1.35643e-05	0.006692038121494806
1.35645e-05	0.0066611045708812235
1.35648e-05	0.006630171020267431
1.35650e-05	0.006599237469653638
1.35653e-05	0.006568303919040055
1.35655e-05	0.006537370368426262
1.35658e-05	0.00650643681781247
1.35660e-05	0.006474578312656794
1.35663e-05	0.0063925954107890304
1.35665e-05	0.006310612508921266
1.35668e-05	0.006228629607054058
1.35670e-05	0.006146646705186295
1.35673e-05	0.006064663803318531
1.35675e-05	0.005982680901451323
1.35678e-05	0.00590069799958356
1.35680e-05	0.005818715097715796
1.35683e-05	0.005725484068867438
1.35685e-05	0.0056217916163725234
1.35688e-05	0.005518099163877609
1.35690e-05	0.005414406711383397
1.35693e-05	0.005310714258888482
1.35695e-05	0.005207021806393567
1.35698e-05	0.005103456089000459
1.35700e-05	0.00500675829888275
1.35703e-05	0.004910060508764386
1.35705e-05	0.004813362718646022
1.35708e-05	0.004716664928528313
1.35710e-05	0.004619967138409948
1.35713e-05	0.004523269348291585
1.35715e-05	0.004437451112620904
1.35718e-05	0.004361751506331438
1.35720e-05	0.004286051900041972
1.35723e-05	0.004223870668605638
1.35725e-05	0.004174262325667905
1.35728e-05	0.004124653982730171
1.35730e-05	0.0040750456397927745
1.35733e-05	0.004025437296855042
1.35735e-05	0.003975828953917309
1.35738e-05	0.003926220610979912
1.35740e-05	0.003876612268042179
1.35743e-05	0.003827003925104446
1.35745e-05	0.0037779316109924537
1.35748e-05	0.0037579073423496014
1.35750e-05	0.0037378830737067495
1.35753e-05	0.003717858805064033
1.35755e-05	0.0036978345364211806
1.35758e-05	0.0036778102677783283
1.35760e-05	0.003657785999135612
1.35763e-05	0.00363776173049276
1.35765e-05	0.0036177374618499075
1.35768e-05	0.003597713193207191
1.35770e-05	0.003587040368606177
1.35773e-05	0.0035850649402931574
1.35775e-05	0.0035830895119801512
1.35778e-05	0.0035811140836671316
1.35780e-05	0.003579138655354112
1.35783e-05	0.0035771632270410925
1.35785e-05	0.0035751877987280863
1.35788e-05	0.0035732123704150668
1.35790e-05	0.003571236942102047
1.35793e-05	0.003569261513789041
1.35795e-05	0.0035706034826570336
1.35798e-05	0.003575030827195311
1.35800e-05	0.0035794581717335586
1.35803e-05	0.003583885516271836
1.35805e-05	0.003588312860810113
1.35808e-05	0.003592740205348361
1.35810e-05	0.003597167549886638
1.35813e-05	0.0036015948944249157
1.35815e-05	0.003606022238963163
1.35818e-05	0.0036104495835014403
1.35820e-05	0.003616832470791643
1.35823e-05	0.0036250341285515102
1.35825e-05	0.0036332357863114325
1.35828e-05	0.003641437444071355
1.35830e-05	0.003649639101831222
1.35833e-05	0.0036578407595911446
1.35835e-05	0.003666042417351067
1.35838e-05	0.003674244075110934
1.35840e-05	0.0036824457328708564
1.35843e-05	0.003690647390630779
1.35845e-05	0.0036988490483906462
1.35848e-05	0.0037070507061505685
1.35850e-05	0.003715252363910491
1.35853e-05	0.0037236533017290393
1.35855e-05	0.0037428534651740264
1.35858e-05	0.0037620536286190136
1.35860e-05	0.0037812537920638707
1.35863e-05	0.0038004539555088574
1.35865e-05	0.0038196541189538446
1.35868e-05	0.003838854282398832
1.35870e-05	0.0038580544458436884
1.35873e-05	0.0038772546092886756
1.35875e-05	0.003896454772733663
1.35878e-05	0.0039156549361785194
1.35880e-05	0.003934855099623507
1.35883e-05	0.003954055263068494
1.35885e-05	0.003973255426513351
1.35888e-05	0.0039934431562618465
1.35890e-05	0.004014549381107616
1.35893e-05	0.004035655605953242
1.35895e-05	0.004056761830799011
1.35898e-05	0.004077868055644781
1.35900e-05	0.004098974280490407
1.35903e-05	0.004120080505336176
1.35905e-05	0.004141186730181945
1.35908e-05	0.0041622929550275715
1.35910e-05	0.00418339917987334
1.35913e-05	0.00420450540471911
1.35915e-05	0.004219237090867619
1.35918e-05	0.004228040078841423
1.35920e-05	0.004236843066815227
1.35923e-05	0.004245646054788971
1.35925e-05	0.004254449042762775
1.35928e-05	0.004263252030736579
1.35930e-05	0.004272055018710323
1.35933e-05	0.004280858006684127
1.35935e-05	0.0042896609946579305
1.35938e-05	0.004298463982631675
1.35940e-05	0.0043072669706054785
1.35943e-05	0.0043058083711625195
1.35945e-05	0.004294805888235231
1.35948e-05	0.004283803405307866
1.35950e-05	0.004272800922380503
1.35953e-05	0.004261798439453139
1.35955e-05	0.00425079595652585
1.35958e-05	0.0042397934735984855
1.35960e-05	0.004228790990671122
1.35963e-05	0.004217788507743832
1.35965e-05	0.004206786024816469
1.35968e-05	0.004195783541889105
1.35970e-05	0.004184554574151618
1.35973e-05	0.004161052122581466
1.35975e-05	0.004137549671011315
1.35978e-05	0.004114047219441323
1.35980e-05	0.004090544767871171
1.35983e-05	0.004067042316301019
1.35985e-05	0.004043539864731027
1.35988e-05	0.004020037413160876
1.35990e-05	0.003996534961590724
1.35993e-05	0.003973032510020732
1.35995e-05	0.00394953005845058
1.35998e-05	0.003926027606880428
1.36000e-05	0.0039026539434062323
1.36003e-05	0.0038794000604814903
1.36005e-05	0.0038561461775567484
1.36008e-05	0.0038328922946321642
1.36010e-05	0.0038096384117074222
1.36013e-05	0.0037863845287826802
1.36015e-05	0.0037682733913855433
1.36018e-05	0.0037549453116304207
1.36020e-05	0.003741617231875298
1.36023e-05	0.0037282891521202657
1.36025e-05	0.003714961072365143
1.36028e-05	0.0037016329926100205
1.36030e-05	0.0036980702705686256
1.36033e-05	0.0037035899090275257
1.36035e-05	0.003709109547486426
1.36038e-05	0.0037217031602299984
1.36040e-05	0.0037408759876326626
1.36043e-05	0.0037600488150354564
1.36045e-05	0.0037874890080872546
1.36048e-05	0.0038226183403810834
1.36050e-05	0.00385774767267515
1.36053e-05	0.0039061568013310333
1.36055e-05	0.0039669169263828056
1.36058e-05	0.004027677051434989
1.36060e-05	0.004088437176487173
1.36063e-05	0.004149197301538945
1.36065e-05	0.004209957426591129
1.36068e-05	0.004270717551643313
1.36070e-05	0.004331477676695085
1.36073e-05	0.004404814704347256
1.36075e-05	0.0044898489956072
1.36078e-05	0.004574883286866569
1.36080e-05	0.004659917578126513
1.36083e-05	0.004744951869386458
1.36085e-05	0.004829986160645826
1.36088e-05	0.004915020451905771
1.36090e-05	0.005000054743165715
1.36093e-05	0.00508615992202254
1.36095e-05	0.005173261089711307
1.36098e-05	0.005260362257400074
1.36100e-05	0.00534746342508825
1.36103e-05	0.005434564592777018
1.36105e-05	0.005521665760465785
1.36108e-05	0.005599781147177607
1.36110e-05	0.005669539225881885
1.36113e-05	0.005739297304586163
1.36115e-05	0.005809055383289967
1.36118e-05	0.005878813461994245
1.36120e-05	0.005948571540698523
1.36123e-05	0.006004326640663031
1.36125e-05	0.006047058141824793
1.36128e-05	0.006089789642986846
1.36130e-05	0.006132521144148898
1.36133e-05	0.006175252645310661
1.36135e-05	0.006217984146472713
1.36138e-05	0.006260715647634764
1.36140e-05	0.006303447148796527
1.36143e-05	0.006346178649958579
1.36145e-05	0.006388910151120632
1.36148e-05	0.006431641652282394
1.36150e-05	0.006474373153444447
1.36153e-05	0.00651679229186474
1.36155e-05	0.006542284118100815
1.36158e-05	0.006567775944337063
1.36160e-05	0.006593267770573312
1.36163e-05	0.006618759596809387
1.36165e-05	0.0066442514230456344
1.36168e-05	0.006669743249281883
1.36170e-05	0.006695235075517958
1.36173e-05	0.006720726901754206
1.36175e-05	0.006746218727990454
1.36178e-05	0.0067717105542265295
1.36180e-05	0.006797202380462777
1.36183e-05	0.006822694206699025
1.36185e-05	0.006844302501476425
1.36188e-05	0.006862298882202938
1.36190e-05	0.006880295262929451
1.36193e-05	0.006898291643655841
1.36195e-05	0.006916288024382353
1.36198e-05	0.006934284405108866
1.36200e-05	0.006952280785835257
1.36203e-05	0.006970176626186792
1.36205e-05	0.006982624062837386
1.36208e-05	0.00699507149948798
1.36210e-05	0.0070075189361384896
1.36213e-05	0.007019966372789084
1.36215e-05	0.007032413809439678
1.36218e-05	0.007044861246090188
1.36220e-05	0.007057308682740782
1.36223e-05	0.007058751459049139
1.36225e-05	0.007049959250075873
1.36228e-05	0.007041167041102548
1.36230e-05	0.0070323748321292215
1.36233e-05	0.007023582623155955
1.36235e-05	0.00701479041418263
1.36238e-05	0.007005998205209304
1.36240e-05	0.0069972059962360375
1.36243e-05	0.006969161334131177
1.36245e-05	0.006923210751414485
1.36248e-05	0.006877260168698105
1.36250e-05	0.006831309585981413
1.36253e-05	0.006785359003264721
1.36255e-05	0.006739408420548341
1.36258e-05	0.0066934578378316486
1.36260e-05	0.006647507255114957
1.36263e-05	0.00658513673435337
1.36265e-05	0.006507494699614114
1.36268e-05	0.006429852664874858
1.36270e-05	0.006352210630136128
1.36273e-05	0.006274568595396872
1.36275e-05	0.006196926560657616
1.36278e-05	0.006119284525918887
1.36280e-05	0.006041642491179631
1.36283e-05	0.005957609662322838
1.36285e-05	0.005867633016783002
1.36288e-05	0.005777656371242556
1.36290e-05	0.00568767972570211
1.36293e-05	0.005597703080161664
1.36295e-05	0.005507726434621827
1.36298e-05	0.005417749789081381
1.36300e-05	0.005327773143540935
1.36303e-05	0.005245293087156822
1.36305e-05	0.0051697853022736415
1.36308e-05	0.00509427751739046
1.36310e-05	0.005018769732507791
1.36313e-05	0.004943261947624609
1.36315e-05	0.004867754162741428
1.36318e-05	0.004792246377858758
1.36320e-05	0.0047173793359319574
1.36323e-05	0.004677234924705844
1.36325e-05	0.0046370905134800015
1.36328e-05	0.004596946102253888
1.36330e-05	0.004556801691027774
1.36333e-05	0.004516657279801933
1.36335e-05	0.004476512868575819
1.36338e-05	0.004436368457349705
1.36340e-05	0.0044184811743859095
1.36343e-05	0.004421294337702826
1.36345e-05	0.004424107501019742
1.36348e-05	0.0044269206643366395
1.36350e-05	0.004429733827653556
1.36353e-05	0.004432546990970472
1.36355e-05	0.0044353601542873695
1.36358e-05	0.004438173317604286
1.36360e-05	0.004440986480921202
1.36363e-05	0.004461999713675676
1.36365e-05	0.004499940087940847
1.36368e-05	0.004537880462206019
1.36370e-05	0.004575820836470934
1.36373e-05	0.004613761210736105
1.36375e-05	0.004651701585001277
1.36378e-05	0.004689641959266448
1.36380e-05	0.004727582333531363
1.36383e-05	0.004765522707796534
1.36385e-05	0.004810591411986105
1.36388e-05	0.004862289884802253
1.36390e-05	0.00491398835761875
1.36393e-05	0.004965686830435247
1.36395e-05	0.005017385303251394
1.36398e-05	0.005069083776067891
1.36400e-05	0.005120782248884388
1.36403e-05	0.0051724807217005345
1.36405e-05	0.00521900806985767
1.36408e-05	0.005260725966095639
1.36410e-05	0.005302443862333326
1.36413e-05	0.005344161758571295
1.36415e-05	0.005385879654809265
1.36418e-05	0.005427597551046951
1.36420e-05	0.005469315447284921
1.36423e-05	0.00551103334352289
1.36425e-05	0.005535030567689851
1.36428e-05	0.005542546518261784
1.36430e-05	0.005550062468833716
1.36433e-05	0.0055575784194055984
1.36435e-05	0.005565094369977531
1.36438e-05	0.005572610320549463
1.36440e-05	0.005580126271121345
1.36443e-05	0.005587642221693279
1.36445e-05	0.005595158172265211
1.36448e-05	0.005602674122837093
1.36450e-05	0.005609475258579668
1.36453e-05	0.005577539719660428
1.36455e-05	0.005545604180741404
1.36458e-05	0.005513668641822163
1.36460e-05	0.005481733102902923
1.36463e-05	0.005449797563983683
1.36465e-05	0.005417862025064659
1.36468e-05	0.005385926486145419
1.36470e-05	0.005353990947226179
1.36473e-05	0.005322055408307155
1.36475e-05	0.005290119869387914
1.36478e-05	0.005247926596715031
1.36480e-05	0.005196193024679353
1.36483e-05	0.005144459452643325
1.36485e-05	0.005092725880607297
1.36488e-05	0.00504099230857162
1.36490e-05	0.004989258736535592
1.36493e-05	0.004937525164499564
1.36495e-05	0.0048857915924638865
1.36498e-05	0.004835480686648548
1.36500e-05	0.0047864929446007915
1.36503e-05	0.004737505202553367
1.36505e-05	0.00468851746050561
1.36508e-05	0.004639529718457853
1.36510e-05	0.004590541976410428
1.36513e-05	0.004541554234362671
1.36515e-05	0.0044925664923149145
1.36518e-05	0.004454470695881127
1.36520e-05	0.004426505053369283
1.36523e-05	0.004398539410857438
1.36525e-05	0.004370573768345783
1.36528e-05	0.004342608125833938
1.36530e-05	0.004314642483322094
1.36533e-05	0.004286676840810438
1.36535e-05	0.004258711198298594
1.36538e-05	0.004230745555786749
1.36540e-05	0.004202779913275094
1.36543e-05	0.004174814270763249
1.36545e-05	0.004146848628251405
1.36548e-05	0.0041191717856345214
1.36550e-05	0.004107145356458191
1.36553e-05	0.004095118927281861
1.36555e-05	0.00408309249810553
1.36558e-05	0.004071066068929281
1.36560e-05	0.004059039639752951
1.36563e-05	0.00404701321057662
1.36565e-05	0.004034986781400371
1.36568e-05	0.00402296035222404
1.36570e-05	0.00401093392304771
1.36573e-05	0.0039989074938714606
1.36575e-05	0.00398688106469513
1.36578e-05	0.003974854635518799
1.36580e-05	0.003966420669412479
1.36583e-05	0.003961327906536177
1.36585e-05	0.003956235143659875
1.36588e-05	0.003951142380783607
1.36590e-05	0.003946049617907305
1.36593e-05	0.003940956855031003
1.36595e-05	0.003935864092154736
1.36598e-05	0.003930771329278434
1.36600e-05	0.00392684301567264
1.36603e-05	0.003923997708791884
1.36605e-05	0.003921152401911109
1.36608e-05	0.0039183070950303345
1.36610e-05	0.00391546178814958
1.36613e-05	0.003912616481268805
1.36615e-05	0.00390977117438803
1.36618e-05	0.0039069258675072755
1.36620e-05	0.00391091250013696
1.36623e-05	0.00392125324077509
1.36625e-05	0.00393159398141315
1.36628e-05	0.00394193472205128
1.36630e-05	0.00395227546268941
1.36633e-05	0.00396261620332747
1.36635e-05	0.0039729569439656
1.36638e-05	0.004001113663227207
1.36640e-05	0.00404584029682712
1.36643e-05	0.00409056693042673
1.36645e-05	0.004135293564026643
1.36648e-05	0.004180020197626556
1.36650e-05	0.004224746831226166
1.36653e-05	0.004269473464826079
1.36655e-05	0.004332843998124014
1.36658e-05	0.004413554461349309
1.36660e-05	0.00449426492457515
1.36663e-05	0.004574975387800992
1.36665e-05	0.0046556858510262865
1.36668e-05	0.004736396314252128
1.36670e-05	0.00481710677747797
1.36673e-05	0.004898233341637745
1.36675e-05	0.005001908915702
1.36678e-05	0.005105584489766254
1.36680e-05	0.005209260063829806
1.36683e-05	0.005312935637894062
1.36685e-05	0.005416611211958316
1.36688e-05	0.005520286786021868
1.36690e-05	0.005623962360086123
1.36693e-05	0.005727202128529785
1.36695e-05	0.005830036571957775
1.36698e-05	0.005932871015386461
1.36700e-05	0.006035705458815148
1.36703e-05	0.006138539902243138
1.36705e-05	0.0062413743456718246
1.36708e-05	0.006344208789100511
1.36710e-05	0.006432022376777984
1.36713e-05	0.006505865679781465
1.36715e-05	0.006579708982784946
1.36718e-05	0.006653552285787928
1.36720e-05	0.0067273955887914095
1.36723e-05	0.006801238891794891
1.36725e-05	0.006875082194798372
1.36728e-05	0.006918934142354617
1.36730e-05	0.00693489235467068
1.36733e-05	0.006950850566986743
1.36735e-05	0.0069668087793026984
1.36738e-05	0.0069827669916187616
1.36740e-05	0.006998725203934825
1.36743e-05	0.00701468341625078
1.36745e-05	0.007030641628566843
1.36748e-05	0.007013237740484031
1.36750e-05	0.006964805124898652
1.36753e-05	0.006916372509312945
1.36755e-05	0.006867939893727238
1.36758e-05	0.006819507278141858
1.36760e-05	0.006771074662556152
1.36763e-05	0.006722642046970444
1.36765e-05	0.006674209431385065
1.36768e-05	0.006602561632515018
1.36770e-05	0.00650932233948043
1.36773e-05	0.006416083046446475
1.36775e-05	0.0063228437534118866
1.36778e-05	0.006229604460377299
1.36780e-05	0.006136365167343344
1.36783e-05	0.0060431258743087555
1.36785e-05	0.005941465298214082
1.36788e-05	0.005831972430561965
1.36790e-05	0.0057224795629091055
1.36793e-05	0.005612986695256247
1.36795e-05	0.00550349382760413
1.36798e-05	0.005394000959951271
1.36800e-05	0.005284508092298412
1.36803e-05	0.005177921411165048
1.36805e-05	0.005074037655461281
1.36808e-05	0.004970153899757513
1.36810e-05	0.004880419429634616
1.36813e-05	0.004803844632358728
1.36815e-05	0.00472726983508232
1.36818e-05	0.004650695037805913
1.36820e-05	0.004574120240530024
1.36823e-05	0.0044975454432536165
1.36825e-05	0.004420970645977209
1.36828e-05	0.00434439584870132
1.36830e-05	0.004292959415454817
1.36833e-05	0.00426490314827152
1.36835e-05	0.004236846881088412
1.36838e-05	0.004208790613905114
1.36840e-05	0.004180734346721816
1.36843e-05	0.004152678079538709
1.36845e-05	0.0041246218123554106
1.36848e-05	0.004096565545172113
1.36850e-05	0.004084769054359797
1.36853e-05	0.004088095117714622
1.36855e-05	0.004091421181069447
1.36858e-05	0.004108018867822354
1.36860e-05	0.004136959949659198
1.36863e-05	0.0041659010314960415
1.36865e-05	0.004194842113332689
1.36868e-05	0.004223783195169534
1.36870e-05	0.004252724277006378
1.36873e-05	0.004281665358843026
1.36875e-05	0.00431060644067987
1.36878e-05	0.004350874084467678
1.36880e-05	0.004401676101098103
1.36883e-05	0.004452478117728872
1.36885e-05	0.004503280134359641
1.36888e-05	0.004554082150990065
1.36890e-05	0.004604884167620834
1.36893e-05	0.004655686184251603
1.36895e-05	0.0047064882008823715
1.36898e-05	0.00475699306595862
1.36900e-05	0.004807221562506408
1.36903e-05	0.0048574500590541966
1.36905e-05	0.004907678555601645
1.36908e-05	0.004957907052149433
1.36910e-05	0.005008135548697222
1.36913e-05	0.00505836404524467
1.36915e-05	0.0051085925417924585
1.36918e-05	0.005145793206084312
1.36920e-05	0.005170877215478213
1.36923e-05	0.005195961224872284
1.36925e-05	0.005221045234266355
1.36928e-05	0.005246129243660256
1.36930e-05	0.005271213253054327
1.36933e-05	0.005296297262448397
1.36935e-05	0.005321381271842299
1.36938e-05	0.005325132343436518
1.36940e-05	0.005309042520535572
1.36943e-05	0.005292952697634736
1.36945e-05	0.00527686287473379
1.36948e-05	0.005260773051832844
1.36950e-05	0.005244683228932008
1.36953e-05	0.005228593406031062
1.36955e-05	0.0052125035831301165
1.36958e-05	0.00519641376022928
1.36960e-05	0.005179667212067739
1.36963e-05	0.005127331932123006
1.36965e-05	0.005074996652178627
1.36968e-05	0.005022661372233894
1.36970e-05	0.004970326092289161
1.36973e-05	0.004917990812344782
1.36975e-05	0.004865655532400049
1.36978e-05	0.004813320252455316
1.36980e-05	0.004760984972510583
1.36983e-05	0.004708649692566204
1.36985e-05	0.004649480426627818
1.36988e-05	0.004583955149325003
1.36990e-05	0.004518429872022632
1.36993e-05	0.0044529045947198165
1.36995e-05	0.004387379317417001
1.36998e-05	0.0043218540401146295
1.37000e-05	0.004256451619374277
1.37003e-05	0.004197706943536246
1.37005e-05	0.0041389622676986145
1.37008e-05	0.004080217591860584
