Time(s)	Current(A)
1.80000e-06	0.009137415108299532
1.80025e-06	0.009162935209489145
1.80050e-06	0.009188455310678781
1.80075e-06	0.009213975411868395
1.80100e-06	0.009243809768068703
1.80125e-06	0.009281122586138956
1.80150e-06	0.00931843540420921
1.80175e-06	0.009355748222279494
1.80200e-06	0.009393061040349746
1.80225e-06	0.00943037385842003
1.80250e-06	0.009467686676490283
1.80275e-06	0.009504999494560535
1.80300e-06	0.00954231231263082
1.80325e-06	0.009579625130701073
1.80350e-06	0.009616937948771357
1.80375e-06	0.00965425076684161
1.80400e-06	0.009685326985000721
1.80425e-06	0.009705592489718563
1.80450e-06	0.00972585799443639
1.80475e-06	0.009746123499154232
1.80500e-06	0.00976638900387206
1.80525e-06	0.009786654508589903
1.80550e-06	0.009806920013307728
1.80575e-06	0.009827185518025555
1.80600e-06	0.009847451022743398
1.80625e-06	0.009867716527461224
1.80650e-06	0.009887982032179068
1.80675e-06	0.009908247536896893
1.80700e-06	0.00992851304161472
1.80725e-06	0.009925595661231718
1.80750e-06	0.009919086163469992
1.80775e-06	0.009912576665708259
1.80800e-06	0.009906067167946533
1.80825e-06	0.009899557670184807
1.80850e-06	0.009893048172423074
1.80875e-06	0.009886538674661348
1.80900e-06	0.009880029176899615
1.80925e-06	0.009873519679137889
1.80950e-06	0.009867010181376156
1.80975e-06	0.00986050068361443
1.81000e-06	0.009853991185852704
1.81025e-06	0.00984186683365176
1.81050e-06	0.009820009520667824
1.81075e-06	0.00979815220768387
1.81100e-06	0.009776294894699934
1.81125e-06	0.009754437581715998
1.81150e-06	0.009732580268732043
1.81175e-06	0.009710722955748107
1.81200e-06	0.009688865642764152
1.81225e-06	0.009667008329780217
1.81250e-06	0.00964515101679628
1.81275e-06	0.009623293703812326
1.81300e-06	0.00960143639082839
1.81325e-06	0.009579579077844435
1.81350e-06	0.0095577217648605
1.81375e-06	0.009541769998105475
1.81400e-06	0.009526733277736878
1.81425e-06	0.00951169655736828
1.81450e-06	0.00949665983699967
1.81475e-06	0.009481623116631073
1.81500e-06	0.009466586396262463
1.81525e-06	0.009451549675893864
1.81550e-06	0.009436512955525266
1.81575e-06	0.009421476235156656
1.81600e-06	0.009406439514788058
1.81625e-06	0.009391402794419449
1.81650e-06	0.009376366074050851
1.81675e-06	0.009361329353682253
1.81700e-06	0.00935339448646184
1.81725e-06	0.00935777018916335
1.81750e-06	0.009362145891864862
1.81775e-06	0.009366521594566371
1.81800e-06	0.009370897297267883
1.81825e-06	0.009375272999969392
1.81850e-06	0.009379648702670901
1.81875e-06	0.009384024405372414
1.81900e-06	0.009388400108073923
1.81925e-06	0.009392775810775435
1.81950e-06	0.009397151513476944
1.81975e-06	0.009401527216178453
1.82000e-06	0.009405902918879968
1.82025e-06	0.009410278621581477
1.82050e-06	0.009414654324282989
1.82075e-06	0.009419030026984498
1.82100e-06	0.009426377153375643
1.82125e-06	0.009438875036665708
1.82150e-06	0.00945137291995576
1.82175e-06	0.009463870803245823
1.82200e-06	0.009476368686535876
1.82225e-06	0.009488866569825938
1.82250e-06	0.009501364453115991
1.82275e-06	0.009513862336406043
1.82300e-06	0.009526360219696106
1.82325e-06	0.009538858102986159
1.82350e-06	0.009551355986276221
1.82375e-06	0.009563853869566274
1.82400e-06	0.009576351752856326
1.82425e-06	0.009588849636146389
1.82450e-06	0.009601347519436441
1.82475e-06	0.009613845402726504
1.82500e-06	0.009621103590540133
1.82525e-06	0.009619279129616461
1.82550e-06	0.009617454668692788
1.82575e-06	0.009615630207769116
1.82600e-06	0.009613805746845443
1.82625e-06	0.009611981285921771
1.82650e-06	0.009610156824998098
1.82675e-06	0.009608332364074426
1.82700e-06	0.009606507903150754
1.82725e-06	0.00960468344222708
1.82750e-06	0.009602858981303409
1.82775e-06	0.009592838574674837
1.82800e-06	0.0095686110645531
1.82825e-06	0.009544383554431364
1.82850e-06	0.009520156044309608
1.82875e-06	0.009495928534187873
1.82900e-06	0.009471701024066116
1.82925e-06	0.009447473513944381
1.82950e-06	0.009423246003822645
1.82975e-06	0.00939901849370089
1.83000e-06	0.009374790983579153
1.83025e-06	0.009350563473457398
1.83050e-06	0.00932187738943899
1.83075e-06	0.009285462676771496
1.83100e-06	0.00924904796410403
1.83125e-06	0.009212633251436567
1.83150e-06	0.009176218538769073
1.83175e-06	0.00913980382610161
1.83200e-06	0.009103389113434114
1.83225e-06	0.00906697440076665
1.83250e-06	0.009030559688099186
1.83275e-06	0.008994144975431691
1.83300e-06	0.008957730262764228
1.83325e-06	0.008921315550096733
1.83350e-06	0.008884900837429268
1.83375e-06	0.008859249256932525
1.83400e-06	0.00883526539095617
1.83425e-06	0.008811281524979836
1.83450e-06	0.008787297659003481
1.83475e-06	0.008763313793027147
1.83500e-06	0.008739329927050793
1.83525e-06	0.008715346061074457
1.83550e-06	0.008691362195098123
1.83575e-06	0.008667378329121768
1.83600e-06	0.008643394463145434
1.83625e-06	0.008619410597169079
1.83650e-06	0.008595426731192745
1.83675e-06	0.008581759801005407
1.83700e-06	0.008585976563531106
1.83725e-06	0.0085901933260568
1.83750e-06	0.0085944100885825
1.83775e-06	0.008598626851108194
1.83800e-06	0.00860284361363389
1.83825e-06	0.008607060376159586
1.83850e-06	0.00861127713868528
1.83875e-06	0.00861549390121098
1.83900e-06	0.008619710663736674
1.83925e-06	0.008623927426262373
1.83950e-06	0.008628144188788068
1.83975e-06	0.008632360951313763
1.84000e-06	0.008636577713839461
1.84025e-06	0.008646889465446748
1.84050e-06	0.008667766457940635
1.84075e-06	0.008688643450434503
1.84100e-06	0.008709520442928371
1.84125e-06	0.008730397435422256
1.84150e-06	0.008751274427916124
1.84175e-06	0.00877215142041001
1.84200e-06	0.008793028412903877
1.84225e-06	0.008813905405397745
1.84250e-06	0.00883478239789163
1.84275e-06	0.008855659390385498
1.84300e-06	0.008876536382879384
1.84325e-06	0.008897413375373251
1.84350e-06	0.00891829036786712
1.84375e-06	0.008935927160929788
1.84400e-06	0.008947947292985777
1.84425e-06	0.008959967425041775
1.84450e-06	0.008971987557097764
1.84475e-06	0.008984007689153762
1.84500e-06	0.008996027821209751
1.84525e-06	0.00900804795326574
1.84550e-06	0.009020068085321738
1.84575e-06	0.009032088217377728
1.84600e-06	0.009044108349433727
1.84625e-06	0.009056128481489715
1.84650e-06	0.009068148613545704
1.84675e-06	0.009080168745601703
1.84700e-06	0.00909218887765769
1.84725e-06	0.009087555295279989
1.84750e-06	0.009080341270617017
1.84775e-06	0.009073127245954046
1.84800e-06	0.009065913221291069
1.84825e-06	0.009058699196628096
1.84850e-06	0.009051485171965119
1.84875e-06	0.009044271147302147
1.84900e-06	0.009037057122639169
1.84925e-06	0.009029843097976198
1.84950e-06	0.009022629073313226
1.84975e-06	0.009015415048650248
1.85000e-06	0.009008201023987276
1.85025e-06	0.009000986999324298
1.85050e-06	0.008990092995886137
1.85075e-06	0.008972820004447431
1.85100e-06	0.00895554701300871
1.85125e-06	0.008938274021570004
1.85150e-06	0.008921001030131282
1.85175e-06	0.008903728038692575
1.85200e-06	0.008886455047253869
1.85225e-06	0.008869182055815147
1.85250e-06	0.00885190906437644
1.85275e-06	0.008834636072937718
1.85300e-06	0.008817363081499012
1.85325e-06	0.00880009009006029
1.85350e-06	0.008782817098621585
1.85375e-06	0.008765544107182877
1.85400e-06	0.008748271115744156
1.85425e-06	0.00873489005092344
1.85450e-06	0.008728255370990045
1.85475e-06	0.008721620691056656
1.85500e-06	0.008714986011123266
1.85525e-06	0.008708351331189872
1.85550e-06	0.008701716651256483
1.85575e-06	0.008695081971323088
1.85600e-06	0.008688447291389699
1.85625e-06	0.00868181261145631
1.85650e-06	0.008675177931522915
1.85675e-06	0.008668543251589526
1.85700e-06	0.008661908571656132
1.85725e-06	0.008655273891722742
1.85750e-06	0.008648639211789348
1.85775e-06	0.008642004531855959
1.85800e-06	0.008642680811431033
1.85825e-06	0.00865603013229901
1.85850e-06	0.008669379453166976
1.85875e-06	0.008682728774034953
1.85900e-06	0.008696078094902918
1.85925e-06	0.008709427415770883
1.85950e-06	0.00872277673663886
1.85975e-06	0.008736126057506826
1.86000e-06	0.008749475378374803
1.86025e-06	0.008762824699242769
1.86050e-06	0.008776174020110734
1.86075e-06	0.008789523340978711
1.86100e-06	0.008802872661846676
1.86125e-06	0.008816221982714654
1.86150e-06	0.008829571303582619
1.86175e-06	0.008846576681828996
1.86200e-06	0.008864148555021125
1.86225e-06	0.008881720428213256
1.86250e-06	0.0088992923014054
1.86275e-06	0.008916864174597531
1.86300e-06	0.008934436047789675
1.86325e-06	0.008952007920981804
1.86350e-06	0.008969579794173935
1.86375e-06	0.00898715166736608
1.86400e-06	0.00900472354055821
1.86425e-06	0.009022295413750355
1.86450e-06	0.009039867286942485
1.86475e-06	0.009057439160134614
1.86500e-06	0.009075011033326759
1.86525e-06	0.009090596102281648
1.86550e-06	0.00910273718387631
1.86575e-06	0.009114878265470961
1.86600e-06	0.009127019347065623
1.86625e-06	0.009139160428660274
1.86650e-06	0.009151301510254926
1.86675e-06	0.009163442591849588
1.86700e-06	0.009175583673444239
1.86725e-06	0.0091877247550389
1.86750e-06	0.009199865836633552
1.86775e-06	0.009212006918228204
1.86800e-06	0.009224147999822865
1.86825e-06	0.009236289081417517
1.86850e-06	0.009248430163012179
1.86875e-06	0.00926057124460683
1.86900e-06	0.009272712326201481
1.86925e-06	0.00928629718666713
1.86950e-06	0.009300105756267635
1.86975e-06	0.009313914325868153
1.87000e-06	0.009327722895468658
1.87025e-06	0.009341531465069176
1.87050e-06	0.00935534003466968
1.87075e-06	0.009369148604270187
1.87100e-06	0.009382957173870703
1.87125e-06	0.00939676574347121
1.87150e-06	0.009410574313071726
1.87175e-06	0.009424382882672232
1.87200e-06	0.009438191452272739
1.87225e-06	0.009452000021873255
1.87250e-06	0.009465808591473761
1.87275e-06	0.009479617161074278
1.87300e-06	0.009491439501778507
1.87325e-06	0.009499818852436323
1.87350e-06	0.009508198203094146
1.87375e-06	0.009516577553751963
1.87400e-06	0.009524956904409788
1.87425e-06	0.009533336255067604
1.87450e-06	0.009541715605725427
1.87475e-06	0.009550094956383244
1.87500e-06	0.00955847430704106
1.87525e-06	0.009566853657698883
1.87550e-06	0.0095752330083567
1.87575e-06	0.009583612359014525
1.87600e-06	0.009591991709672341
1.87625e-06	0.009600371060330157
1.87650e-06	0.009594945895031744
1.87675e-06	0.009587381762067575
1.87700e-06	0.009579817629103399
1.87725e-06	0.00957225349613923
1.87750e-06	0.009564689363175059
1.87775e-06	0.009557125230210885
1.87800e-06	0.009549561097246714
1.87825e-06	0.00954199696428254
1.87850e-06	0.009534432831318369
1.87875e-06	0.0095268686983542
1.87900e-06	0.009519304565390024
1.87925e-06	0.009511740432425855
1.87950e-06	0.009504176299461679
1.87975e-06	0.00949213462666961
1.88000e-06	0.009472331449104256
1.88025e-06	0.00945252827153892
1.88050e-06	0.009432725093973584
1.88075e-06	0.009412921916408232
1.88100e-06	0.009393118738842895
1.88125e-06	0.009373315561277542
1.88150e-06	0.009353512383712206
1.88175e-06	0.00933370920614687
1.88200e-06	0.009313906028581516
1.88225e-06	0.00929410285101618
1.88250e-06	0.009274299673450828
1.88275e-06	0.009254496495885492
1.88300e-06	0.009234693318320155
1.88325e-06	0.009216590920221736
1.88350e-06	0.009201436705379757
1.88375e-06	0.009186282490537764
1.88400e-06	0.009171128275695786
1.88425e-06	0.009155974060853793
1.88450e-06	0.009140819846011816
1.88475e-06	0.009125665631169837
1.88500e-06	0.009110511416327844
1.88525e-06	0.009095357201485866
1.88550e-06	0.009080202986643873
1.88575e-06	0.009065048771801894
1.88600e-06	0.009049894556959917
1.88625e-06	0.009034740342117924
1.88650e-06	0.009019586127275945
1.88675e-06	0.009009307645188867
1.88700e-06	0.0090074809076989
1.88725e-06	0.009005654170208936
1.88750e-06	0.009003827432718969
1.88775e-06	0.009002000695229004
1.88800e-06	0.009000173957739038
1.88825e-06	0.008998347220249071
1.88850e-06	0.008996520482759104
1.88875e-06	0.00899469374526914
1.88900e-06	0.008992867007779175
1.88925e-06	0.008991040270289208
1.88950e-06	0.008989213532799243
1.88975e-06	0.008987386795309275
1.89000e-06	0.00898556005781931
1.89025e-06	0.008983733320329345
1.89050e-06	0.008981906582839379
1.89075e-06	0.008980079845349414
1.89100e-06	0.008978253107859447
1.89125e-06	0.00897822421323263
1.89150e-06	0.008981311754528052
1.89175e-06	0.008984399295823476
1.89200e-06	0.008987486837118898
1.89225e-06	0.008990574378414324
1.89250e-06	0.008993661919709746
1.89275e-06	0.008996749461005172
1.89300e-06	0.008999837002300594
1.89325e-06	0.009002924543596016
1.89350e-06	0.009006012084891442
1.89375e-06	0.009009099626186864
1.89400e-06	0.009012187167482288
1.89425e-06	0.00901527470877771
1.89450e-06	0.009018362250073134
1.89475e-06	0.009021449791368558
1.89500e-06	0.00902453733266398
1.89525e-06	0.009027624873959406
1.89550e-06	0.009030712415254829
1.89575e-06	0.009028809015037748
1.89600e-06	0.009018254163832479
1.89625e-06	0.009007699312627218
1.89650e-06	0.00899714446142195
1.89675e-06	0.00898658961021669
1.89700e-06	0.008976034759011419
1.89725e-06	0.008965479907806159
1.89750e-06	0.008954925056600898
1.89775e-06	0.00894437020539563
1.89800e-06	0.00893381535419037
1.89825e-06	0.0089232605029851
1.89850e-06	0.00891270565177984
1.89875e-06	0.00890215080057458
1.89900e-06	0.00889159594936931
1.89925e-06	0.008867883296503452
1.89950e-06	0.008842131882381024
1.89975e-06	0.008816380468258618
1.90000e-06	0.008790629054136212
1.90025e-06	0.008764877640013784
1.90050e-06	0.008739126225891378
1.90075e-06	0.008713374811768952
1.90100e-06	0.008687623397646546
1.90125e-06	0.008661871983524118
1.90150e-06	0.008636120569401712
1.90175e-06	0.008610369155279306
1.90200e-06	0.00858461774115688
1.90225e-06	0.008558866327034474
1.90250e-06	0.008533645192639699
1.90275e-06	0.008509343261377686
1.90300e-06	0.008485041330115671
1.90325e-06	0.008460739398853638
1.90350e-06	0.008436437467591625
1.90375e-06	0.00841213553632959
1.90400e-06	0.008387833605067577
1.90425e-06	0.008363531673805562
1.90450e-06	0.008339229742543528
1.90475e-06	0.008314927811281516
1.90500e-06	0.00829062588001948
1.90525e-06	0.008266323948757467
1.90550e-06	0.008259800665401919
1.90575e-06	0.008256032129342165
1.90600e-06	0.008252263593282412
1.90625e-06	0.008248495057222657
1.90650e-06	0.008244726521162904
1.90675e-06	0.008240957985103149
1.90700e-06	0.008237189449043395
1.90725e-06	0.008233420912983644
1.90750e-06	0.00822965237692389
1.90775e-06	0.008225883840864135
1.90800e-06	0.00822211530480438
1.90825e-06	0.008227499792820366
1.90850e-06	0.008248750413304683
1.90875e-06	0.008270001033789037
1.90900e-06	0.00829125165427339
1.90925e-06	0.008312502274757709
1.90950e-06	0.008333752895242063
1.90975e-06	0.008355003515726416
1.91000e-06	0.008376254136210733
1.91025e-06	0.008397504756695087
1.91050e-06	0.00841875537717944
1.91075e-06	0.008440005997663794
1.91100e-06	0.008461256618148111
1.91125e-06	0.008482507238632465
1.91150e-06	0.008510681088868512
1.91175e-06	0.00853992767244943
1.91200e-06	0.0085691742560304
1.91225e-06	0.008598420839611369
1.91250e-06	0.008627667423192337
1.91275e-06	0.008656914006773257
1.91300e-06	0.008686160590354226
1.91325e-06	0.008715407173935194
1.91350e-06	0.008744653757516114
1.91375e-06	0.008773900341097082
1.91400e-06	0.00880314692467805
1.91425e-06	0.00883239350825897
1.91450e-06	0.008855107370284788
1.91475e-06	0.008866497212541695
1.91500e-06	0.008877887054798602
1.91525e-06	0.008889276897055489
1.91550e-06	0.008900666739312396
1.91575e-06	0.008912056581569303
1.91600e-06	0.008923446423826191
1.91625e-06	0.008934836266083098
1.91650e-06	0.008946226108340005
1.91675e-06	0.00895761595059691
1.91700e-06	0.008969005792853799
1.91725e-06	0.008980395635110706
1.91750e-06	0.008982398392362468
1.91775e-06	0.008968129288755946
1.91800e-06	0.0089538601851494
1.91825e-06	0.008939591081542854
1.91850e-06	0.008925321977936333
1.91875e-06	0.008911052874329787
1.91900e-06	0.00889678377072324
1.91925e-06	0.008882514667116695
1.91950e-06	0.008868245563510173
1.91975e-06	0.008853976459903627
1.92000e-06	0.00883970735629708
1.92025e-06	0.00882543825269056
1.92050e-06	0.008806107468442636
1.92075e-06	0.00877800261183234
1.92100e-06	0.008749897755222042
1.92125e-06	0.008721792898611795
1.92150e-06	0.008693688042001498
1.92175e-06	0.008665583185391202
1.92200e-06	0.008637478328780953
1.92225e-06	0.008609373472170657
1.92250e-06	0.008581268615560361
1.92275e-06	0.008553163758950112
1.92300e-06	0.008525058902339816
1.92325e-06	0.00849695404572952
1.92350e-06	0.008468849189119223
1.92375e-06	0.008448835454092612
1.92400e-06	0.008430075413690199
1.92425e-06	0.008411315373287785
1.92450e-06	0.008392555332885404
1.92475e-06	0.00837379529248299
1.92500e-06	0.008355035252080577
1.92525e-06	0.008336275211678163
1.92550e-06	0.008317515171275781
1.92575e-06	0.008298755130873367
1.92600e-06	0.008279995090470954
1.92625e-06	0.008261235050068571
1.92650e-06	0.008242475009666158
1.92675e-06	0.008232806531961769
1.92700e-06	0.008238897647691909
1.92725e-06	0.00824498876342206
1.92750e-06	0.00825107987915221
1.92775e-06	0.008257170994882362
1.92800e-06	0.008263262110612502
1.92825e-06	0.008269353226342653
1.92850e-06	0.008275444342072804
1.92875e-06	0.008281535457802944
1.92900e-06	0.008287626573533095
1.92925e-06	0.008293717689263246
1.92950e-06	0.008299808804993397
1.92975e-06	0.008305899920723538
1.93000e-06	0.008311991036453689
1.93025e-06	0.00832355516486468
1.93050e-06	0.008344606381203011
1.93075e-06	0.00836565759754138
1.93100e-06	0.008386708813879746
1.93125e-06	0.008407760030218078
1.93150e-06	0.008428811246556445
1.93175e-06	0.008449862462894812
1.93200e-06	0.008470913679233178
1.93225e-06	0.00849196489557151
1.93250e-06	0.008513016111909877
1.93275e-06	0.008534067328248244
1.93300e-06	0.008555118544586576
1.93325e-06	0.008576169760924943
1.93350e-06	0.008597220977263311
1.93375e-06	0.008615194047879303
1.93400e-06	0.00862783136635567
1.93425e-06	0.00864046868483206
1.93450e-06	0.00865310600330845
1.93475e-06	0.008665743321784818
1.93500e-06	0.008678380640261206
1.93525e-06	0.008691017958737597
1.93550e-06	0.008703655277213965
1.93575e-06	0.008716292595690353
1.93600e-06	0.008728929914166744
1.93625e-06	0.008741567232643133
1.93650e-06	0.0087542045511195
1.93675e-06	0.008747524374032985
1.93700e-06	0.008737851009896453
1.93725e-06	0.008728177645759937
1.93750e-06	0.008718504281623405
1.93775e-06	0.008708830917486872
1.93800e-06	0.008699157553350358
1.93825e-06	0.008689484189213824
1.93850e-06	0.008679810825077293
1.93875e-06	0.008670137460940761
1.93900e-06	0.008660464096804245
1.93925e-06	0.008650790732667713
1.93950e-06	0.008634664934000166
1.93975e-06	0.008607354287550686
1.94000e-06	0.008580043641101159
1.94025e-06	0.008552732994651634
1.94050e-06	0.008525422348202107
1.94075e-06	0.008498111701752627
1.94100e-06	0.0084708010553031
1.94125e-06	0.008443490408853576
1.94150e-06	0.008416179762404096
1.94175e-06	0.008388869115954569
1.94200e-06	0.008361558469505042
1.94225e-06	0.008334247823055562
1.94250e-06	0.008307393196097869
1.94275e-06	0.008281329047304251
1.94300e-06	0.008255264898510632
1.94325e-06	0.00822920074971706
1.94350e-06	0.008203136600923441
1.94375e-06	0.008177072452129824
1.94400e-06	0.00815100830333625
1.94425e-06	0.008124944154542632
1.94450e-06	0.008098880005749013
1.94475e-06	0.008072815856955396
1.94500e-06	0.008046751708161822
1.94525e-06	0.008020687559368205
1.94550e-06	0.008002878678362763
1.94575e-06	0.00799937973156451
1.94600e-06	0.00799588078476625
1.94625e-06	0.00799238183796799
1.94650e-06	0.007988882891169736
1.94675e-06	0.007985383944371477
1.94700e-06	0.007981884997573217
1.94725e-06	0.007978386050774958
1.94750e-06	0.007974887103976702
1.94775e-06	0.007971388157178443
1.94800e-06	0.007967889210380183
1.94825e-06	0.007964390263581929
1.94850e-06	0.00796089131678367
1.94875e-06	0.00795739236998541
1.94900e-06	0.00795389342318715
1.94925e-06	0.00796843607571034
1.94950e-06	0.007985774219050815
1.94975e-06	0.00800311236239129
1.95000e-06	0.008020450505731736
1.95025e-06	0.008037788649072211
1.95050e-06	0.008055126792412689
1.95075e-06	0.008072464935753134
1.95100e-06	0.00808980307909361
1.95125e-06	0.008107141222434085
1.95150e-06	0.00812447936577456
1.95175e-06	0.008141817509115006
1.95200e-06	0.008159155652455482
