Time(s)	Current(A)
3.75000e-06	-0.002549501219773787
3.75025e-06	-0.0025497367409048786
3.75050e-06	-0.0025499722620359704
3.75075e-06	-0.0025502077831670617
3.75100e-06	-0.0025473717468631222
3.75125e-06	-0.0025444093391036268
3.75150e-06	-0.0025414469313441313
3.75175e-06	-0.002538484523584641
3.75200e-06	-0.0025355221158251456
3.75225e-06	-0.00253255970806565
3.75250e-06	-0.00252959730030616
3.75275e-06	-0.0025266348925466644
3.75300e-06	-0.002523672484787169
3.75325e-06	-0.0025161337491207466
3.75350e-06	-0.0025084067320267777
3.75375e-06	-0.0025006797149327957
3.75400e-06	-0.0024929526978388137
3.75425e-06	-0.002485225680744845
3.75450e-06	-0.0024774986636508624
3.75475e-06	-0.0024697716465568805
3.75500e-06	-0.002458948057420049
3.75525e-06	-0.0024479970676649122
3.75550e-06	-0.002437046077909776
3.75575e-06	-0.002426095088154639
3.75600e-06	-0.002415144098399521
3.75625e-06	-0.0024041931086443845
3.75650e-06	-0.0023932421188892477
3.75675e-06	-0.0023810622186359004
3.75700e-06	-0.0023688317579708446
3.75725e-06	-0.0023566012973057888
3.75750e-06	-0.0023443708366407538
3.75775e-06	-0.0023321403759756984
3.75800e-06	-0.0023199099153106426
3.75825e-06	-0.002307679454645587
3.75850e-06	-0.002296848022980429
3.75875e-06	-0.0022860741508220718
3.75900e-06	-0.002275300278663715
3.75925e-06	-0.002264526406505376
3.75950e-06	-0.002253752534347019
3.75975e-06	-0.002242978662188662
3.76000e-06	-0.002232204790030305
3.76025e-06	-0.002223949087009181
3.76050e-06	-0.002215796987682928
3.76075e-06	-0.002207644888356675
3.76100e-06	-0.0021996830022809207
3.76125e-06	-0.0021917289420478555
3.76150e-06	-0.0021837748818147908
3.76175e-06	-0.002175820821581739
3.76200e-06	-0.002167866761348674
3.76225e-06	-0.002159912701115609
3.76250e-06	-0.002151958640882544
3.76275e-06	-0.0021434015465016695
3.76300e-06	-0.0021348196418072315
3.76325e-06	-0.0021262377371127936
3.76350e-06	-0.0021176558324183703
3.76375e-06	-0.0021090739277239323
3.76400e-06	-0.0021004920230294944
3.76425e-06	-0.0020919101183350564
3.76450e-06	-0.0020823956595250577
3.76475e-06	-0.0020728428331365325
3.76500e-06	-0.002063290006748007
3.76525e-06	-0.0020537371803594977
3.76550e-06	-0.0020441843539709724
3.76575e-06	-0.002034631527582447
3.76600e-06	-0.002024873195483563
3.76625e-06	-0.002014874086481304
3.76650e-06	-0.0020048749774790454
3.76675e-06	-0.0019948758684767867
3.76700e-06	-0.001984876759474545
3.76725e-06	-0.001974877650472286
3.76750e-06	-0.0019648785414700274
3.76775e-06	-0.0019551808139711517
3.76800e-06	-0.001945495486051331
3.76825e-06	-0.0019358101581315099
3.76850e-06	-0.0019268136477454227
3.76875e-06	-0.0019178454770131781
3.76900e-06	-0.0019088773062809184
3.76925e-06	-0.0019007792424327549
3.76950e-06	-0.0018927169769298589
3.76975e-06	-0.001884654711426949
3.77000e-06	-0.0018789630445822444
3.77025e-06	-0.0018733689100186737
3.77050e-06	-0.0018677747754550936
3.77075e-06	-0.0018621806408915134
3.77100e-06	-0.0018565865063279333
3.77125e-06	-0.0018509923717643627
3.77150e-06	-0.0018453982372007825
3.77175e-06	-0.0018398041026372023
3.77200e-06	-0.0018373209682418887
3.77225e-06	-0.001834965828073669
3.77250e-06	-0.001832610687905449
3.77275e-06	-0.0018302555477372293
3.77300e-06	-0.0018279004075690134
3.77325e-06	-0.0018255452674007936
3.77350e-06	-0.0018231901272325738
3.77375e-06	-0.001820834987064358
3.77400e-06	-0.0018210242723511547
3.77425e-06	-0.0018213182415826481
3.77450e-06	-0.0018216122108141411
3.77475e-06	-0.0018219061800456345
3.77500e-06	-0.0018222001492771282
3.77525e-06	-0.0018224941185086216
3.77550e-06	-0.0018227880877401145
3.77575e-06	-0.001823082056971608
3.77600e-06	-0.001824086506044858
3.77625e-06	-0.001825923375472242
3.77650e-06	-0.001827760244899629
3.77675e-06	-0.001829597114327016
3.77700e-06	-0.001831433983754403
3.77725e-06	-0.0018332708531817868
3.77750e-06	-0.001835107722609174
3.77775e-06	-0.001836944592036561
3.77800e-06	-0.0018387814614639448
3.77825e-06	-0.0018408922863562725
3.77850e-06	-0.0018430143824527479
3.77875e-06	-0.0018451364785492198
3.77900e-06	-0.0018472585746456955
3.77925e-06	-0.0018492012410968274
3.77950e-06	-0.001850933682176113
3.77975e-06	-0.001852666123255396
3.78000e-06	-0.0018543985643346816
3.78025e-06	-0.0018561310054139675
3.78050e-06	-0.0018578429616970256
3.78075e-06	-0.0018595540751849987
3.78100e-06	-0.001861265188672972
3.78125e-06	-0.001862976302160945
3.78150e-06	-0.001864687415648915
3.78175e-06	-0.0018663985291368882
3.78200e-06	-0.0018681096426248613
3.78225e-06	-0.0018698207561128315
3.78250e-06	-0.0018720452700261502
3.78275e-06	-0.0018748712998992196
3.78300e-06	-0.0018776973297722841
3.78325e-06	-0.0018805233596453535
3.78350e-06	-0.0018833493895184228
3.78375e-06	-0.001886175419391492
3.78400e-06	-0.0018890014492645565
3.78425e-06	-0.0018918274791376258
3.78450e-06	-0.0018946535090106952
3.78475e-06	-0.0018985551156552123
3.78500e-06	-0.0019025009741834291
3.78525e-06	-0.0019064468327116457
3.78550e-06	-0.0019103926912398623
3.78575e-06	-0.0019143385497680724
3.78600e-06	-0.001918284408296289
3.78625e-06	-0.0019222302668245059
3.78650e-06	-0.0019261761253527158
3.78675e-06	-0.0019301219838809324
3.78700e-06	-0.0019342162208844322
3.78725e-06	-0.0019383165625447064
3.78750e-06	-0.0019424169042049873
3.78775e-06	-0.0019465172458652683
3.78800e-06	-0.0019506175875255495
3.78825e-06	-0.0019547179291858232
3.78850e-06	-0.0019588182708461044
3.78875e-06	-0.0019629186125063856
3.78900e-06	-0.0019670189541666594
3.78925e-06	-0.001970477440583827
3.78950e-06	-0.001973909519491714
3.78975e-06	-0.001977341598399601
3.79000e-06	-0.0019802426307071763
3.79025e-06	-0.0019831218144466
3.79050e-06	-0.001986032306379753
3.79075e-06	-0.0019889440864092837
3.79100e-06	-0.0019936588829526985
3.79125e-06	-0.001998447860046693
3.79150e-06	-0.002005311564050136
3.79175e-06	-0.0020122606274406295
3.79200e-06	-0.00202134975495916
3.79225e-06	-0.002030526929999206
3.79250e-06	-0.0020397041050392367
3.79275e-06	-0.0020536990757376618
3.79300e-06	-0.0020678922624434264
3.79325e-06	-0.0020820854491491675
3.79350e-06	-0.002096278635854932
3.79375e-06	-0.002110471822560697
3.79400e-06	-0.0021274486520333107
3.79425e-06	-0.002147686884239488
3.79450e-06	-0.0021679251164456992
3.79475e-06	-0.0021881633486519106
3.79500e-06	-0.002208401580858088
3.79525e-06	-0.0022286398130642996
3.79550e-06	-0.0022525660285118276
3.79575e-06	-0.002276643976694608
3.79600e-06	-0.0023007219248774293
3.79625e-06	-0.002326165357566748
3.79650e-06	-0.00235166496965972
3.79675e-06	-0.0023771645817526484
3.79700e-06	-0.0024034836485448178
3.79725e-06	-0.0024298364297263516
3.79750e-06	-0.0024561892109078412
3.79775e-06	-0.0024824340160926697
3.79800e-06	-0.0025086743788784263
3.79825e-06	-0.0025341135873496548
3.79850e-06	-0.002559519834354478
3.79875e-06	-0.002583722281310469
3.79900e-06	-0.0026078752009605468
3.79925e-06	-0.0026304016599463706
3.79950e-06	-0.002652861202325154
3.79975e-06	-0.002672344155456827
3.80000e-06	-0.00269170464435833
3.80025e-06	-0.0027110651332598657
3.80050e-06	-0.00272571045909921
3.80075e-06	-0.0027401617914895185
3.80100e-06	-0.0027546131238798026
3.80125e-06	-0.0027638441131391197
3.80150e-06	-0.002772860324594187
3.80175e-06	-0.0027818765360492384
3.80200e-06	-0.0027825875782279104
3.80225e-06	-0.00278295692523896
3.80250e-06	-0.00278332627225001
3.80275e-06	-0.002783695619261059
3.80300e-06	-0.002784064966272109
3.80325e-06	-0.0027844343132831587
3.80350e-06	-0.0027744831751331605
3.80375e-06	-0.002764107426744685
3.80400e-06	-0.0027537316783562103
3.80425e-06	-0.002743355929967753
3.80450e-06	-0.0027329801815792775
3.80475e-06	-0.0027226044331908027
3.80500e-06	-0.002704486137998228
3.80525e-06	-0.0026860492953155756
3.80550e-06	-0.0026676124526328914
3.80575e-06	-0.0026491756099502077
3.80600e-06	-0.002630738767267555
3.80625e-06	-0.00261023975832649
3.80650e-06	-0.0025873246510437612
3.80675e-06	-0.0025644095437610324
3.80700e-06	-0.0025414944364783427
3.80725e-06	-0.002518579329195614
3.80750e-06	-0.002495664221912885
3.80775e-06	-0.0024717626015778116
3.80800e-06	-0.0024478203936602405
3.80825e-06	-0.002424178744402463
3.80850e-06	-0.002400549460870003
3.80875e-06	-0.0023777745555813566
3.80900e-06	-0.002355034801522936
3.80925e-06	-0.00233331021564616
3.80950e-06	-0.0023125042493489932
3.80975e-06	-0.0022927601495557216
3.81000e-06	-0.0022742336523649204
3.81025e-06	-0.002257816040399885
3.81050e-06	-0.0022414832035782097
3.81075e-06	-0.0022283120470631863
3.81100e-06	-0.0022152709698814894
3.81125e-06	-0.0022056192283008563
3.81150e-06	-0.0021961069323543775
3.81175e-06	-0.002190086394528418
3.81200e-06	-0.002184209516251956
3.81225e-06	-0.0021828333399105653
3.81250e-06	-0.0021816423335580606
3.81275e-06	-0.0021804513272055577
3.81300e-06	-0.00218669167979773
3.81325e-06	-0.002193237776843332
3.81350e-06	-0.002199783873888934
3.81375e-06	-0.002206329970934525
3.81400e-06	-0.002212876067980127
3.81425e-06	-0.0022233556554950326
3.81450e-06	-0.002238443843194987
3.81475e-06	-0.0022535320308949666
3.81500e-06	-0.002268620218594921
3.81525e-06	-0.0022837084062949263
3.81550e-06	-0.0022987965939948803
3.81575e-06	-0.002318618445053283
3.81600e-06	-0.0023386350507087032
3.81625e-06	-0.0023586516563640554
3.81650e-06	-0.002380818389495451
3.81675e-06	-0.0024030735841793207
3.81700e-06	-0.00242532877886319
3.81725e-06	-0.0024485853139432274
3.81750e-06	-0.0024718830466391646
3.81775e-06	-0.0024953647149732585
3.81800e-06	-0.0025188539508736803
3.81825e-06	-0.0025419944358588786
3.81850e-06	-0.002565120572370443
3.81875e-06	-0.0025873523008762347
3.81900e-06	-0.0026095472312285053
3.81925e-06	-0.0026302583768279763
3.81950e-06	-0.0026509084758596737
3.81975e-06	-0.0026688163125655633
3.82000e-06	-0.002686611325829385
3.82025e-06	-0.002704406339093267
3.82050e-06	-0.002717767963038394
3.82075e-06	-0.002730947186402037
3.82100e-06	-0.0027441264097656354
3.82125e-06	-0.0027521942723296466
3.82150e-06	-0.0027600518408917043
3.82175e-06	-0.002767909409453735
3.82200e-06	-0.0027676631502421734
3.82225e-06	-0.0027670834795496878
3.82250e-06	-0.0027665038088572043
3.82275e-06	-0.002765924138164721
3.82300e-06	-0.0027653444674722353
3.82325e-06	-0.002764764796779752
3.82350e-06	-0.0027540160756772372
3.82375e-06	-0.002742848974736058
3.82400e-06	-0.0027316818737949163
3.82425e-06	-0.0027205147728537747
3.82450e-06	-0.002709347671912596
3.82475e-06	-0.0026981805709714543
3.82500e-06	-0.00267936141542607
3.82525e-06	-0.0026602274354634455
3.82550e-06	-0.0026410934555008204
3.82575e-06	-0.0026219594755381307
3.82600e-06	-0.002602825495575506
3.82625e-06	-0.002581668258519431
3.82650e-06	-0.002558140510313899
3.82675e-06	-0.002534612762108447
3.82700e-06	-0.0025110850139029943
3.82725e-06	-0.0024875572656974628
3.82750e-06	-0.00246402951749201
3.82775e-06	-0.0024395640685543458
3.82800e-06	-0.002415060040293555
3.82825e-06	-0.0023908998430889937
3.82850e-06	-0.0023667537919429037
3.82875e-06	-0.0023435008070228957
3.82900e-06	-0.0023202845650522374
3.82925e-06	-0.0022981068605935373
3.82950e-06	-0.0022768677457326147
3.82975e-06	-0.0022567134187997185
3.83000e-06	-0.00223780309915229
3.83025e-06	-0.002220295372060856
3.83050e-06	-0.0022043796561274963
3.83075e-06	-0.002191243134729779
3.83100e-06	-0.0021782183556931377
3.83125e-06	-0.002169117387850796
3.83150e-06	-0.002160177855287676
3.83175e-06	-0.002155230676500174
3.83200e-06	-0.0021504477530029146
3.83225e-06	-0.0021507568463143873
3.83250e-06	-0.002151275437768019
3.83275e-06	-0.002151794029221651
3.83300e-06	-0.0021609844075456096
3.83325e-06	-0.002170531564589367
3.83350e-06	-0.0021800787216331567
3.83375e-06	-0.0021896258786769144
3.83400e-06	-0.002199173035720672
3.83425e-06	-0.0022133025461958606
3.83450e-06	-0.0022328008849493933
3.83475e-06	-0.0022522992237029265
3.83500e-06	-0.0022717975624565252
3.83525e-06	-0.002291295901210058
3.83550e-06	-0.0023107942399635912
3.83575e-06	-0.0023353353833825423
3.83600e-06	-0.0023600840002344086
3.83625e-06	-0.0023867116677850618
3.83650e-06	-0.0024134166441203203
3.83675e-06	-0.002441552325117785
3.83700e-06	-0.0024697468688369977
3.83725e-06	-0.0024927437828362172
3.83750e-06	-0.007080802374265634
3.83775e-06	-0.02112877782593437
3.83800e-06	-0.01879687697732625
3.83825e-06	-0.015998677831919526
3.83850e-06	-0.010808687977006895
3.83875e-06	0.0002333816414125388
3.83900e-06	6.079402951578262e-05
3.83925e-06	-0.0004458419822903621
3.83950e-06	-0.0031073124826997496
3.83975e-06	-0.01372442516364366
3.84000e-06	-0.012058445720802714
3.84025e-06	-0.008749295959030887
3.84050e-06	-0.004940489450332125
3.84075e-06	-0.0008678834526927122
3.84100e-06	0.0008692377473204548
3.84125e-06	-0.0002725377406925906
3.84150e-06	-0.0032389740628381855
3.84175e-06	-0.006454695655931832
3.84200e-06	-0.007577777265755728
3.84225e-06	-0.0061562497210016194
3.84250e-06	-0.0035563398746444206
3.84275e-06	-0.0010376906355507127
3.84300e-06	2.5020438110361094e-05
3.84325e-06	-0.0007096094597337125
3.84350e-06	-0.0025820455138324686
3.84375e-06	-0.004606232075125847
3.84400e-06	-0.005315931197889999
3.84425e-06	-0.004428744712676123
3.84450e-06	-0.002801076361667215
3.84475e-06	-0.001222418406143694
3.84500e-06	-0.0005541850884283513
3.84525e-06	-0.0010104501143236176
3.84550e-06	-0.0021782696818810707
3.84575e-06	-0.0034401806467523354
3.84600e-06	-0.0038779771862689815
3.84625e-06	-0.0033150355765681353
3.84650e-06	-0.0022880405911756205
3.84675e-06	-0.0012917011074409096
3.84700e-06	-0.0008657173358675062
3.84725e-06	-0.001144254888833979
3.84750e-06	-0.0018687130787195358
3.84775e-06	-0.0026524026842567397
3.84800e-06	-0.0029202874025939314
3.84825e-06	-0.002561883731621972
3.84850e-06	-0.0019135088259045947
3.84875e-06	-0.0012851530938170297
3.84900e-06	-0.0010149573525631418
3.84925e-06	-0.0011870142300752064
3.84950e-06	-0.0016393896512954455
3.84975e-06	-0.00212993212830708
3.85000e-06	-0.002298535859273714
3.85025e-06	-0.0020760894236733426
3.85050e-06	-0.0016731647973560772
3.85075e-06	-0.001283498683194438
3.85100e-06	-0.0011184017466084404
3.85125e-06	-0.001230314597734712
3.85150e-06	-0.0015177553821887919
3.85175e-06	-0.001829032683308111
3.85200e-06	-0.0019385854960535206
3.85225e-06	-0.0018031435667957628
3.85250e-06	-0.0015546255920520478
3.85275e-06	-0.0013143929183797299
3.85300e-06	-0.0012148034727796778
3.85325e-06	-0.0012886915743869393
3.85350e-06	-0.0014724758241214716
3.85375e-06	-0.0016711310142612098
3.85400e-06	-0.0017433708030243898
3.85425e-06	-0.0016621029857353626
3.85450e-06	-0.0015099710821245497
3.85475e-06	-0.0013629981175407302
3.85500e-06	-0.001304088112247857
3.85525e-06	-0.0013537988744725218
3.85550e-06	-0.001472294332891256
3.85575e-06	-0.0016000464867308372
3.85600e-06	-0.0016485562863469594
3.85625e-06	-0.001600860624955621
3.85650e-06	-0.001508732911970993
3.85675e-06	-0.001419795008169735
3.85700e-06	-0.0013859744271242384
3.85725e-06	-0.0014201421105353076
3.85750e-06	-0.0014973389583949905
3.85775e-06	-0.0015802736300837283
3.85800e-06	-0.0016135116820377925
3.85825e-06	-0.001586431622974633
3.85850e-06	-0.0015314674493614967
3.85875e-06	-0.0014784497306798536
3.85900e-06	-0.0014599032174374374
3.85925e-06	-0.0014838858726237498
3.85950e-06	-0.0015347593401283713
3.85975e-06	-0.0015891620866175624
3.86000e-06	-0.001612370375560814
3.86025e-06	-0.001597729111874382
3.86050e-06	-0.001565514808348507
3.86075e-06	-0.0015343101161525378
3.86100e-06	-0.001524387829704358
3.86125e-06	-0.0015407624737360948
3.86150e-06	-0.0015736481165933584
3.86175e-06	-0.0016084282124594386
3.86200e-06	-0.0016233706415987642
3.86225e-06	-0.001614326631786338
3.86250e-06	-0.0015940169818022662
3.86275e-06	-0.00157410017821459
3.86300e-06	-0.001567292395012625
3.86325e-06	-0.0015767512577426843
3.86350e-06	-0.001596363538482946
3.86375e-06	-0.001616990970593569
3.86400e-06	-0.0016250390132154984
3.86425e-06	-0.001617928006374176
3.86450e-06	-0.0016036450947065797
3.86475e-06	-0.001589511281517207
3.86500e-06	-0.0015835095523427842
3.86525e-06	-0.0015876349689954669
3.86550e-06	-0.001598075285542875
3.86575e-06	-0.0016091237993788943
3.86600e-06	-0.0016122830641108134
3.86625e-06	-0.0016059558807258482
3.86650e-06	-0.0015957670603560542
3.86675e-06	-0.0015850766995603477
3.86700e-06	-0.0015790152137596988
3.86725e-06	-0.001579943686342071
3.86750e-06	-0.0015844379145095052
3.86775e-06	-0.0015899467457460167
3.86800e-06	-0.0015900051278120262
3.86825e-06	-0.001584951364068519
3.86850e-06	-0.0015786362092867741
3.86875e-06	-0.0015711379566155622
3.86900e-06	-0.0015675896155996694
3.86925e-06	-0.001567746019584544
3.86950e-06	-0.001569903270412306
3.86975e-06	-0.0015734636905318947
3.87000e-06	-0.0015742883270395225
3.87025e-06	-0.0015718035911810855
3.87050e-06	-0.0015682507451166754
3.87075e-06	-0.0015660606024899871
3.87100e-06	-0.001567794012450266
3.87125e-06	-0.0015741335968118423
3.87150e-06	-0.001584376436119509
3.87175e-06	-0.001596425305513275
3.87200e-06	-0.0016081735147419863
3.87225e-06	-0.0016196397254500084
3.87250e-06	-0.0016325942490292723
3.87275e-06	-0.0016469447075432176
3.87300e-06	-0.001665234114579744
3.87325e-06	-0.0016872179839536167
3.87350e-06	-0.0017120290801026872
3.87375e-06	-0.0017394919201829484
3.87400e-06	-0.0017674985316548106
3.87425e-06	-0.0017960151632282493
3.87450e-06	-0.0018266744214847606
3.87475e-06	-0.0018593433159521259
3.87500e-06	-0.0018920122104193803
3.87525e-06	-0.0019273388286118207
3.87550e-06	-0.001966353129966003
3.87575e-06	-0.0020064881852807524
3.87600e-06	-0.002046751103764618
3.87625e-06	-0.002087194741916606
3.87650e-06	-0.0021279307614929877
3.87675e-06	-0.0021696601198481938
3.87700e-06	-0.002212114110166075
3.87725e-06	-0.0022552976744510396
3.87750e-06	-0.0022993360130781487
3.87775e-06	-0.0023433310907906542
3.87800e-06	-0.0023865232416859917
3.87825e-06	-0.0024285737087615623
3.87850e-06	-0.0024695771322877005
3.87875e-06	-0.0025096570127629324
3.87900e-06	-0.002548956631348357
3.87925e-06	-0.0025873304954162936
3.87950e-06	-0.0026243745360844777
3.87975e-06	-0.002659607797332744
3.88000e-06	-0.002692443994200805
3.88025e-06	-0.0027225550210728316
3.88050e-06	-0.0027490767432009552
3.88075e-06	-0.0027734834482526158
3.88100e-06	-0.0027940219194916324
3.88125e-06	-0.002810932253919784
3.88150e-06	-0.0028278425883479356
3.88175e-06	-0.0028395269024514597
3.88200e-06	-0.0028463095695419553
3.88225e-06	-0.002853092236632451
3.88250e-06	-0.00285449810277598
3.88275e-06	-0.002850860900071034
3.88300e-06	-0.0028472236973660875
3.88325e-06	-0.002837394183469348
3.88350e-06	-0.0028217567082999863
3.88375e-06	-0.002806119233130625
3.88400e-06	-0.0027904817579612108
3.88425e-06	-0.002774640230583137
3.88450e-06	-0.002746260813869014
3.88475e-06	-0.0027178813971547953
3.88500e-06	-0.0026895019804406726
3.88525e-06	-0.002661122563726454
3.88550e-06	-0.002628571509748103
3.88575e-06	-0.0025921077474250413
3.88600e-06	-0.0025556439851018562
3.88625e-06	-0.0025171055374834483
3.88650e-06	-0.002476621177995557
3.88675e-06	-0.0024352576052853623
3.88700e-06	-0.002392673276635941
3.88725e-06	-0.0023494416895643694
3.88750e-06	-0.002305800705844482
3.88775e-06	-0.0022619786527949296
3.88800e-06	-0.0022181877750189695
3.88825e-06	-0.0021746797980696127
3.88850e-06	-0.002131742141019657
3.88875e-06	-0.0020896600736078352
3.88900e-06	-0.0020487338993062706
3.88925e-06	-0.0020092592417755256
3.88950e-06	-0.00197151838124185
3.88975e-06	-0.0019357875319070171
3.89000e-06	-0.0019023328196109486
3.89025e-06	-0.0018714297969341718
3.89050e-06	-0.0018432197829684122
3.89075e-06	-0.0018175489346643333
3.89100e-06	-0.0017941878823492146
3.89125e-06	-0.001773088645506456
3.89150e-06	-0.0017543325967879022
3.89175e-06	-0.0017386840286507449
3.89200e-06	-0.0017248634926817557
3.89225e-06	-0.0017137676706869569
3.89250e-06	-0.001705227442677704
3.89275e-06	-0.0016996895912587448
3.89300e-06	-0.0016969677622293237
3.89325e-06	-0.0016942459331998935
3.89350e-06	-0.0016958871146837866
3.89375e-06	-0.0017016204994345894
3.89400e-06	-0.001707353884185373
