Time(s)	Current(A)
1.07500e-05	-0.005125936178068839
1.07503e-05	-0.005177505371670448
1.07505e-05	-0.005229074565272056
1.07508e-05	-0.005280643758873315
1.07510e-05	-0.00533937037043664
1.07513e-05	-0.0053992131233502735
1.07515e-05	-0.005459055876263502
1.07518e-05	-0.005521772499936497
1.07520e-05	-0.005584937280473785
1.07523e-05	-0.005648102061010644
1.07525e-05	-0.00571227636217071
1.07528e-05	-0.005776608089893991
1.07530e-05	-0.005840939817616835
1.07533e-05	-0.0059033396521238615
1.07535e-05	-0.005965438223533643
1.07538e-05	-0.006027536794943004
1.07540e-05	-0.0060862840613590905
1.07543e-05	-0.006144508718909545
1.07545e-05	-0.006198682403042836
1.07548e-05	-0.006252224370688123
1.07550e-05	-0.006298585488428815
1.07553e-05	-0.006343826810796892
1.07555e-05	-0.006389068133165275
1.07558e-05	-0.006423845649398044
1.07560e-05	-0.006456991419828384
1.07563e-05	-0.006490137190258949
1.07565e-05	-0.006512400468028083
1.07567e-05	-0.0065329667092227485
1.07570e-05	-0.006553532950417553
1.07573e-05	-0.0065577758249434825
1.07575e-05	-0.006559473202668556
1.07578e-05	-0.006561170580393641
1.07580e-05	-0.006562867958118727
1.07582e-05	-0.0065645653358438
1.07585e-05	-0.006558118795075436
1.07588e-05	-0.006537509896484473
1.07590e-05	-0.006516900997893511
1.07593e-05	-0.006496292099302688
1.07595e-05	-0.006475683200711726
1.07598e-05	-0.006455074302120764
1.07600e-05	-0.006419703872615609
1.07603e-05	-0.0063820315019433825
1.07605e-05	-0.006344359131271157
1.07608e-05	-0.006306686760599186
1.07610e-05	-0.00626901438992696
1.07613e-05	-0.006222340930350454
1.07615e-05	-0.006174263823874949
1.07618e-05	-0.00612618671739912
1.07620e-05	-0.006078109610923289
1.07623e-05	-0.006030032504447785
1.07625e-05	-0.005978936826571289
1.07628e-05	-0.005927370426937403
1.07630e-05	-0.005875617511721941
1.07633e-05	-0.0058238355109120335
1.07635e-05	-0.0057725445738048674
1.07638e-05	-0.005722027532619251
1.07640e-05	-0.00567263117027817
1.07643e-05	-0.005624711111418767
1.07645e-05	-0.005578609639038103
1.07648e-05	-0.005534663123122269
1.07650e-05	-0.005493209319666883
1.07652e-05	-0.005454585090242503
1.07655e-05	-0.005419103743156392
1.07658e-05	-0.005388388004804798
1.07660e-05	-0.0053583484279914224
1.07663e-05	-0.0053341303126775135
1.07665e-05	-0.005310820007126819
1.07667e-05	-0.005293572666512972
1.07670e-05	-0.005277270796166903
1.07673e-05	-0.005268909601801252
1.07675e-05	-0.005261786691530132
1.07678e-05	-0.005254663781259059
1.07680e-05	-0.005260371211826773
1.07683e-05	-0.005268079430114121
1.07685e-05	-0.0052757876484014156
1.07688e-05	-0.005283495866688763
1.07690e-05	-0.00529120408497611
1.07693e-05	-0.005304936527275896
1.07695e-05	-0.005329145156949103
1.07698e-05	-0.005353353786622311
1.07700e-05	-0.005377562416295354
1.07703e-05	-0.005401771045968562
1.07705e-05	-0.005425979675641769
1.07708e-05	-0.005460759010916062
1.07710e-05	-0.005497186762099572
1.07713e-05	-0.005533614513283082
1.07715e-05	-0.0055700422644663445
1.07718e-05	-0.005606470015649854
1.07720e-05	-0.005642897766833364
1.07723e-05	-0.005680942817545802
1.07725e-05	-0.005721800368735372
1.07728e-05	-0.005762657919924941
1.07730e-05	-0.005803515471114234
1.07733e-05	-0.005844373022303803
1.07735e-05	-0.0058852305734933726
1.07737e-05	-0.005926088124682665
1.07740e-05	-0.005964194434176229
1.07743e-05	-0.006001871709814014
1.07745e-05	-0.006039548985451545
1.07748e-05	-0.006073449891247653
1.07750e-05	-0.0061067619027577865
1.07752e-05	-0.006135897052904775
1.07755e-05	-0.006164380855357458
1.07758e-05	-0.006185683539345663
1.07760e-05	-0.006205866386080447
1.07763e-05	-0.006226049232815368
1.07765e-05	-0.006236179977357307
1.07768e-05	-0.006244743177990057
1.07770e-05	-0.00625330637862275
1.07773e-05	-0.00625163230428533
1.07775e-05	-0.006248361809844123
1.07778e-05	-0.006245091315402939
1.07780e-05	-0.006227748334445035
1.07783e-05	-0.00620821086321021
1.07785e-05	-0.006188673391975518
1.07788e-05	-0.006169135920740693
1.07790e-05	-0.0061495984495058675
1.07793e-05	-0.00611466131723673
1.07795e-05	-0.006077322732575247
1.07798e-05	-0.006039984147913763
1.07800e-05	-0.006002645563252532
1.07803e-05	-0.0059653069785910486
1.07805e-05	-0.005918089110709945
1.07808e-05	-0.005869330648638857
1.07810e-05	-0.005820572186567438
1.07813e-05	-0.005767450750392722
1.07815e-05	-0.005713648943749481
1.07818e-05	-0.005657357375650245
1.07820e-05	-0.005600677549420435
1.07822e-05	-0.005542671569204781
1.07825e-05	-0.005483948385925856
1.07828e-05	-0.0054249280755152285
1.07830e-05	-0.005365949576570599
1.07833e-05	-0.0053073506819840376
1.07835e-05	-0.005249464967774946
1.07837e-05	-0.005192605239692654
1.07840e-05	-0.005137079148285296
1.07843e-05	-0.005083231897097268
1.07845e-05	-0.005031437959542464
1.07848e-05	-0.004982077063951183
1.07850e-05	-0.004935530398458518
1.07853e-05	-0.0048921773254516285
1.07855e-05	-0.004852373931257162
1.07858e-05	-0.004816332129810127
1.07860e-05	-0.004784086816965645
1.07863e-05	-0.004755654745554959
1.07865e-05	-0.004731110411348152
1.07868e-05	-0.004710542001813023
1.07870e-05	-0.0046958419793357254
1.07873e-05	-0.004681973189215792
1.07875e-05	-0.0046753934119226894
1.07878e-05	-0.0046699502971353675
1.07880e-05	-0.004673215405531248
1.07883e-05	-0.00467783849079165
1.07885e-05	-0.00468246157605202
1.07888e-05	-0.004697043975695455
1.07890e-05	-0.004713179449741562
1.07893e-05	-0.00472931492378756
1.07895e-05	-0.004751494899203996
1.07898e-05	-0.004774617465645691
1.07900e-05	-0.0047977400320872296
1.07903e-05	-0.0048071337608818435
1.07905e-05	-0.0054473659916939605
1.07907e-05	-0.009574112302381548
1.07910e-05	-0.013821999540928687
1.07913e-05	-0.014692532495608493
1.07915e-05	-0.013149013231285716
1.07918e-05	-0.009955882738381352
1.07920e-05	-0.006726512434667162
1.07922e-05	-0.005448573864704432
1.07925e-05	-0.006101267552648642
1.07928e-05	-0.008463731021100384
1.07930e-05	-0.010894628954010728
1.07933e-05	-0.011590174851318734
1.07935e-05	-0.010674261179779656
1.07938e-05	-0.008648463754850125
1.07940e-05	-0.006649376738379743
1.07943e-05	-0.005786887808274966
1.07945e-05	-0.006176279292578347
1.07948e-05	-0.007661750086500102
1.07950e-05	-0.009421266511105083
1.07953e-05	-0.010041049707632105
1.07955e-05	-0.009344067231240179
1.07958e-05	-0.007936638274548113
1.07960e-05	-0.006503747872280442
1.07963e-05	-0.005517794357970263
1.07965e-05	-0.005461476032347606
1.07968e-05	-0.006322838245720637
1.07970e-05	-0.007352829538320117
1.07973e-05	-0.008068550778048307
1.07975e-05	-0.007961120461216994
1.07978e-05	-0.007105952753786589
1.07980e-05	-0.0062078147376611196
1.07983e-05	-0.005589846896859015
1.07985e-05	-0.005554479339216275
1.07988e-05	-0.006094145892448756
1.07990e-05	-0.006739586639438245
1.07992e-05	-0.007188297170470475
1.07995e-05	-0.007121526992171784
1.07998e-05	-0.006586541496430816
1.08000e-05	-0.006024812073558114
1.08003e-05	-0.005638729515107221
1.08005e-05	-0.005617695832386996
1.08007e-05	-0.005956924514826138
1.08010e-05	-0.006362439574453157
1.08013e-05	-0.0066447417669169085
1.08015e-05	-0.006604175256942304
1.08018e-05	-0.006270364097467502
1.08020e-05	-0.0059198482739530826
1.08023e-05	-0.00567939101568908
1.08025e-05	-0.005667609167903678
1.08028e-05	-0.0058814734214581044
1.08030e-05	-0.006136816616905561
1.08033e-05	-0.0063149301959983094
1.08035e-05	-0.006290754665738775
1.08038e-05	-0.0060828556706877465
1.08040e-05	-0.005864458950232129
1.08043e-05	-0.005714959459447611
1.08045e-05	-0.005708640165070324
1.08048e-05	-0.005843584513263616
1.08050e-05	-0.0060044158190506874
1.08053e-05	-0.006116768742210871
1.08055e-05	-0.006102173732612792
1.08058e-05	-0.005971457584694354
1.08060e-05	-0.005831851145591832
1.08063e-05	-0.0057324496603402145
1.08065e-05	-0.005719825397551435
1.08068e-05	-0.005792931188953923
1.08070e-05	-0.005879657230317712
1.08073e-05	-0.0059335883271347785
1.08075e-05	-0.005905743366514334
1.08077e-05	-0.005803077458290107
1.08080e-05	-0.00569293046457287
1.08083e-05	-0.005606221678208814
1.08085e-05	-0.0055722875877571194
1.08088e-05	-0.0055906337052183995
1.08090e-05	-0.005616254746244076
1.08092e-05	-0.005620243907978315
1.08095e-05	-0.005572089515178603
1.08098e-05	-0.005476319954741652
1.08100e-05	-0.005375286167412862
1.08103e-05	-0.005288522998197589
1.08105e-05	-0.005234570759827987
1.08108e-05	-0.005213284592180629
1.08110e-05	-0.00519663789550981
1.08113e-05	-0.0051666915572341
1.08115e-05	-0.005104501779346779
1.08118e-05	-0.005013075337817058
1.08120e-05	-0.00491910966721374
1.08123e-05	-0.004835007621309417
1.08125e-05	-0.004772549092590983
1.08128e-05	-0.004731808051758946
1.08130e-05	-0.00469539494195314
1.08133e-05	-0.004652239826097507
1.08135e-05	-0.004590645572904352
1.08138e-05	-0.0045126637710157826
1.08140e-05	-0.004435185243399518
1.08143e-05	-0.004366146555644513
1.08145e-05	-0.004313092591673482
1.08148e-05	-0.0042762354242326436
1.08150e-05	-0.004244848867545392
1.08153e-05	-0.004212165568451305
1.08155e-05	-0.004170958201350538
1.08158e-05	-0.004122239268896672
1.08160e-05	-0.004075965856547182
1.08162e-05	-0.004036679561583878
1.08165e-05	-0.0040089628083828386
1.08168e-05	-0.003992856568072363
1.08170e-05	-0.003981551420047851
1.08173e-05	-0.0039707200413083635
1.08175e-05	-0.003954130379549215
1.08177e-05	-0.003937031762740678
1.08180e-05	-0.003921154418704861
1.08183e-05	-0.003910440200940924
1.08185e-05	-0.003911488361188424
1.08188e-05	-0.003913534709715505
1.08190e-05	-0.003922276020810643
1.08193e-05	-0.00393112689522388
1.08195e-05	-0.003939935344134563
1.08198e-05	-0.003945992719934798
1.08200e-05	-0.0039538571509236085
1.08203e-05	-0.003967709417482348
1.08205e-05	-0.0039820739040425735
1.08208e-05	-0.004003516766066585
1.08210e-05	-0.004027420177131847
1.08213e-05	-0.004050227193618188
1.08215e-05	-0.00407292321432071
1.08218e-05	-0.0040956192350230765
1.08220e-05	-0.004119727949668958
1.08223e-05	-0.004143961273501311
1.08225e-05	-0.0041681945973335
1.08228e-05	-0.00419714669550288
1.08230e-05	-0.004226515021570804
1.08233e-05	-0.004253621382719963
1.08235e-05	-0.004280528223223179
1.08238e-05	-0.004307435063726395
1.08240e-05	-0.004332003556273049
1.08243e-05	-0.004356365790671772
1.08245e-05	-0.0043807897163195345
1.08247e-05	-0.004405219083553679
1.08250e-05	-0.004429648450787988
1.08253e-05	-0.004449214408017108
1.08255e-05	-0.004468351379500606
1.08258e-05	-0.004487488350984233
1.08260e-05	-0.004506157990454911
1.08262e-05	-0.00452478640807253
1.08265e-05	-0.004543414825690275
1.08268e-05	-0.0045620432433080196
1.08270e-05	-0.004580922627627873
1.08273e-05	-0.004600150092621667
1.08275e-05	-0.0046193775576154625
1.08278e-05	-0.004638605022609257
1.08280e-05	-0.004657832487602921
1.08283e-05	-0.004679489660657074
1.08285e-05	-0.004701361150440202
1.08288e-05	-0.004723232640223183
1.08290e-05	-0.00474510413000631
1.08293e-05	-0.004767645153344316
1.08295e-05	-0.004791114792665325
1.08298e-05	-0.004814584431986493
1.08300e-05	-0.004838054071307661
1.08303e-05	-0.00486152371062867
1.08305e-05	-0.004887224112646922
1.08308e-05	-0.004913121283063933
1.08310e-05	-0.004939018453480768
1.08313e-05	-0.004964915623897778
1.08315e-05	-0.004990812794314789
1.08318e-05	-0.005016709964731625
1.08320e-05	-0.0050426071351486355
1.08323e-05	-0.005068504305565646
1.08325e-05	-0.005092967849806213
1.08328e-05	-0.005117304938495421
1.08330e-05	-0.005141642027184629
1.08332e-05	-0.005165979115873672
1.08335e-05	-0.00519031620456288
1.08338e-05	-0.005214653293252088
1.08340e-05	-0.005238990381941131
1.08343e-05	-0.005263327470630339
1.08345e-05	-0.005281394755248662
1.08347e-05	-0.00529890900062619
1.08350e-05	-0.005316423246003837
1.08353e-05	-0.005333937491381484
1.08355e-05	-0.005351451736759011
1.08358e-05	-0.0053689659821366574
1.08360e-05	-0.005386480227514304
1.08363e-05	-0.005403994472891951
1.08365e-05	-0.005421508718269479
1.08368e-05	-0.005436008389263767
1.08370e-05	-0.005450242154352617
1.08373e-05	-0.005464475919441369
1.08375e-05	-0.005478709684530219
1.08378e-05	-0.005492943449619069
1.08380e-05	-0.005507177214707822
1.08383e-05	-0.005521410979796672
1.08385e-05	-0.005535644744885521
1.08388e-05	-0.005549878509974274
1.08390e-05	-0.005564676058024129
1.08393e-05	-0.005579523335554731
1.08395e-05	-0.005594370613085232
1.08398e-05	-0.005609217890615834
1.08400e-05	-0.005624065168146437
1.08403e-05	-0.005638912445676938
1.08405e-05	-0.00565375972320754
1.08408e-05	-0.005668607000738142
1.08410e-05	-0.0056834542782686435
1.08413e-05	-0.005698301555799245
1.08415e-05	-0.005712867334193226
1.08418e-05	-0.005727042684660493
1.08420e-05	-0.005741218035127857
1.08423e-05	-0.005755393385595222
1.08425e-05	-0.00576956873606249
1.08428e-05	-0.005783744086529853
1.08430e-05	-0.005797919436997217
1.08432e-05	-0.005812094787464485
1.08435e-05	-0.00582627013793185
1.08438e-05	-0.005840445488399213
1.08440e-05	-0.005854620838866481
1.08443e-05	-0.005866599695590998
1.08445e-05	-0.005878384806670612
1.08448e-05	-0.0058901699177502246
1.08450e-05	-0.005900504036388759
1.08453e-05	-0.0059107101676533266
1.08455e-05	-0.00591886636646613
1.08458e-05	-0.005926841747333822
1.08460e-05	-0.005928280708579153
1.08463e-05	-0.005929143113283249
1.08465e-05	-0.005930005517987339
1.08468e-05	-0.005922083516746077
1.08470e-05	-0.005913386671323869
1.08473e-05	-0.005904689825901721
1.08475e-05	-0.005887402563201655
1.08478e-05	-0.005869357567436764
1.08480e-05	-0.0058513125716719945
1.08483e-05	-0.005820796006439058
1.08485e-05	-0.005789179364195726
1.08488e-05	-0.005757562721952608
1.08490e-05	-0.005725946079709276
1.08493e-05	-0.005688613561360204
1.08495e-05	-0.00564335335383992
1.08498e-05	-0.005598093146319329
1.08500e-05	-0.005552832938798739
1.08503e-05	-0.005507572731278455
1.08505e-05	-0.005453443057585806
1.08508e-05	-0.0053985310368230436
1.08510e-05	-0.0053436190160606545
1.08513e-05	-0.00528482222959338
1.08515e-05	-0.0052256827804440095
1.08517e-05	-0.00516443905348871
1.08520e-05	-0.005103009714959004
1.08523e-05	-0.005040340917219123
1.08525e-05	-0.0049771425770841595
1.08528e-05	-0.004913833997585158
1.08530e-05	-0.0048507919741941925
1.08533e-05	-0.004788393654808875
1.08535e-05	-0.004726998680509032
1.08538e-05	-0.004666885124498441
1.08540e-05	-0.004608274791286244
1.08543e-05	-0.004551475862923775
1.08545e-05	-0.004496883260001123
1.08548e-05	-0.004446309901807236
1.08550e-05	-0.004396075060624748
1.08553e-05	-0.004353618237854861
1.08555e-05	-0.004311847489060782
1.08558e-05	-0.004270076740266987
1.08560e-05	-0.004238387363807387
1.08563e-05	-0.004207587232761277
1.08565e-05	-0.004176787101715375
1.08568e-05	-0.004145986970669266
1.08570e-05	-0.0041151868396231564
1.08573e-05	-0.004084386708577255
1.08575e-05	-0.004053586577531146
1.08578e-05	-0.004022786446485036
1.08580e-05	-0.003991986315439134
1.08583e-05	-0.003971695805729156
1.08585e-05	-0.003952332315899324
1.08588e-05	-0.0039329688260696235
1.08590e-05	-0.003913605336239793
1.08593e-05	-0.0038942418464099605
1.08595e-05	-0.00387487835658026
1.08598e-05	-0.0038555148667504284
1.08600e-05	-0.003836151376920597
1.08602e-05	-0.0038167878870908963
1.08605e-05	-0.003803003393065301
1.08608e-05	-0.00378971100430761
1.08610e-05	-0.0037764186155500095
1.08613e-05	-0.0037631262267923188
1.08615e-05	-0.003749833838034628
1.08618e-05	-0.003736541449276937
1.08620e-05	-0.003723249060519336
1.08623e-05	-0.0037099566717616454
1.08625e-05	-0.0037004335826593252
1.08628e-05	-0.0036912429713509467
1.08630e-05	-0.003682052360042506
1.08633e-05	-0.0036728617487340656
1.08635e-05	-0.0036636711374256874
1.08638e-05	-0.003654480526117247
1.08640e-05	-0.0036452899148088063
1.08643e-05	-0.003636099303500428
1.08645e-05	-0.003628673284786897
1.08648e-05	-0.0036214029151081613
1.08650e-05	-0.003614681561886045
1.08653e-05	-0.00360844297055975
1.08655e-05	-0.0036027623947176143
1.08658e-05	-0.003597893844227562
1.08660e-05	-0.0035941939046817985
1.08663e-05	-0.0035918410264582598
1.08665e-05	-0.003590834437579185
1.08668e-05	-0.003591732839647597
1.08670e-05	-0.0035927896579391453
1.08673e-05	-0.003596155511927979
1.08675e-05	-0.0035997250385258364
1.08678e-05	-0.0036064944509845488
1.08680e-05	-0.003613546115078647
1.08683e-05	-0.0036205977791727933
1.08685e-05	-0.0036327759931921388
1.08687e-05	-0.0036454064036844733
1.08690e-05	-0.003658036814176894
1.08693e-05	-0.003670667224669314
1.08695e-05	-0.0036832976351616484
1.08698e-05	-0.003701206648461174
1.08700e-05	-0.0037195812703293076
1.08703e-05	-0.003737955892197441
1.08705e-05	-0.00375633051406545
1.08708e-05	-0.0037747051359335836
1.08710e-05	-0.0037968472602089172
1.08713e-05	-0.0038193217037487417
1.08715e-05	-0.0038417961472887187
1.08718e-05	-0.003864270590828696
1.08720e-05	-0.0038867450343685207
1.08723e-05	-0.003909219477908498
1.08725e-05	-0.00393250696218693
1.08728e-05	-0.003955866162172633
1.08730e-05	-0.0039792253621584945
1.08733e-05	-0.004002584562144356
1.08735e-05	-0.00402594376213006
1.08738e-05	-0.004049302962115922
1.08740e-05	-0.004071098342428816
1.08743e-05	-0.004092755783240065
1.08745e-05	-0.004109061411543083
1.08748e-05	-0.004124894973685053
1.08750e-05	-0.0041407285358269165
1.08753e-05	-0.004156562097968887
1.08755e-05	-0.004172395660110858
1.08758e-05	-0.004188229222252721
1.08760e-05	-0.004204062784394692
1.08763e-05	-0.004219896346536662
1.08765e-05	-0.004235729908678525
1.08768e-05	-0.00424840893772826
1.08770e-05	-0.004256712756854465
1.08772e-05	-0.004265016575980613
1.08775e-05	-0.004273320395106818
1.08778e-05	-0.004281624214233022
1.08780e-05	-0.00428992803335917
1.08783e-05	-0.004298231852485374
1.08785e-05	-0.004306535671611579
1.08788e-05	-0.004314839490737784
1.08790e-05	-0.004323143309863931
1.08793e-05	-0.004326980871609297
1.08795e-05	-0.004330424479161784
1.08798e-05	-0.004333868086714248
1.08800e-05	-0.004337311694266735
1.08803e-05	-0.004340755301819222
1.08805e-05	-0.004344198909371686
1.08808e-05	-0.004347642516924173
1.08810e-05	-0.00435108612447666
1.08813e-05	-0.004354529732029124
1.08815e-05	-0.004357973339581611
1.08818e-05	-0.0043614169471340985
1.08820e-05	-0.004362447379752394
1.08823e-05	-0.004363264953974373
1.08825e-05	-0.004364082528196353
1.08828e-05	-0.004364900102418327
1.08830e-05	-0.004365717676640306
1.08833e-05	-0.004366535250862285
1.08835e-05	-0.004367352825084259
1.08838e-05	-0.004368170399306239
1.08840e-05	-0.0043689879735282185
1.08843e-05	-0.0043698055477501925
1.08845e-05	-0.004370623121972172
1.08848e-05	-0.004370920894742189
1.08850e-05	-0.004371134305042594
1.08853e-05	-0.00437130195458154
1.08855e-05	-0.004371554446003538
1.08857e-05	-0.004372700965067958
1.08860e-05	-0.004377344704516504
1.08863e-05	-0.00438229002738773
1.08865e-05	-0.004392294389274367
1.08868e-05	-0.004402744992714805
1.08870e-05	-0.0044176825112405725
1.08873e-05	-0.004433015806109042
1.08875e-05	-0.004454007864516424
1.08878e-05	-0.004475499064248251
1.08880e-05	-0.004496990263980078
1.08883e-05	-0.0045304658398010456
1.08885e-05	-0.00456499851887659
1.08888e-05	-0.004599531197952134
1.08890e-05	-0.004634063877027445
1.08893e-05	-0.00466859655610299
1.08895e-05	-0.004708878725108954
1.08898e-05	-0.004757135204312328
1.08900e-05	-0.004805391683516029
1.08903e-05	-0.00485364816271973
1.08905e-05	-0.004901904641923104
1.08908e-05	-0.004950161121126805
1.08910e-05	-0.005005537840256205
1.08913e-05	-0.005061542612839469
1.08915e-05	-0.005117547385423113
1.08918e-05	-0.005176093837465771
1.08920e-05	-0.005234864482875195
1.08923e-05	-0.005293635128285018
1.08925e-05	-0.005353283715053509
1.08928e-05	-0.005413009742204053
1.08930e-05	-0.005472735769355002
1.08933e-05	-0.005531031843277585
1.08935e-05	-0.005589201785626386
1.08938e-05	-0.005644979034665952
1.08940e-05	-0.005700545231927166
1.08942e-05	-0.005751743474800475
1.08945e-05	-0.005802556434471496
1.08948e-05	-0.005853369394142516
1.08950e-05	-0.005894812594199455
1.08953e-05	-0.005935429317908264
1.08955e-05	-0.005976046041617072
1.08958e-05	-0.006016662765325881
1.08960e-05	-0.006049095806087261
1.08963e-05	-0.006080806990506953
