Time(s)	Current(A)
7.30000e-06	-0.0018160337565552224
7.30025e-06	-0.0017758645241709309
7.30050e-06	-0.0017356729620052354
7.30075e-06	-0.0016956882179426829
7.30100e-06	-0.0016561567375992456
7.30125e-06	-0.0016173587446685995
7.30150e-06	-0.0015795895977048658
7.30175e-06	-0.0015431287024473097
7.30200e-06	-0.0015082425428033896
7.30225e-06	-0.0014751968949527113
7.30250e-06	-0.0014446566884127763
7.30275e-06	-0.0014164913400729505
7.30300e-06	-0.001389466518891672
7.30325e-06	-0.0013654300897301649
7.30350e-06	-0.0013432446860982689
7.30375e-06	-0.0013228550712942274
7.30400e-06	-0.0013043658358016692
7.30425e-06	-0.0012882467372565202
7.30450e-06	-0.0012742820791191093
7.30475e-06	-0.0012614068710200964
7.30500e-06	-0.001251478378303798
7.30525e-06	-0.0012435453938347734
7.30550e-06	-0.0012373620486272803
7.30575e-06	-0.0012328396341116834
7.30600e-06	-0.0012302656706696608
7.30625e-06	-0.001229403149550245
7.30650e-06	-0.0012296490057157393
7.30675e-06	-0.0012322019355157517
7.30700e-06	-0.0012357410277459055
7.30725e-06	-0.0012413328048992186
7.30750e-06	-0.0012476925144645976
7.30775e-06	-0.0012556506658646868
7.30800e-06	-0.0012643024762905837
7.30825e-06	-0.0012743981294147714
7.30850e-06	-0.0012851271841633908
7.30875e-06	-0.0012971746565732948
7.30900e-06	-0.0013097090427871886
7.30925e-06	-0.001323256934072459
7.30950e-06	-0.0013370850317187405
7.30975e-06	-0.00135149637544605
7.31000e-06	-0.0013660714908566055
7.31025e-06	-0.0013809874950040366
7.31050e-06	-0.001395959619759384
7.31075e-06	-0.0014110485588673385
7.31100e-06	-0.0014260319247414396
7.31125e-06	-0.0014407955412325487
7.31150e-06	-0.0014552542628286046
7.31175e-06	-0.0014690783494649563
7.31200e-06	-0.0014823144825355883
7.31225e-06	-0.0014943267975183006
7.31250e-06	-0.0015063391125010536
7.31275e-06	-0.0015177773765661733
7.31300e-06	-0.0015278412730134565
7.31325e-06	-0.001537550211891473
7.31350e-06	-0.0015472979578263469
7.31375e-06	-0.0015570887150787387
7.31400e-06	-0.001566968999857546
7.31425e-06	-0.0015768492846363197
7.31450e-06	-0.001586611019117038
7.31475e-06	-0.0015961259926159188
7.31500e-06	-0.0016056427417247456
7.31525e-06	-0.0016151631867437845
7.31550e-06	-0.0016249370780448567
7.31575e-06	-0.001635238514652893
7.31600e-06	-0.0016455399512609642
7.31625e-06	-0.0016559863110119804
7.31650e-06	-0.0016667343264958217
7.31675e-06	-0.0016774823419796994
7.31700e-06	-0.0016882303574635407
7.31725e-06	-0.0016991959323894282
7.31750e-06	-0.0017106143546078791
7.31775e-06	-0.0017220327768262913
7.31800e-06	-0.0017334511990447035
7.31825e-06	-0.001744973347526912
7.31850e-06	-0.0017567114009464312
7.31875e-06	-0.0017684494543659902
7.31900e-06	-0.0017801875077855095
7.31925e-06	-0.001791925561205029
7.31950e-06	-0.0018035356538270368
7.31975e-06	-0.001815118512687534
7.32000e-06	-0.001826701371548031
7.32025e-06	-0.0018382842304085674
7.32050e-06	-0.0018496057220036028
7.32075e-06	-0.0018603831808625894
7.32100e-06	-0.0018711606397216127
7.32125e-06	-0.0018816106937367175
7.32150e-06	-0.0018913792586116446
7.32175e-06	-0.001901147823486605
7.32200e-06	-0.0019104352358450824
7.32225e-06	-0.0019187211351812219
7.32250e-06	-0.0019270070345173893
7.32275e-06	-0.0019347596715926989
7.32300e-06	-0.0019414023298561663
7.32325e-06	-0.0019480449881196112
7.32350e-06	-0.0019544268637915786
7.32375e-06	-0.0019602659237192292
7.32400e-06	-0.0019661049836468603
7.32425e-06	-0.001971944043574491
7.32450e-06	-0.001976909625479114
7.32475e-06	-0.0019816893059781252
7.32500e-06	-0.0019864689864771364
7.32525e-06	-0.001991011613873466
7.32550e-06	-0.0019950608181633794
7.32575e-06	-0.0019991100224532924
7.32600e-06	-0.0020031592267432193
7.32625e-06	-0.0020072084310331323
7.32650e-06	-0.002011022196999969
7.32675e-06	-0.002014345901004268
7.32700e-06	-0.002017669605008556
7.32725e-06	-0.002020993309012855
7.32750e-06	-0.0020243170130171424
7.32775e-06	-0.002027299281081049
7.32800e-06	-0.0020295708544507585
7.32825e-06	-0.00203184242782046
7.32850e-06	-0.0020341140011901617
7.32875e-06	-0.002036385574559871
7.32900e-06	-0.002038657147929573
7.32925e-06	-0.0020409287212992747
7.32950e-06	-0.002043200294668984
7.32975e-06	-0.0020454718680386857
7.33000e-06	-0.002047743441408387
7.33025e-06	-0.002050015014778097
7.33050e-06	-0.0020522865881477986
7.33075e-06	-0.0020545581615175
7.33100e-06	-0.0020568297348872097
7.33125e-06	-0.002059101308256911
7.33150e-06	-0.002061372881626621
7.33175e-06	-0.002063644454996322
7.33200e-06	-0.002065916028366024
7.33225e-06	-0.002067898945486158
7.33250e-06	-0.0020692387157796553
7.33275e-06	-0.002070471750526034
7.33300e-06	-0.00207177119101033
7.33325e-06	-0.0020735618719161897
7.33350e-06	-0.0020764105155183345
7.33375e-06	-0.002080282139876346
7.33400e-06	-0.0020848674964678987
7.33425e-06	-0.002090938477890959
7.33450e-06	-0.0020970094593140394
7.33475e-06	-0.002103731056963205
7.33500e-06	-0.0021118069042536615
7.33525e-06	-0.0021210813050486156
7.33550e-06	-0.00213285048016417
7.33575e-06	-0.0021446196552797644
7.33600e-06	-0.002156388830395319
7.33625e-06	-0.002168158005510873
7.33650e-06	-0.0021834613217677264
7.33675e-06	-0.0021995168055526726
7.33700e-06	-0.0022155722893376193
7.33725e-06	-0.00223162777312262
7.33750e-06	-0.002248717257964056
7.33775e-06	-0.002267959003237328
7.33800e-06	-0.0022872007485106654
7.33825e-06	-0.0023069824303234123
7.33850e-06	-0.002327887983376235
7.33875e-06	-0.0023487935364291286
7.33900e-06	-0.002370005249971452
7.33925e-06	-0.0023918542327923606
7.33950e-06	-0.002413703215613343
7.33975e-06	-0.002435662235879023
7.34000e-06	-0.0024578502977273806
7.34025e-06	-0.0024799253627809797
7.34050e-06	-0.002501765226401678
7.34075e-06	-0.0025233310038487835
7.34100e-06	-0.0025443262743096275
7.34125e-06	-0.002564946588840265
7.34150e-06	-0.002584786437232044
7.34175e-06	-0.0026040978716594383
7.34200e-06	-0.0026223094189447567
7.34225e-06	-0.0026400071727136717
7.34250e-06	-0.0026562301792070974
7.34275e-06	-0.002671130537646777
7.34300e-06	-0.002684392073711474
7.34325e-06	-0.0026954896267383705
7.34350e-06	-0.002703962959157228
7.34375e-06	-0.0027092317429860775
7.34400e-06	-0.002711730481453771
7.34425e-06	-0.0027124968668554264
7.34450e-06	-0.0027096573807407457
7.34475e-06	-0.002705074585668858
7.34500e-06	-0.0026968631145284456
7.34525e-06	-0.0026867028925821115
7.34550e-06	-0.002672486369895928
7.34575e-06	-0.0026568246140498885
7.34600e-06	-0.002637256920172887
7.34625e-06	-0.0026149729091707514
7.34650e-06	-0.0025901267087724573
7.34675e-06	-0.0025628620381922726
7.34700e-06	-0.0025332653638603223
7.34725e-06	-0.00250134175210051
7.34750e-06	-0.002467121648787973
7.34775e-06	-0.0024307606541304596
7.34800e-06	-0.002392481782942256
7.34825e-06	-0.0023525111076215795
7.34850e-06	-0.0023110749457108232
7.34875e-06	-0.0022683927205156586
7.34900e-06	-0.0022246485753732587
7.34925e-06	-0.0021799750754447076
7.34950e-06	-0.002134520695543714
7.34975e-06	-0.002088512759493453
7.35000e-06	-0.0020422205583195048
7.35025e-06	-0.00199591509457733
7.35050e-06	-0.001949867936669209
7.35075e-06	-0.0019043458620664456
7.35100e-06	-0.001859593674588254
7.35125e-06	-0.0018158240124242523
7.35150e-06	-0.0017732594062248607
7.35175e-06	-0.0017321716994544774
7.35200e-06	-0.0016928589408017017
7.35225e-06	-0.0016556203523439264
7.35250e-06	-0.0016207553951465923
7.35275e-06	-0.0015885198516687193
7.35300e-06	-0.0015589169191787438
7.35325e-06	-0.001531519363706553
7.35350e-06	-0.0015058381785099835
7.35375e-06	-0.0014817718693528547
7.35400e-06	-0.0014594582283085737
7.35425e-06	-0.0014393964298656241
7.35450e-06	-0.0014214150356715576
7.35475e-06	-0.0014045030497916932
7.35500e-06	-0.0013904568859353262
7.35525e-06	-0.001378243837472125
7.35550e-06	-0.001367519701348673
7.35575e-06	-0.0013581831124208103
7.35600e-06	-0.0013505307816368923
7.35625e-06	-0.0013443907465254352
7.35650e-06	-0.0013392713660125212
7.35675e-06	-0.0013362764654432015
7.35700e-06	-0.0013341695965209796
7.35725e-06	-0.0013339111545065238
7.35750e-06	-0.0013342885697477677
7.35775e-06	-0.001335989514014987
7.35800e-06	-0.0013382963190634823
7.35825e-06	-0.0013418642158468342
7.35850e-06	-0.0013460289820249466
7.35875e-06	-0.0013514361244778422
7.35900e-06	-0.0013573080800580424
7.35925e-06	-0.001364147538423059
7.35950e-06	-0.0013712448380197252
7.35975e-06	-0.0013788788309561874
7.36000e-06	-0.0013867028708254145
7.36025e-06	-0.001394922491038327
7.36050e-06	-0.0014032775487333724
7.36075e-06	-0.0014119145178750638
7.36100e-06	-0.0014205552271312953
7.36125e-06	-0.0014292037213898183
7.36150e-06	-0.0014376141831716315
7.36175e-06	-0.0014455291832924301
7.36200e-06	-0.0014534441834132559
7.36225e-06	-0.0014610794557060015
7.36250e-06	-0.0014679588459934184
7.36275e-06	-0.0014743317145576986
7.36300e-06	-0.0014804589069314176
7.36325e-06	-0.0014870383728323288
7.36350e-06	-0.00149475213121695
7.36375e-06	-0.001503960908300465
7.36400e-06	-0.0015143877630152162
7.36425e-06	-0.0015254609586402442
7.36450e-06	-0.0015378795048884716
7.36475e-06	-0.001550899000656482
7.36500e-06	-0.0015651693654290587
7.36525e-06	-0.001580684287955323
7.36550e-06	-0.0015987897420773496
7.36575e-06	-0.001616895196199438
7.36600e-06	-0.0016365297086420754
7.36625e-06	-0.0016593469370972493
7.36650e-06	-0.0016821641655523458
7.36675e-06	-0.0017049813940074423
7.36700e-06	-0.0017292700553143323
7.36725e-06	-0.0017566214859316052
7.36750e-06	-0.001783972916548878
7.36775e-06	-0.0018113243471662437
7.36800e-06	-0.0018397470120797915
7.36825e-06	-0.0018703994379525744
7.36850e-06	-0.0019010518638254612
7.36875e-06	-0.0019321369340624226
7.36900e-06	-0.0019641225482007673
7.36925e-06	-0.0019961081623392205
7.36950e-06	-0.002028334075690435
7.36975e-06	-0.0020610601688858137
7.37000e-06	-0.002093724909090783
7.37025e-06	-0.002126261943803515
7.37050e-06	-0.00215847985985199
7.37075e-06	-0.0021900335343412497
7.37100e-06	-0.00222109219144455
7.37125e-06	-0.002251120475972013
7.37150e-06	-0.0022805055741301422
7.37175e-06	-0.0023085518878034
7.37200e-06	-0.0023359541461920076
7.37225e-06	-0.0023614952177337606
7.37250e-06	-0.002385363781826167
7.37275e-06	-0.002407326616648532
7.37300e-06	-0.0024270311546248985
7.37325e-06	-0.0024439635379879527
7.37350e-06	-0.002457150418544651
7.37375e-06	-0.002466949329013468
7.37400e-06	-0.0024740600667657146
7.37425e-06	-0.002475575406204834
7.37450e-06	-0.0024770907456439476
7.37475e-06	-0.002475318637712684
7.37500e-06	-0.0024667037486770615
7.37525e-06	-0.0024580888596414394
7.37550e-06	-0.002447125833490565
7.37575e-06	-0.0024301446920793794
7.37600e-06	-0.0024097325268554377
7.37625e-06	-0.002386051312388766
7.37650e-06	-0.0023592630926504788
7.37675e-06	-0.0023295213920432266
7.37700e-06	-0.0022969327608661485
7.37725e-06	-0.002261540547044952
7.37750e-06	-0.002223420306839095
7.37775e-06	-0.0021827617322428107
7.37800e-06	-0.0021398143807641744
7.37825e-06	-0.0020948304897050315
7.37850e-06	-0.0020480621329373944
7.37875e-06	-0.0019997559564811744
7.37900e-06	-0.0019501290486411123
7.37925e-06	-0.001899359057525184
7.37950e-06	-0.0018476438040555569
7.37975e-06	-0.0017952527404143511
7.38000e-06	-0.0017424925238674505
7.38025e-06	-0.0016896714568872945
7.38050e-06	-0.0016370979675971935
7.38075e-06	-0.0015850767663927736
7.38100e-06	-0.0015338943855444432
7.38125e-06	-0.0014838122614062217
7.38150e-06	-0.0014351046908315603
7.38175e-06	-0.0013880908219257822
7.38200e-06	-0.0013431129789787145
7.38225e-06	-0.0013005145494111151
7.38250e-06	-0.0012606388797858315
7.38275e-06	-0.0012237686845535001
7.38300e-06	-0.0011898363937435004
7.38325e-06	-0.0011581856913182168
7.38350e-06	-0.0011280972614510078
7.38375e-06	-0.0010994115910448337
7.38400e-06	-0.0010723091003254652
7.38425e-06	-0.0010473291198056223
7.38450e-06	-0.0010243539739664676
7.38475e-06	-0.0010024318403841024
7.38500e-06	-0.000983297747073845
7.38525e-06	-0.0009658097007536069
7.38550e-06	-0.0009494990791398551
7.38575e-06	-0.0009342478402545321
7.38600e-06	-0.0009201508435454595
7.38625e-06	-0.0009075463111560353
7.38650e-06	-0.0008963255039464243
7.38675e-06	-0.0008858139395741365
7.38700e-06	-0.0008771773742894259
7.38725e-06	-0.0008696438224627686
7.38750e-06	-0.0008629016083641576
7.38775e-06	-0.0008569841582060418
7.38800e-06	-0.0008518176462233624
7.38825e-06	-0.000847183892782879
7.38850e-06	-0.0008436590696686031
7.38875e-06	-0.0008406717085739557
7.38900e-06	-0.0008388030680356443
7.38925e-06	-0.0008372450553461381
7.38950e-06	-0.0008363336106877245
7.38975e-06	-0.0008356393760164388
7.39000e-06	-0.0008353972612508692
7.39025e-06	-0.0008354448888795024
7.39050e-06	-0.0008360956117234099
7.39075e-06	-0.0008367463345673152
7.39100e-06	-0.0008375951071817886
7.39125e-06	-0.0008388561179478222
7.39150e-06	-0.0008400915649677934
7.39175e-06	-0.0008412738013660572
7.39200e-06	-0.000842456037764317
7.39225e-06	-0.0008435923223845633
7.39250e-06	-0.0008446042847346656
7.39275e-06	-0.0008455739025984034
7.39300e-06	-0.0008468166773811815
7.39325e-06	-0.0008490824239342189
7.39350e-06	-0.000853088218052462
7.39375e-06	-0.0008593125818980206
7.39400e-06	-0.0008673913686753805
7.39425e-06	-0.0008765314696307031
7.39450e-06	-0.0008878806829402891
7.39475e-06	-0.0009002556510052867
7.39500e-06	-0.0009147657149254567
7.39525e-06	-0.0009310527299457997
7.39550e-06	-0.0009510384467358282
7.39575e-06	-0.0009710241635257891
7.39600e-06	-0.000992963819430314
7.39625e-06	-0.0010189705754702712
7.39650e-06	-0.0010449773315102284
7.39675e-06	-0.0010725678182871147
7.39700e-06	-0.001103454821033379
7.39725e-06	-0.0011343418237796429
7.39750e-06	-0.001166592709046748
7.39775e-06	-0.0012016824989365008
7.39800e-06	-0.0012376065232703576
7.39825e-06	-0.0012752669962968206
7.39850e-06	-0.0013134750183185252
7.39875e-06	-0.0013528227568117591
7.39900e-06	-0.0013925621873038879
7.39925e-06	-0.0014331169198538234
7.39950e-06	-0.0014739448885516219
7.39975e-06	-0.001515341594916811
7.40000e-06	-0.0015567053013820797
7.40025e-06	-0.0015980003189636526
7.40050e-06	-0.0016389395345346293
7.40075e-06	-0.0016791381526150963
7.40100e-06	-0.0017187401657531227
7.40125e-06	-0.0017571003530712987
7.40150e-06	-0.0017946465365650554
7.40175e-06	-0.001830498381151609
7.40200e-06	-0.0018652013116542414
7.40225e-06	-0.0018975127916809336
7.40250e-06	-0.001928330870404509
7.40275e-06	-0.0019560404527593825
7.40300e-06	-0.0019815645677960132
7.40325e-06	-0.002002539659601145
7.40350e-06	-0.002023514751406206
7.40375e-06	-0.0020417319809512956
7.40400e-06	-0.0020542087542630323
7.40425e-06	-0.0020666855275747265
7.40450e-06	-0.002076249746480306
7.40475e-06	-0.00207975151936086
7.40500e-06	-0.0020832532922414144
7.40525e-06	-0.00208434752692682
7.40550e-06	-0.0020804305005933093
7.40575e-06	-0.002074706054448214
7.40600e-06	-0.002065219486287827
7.40625e-06	-0.002054436685086296
7.40650e-06	-0.0020401231430898013
7.40675e-06	-0.0020232699504232465
7.40700e-06	-0.002003970057980156
7.40725e-06	-0.0019823565653840657
7.40750e-06	-0.0019585935874535
7.40775e-06	-0.0019328441602157445
7.40800e-06	-0.0019052638237762314
7.40825e-06	-0.0018760074860707575
7.40850e-06	-0.0018452302123081973
7.40875e-06	-0.0018130886166333531
7.40900e-06	-0.0017797503197439376
7.40925e-06	-0.0017454080194827496
7.40950e-06	-0.0017102737243800347
7.40975e-06	-0.001674558981788672
7.41000e-06	-0.0016384705136982065
7.41025e-06	-0.0016022145672013404
7.41050e-06	-0.001565997584442855
7.41075e-06	-0.0015300269551190545
7.41100e-06	-0.0014945168266036375
7.41125e-06	-0.001459697201140783
7.41150e-06	-0.001425810131649317
7.41175e-06	-0.0013930972577215729
7.41200e-06	-0.001361797192988582
7.41225e-06	-0.0013321483968867856
7.41250e-06	-0.0013043892471377438
7.41275e-06	-0.001279075244001331
7.41300e-06	-0.0012559673846952153
7.41325e-06	-0.0012343490102763688
7.41350e-06	-0.0012158309802537874
7.41375e-06	-0.0011973129502311432
7.41400e-06	-0.0011803007381886985
7.41425e-06	-0.0011664228676737096
7.41450e-06	-0.0011542141964400448
7.41475e-06	-0.0011454799428944425
7.41500e-06	-0.0011367456893488404
7.41525e-06	-0.0011295071668077118
7.41550e-06	-0.0011253819898787744
7.41575e-06	-0.0011223190243778677
7.41600e-06	-0.0011214670388450744
7.41625e-06	-0.001121945192947879
7.41650e-06	-0.0011251920162736323
7.41675e-06	-0.0011284388395993964
7.41700e-06	-0.0011329036180130518
7.41725e-06	-0.0011399035548992071
7.41750e-06	-0.0011476619227964568
7.41775e-06	-0.0011569989554759252
7.41800e-06	-0.001167011513293526
7.41825e-06	-0.001178430168342582
7.41850e-06	-0.001190452455216288
7.41875e-06	-0.0012037311942775396
7.41900e-06	-0.0012174721208304754
7.41925e-06	-0.0012321750849389127
7.41950e-06	-0.0012471470161756818
7.41975e-06	-0.001262678799167866
7.42000e-06	-0.0012783558610548894
7.42025e-06	-0.0012943353191672132
7.42050e-06	-0.0013103432437070637
7.42075e-06	-0.00132641042076433
7.42100e-06	-0.0013423457493382286
7.42125e-06	-0.0013580066369223188
7.42150e-06	-0.0013732304977854758
7.42175e-06	-0.001387544692926672
7.42200e-06	-0.0014018588880678683
7.42225e-06	-0.0014155209999001863
7.42250e-06	-0.0014278258083789887
7.42275e-06	-0.001439674530664053
7.42300e-06	-0.0014504330375212265
7.42325e-06	-0.001461080781548613
7.42350e-06	-0.0014721083393239912
7.42375e-06	-0.001483465493122019
7.42400e-06	-0.0014955086969701227
7.42425e-06	-0.0015075519008182264
7.42450e-06	-0.001519717930280805
7.42475e-06	-0.0015321396197427216
7.42500e-06	-0.0015447935552080421
7.42525e-06	-0.0015579309078609343
7.42550e-06	-0.001571682810450734
7.42575e-06	-0.0015867138911437914
7.42600e-06	-0.0016017449718367979
7.42625e-06	-0.0016173210136683437
7.42650e-06	-0.0016340313853787604
7.42675e-06	-0.0016507417570891204
7.42700e-06	-0.0016674521287994805
7.42725e-06	-0.0016847915386684717
7.42750e-06	-0.0017034402836949112
7.42775e-06	-0.0017220890287213506
7.42800e-06	-0.0017407377737478531
7.42825e-06	-0.0017597484472688665
7.42850e-06	-0.0017795124704809615
7.42875e-06	-0.0017992764936931235
7.42900e-06	-0.0018191360472390634
7.42925e-06	-0.0018391944459949516
7.42950e-06	-0.0018592528447509077
7.42975e-06	-0.0018792959178521307
7.43000e-06	-0.0018993070907925322
7.43025e-06	-0.0019193182637328658
7.43050e-06	-0.0019389715190422225
7.43075e-06	-0.001957879773223632
7.43100e-06	-0.001976788027404977
7.43125e-06	-0.001995153448661086
7.43150e-06	-0.002012388969888266
7.43175e-06	-0.0020296244911153873
7.43200e-06	-0.00204620741901787
7.43225e-06	-0.0020614319819758043
7.43250e-06	-0.0020759397274193983
7.43275e-06	-0.002088955426060937
7.43300e-06	-0.0021008285134038623
7.43325e-06	-0.0021103232694418524
7.43350e-06	-0.002119818025479843
7.43375e-06	-0.0021273974482762846
7.43400e-06	-0.0021309901285881485
7.43425e-06	-0.0021345828089000245
7.43450e-06	-0.0021381754892118884
7.43475e-06	-0.0021417681695237527
7.43500e-06	-0.0021393090869310763
7.43525e-06	-0.0021355620140323956
7.43550e-06	-0.002131814941133715
7.43575e-06	-0.002128067868235021
7.43600e-06	-0.002122664948809171
7.43625e-06	-0.0021138154052898527
7.43650e-06	-0.0021040462091536905
7.43675e-06	-0.0020923627674551393
7.43700e-06	-0.0020800309636726314
7.43725e-06	-0.0020659418919533805
7.43750e-06	-0.0020506241958193738
7.43775e-06	-0.002034167782031126
7.43800e-06	-0.0020166717608849022
7.43825e-06	-0.001998235236520115
7.43850e-06	-0.0019789577031793498
7.43875e-06	-0.001958938019020586
7.43900e-06	-0.0019382726730377171
7.43925e-06	-0.001917058926869387
7.43950e-06	-0.0018954041249464426
7.43975e-06	-0.0018734293470340187
7.44000e-06	-0.0018512612468451547
7.44025e-06	-0.0018290268743535658
7.44050e-06	-0.0018068531222599688
7.44075e-06	-0.0017848665810336001
7.44100e-06	-0.0017631925698109291
7.44125e-06	-0.0017419565820670307
7.44150e-06	-0.0017212905812787423
7.44175e-06	-0.0017013350754193524
7.44200e-06	-0.0016824119303897745
7.44225e-06	-0.001664502015203249
7.44250e-06	-0.0016471724600176335
7.44275e-06	-0.0016314605162192674
7.44300e-06	-0.0016168742520477225
7.44325e-06	-0.0016029209389580965
7.44350e-06	-0.0015890915823102388
