Time(s)	Current(A)
1.50000e-06	-0.012006625759337638
1.50025e-06	-0.01203423485946879
1.50050e-06	-0.01206868811036754
1.50075e-06	-0.012109703773566833
1.50100e-06	-0.01215699704916834
1.50125e-06	-0.012217296022542854
1.50150e-06	-0.012283667284616426
1.50175e-06	-0.012350038546689942
1.50200e-06	-0.012416409808763516
1.50225e-06	-0.012482781070837033
1.50250e-06	-0.01256019728125564
1.50275e-06	-0.012643834705069055
1.50300e-06	-0.012732169660501606
1.50325e-06	-0.012823150562815869
1.50350e-06	-0.012917689614476379
1.50375e-06	-0.013014232840867456
1.50400e-06	-0.013113333645348826
1.50425e-06	-0.013213875039552727
1.50450e-06	-0.013315661264741922
1.50475e-06	-0.013418148657465483
1.50500e-06	-0.013520407875856746
1.50525e-06	-0.013622538572034314
1.50550e-06	-0.013722997578456114
1.50575e-06	-0.013822514983489308
1.50600e-06	-0.013919943074205531
1.50625e-06	-0.014014316509832724
1.50650e-06	-0.014103991278489407
1.50675e-06	-0.014191615228583391
1.50700e-06	-0.01427300757680841
1.50725e-06	-0.014350889892771918
1.50750e-06	-0.014421291605593167
1.50775e-06	-0.014487479769648514
1.50800e-06	-0.014545331925046852
1.50825e-06	-0.014598488713197365
1.50850e-06	-0.014651645501347834
1.50875e-06	-0.01469454874267536
1.50900e-06	-0.014731676537994122
1.50925e-06	-0.014768804333312884
1.50950e-06	-0.014794932298831494
1.50975e-06	-0.014814864464573415
1.51000e-06	-0.014834796630315353
1.51025e-06	-0.014842207089135216
1.51050e-06	-0.014842564530739354
1.51075e-06	-0.01484292197234349
1.51100e-06	-0.014843279413947629
1.51125e-06	-0.014843636855551767
1.51150e-06	-0.014830234133831761
1.51175e-06	-0.014809080817929986
1.51200e-06	-0.014787927502028229
1.51225e-06	-0.014766774186126473
1.51250e-06	-0.014745620870224699
1.51275e-06	-0.014716289937177978
1.51300e-06	-0.01468235285299982
1.51325e-06	-0.01464841576882169
1.51350e-06	-0.01461050926546061
1.51375e-06	-0.014570366934188214
1.51400e-06	-0.014528179970256686
1.51425e-06	-0.014484841339908206
1.51450e-06	-0.014440555160537499
1.51475e-06	-0.014395337892757732
1.51500e-06	-0.014349675776430032
1.51525e-06	-0.01430384269577014
1.51550e-06	-0.014258127017933733
1.51575e-06	-0.01421289077216481
1.51600e-06	-0.014168584395248228
1.51625e-06	-0.014125645815429416
1.51650e-06	-0.014084441215063656
1.51675e-06	-0.01405233873265028
1.51700e-06	-0.014024986436510397
1.51725e-06	-0.01399763414037049
1.51750e-06	-0.013970281844230605
1.51775e-06	-0.013942929548090722
1.51800e-06	-0.013915577251950815
1.51825e-06	-0.01388822495581093
1.51850e-06	-0.013860872659671024
1.51875e-06	-0.01383352036353114
1.51900e-06	-0.013806168067391232
1.51925e-06	-0.013778815771251349
1.51950e-06	-0.013753409095336464
1.51975e-06	-0.013739985173715089
1.52000e-06	-0.013726561252093724
1.52025e-06	-0.01371313733047235
1.52050e-06	-0.013699713408850987
1.52075e-06	-0.013686289487229622
1.52100e-06	-0.013672865565608247
1.52125e-06	-0.013659441643986884
1.52150e-06	-0.01364601772236551
1.52175e-06	-0.013632593800744146
1.52200e-06	-0.013619169879122782
1.52225e-06	-0.013605745957501407
1.52250e-06	-0.01359614271047194
1.52275e-06	-0.013588691508993294
1.52300e-06	-0.013581240307514654
1.52325e-06	-0.013573789106036007
1.52350e-06	-0.013566337904557368
1.52375e-06	-0.013558886703078726
1.52400e-06	-0.01355143550160008
1.52425e-06	-0.01354398430012144
1.52450e-06	-0.013536533098642793
1.52475e-06	-0.013531425532857608
1.52500e-06	-0.01352763805090722
1.52525e-06	-0.013523850568956827
1.52550e-06	-0.013520063087006437
1.52575e-06	-0.013516275605056046
1.52600e-06	-0.013512488123105657
1.52625e-06	-0.013508700641155268
1.52650e-06	-0.013504913159204875
1.52675e-06	-0.013501125677254486
1.52700e-06	-0.013498589447209072
1.52725e-06	-0.01349675800136609
1.52750e-06	-0.01349567571798493
1.52775e-06	-0.013495015410279528
1.52800e-06	-0.013495803384041079
1.52825e-06	-0.013497407121514567
1.52850e-06	-0.013501091435558641
1.52875e-06	-0.013505947661903548
1.52900e-06	-0.01351080388824845
1.52925e-06	-0.013518040554733818
1.52950e-06	-0.013526618035646034
1.52975e-06	-0.013535195516558242
1.53000e-06	-0.013546027633921182
1.53025e-06	-0.013558129705117022
1.53050e-06	-0.01357382269220842
1.53075e-06	-0.013591538310222773
1.53100e-06	-0.013609253928237109
1.53125e-06	-0.013626969546251462
1.53150e-06	-0.013644685164265797
1.53175e-06	-0.01366240078228015
1.53200e-06	-0.013681042530537788
1.53225e-06	-0.013705388162320612
1.53250e-06	-0.013729733794103456
1.53275e-06	-0.01375407942588628
1.53300e-06	-0.013778425057669123
1.53325e-06	-0.013802770689451948
1.53350e-06	-0.013827116321234772
1.53375e-06	-0.013853383395236703
1.53400e-06	-0.013880732747008944
1.53425e-06	-0.013908082098781208
1.53450e-06	-0.013935431450553447
1.53475e-06	-0.013962780802325688
1.53500e-06	-0.013990130154097951
1.53525e-06	-0.01401747950587019
1.53550e-06	-0.01404326882947711
1.53575e-06	-0.014068179446564678
1.53600e-06	-0.014093090063652267
1.53625e-06	-0.014118000680739836
1.53650e-06	-0.014142911297827404
1.53675e-06	-0.014167821914914993
1.53700e-06	-0.014192732532002563
1.53725e-06	-0.014214370522629001
1.53750e-06	-0.014234165163070737
1.53775e-06	-0.014253959803512474
1.53800e-06	-0.01427405827922702
1.53825e-06	-0.01429432789418181
1.53850e-06	-0.014314597509136615
1.53875e-06	-0.014336881055487168
1.53900e-06	-0.014360298975361362
1.53925e-06	-0.014383716895235573
1.53950e-06	-0.014407134815109766
1.53975e-06	-0.01443055273498398
1.54000e-06	-0.014453970654858171
1.54025e-06	-0.014477388574732363
1.54050e-06	-0.014501666642431606
1.54075e-06	-0.014531242218816466
1.54100e-06	-0.014560817795201351
1.54125e-06	-0.014590393371586212
1.54150e-06	-0.014619968947971098
1.54175e-06	-0.014649544524355958
1.54200e-06	-0.014679120100740819
1.54225e-06	-0.014708695677125705
1.54250e-06	-0.014741423524607318
1.54275e-06	-0.014775926930521058
1.54300e-06	-0.014810430336434768
1.54325e-06	-0.014844933742348479
1.54350e-06	-0.014879437148262219
1.54375e-06	-0.01491394055417593
1.54400e-06	-0.01494844396008967
1.54425e-06	-0.01498294736600338
1.54450e-06	-0.01501678911103503
1.54475e-06	-0.015050258166814335
1.54500e-06	-0.015083727222593614
1.54525e-06	-0.015117196278372921
1.54550e-06	-0.0151506653341522
1.54575e-06	-0.015184134389931506
1.54600e-06	-0.015217603445710784
1.54625e-06	-0.015251072501490062
1.54650e-06	-0.015281825135885567
1.54675e-06	-0.015311047709970564
1.54700e-06	-0.01533837250511146
1.54725e-06	-0.01536462835113502
1.54750e-06	-0.015387867291626306
1.54775e-06	-0.015409406920132032
1.54800e-06	-0.01542440277091923
1.54825e-06	-0.015435712752265369
1.54850e-06	-0.015439325275489494
1.54875e-06	-0.015438602103510305
1.54900e-06	-0.015430637226318303
1.54925e-06	-0.015418593362783376
1.54950e-06	-0.015399397157351145
1.54975e-06	-0.015376172300646671
1.55000e-06	-0.015342205675537754
1.55025e-06	-0.015302188607151676
1.55050e-06	-0.015262171538765598
1.55075e-06	-0.015209381303597204
1.55100e-06	-0.0151493964131192
1.55125e-06	-0.015089411522641143
1.55150e-06	-0.015026858722329835
1.55175e-06	-0.014948490588597594
1.55200e-06	-0.014870122454865287
1.55225e-06	-0.014791754321133044
1.55250e-06	-0.01470505195182456
1.55275e-06	-0.014613655213980808
1.55300e-06	-0.014518787902839572
1.55325e-06	-0.014420142733700491
1.55350e-06	-0.014318978361750632
1.55375e-06	-0.014215657966116025
1.55400e-06	-0.014110387254704515
1.55425e-06	-0.014003503580500027
1.55450e-06	-0.013895582133861053
1.55475e-06	-0.013787286570889007
1.55500e-06	-0.013679285581192375
1.55525e-06	-0.013572249045890786
1.55550e-06	-0.013466821303998563
1.55575e-06	-0.013363538991728171
1.55600e-06	-0.013262838736383372
1.55625e-06	-0.01316524113040817
1.55650e-06	-0.013071414374761918
1.55675e-06	-0.012982082401325012
1.55700e-06	-0.012897973504350959
1.55725e-06	-0.012819814190826716
1.55750e-06	-0.012748333535570472
1.55775e-06	-0.012684222711189155
1.55800e-06	-0.012628016362317928
1.55825e-06	-0.012580016351550843
1.55850e-06	-0.012540375780458276
1.55875e-06	-0.012509212666818975
1.55900e-06	-0.012486643165766429
1.55925e-06	-0.012472783357055319
1.55950e-06	-0.012467750251762933
1.55975e-06	-0.012471637962071626
1.56000e-06	-0.012484441128507036
1.56025e-06	-0.012506009221979059
1.56050e-06	-0.0125387089298646
1.56075e-06	-0.0125759148010592
1.56100e-06	-0.012627939790868526
1.56125e-06	-0.0126883118454454
1.56150e-06	-0.012748683900022274
1.56175e-06	-0.0128090559545992
1.56200e-06	-0.012886302632986887
1.56225e-06	-0.012973054166659174
1.56250e-06	-0.013059805700331387
1.56275e-06	-0.013146557234003674
1.56300e-06	-0.013244254135501166
1.56325e-06	-0.013348116160344859
1.56350e-06	-0.01345197818518864
1.56375e-06	-0.013561882560258356
1.56400e-06	-0.013675190369094753
1.56425e-06	-0.013788498177931055
1.56450e-06	-0.013904260598459894
1.56475e-06	-0.01402140561152414
1.56500e-06	-0.014138559560919839
1.56525e-06	-0.014255718543822703
1.56550e-06	-0.01437120464545869
1.56575e-06	-0.014485748474571935
1.56600e-06	-0.01459686790143405
1.56625e-06	-0.014706058488388405
1.56650e-06	-0.014809937021989843
1.56675e-06	-0.014910823471207639
1.56700e-06	-0.015004479832443438
1.56725e-06	-0.015094063750895701
1.56750e-06	-0.01517266710230552
1.56775e-06	-0.01524508550394425
1.56800e-06	-0.015317503905582916
1.56825e-06	-0.01537708913935559
1.56850e-06	-0.015429445921414464
1.56875e-06	-0.01548180270347334
1.56900e-06	-0.015520423549594152
1.56925e-06	-0.015551307447931833
1.56950e-06	-0.015582191346269541
1.56975e-06	-0.015594072884766559
1.57000e-06	-0.015595251092489135
1.57025e-06	-0.015596429300211715
1.57050e-06	-0.015597607507934291
1.57075e-06	-0.01559878571565687
1.57100e-06	-0.015595324742351724
1.57125e-06	-0.015563291817732111
1.57150e-06	-0.015531258893112526
1.57175e-06	-0.01549922596849294
1.57200e-06	-0.015467193043873327
1.57225e-06	-0.015435160119253742
1.57250e-06	-0.015390376692348122
1.57275e-06	-0.015338411376211444
1.57300e-06	-0.015286446060074767
1.57325e-06	-0.015227928228472763
1.57350e-06	-0.015165719605778748
1.57375e-06	-0.01510351098308468
1.57400e-06	-0.015037682550356075
1.57425e-06	-0.014969815211698696
1.57450e-06	-0.014900500187329597
1.57475e-06	-0.014830369734815902
1.57500e-06	-0.014759828211050688
1.57525e-06	-0.014689137955966236
1.57550e-06	-0.014618858947041312
1.57575e-06	-0.014549487105109277
1.57600e-06	-0.014481597219182437
1.57625e-06	-0.014415764114649215
1.57650e-06	-0.01435251117529542
1.57675e-06	-0.014292338336534052
1.57700e-06	-0.014235745643208944
1.57725e-06	-0.01418323176384344
1.57750e-06	-0.014135276747784671
1.57775e-06	-0.014092241889687952
1.57800e-06	-0.01405428945591631
1.57825e-06	-0.01402316992902568
1.57850e-06	-0.013994861448047667
1.57875e-06	-0.01397343394236587
1.57900e-06	-0.013955882237124666
1.57925e-06	-0.01394548198014805
1.57950e-06	-0.013939109871092531
1.57975e-06	-0.01394167409359058
1.58000e-06	-0.013949271823154299
1.58025e-06	-0.013956869552718012
1.58050e-06	-0.01397833506070369
1.58075e-06	-0.014007611778496546
1.58100e-06	-0.014036888496289427
1.58125e-06	-0.014066165214082282
1.58150e-06	-0.014095441931875138
1.58175e-06	-0.014127938740058906
1.58200e-06	-0.01418026755421865
1.58225e-06	-0.014232596368378439
1.58250e-06	-0.014284925182538183
1.58275e-06	-0.014337253996697927
1.58300e-06	-0.014389582810857716
1.58325e-06	-0.014451368267705858
1.58350e-06	-0.014518480303755282
1.58375e-06	-0.014585592339804648
1.58400e-06	-0.014652704375854014
1.58425e-06	-0.014719816411903437
1.58450e-06	-0.014786928447952803
1.58475e-06	-0.014855792203571892
1.58500e-06	-0.014925642638431486
1.58525e-06	-0.014995493073291137
1.58550e-06	-0.015065343508150732
1.58575e-06	-0.015135193943010326
1.58600e-06	-0.01520504437786998
1.58625e-06	-0.015270335694956021
1.58650e-06	-0.015333059028592994
1.58675e-06	-0.015395782362229913
1.58700e-06	-0.015452070941392724
1.58725e-06	-0.015504735059901267
1.58750e-06	-0.015557399178409766
1.58775e-06	-0.015602013052284413
1.58800e-06	-0.01564209251928299
1.58825e-06	-0.01568217198628157
1.58850e-06	-0.01570882408810625
1.58875e-06	-0.015727913048717155
1.58900e-06	-0.015747002009328076
1.58925e-06	-0.01576609096993898
1.58950e-06	-0.0157851799305499
1.58975e-06	-0.015804268891160805
1.59000e-06	-0.01581942304413707
1.59025e-06	-0.015810343365436547
1.59050e-06	-0.015801263686736025
1.59075e-06	-0.015792184008035497
1.59100e-06	-0.01578310432933498
1.59125e-06	-0.015774024650634457
1.59150e-06	-0.015764944971933932
1.59175e-06	-0.015741846113773827
1.59200e-06	-0.015710850767168022
1.59225e-06	-0.015679855420562244
1.59250e-06	-0.015648860073956466
1.59275e-06	-0.015617864727350663
1.59300e-06	-0.015586869380744885
1.59325e-06	-0.015547759249332757
1.59350e-06	-0.015504078357938142
1.59375e-06	-0.01546039746654349
1.59400e-06	-0.015416716575148875
1.59425e-06	-0.01537303568375426
1.59450e-06	-0.015329354792359607
1.59475e-06	-0.015283571678613233
1.59500e-06	-0.015236604460293617
1.59525e-06	-0.015189637241974042
1.59550e-06	-0.015143119217900443
1.59575e-06	-0.015096854208433211
1.59600e-06	-0.015056303465383206
1.59625e-06	-0.015016781446685647
1.59650e-06	-0.01497725942798812
1.59675e-06	-0.014937737409290596
1.59700e-06	-0.014898215390593036
1.59725e-06	-0.014858693371895512
1.59750e-06	-0.014821152308744352
1.59775e-06	-0.014801960716916392
1.59800e-06	-0.014782769125088416
1.59825e-06	-0.014763577533260457
1.59850e-06	-0.014744385941432497
1.59875e-06	-0.014725194349604521
1.59900e-06	-0.014706002757776561
1.59925e-06	-0.014694024388486536
1.59950e-06	-0.014695593977465622
1.59975e-06	-0.014697163566444706
1.60000e-06	-0.01470563909382836
1.60025e-06	-0.014727085434856176
1.60050e-06	-0.01474853177588401
1.60075e-06	-0.014769978116911827
1.60100e-06	-0.014791424457939642
1.60125e-06	-0.014812870798967476
1.60150e-06	-0.014841935217064004
1.60175e-06	-0.014885307995906887
1.60200e-06	-0.014928680774749735
1.60225e-06	-0.014972053553592617
1.60250e-06	-0.015015426332435463
1.60275e-06	-0.01505879911127831
1.60300e-06	-0.015107167215228434
1.60325e-06	-0.015164917596757765
1.60350e-06	-0.015222667978287144
1.60375e-06	-0.015280418359816476
1.60400e-06	-0.015338168741345807
1.60425e-06	-0.015395919122875187
1.60450e-06	-0.015453669504404518
1.60475e-06	-0.015511727884846801
1.60500e-06	-0.015570364752421085
1.60525e-06	-0.015629001619995368
1.60550e-06	-0.0156876384875697
1.60575e-06	-0.015746275355143984
1.60600e-06	-0.015804912222718317
1.60625e-06	-0.0158635490902926
1.60650e-06	-0.015919357942634653
1.60675e-06	-0.01596985518395288
1.60700e-06	-0.01601804176315803
1.60725e-06	-0.016061888429970965
1.60750e-06	-0.016102650115326623
1.60775e-06	-0.016137617552713167
1.60800e-06	-0.016167160763909734
1.60825e-06	-0.01618651613053711
1.60850e-06	-0.0162058714971645
1.60875e-06	-0.016218386018258535
1.60900e-06	-0.016218051983895105
1.60925e-06	-0.016217717949531675
1.60950e-06	-0.01621040220585672
1.60975e-06	-0.01618997333474165
1.61000e-06	-0.016169544463626603
1.61025e-06	-0.016139670557540446
1.61050e-06	-0.016092056877177744
1.61075e-06	-0.016044443196815004
1.61100e-06	-0.0159968295164523
1.61125e-06	-0.0159492158360896
1.61150e-06	-0.015891670288635393
1.61175e-06	-0.015815470593167447
1.61200e-06	-0.015739270897699432
1.61225e-06	-0.015663071202231482
1.61250e-06	-0.015586871506763534
1.61275e-06	-0.015504619134194377
1.61300e-06	-0.015410998553262872
1.61325e-06	-0.015317377972331288
1.61350e-06	-0.015221320318606695
1.61375e-06	-0.015120685326484045
1.61400e-06	-0.015018984472297076
1.61425e-06	-0.014914797956259048
1.61450e-06	-0.01480942717287088
1.61475e-06	-0.014703470962548228
1.61500e-06	-0.014597531725051566
1.61525e-06	-0.014492220163228731
1.61550e-06	-0.014388135781276238
1.61575e-06	-0.014285828368622668
1.61600e-06	-0.0141858110362853
1.61625e-06	-0.014088645614377369
1.61650e-06	-0.01399497522777826
1.61675e-06	-0.013905469292065918
1.61700e-06	-0.013820802731937953
1.61725e-06	-0.013741652334737326
1.61750e-06	-0.013669426416194102
1.61775e-06	-0.013602902976011893
1.61800e-06	-0.013539335571921957
1.61825e-06	-0.0134813202291201
1.61850e-06	-0.013426163363997587
1.61875e-06	-0.013376375324819889
1.61900e-06	-0.013330784346720487
1.61925e-06	-0.01329307633743774
1.61950e-06	-0.01325536832815496
1.61975e-06	-0.013222186835088636
1.62000e-06	-0.013197507097302164
1.62025e-06	-0.01317282735951571
1.62050e-06	-0.013153376515375605
1.62075e-06	-0.01314374663995408
1.62100e-06	-0.013134116764532558
1.62125e-06	-0.013124486889111027
1.62150e-06	-0.013114857013689503
1.62175e-06	-0.013105227138267972
1.62200e-06	-0.013109306759365075
1.62225e-06	-0.013115854465058753
1.62250e-06	-0.013122402170752438
1.62275e-06	-0.013128949876446118
1.62300e-06	-0.013135497582139801
1.62325e-06	-0.013145925892661794
1.62350e-06	-0.013163642800199694
1.62375e-06	-0.013181359707737608
1.62400e-06	-0.013199076615275508
1.62425e-06	-0.013216793522813422
1.62450e-06	-0.013234510430351322
1.62475e-06	-0.013252227337889236
1.62500e-06	-0.013272948692791975
1.62525e-06	-0.013294210930450844
1.62550e-06	-0.01331547316810973
1.62575e-06	-0.0133367354057686
1.62600e-06	-0.013357997643427487
1.62625e-06	-0.013379259881086356
1.62650e-06	-0.013399435605841977
1.62675e-06	-0.013417570629455762
1.62700e-06	-0.013435705653069533
1.62725e-06	-0.013452598033813181
1.62750e-06	-0.01346715646829957
1.62775e-06	-0.01348171490278596
1.62800e-06	-0.013497026408405017
1.62825e-06	-0.013513752340963395
1.62850e-06	-0.013530478273521787
1.62875e-06	-0.013548994100331209
1.62900e-06	-0.013570871727291321
1.62925e-06	-0.013592749354251412
1.62950e-06	-0.013614626981211506
1.62975e-06	-0.013636504608171616
1.63000e-06	-0.01365838223513171
1.63025e-06	-0.013680259862091822
1.63050e-06	-0.013709896671074102
1.63075e-06	-0.013740930345185838
1.63100e-06	-0.0137719640192976
1.63125e-06	-0.013802997693409334
1.63150e-06	-0.013834031367521095
1.63175e-06	-0.01386506504163283
1.63200e-06	-0.01389901331657993
1.63225e-06	-0.013938435828634405
1.63250e-06	-0.013977858340688846
1.63275e-06	-0.01401728085274332
1.63300e-06	-0.014056703364797762
1.63325e-06	-0.014096125876852236
1.63350e-06	-0.014135548388906677
1.63375e-06	-0.014174970900961118
1.63400e-06	-0.0142160747006601
1.63425e-06	-0.014257481178151163
1.63450e-06	-0.01429888765564226
1.63475e-06	-0.014340294133133324
1.63500e-06	-0.014381700610624387
1.63525e-06	-0.014423107088115485
1.63550e-06	-0.014464513565606548
1.63575e-06	-0.014504462911935509
1.63600e-06	-0.01454167545760856
1.63625e-06	-0.014578888003281614
1.63650e-06	-0.014611667686657259
1.63675e-06	-0.014636121516631195
1.63700e-06	-0.014660575346605151
1.63725e-06	-0.014685029176579089
1.63750e-06	-0.014709483006553045
1.63775e-06	-0.014733936836526981
1.63800e-06	-0.014758390666500917
1.63825e-06	-0.014782844496474873
1.63850e-06	-0.014807298326448809
1.63875e-06	-0.014831752156422767
1.63900e-06	-0.01484936379262575
1.63925e-06	-0.014854124341098155
1.63950e-06	-0.014858884889570564
1.63975e-06	-0.014863645438042968
1.64000e-06	-0.014868405986515376
1.64025e-06	-0.014873166534987782
1.64050e-06	-0.014877927083460186
1.64075e-06	-0.014882687631932593
1.64100e-06	-0.014887448180405
1.64125e-06	-0.014892208728877407
1.64150e-06	-0.014892055364738867
1.64175e-06	-0.014882672632918452
1.64200e-06	-0.014873289901098045
1.64225e-06	-0.014863907169277638
1.64250e-06	-0.014854524437457222
1.64275e-06	-0.014845141705636816
1.64300e-06	-0.0148357589738164
1.64325e-06	-0.014826376241995993
1.64350e-06	-0.014816993510175586
1.64375e-06	-0.01480761077835517
1.64400e-06	-0.01479333875796258
1.64425e-06	-0.014778186531809392
1.64450e-06	-0.014763034305656219
1.64475e-06	-0.014747882079503045
1.64500e-06	-0.01473272985334986
1.64525e-06	-0.014717577627196686
1.64550e-06	-0.014702425401043499
1.64575e-06	-0.014687273174890325
1.64600e-06	-0.014672120948737138
1.64625e-06	-0.014657602365484003
1.64650e-06	-0.014644273897677822
1.64675e-06	-0.01463094542987163
1.64700e-06	-0.01461761696206545
1.64725e-06	-0.014604288494259259
1.64750e-06	-0.014590960026453078
