Time(s)	Current(A)
1.22500e-05	-0.000796166922613052
1.22503e-05	-0.0007885296429867415
1.22505e-05	-0.0007803519904973475
1.22508e-05	-0.0007720918116909584
1.22510e-05	-0.0007635291524960055
1.22513e-05	-0.0007548206563134568
1.22515e-05	-0.0007460145329031672
1.22518e-05	-0.0007371590364160938
1.22520e-05	-0.0007283028907660771
1.22523e-05	-0.0007194997418550353
1.22525e-05	-0.0007108178339421011
1.22528e-05	-0.0007023352347264592
1.22530e-05	-0.0006941656651642713
1.22532e-05	-0.0006863787024949813
1.22535e-05	-0.000678858436291067
1.22538e-05	-0.0006721950366977833
1.22540e-05	-0.0006655316371044995
1.22543e-05	-0.0006591282076143874
1.22545e-05	-0.0006535600336675747
1.22548e-05	-0.0006481049966279473
1.22550e-05	-0.0006430134561125591
1.22553e-05	-0.0006379219155971363
1.22555e-05	-0.000633043167386988
1.22558e-05	-0.0006288480976092371
1.22560e-05	-0.0006246530278314578
1.22563e-05	-0.0006204579580536785
1.22565e-05	-0.0006164393913845488
1.22568e-05	-0.0006129879099230238
1.22570e-05	-0.0006095364284614989
1.22573e-05	-0.0006060849469999973
1.22575e-05	-0.0006028239440982216
1.22578e-05	-0.000600174928001965
1.22580e-05	-0.0005975259119057263
1.22583e-05	-0.0005948768958094696
1.22585e-05	-0.0005922278797132129
1.22588e-05	-0.0005895788636169742
1.22590e-05	-0.0005869298475207175
1.22593e-05	-0.0005842808314244608
1.22595e-05	-0.0005818082718059308
1.22598e-05	-0.0005799026475750729
1.22600e-05	-0.0005779970233442149
1.22603e-05	-0.0005760913991133699
1.22605e-05	-0.000574185774882512
1.22608e-05	-0.000572280150651654
1.22610e-05	-0.000570374526420809
1.22613e-05	-0.000568468902189951
1.22615e-05	-0.0005666766388096705
1.22617e-05	-0.0005652485914593828
1.22620e-05	-0.0005638205441090855
1.22623e-05	-0.0005623924967587882
1.22625e-05	-0.0005609644494084907
1.22628e-05	-0.000559536402058203
1.22630e-05	-0.0005581970063667658
1.22633e-05	-0.000557142438771443
1.22635e-05	-0.0005560878711761271
1.22638e-05	-0.0005550333035808042
1.22640e-05	-0.0005539787359854813
1.22643e-05	-0.0005529241683901655
1.22645e-05	-0.0005520917808773375
1.22648e-05	-0.0005519732336999294
1.22650e-05	-0.000551854686522522
1.22653e-05	-0.000551736139345114
1.22655e-05	-0.0005516175921677059
1.22658e-05	-0.0005514990449902986
1.22660e-05	-0.0005513804978128905
1.22663e-05	-0.0005512619506354825
1.22665e-05	-0.0005514638561311715
1.22668e-05	-0.0005526953410612045
1.22670e-05	-0.0005539268259912376
1.22673e-05	-0.0005551583109212623
1.22675e-05	-0.0005563897958512955
1.22678e-05	-0.0005576212807813285
1.22680e-05	-0.0005588527657113532
1.22683e-05	-0.0005600842506413863
1.22685e-05	-0.0005615907424677072
1.22688e-05	-0.0005639808014116927
1.22690e-05	-0.0005663708603556945
1.22693e-05	-0.0005687609192996963
1.22695e-05	-0.0005711509782436819
1.22698e-05	-0.0005735410371876837
1.22700e-05	-0.0005759310961316855
1.22702e-05	-0.0005783211550756711
1.22705e-05	-0.0005807112140196729
1.22708e-05	-0.0005831012729636747
1.22710e-05	-0.0005855362647446649
1.22713e-05	-0.0005881156208227058
1.22715e-05	-0.0005906949769007643
1.22718e-05	-0.0005932743329788228
1.22720e-05	-0.0005958536890568638
1.22723e-05	-0.0005984330451349223
1.22725e-05	-0.0006010124012129808
1.22728e-05	-0.0006035917572910218
1.22730e-05	-0.0006061711133690803
1.22733e-05	-0.0006087504694471387
1.22735e-05	-0.00061121847786267
1.22738e-05	-0.000613291792918172
1.22740e-05	-0.0006151981725583196
1.22743e-05	-0.000616843927628032
1.22745e-05	-0.0006179513483798434
1.22748e-05	-0.0006180532779131811
1.22750e-05	-0.0006169776003395039
1.22753e-05	-0.000615330746147344
1.22755e-05	-0.0006118487638714925
1.22758e-05	-0.0006083667815956647
1.22760e-05	-0.0006043502711285421
1.22763e-05	-0.0005986163799711087
1.22765e-05	-0.0005922094403906118
1.22768e-05	-0.0005836400697458239
1.22770e-05	-0.0005750706991010359
1.22773e-05	-0.0005658478488886636
1.22775e-05	-0.0005545254402069282
1.22778e-05	-0.0005428683184344802
1.22780e-05	-0.0005299358606138016
1.22783e-05	-0.0005161596980758901
1.22785e-05	-0.0005015199447959707
1.22787e-05	-0.0004859698522769912
1.22790e-05	-0.00046954114869907884
1.22793e-05	-0.00045233118923558477
1.22795e-05	-0.0004344459547497626
1.22798e-05	-0.0004159914635878134
1.22800e-05	-0.0003970720331878859
1.22803e-05	-0.00037777522334866975
1.22805e-05	-0.00035814330867289085
1.22808e-05	-0.00033820181552646325
1.22810e-05	-0.00031802532284569917
1.22813e-05	-0.0002977295825416882
1.22815e-05	-0.00027743570946924553
1.22818e-05	-0.00025726485251227957
1.22820e-05	-0.0002373370668403374
1.22823e-05	-0.00021776189889343244
1.22825e-05	-0.00019862055837047135
1.22828e-05	-0.00017998370879149518
1.22830e-05	-0.00016195279360794497
1.22833e-05	-0.0001446549919714784
1.22835e-05	-0.0001282208466512909
1.22838e-05	-0.00011278092371483325
1.22840e-05	-9.847306552119964e-05
1.22843e-05	-8.550610233385082e-05
1.22845e-05	-7.427232582242356e-05
1.22848e-05	-6.520503636022005e-05
1.22850e-05	-5.8492029080043835e-05
1.22853e-05	-5.41298886047339e-05
1.22855e-05	-5.2090722734690655e-05
1.22858e-05	-5.234662558183455e-05
1.22860e-05	-5.4874269169393226e-05
1.22863e-05	-5.969477742285553e-05
1.22865e-05	-6.694417555810664e-05
1.22868e-05	-7.678417012046455e-05
1.22870e-05	-8.922266907846541e-05
1.22872e-05	-0.00010414779634657205
1.22875e-05	-0.00012143235918287246
1.22878e-05	-0.00014094915584211804
1.22880e-05	-0.0001625738576884233
1.22883e-05	-0.00018621000672685564
1.22885e-05	-0.00021183308996940614
1.22888e-05	-0.00023943469150508872
1.22890e-05	-0.0002689100515840035
1.22893e-05	-0.0003002408425935268
1.22895e-05	-0.00033327204579549876
1.22898e-05	-0.00036685999767200955
1.22900e-05	-0.00040223672222623535
1.22903e-05	-0.00043802386771527003
1.22905e-05	-0.00047512965083667895
1.22908e-05	-0.0005125107841959953
1.22910e-05	-0.0005507765877920002
1.22913e-05	-0.0005891117919720052
1.22915e-05	-0.0006276699726487784
1.22918e-05	-0.0006660814629008885
1.22920e-05	-0.0007040216528414863
1.22923e-05	-0.0007416194753171594
1.22925e-05	-0.0007781173085244091
1.22928e-05	-0.0008140841713047861
1.22930e-05	-0.0008483450841031312
1.22933e-05	-0.0008818420585370799
1.22935e-05	-0.0009128845824518177
1.22938e-05	-0.0009429255162505591
1.22940e-05	-0.0009697484504105681
1.22943e-05	-0.0009951456559774924
1.22945e-05	-0.0010159621513091174
1.22948e-05	-0.0010367786466407426
1.22950e-05	-0.0010558650875112686
1.22953e-05	-0.001069393052373953
1.22955e-05	-0.0010829210172366374
1.22957e-05	-0.0010945935837999223
1.22960e-05	-0.001100304958293872
1.22963e-05	-0.0011060163327878216
1.22965e-05	-0.001110210225212255
1.22968e-05	-0.001109528613502956
1.22970e-05	-0.001107725566830245
1.22973e-05	-0.0011023194721152274
1.22975e-05	-0.0010961006596684575
1.22978e-05	-0.0010867435721335535
1.22980e-05	-0.0010751783801388147
1.22983e-05	-0.0010614704481615397
1.22985e-05	-0.001045740636029922
1.22988e-05	-0.0010281551760804152
1.22990e-05	-0.0010088640302996887
1.22993e-05	-0.000987990004546675
1.22995e-05	-0.000965651459687843
1.22998e-05	-0.0009419669676700582
1.23000e-05	-0.0009170559176676607
1.23003e-05	-0.0008910487428211532
1.23005e-05	-0.0008641104304110181
1.23008e-05	-0.0008364344010130298
1.23010e-05	-0.0008082039577568805
1.23013e-05	-0.0007795853414525077
1.23015e-05	-0.0007507421185681065
1.23018e-05	-0.0007218377194577366
1.23020e-05	-0.0006930363155774282
1.23023e-05	-0.0006645088812038324
1.23025e-05	-0.0006364479268280209
1.23028e-05	-0.0006090640178135239
1.23030e-05	-0.000582561134474791
1.23033e-05	-0.0005571326582591853
1.23035e-05	-0.0005329701920286117
1.23038e-05	-0.0005102654165515525
1.23040e-05	-0.0004892000529076259
1.23042e-05	-0.0004698538735517839
1.23045e-05	-0.00045201429811760817
1.23048e-05	-0.00043530731253621166
1.23050e-05	-0.0004195838027431913
1.23053e-05	-0.00040505677170739584
1.23055e-05	-0.0003918553033160519
1.23058e-05	-0.0003792784678159148
1.23060e-05	-0.00036870850956687945
1.23063e-05	-0.0003587258656786002
1.23065e-05	-0.0003506301986796029
1.23068e-05	-0.0003429522546675706
1.23070e-05	-0.0003366164089848006
1.23073e-05	-0.0003307037921883664
1.23075e-05	-0.00032615096357472857
1.23078e-05	-0.0003220569794866386
1.23080e-05	-0.00031943721273998204
1.23083e-05	-0.0003172321189744759
1.23085e-05	-0.00031635932420290595
1.23088e-05	-0.0003157741764078526
1.23090e-05	-0.00031611320692884193
1.23093e-05	-0.00031679072476408225
1.23095e-05	-0.0003185557653672422
1.23098e-05	-0.00032032080597039006
1.23100e-05	-0.00032246096849840425
1.23103e-05	-0.0003258063567966376
1.23105e-05	-0.00032915174509484825
1.23108e-05	-0.00033269590304034426
1.23110e-05	-0.00033687868615103235
1.23113e-05	-0.00034106146926169215
1.23115e-05	-0.000345366722366121
1.23118e-05	-0.00035006545818314614
1.23120e-05	-0.0003547641940001394
1.23123e-05	-0.0003594868969443986
1.23125e-05	-0.0003642866036505549
1.23127e-05	-0.00036908631035667875
1.23130e-05	-0.0003737891307339325
1.23133e-05	-0.00037818066591920995
1.23135e-05	-0.00038245240806935617
1.23138e-05	-0.00038633926828259864
1.23140e-05	-0.00039000343662519063
1.23143e-05	-0.00039295212031174506
1.23145e-05	-0.0003959008039982795
1.23148e-05	-0.00039843735119402446
1.23150e-05	-0.00039964974886191694
1.23153e-05	-0.0004008621465298013
1.23155e-05	-0.0004016457955954442
1.23158e-05	-0.0004010519222336964
1.23160e-05	-0.0004004580488719526
1.23163e-05	-0.00039941475042492127
1.23165e-05	-0.00039692749826897593
1.23168e-05	-0.00039444024611304745
1.23170e-05	-0.0003914896694117928
1.23173e-05	-0.00038705048155478086
1.23175e-05	-0.000382611293697799
1.23178e-05	-0.0003777721647675345
1.23180e-05	-0.0003716480688538908
1.23183e-05	-0.0003655239729402887
1.23185e-05	-0.0003590928200852233
1.23188e-05	-0.00035167512681671557
1.23190e-05	-0.00034404222334523204
1.23193e-05	-0.0003357178729984209
1.23195e-05	-0.0003272248189917752
1.23198e-05	-0.00031818973855335663
1.23200e-05	-0.00030903038505999763
1.23203e-05	-0.00029947175581543166
1.23205e-05	-0.0002898396639178898
1.23208e-05	-0.0002799346888646807
1.23210e-05	-0.0002698880818213584
1.23212e-05	-0.0002597577980537776
1.23215e-05	-0.0002496034096486052
1.23218e-05	-0.00023948446723251896
1.23220e-05	-0.00022946020144523646
1.23223e-05	-0.00021958702894213136
1.23225e-05	-0.0002099140516700077
1.23228e-05	-0.00020048876193935647
1.23230e-05	-0.00019136847210735487
1.23233e-05	-0.00018261808480869897
1.23235e-05	-0.00017430351750065005
1.23238e-05	-0.00016649063905986212
1.23240e-05	-0.00015924792080108818
1.23243e-05	-0.0001526685312429962
1.23245e-05	-0.00014690800420340594
1.23248e-05	-0.0001421306187501903
1.23250e-05	-0.0001384082830551547
1.23253e-05	-0.0001357431945385649
1.23255e-05	-0.0001341287611828071
1.23258e-05	-0.00013355838751615278
1.23260e-05	-0.00013402709041495945
1.23263e-05	-0.00013554537186859702
1.23265e-05	-0.00013816277920523852
1.23268e-05	-0.0001419343483287041
1.23270e-05	-0.0001468572269359016
1.23273e-05	-0.00015288490752409046
1.23275e-05	-0.0001599653704504162
1.23278e-05	-0.00016804661407823285
1.23280e-05	-0.00017718361123529873
1.23283e-05	-0.0001873575900431001
1.23285e-05	-0.00019794880653098472
1.23288e-05	-0.00020988056211099275
1.23290e-05	-0.00022217764655252503
1.23293e-05	-0.00023564849272261887
1.23295e-05	-0.0002494654961250229
1.23297e-05	-0.0002643946649049456
1.23300e-05	-0.0002793238336849694
1.23303e-05	-0.00029453399676739554
1.23305e-05	-0.0003106469638511379
1.23308e-05	-0.00032675993093498934
1.23310e-05	-0.0003429911033007954
1.23313e-05	-0.00035960205632631524
1.23315e-05	-0.00037620085423248345
1.23318e-05	-0.0003927605990683147
1.23320e-05	-0.00040921701675526354
1.23323e-05	-0.0004253414555988441
1.23325e-05	-0.0004412810357692128
1.23328e-05	-0.00045662668521371093
1.23330e-05	-0.0004716019529651817
1.23333e-05	-0.0004853872247929341
1.23335e-05	-0.0004991724966206865
1.23338e-05	-0.0005124419041286145
1.23340e-05	-0.0005240538959233944
1.23343e-05	-0.0005353819366718316
1.23345e-05	-0.0005457768936160502
1.23348e-05	-0.0005561050863455531
1.23350e-05	-0.0005664567442005712
1.23353e-05	-0.0005768837929407882
1.23355e-05	-0.0005873108416810758
1.23358e-05	-0.0005976401129243594
1.23360e-05	-0.0006076552357495714
1.23363e-05	-0.0006176331367604444
1.23365e-05	-0.0006274914481472233
1.23368e-05	-0.0006375190976040887
1.23370e-05	-0.0006480908117842999
1.23373e-05	-0.0006586625259645111
1.23375e-05	-0.0006693291887008522
1.23378e-05	-0.0006803009107774992
1.23380e-05	-0.0006912726328541462
1.23382e-05	-0.0007022443549307188
1.23385e-05	-0.0007133511097087839
1.23388e-05	-0.0007248917098074535
1.23390e-05	-0.0007364323099060448
1.23393e-05	-0.0007479729100047143
1.23395e-05	-0.000759585632549999
1.23398e-05	-0.0007714300766386369
1.23400e-05	-0.0007832745207271945
1.23403e-05	-0.0007951189648158323
1.23405e-05	-0.0008069634089044701
1.23408e-05	-0.0008188078529930277
1.23410e-05	-0.0008303386192560171
1.23413e-05	-0.0008417576605922772
1.23415e-05	-0.0008531767019284599
1.23418e-05	-0.00086459574326472
1.23420e-05	-0.00087601478460098
1.23423e-05	-0.0008871570990680541
1.23425e-05	-0.0008974103203303004
1.23428e-05	-0.0009076635415925468
1.23430e-05	-0.000917631980512079
1.23433e-05	-0.0009266854448701305
1.23435e-05	-0.0009357389092281822
1.23438e-05	-0.0009444485231439889
1.23440e-05	-0.0009520533831461639
1.23443e-05	-0.0009594318726186183
1.23445e-05	-0.0009660830583043419
1.23448e-05	-0.0009726656700968371
1.23450e-05	-0.0009790279614602154
1.23453e-05	-0.0009853902528235508
1.23455e-05	-0.0009915821123057775
1.23458e-05	-0.0009972263927692346
1.23460e-05	-0.0010028706732326535
1.23463e-05	-0.0010085149536961107
1.23465e-05	-0.0010140657582184854
1.23467e-05	-0.0010193162347519969
1.23470e-05	-0.001024566711285544
1.23473e-05	-0.001029817187819091
1.23475e-05	-0.001035010323323145
1.23478e-05	-0.0010400192283626245
1.23480e-05	-0.0010450281334021037
1.23483e-05	-0.001050037038441583
1.23485e-05	-0.0010550459434810284
1.23488e-05	-0.0010600548485205077
1.23490e-05	-0.0010650134152240206
1.23493e-05	-0.0010698102503522062
1.23495e-05	-0.0010746070854804242
1.23498e-05	-0.001079403920608642
1.23500e-05	-0.0010842007557368275
1.23503e-05	-0.0010889975908650454
1.23505e-05	-0.001093703333408906
1.23508e-05	-0.0010981164054286918
1.23510e-05	-0.0011025294774485073
1.23513e-05	-0.0011069425494683227
1.23515e-05	-0.0011113556214881082
1.23518e-05	-0.0011157686935079237
1.23520e-05	-0.0011201817655277391
1.23523e-05	-0.0011239874017600683
1.23525e-05	-0.0011275766831425373
1.23528e-05	-0.0011311659645250065
1.23530e-05	-0.0011347552459074512
1.23533e-05	-0.0011383445272899202
1.23535e-05	-0.0011419338086723892
1.23538e-05	-0.0011452843852335184
1.23540e-05	-0.0011478680292759309
1.23543e-05	-0.0011504516733183432
1.23545e-05	-0.0011527115585006327
1.23548e-05	-0.0011539312418274161
1.23550e-05	-0.0011551509251541997
1.23552e-05	-0.001155825283904873
1.23555e-05	-0.001154747574354663
1.23558e-05	-0.001153669864804453
1.23560e-05	-0.0011525921552542505
1.23563e-05	-0.0011515144457040405
1.23565e-05	-0.0011504367361538305
1.23568e-05	-0.0011470751779670493
1.23570e-05	-0.001142900164697182
1.23573e-05	-0.0011387251514272864
1.23575e-05	-0.001134550138157391
1.23578e-05	-0.0011303751248875236
1.23580e-05	-0.001125691158090721
1.23583e-05	-0.001119371979201526
1.23585e-05	-0.0011130528003123735
1.23588e-05	-0.0011064226566982395
1.23590e-05	-0.0010987934173874187
1.23593e-05	-0.0010911641780766495
1.23595e-05	-0.0010833377672343758
1.23598e-05	-0.0010748778657972125
1.23600e-05	-0.0010663083299513867
1.23603e-05	-0.001057386550724875
1.23605e-05	-0.0010483831570746323
1.23608e-05	-0.0010391175451951674
1.23610e-05	-0.0010298112711776622
1.23613e-05	-0.0010203743541520663
1.23615e-05	-0.0010109483798425647
1.23618e-05	-0.0010015575632844123
1.23620e-05	-0.000992228002447877
1.23623e-05	-0.0009830952495544461
1.23625e-05	-0.0009740659896084574
1.23628e-05	-0.0009653692411990372
1.23630e-05	-0.0009568262918344802
1.23633e-05	-0.0009487774820025182
1.23635e-05	-0.0009408796526369893
1.23637e-05	-0.0009336544599221608
1.23640e-05	-0.0009270318541979006
1.23643e-05	-0.000920737419422038
1.23645e-05	-0.00091549736205983
1.23648e-05	-0.0009107788591370103
1.23650e-05	-0.000907736053662752
1.23653e-05	-0.0009046932481884936
1.23655e-05	-0.0009025082687515763
1.23658e-05	-0.0009030793906789279
1.23660e-05	-0.0009036505126062795
1.23663e-05	-0.0009042216345336271
1.23665e-05	-0.0009047927564609786
1.23668e-05	-0.000906457146908942
1.23670e-05	-0.0009116340897044361
1.23673e-05	-0.0009168110324999652
1.23675e-05	-0.0009219879752954942
1.23678e-05	-0.0009271649180909883
1.23680e-05	-0.0009331147887642028
1.23683e-05	-0.0009415479922875605
1.23685e-05	-0.000949981195810861
1.23688e-05	-0.0009589087190298431
1.23690e-05	-0.0009694244374402555
1.23693e-05	-0.0009799401558505966
1.23695e-05	-0.0009908231644980767
1.23698e-05	-0.0010028862365611055
1.23700e-05	-0.0010149493086240525
1.23703e-05	-0.0010272520611700519
1.23705e-05	-0.0010403248809295004
1.23708e-05	-0.0010533977006888602
1.23710e-05	-0.0010665728643184983
1.23713e-05	-0.0010800768476248864
1.23715e-05	-0.001093580830931183
1.23718e-05	-0.001107017849973665
1.23720e-05	-0.0011202397201501592
1.23723e-05	-0.0011334615903265638
1.23725e-05	-0.0011464548240575796
1.23728e-05	-0.0011587134738612777
1.23730e-05	-0.0011709721236648927
1.23733e-05	-0.0011829079495292358
1.23735e-05	-0.0011938065773356907
1.23738e-05	-0.0012039891342538532
1.23740e-05	-0.001210502130863015
1.23743e-05	-0.001221057077101333
1.23745e-05	-0.004571238467133762
1.23748e-05	-0.01384610703635275
1.23750e-05	-0.01472295685201537
1.23753e-05	-0.012437289900325995
1.23755e-05	-0.009356132580428108
1.23758e-05	-0.002897772522357809
1.23760e-05	-6.597210938429567e-05
1.23763e-05	-0.000995403665065322
1.23765e-05	-0.0028084061836928364
1.23768e-05	-0.007386222010925277
1.23770e-05	-0.009920099583077291
1.23773e-05	-0.007944229843907677
1.23775e-05	-0.0057825217838331534
1.23778e-05	-0.00252041074849038
1.23780e-05	0.0009524879829251074
1.23783e-05	0.00019700583496616645
1.23785e-05	-0.00045133419593452713
1.23788e-05	-0.002407301443258872
1.23790e-05	-0.0048922897053464
1.23793e-05	-0.005607092027697987
1.23795e-05	-0.00466144926165954
1.23798e-05	-0.0028559007768118472
1.23800e-05	-0.0008761104107032334
1.23803e-05	-8.300493449524108e-05
1.23805e-05	-0.0004405517426139974
1.23808e-05	-0.0016973702308888828
1.23810e-05	-0.003263363142371527
1.23813e-05	-0.0037195817616491643
1.23815e-05	-0.0031349574872251663
1.23818e-05	-0.002011099563608027
1.23820e-05	-0.0007776053794624513
1.23823e-05	-0.00028698903453316704
1.23825e-05	-0.0005166650883766609
1.23828e-05	-0.0013091556432561898
1.23830e-05	-0.002294829116748386
1.23833e-05	-0.0025849146299547886
1.23835e-05	-0.0022226811031788632
1.23838e-05	-0.0015224057948379525
1.23840e-05	-0.000753227732073795
1.23843e-05	-0.0004490134381183428
1.23845e-05	-0.0005950728084119499
1.23848e-05	-0.001092125327504741
1.23850e-05	-0.0017083810517069668
1.23853e-05	-0.0018871881249727487
1.23855e-05	-0.0016557923485595706
1.23858e-05	-0.0012111872766549254
1.23860e-05	-0.0007220740677868234
1.23863e-05	-0.0005229545694511882
1.23865e-05	-0.0006046997828176973
1.23868e-05	-0.0009051956732702763
1.23870e-05	-0.0012793332890613579
1.23873e-05	-0.0013785324511940383
1.23875e-05	-0.001219980135250477
1.23878e-05	-0.0009271864426837124
1.23880e-05	-0.0006059279606322209
1.23883e-05	-0.000465823943233144
1.23885e-05	-0.0005012340068181518
1.23888e-05	-0.0006733297423394679
1.23890e-05	-0.0008913006139816043
1.23893e-05	-0.0009368956777732005
1.23895e-05	-0.0008209895778483517
1.23898e-05	-0.0006210531134332913
1.23900e-05	-0.0004034423128343001
1.23903e-05	-0.00029955089847138035
1.23905e-05	-0.0003059282537261765
1.23908e-05	-0.00039833603261005415
1.23910e-05	-0.000519977902939149
1.23913e-05	-0.0005342378357727057
1.23915e-05	-0.0004480295786672757
1.23918e-05	-0.00030998009845705757
1.23920e-05	-0.00016174985482202972
1.23923e-05	-8.573309989906461e-05
