Time(s)	Current(A)
9.75000e-06	-0.012493746608527742
9.75025e-06	-0.012500238858195387
9.75050e-06	-0.012506731107863031
9.75075e-06	-0.01251322335753063
9.75100e-06	-0.012519715607198275
9.75125e-06	-0.01252620785686592
9.75150e-06	-0.012532700106533564
9.75175e-06	-0.012539192356201165
9.75200e-06	-0.01254568460586881
9.75225e-06	-0.012552176855536454
9.75250e-06	-0.012558669105204054
9.75275e-06	-0.012565161354871698
9.75300e-06	-0.012571653604539343
9.75325e-06	-0.012578145854206944
9.75350e-06	-0.012584638103874588
9.75375e-06	-0.012591130353542233
9.75400e-06	-0.012597622603209834
9.75425e-06	-0.012604114852877478
9.75450e-06	-0.012610607102545123
9.75475e-06	-0.012617099352212722
9.75500e-06	-0.012621868607249953
9.75525e-06	-0.012626124285754659
9.75550e-06	-0.012629764378420125
9.75575e-06	-0.012633220982155823
9.75600e-06	-0.012633987088342454
9.75625e-06	-0.012633951232423331
9.75650e-06	-0.012629722385546074
9.75675e-06	-0.012624243725280444
9.75700e-06	-0.012618765065014852
9.75725e-06	-0.012608785262138466
9.75750e-06	-0.012597463794480583
9.75775e-06	-0.012586142326822775
9.75800e-06	-0.012569199034641723
9.75825e-06	-0.01255058003373001
9.75850e-06	-0.012531961032818425
9.75875e-06	-0.012507789198333896
9.75900e-06	-0.012481962219392281
9.75925e-06	-0.012456135240450843
9.75950e-06	-0.012426424431604135
9.75975e-06	-0.012392924628926051
9.76000e-06	-0.01235942482624797
9.76025e-06	-0.012325925023570114
9.76050e-06	-0.01229084466424105
9.76075e-06	-0.0122489008541408
9.76100e-06	-0.012206957044040833
9.76125e-06	-0.012165013233940583
9.76150e-06	-0.012123069423840331
9.76175e-06	-0.012079246383698887
9.76200e-06	-0.012034988432150536
9.76225e-06	-0.011989051035204437
9.76250e-06	-0.011941739814648165
9.76275e-06	-0.011894680262713123
9.76300e-06	-0.011847837611596456
9.76325e-06	-0.011801433761554249
9.76350e-06	-0.011755775435208891
9.76375e-06	-0.011711228185132608
9.76400e-06	-0.011668099292748604
9.76425e-06	-0.011625591871992967
9.76450e-06	-0.011584021264342374
9.76475e-06	-0.011544531620689772
9.76500e-06	-0.011507225822647666
9.76525e-06	-0.011472366338054622
9.76550e-06	-0.011440278219654732
9.76575e-06	-0.011411347386350773
9.76600e-06	-0.011385890288860986
9.76625e-06	-0.011363393209726411
9.76650e-06	-0.01134393619182463
9.76675e-06	-0.011328097209677614
9.76700e-06	-0.011315800948985745
9.76725e-06	-0.01130707416408762
9.76750e-06	-0.011301977953977421
9.76775e-06	-0.011302266500556159
9.76800e-06	-0.011303299802952698
9.76825e-06	-0.011311700813806844
9.76850e-06	-0.011321220482723748
9.76875e-06	-0.011330740151640588
9.76900e-06	-0.011350702876530522
9.76925e-06	-0.01137225119738026
9.76950e-06	-0.01139379951822985
9.76975e-06	-0.011415347839079586
9.77000e-06	-0.011441226707390754
9.77025e-06	-0.011474537011475943
9.77050e-06	-0.011507847315561356
9.77075e-06	-0.01154115761964677
9.77100e-06	-0.011574467923731959
9.77125e-06	-0.0116138184200234
9.77150e-06	-0.011654086014182049
9.77175e-06	-0.011694353608340424
9.77200e-06	-0.011737426626651145
9.77225e-06	-0.011780925599702851
9.77250e-06	-0.011824424572754264
9.77275e-06	-0.011868681972510156
9.77300e-06	-0.011913054526136852
9.77325e-06	-0.011957427079763248
9.77350e-06	-0.012000916958387745
9.77375e-06	-0.012044272818203819
9.77400e-06	-0.012085792444495957
9.77425e-06	-0.01212703327074508
9.77450e-06	-0.012165314777444869
9.77475e-06	-0.012203146963070642
9.77500e-06	-0.012237032176461712
9.77525e-06	-0.012270318110939756
9.77550e-06	-0.01229738179307016
9.77575e-06	-0.01232350073467525
9.77600e-06	-0.012349619676280342
9.77625e-06	-0.012367845212453626
9.77650e-06	-0.012384872272644462
9.77675e-06	-0.012401899332835298
9.77700e-06	-0.012410600409463686
9.77725e-06	-0.012418037330662815
9.77750e-06	-0.012425474251861994
9.77775e-06	-0.012421133826107818
9.77800e-06	-0.012415005215572743
9.77825e-06	-0.012408876605037627
9.77850e-06	-0.01240274799450251
9.77875e-06	-0.012396619383967435
9.77900e-06	-0.012384837541148235
9.77925e-06	-0.012363354469322487
9.77950e-06	-0.012341871397496885
9.77975e-06	-0.012320388325671137
9.78000e-06	-0.012298905253845391
9.78025e-06	-0.01227742218201979
9.78050e-06	-0.012247840282216538
9.78075e-06	-0.012217028716598818
9.78100e-06	-0.012186217150981307
9.78125e-06	-0.0121513288396895
9.78150e-06	-0.012115821545650569
9.78175e-06	-0.012080314251611877
9.78200e-06	-0.012042523322368909
9.78225e-06	-0.012004385662938405
9.78250e-06	-0.011965318162666206
9.78275e-06	-0.011926109482274894
9.78300e-06	-0.011886674405852499
9.78325e-06	-0.011847296322110248
9.78350e-06	-0.011808211063101561
9.78375e-06	-0.011769654101038104
9.78400e-06	-0.011731887302659597
9.78425e-06	-0.011695163157983229
9.78450e-06	-0.011659731384224574
9.78475e-06	-0.011625847235734638
9.78500e-06	-0.011593757123533922
9.78525e-06	-0.01156370598545979
9.78550e-06	-0.01153603336054807
9.78575e-06	-0.011511652672996938
9.78600e-06	-0.011491939088286326
9.78625e-06	-0.011477678134733018
9.78650e-06	-0.011468938582098126
9.78675e-06	-0.011465624131633543
9.78700e-06	-0.01146761878711354
9.78725e-06	-0.011474809244679932
9.78750e-06	-0.011489523444372008
9.78775e-06	-0.011505276300060395
9.78800e-06	-0.011531450245914914
9.78825e-06	-0.011559206452606179
9.78850e-06	-0.011599710911999862
9.78875e-06	-0.011642150971283943
9.78900e-06	-0.011684591030568313
9.78925e-06	-0.01174424910095808
9.78950e-06	-0.011806521426115778
9.78975e-06	-0.011868793751273898
9.79000e-06	-0.011931066076432016
9.79025e-06	-0.011993338401589714
9.79050e-06	-0.012072717372567203
9.79075e-06	-0.01215469368943646
9.79100e-06	-0.012236670006305165
9.79125e-06	-0.012318646323174424
9.79150e-06	-0.012400622640043683
9.79175e-06	-0.01249049123036312
9.79200e-06	-0.01258155812479503
9.79225e-06	-0.01267262501922694
9.79250e-06	-0.012765807368953296
9.79275e-06	-0.012859310913681256
9.79300e-06	-0.012952814458409219
9.79325e-06	-0.013044853571190356
9.79350e-06	-0.01313667033551526
9.79375e-06	-0.013225259743561583
9.79400e-06	-0.01331335913382991
9.79425e-06	-0.013396610819082465
9.79450e-06	-0.013479126464854684
9.79475e-06	-0.013554695390980857
9.79500e-06	-0.013629209578852762
9.79525e-06	-0.01369461496498253
9.79550e-06	-0.01375863733839061
9.79575e-06	-0.013808992264258815
9.79600e-06	-0.013857272026526882
9.79625e-06	-0.013905551788794948
9.79650e-06	-0.013936383155045121
9.79675e-06	-0.013964565286593844
9.79700e-06	-0.013992747418142566
9.79725e-06	-0.014002533524572267
9.79750e-06	-0.014009526515344229
9.79775e-06	-0.014016519506116189
9.79800e-06	-0.013999515272249213
9.79825e-06	-0.013978867478240958
9.79850e-06	-0.013958219684232703
9.79875e-06	-0.013937571890224588
9.79900e-06	-0.013916924096216332
9.79925e-06	-0.013869926068153217
9.79950e-06	-0.01381892721649658
9.79975e-06	-0.013767928364839596
9.80000e-06	-0.013716929513182614
9.80025e-06	-0.013665930661525976
9.80050e-06	-0.013598214295705352
9.80075e-06	-0.013527959666848374
9.80100e-06	-0.013457705037991874
9.80125e-06	-0.01337972612693014
9.80150e-06	-0.013300574418297432
9.80175e-06	-0.013216877000784631
9.80200e-06	-0.013132489396637435
9.80225e-06	-0.013045742018145146
9.80250e-06	-0.012957644249313574
9.80275e-06	-0.012868834708699803
9.80300e-06	-0.012779810599792156
9.80325e-06	-0.012691069248846073
9.80350e-06	-0.012603109599231502
9.80375e-06	-0.012516453479450344
9.80400e-06	-0.012431660923397193
9.80425e-06	-0.012349309372234203
9.80450e-06	-0.012269973257258128
9.80475e-06	-0.012194226273175506
9.80500e-06	-0.012122640497578272
9.80525e-06	-0.012055790188198008
9.80550e-06	-0.011994193372056
9.80575e-06	-0.011937979460691684
9.80600e-06	-0.011886821547216427
9.80625e-06	-0.011840507658363664
9.80650e-06	-0.011799133030308363
9.80675e-06	-0.011762877543768174
9.80700e-06	-0.011734320792729343
9.80725e-06	-0.011706830012972031
9.80750e-06	-0.011689051218667472
9.80775e-06	-0.01167274702001491
9.80800e-06	-0.011667455775436715
9.80825e-06	-0.01166383665591175
9.80850e-06	-0.011660217536386788
9.80875e-06	-0.011672705200778762
9.80900e-06	-0.011687638399469196
9.80925e-06	-0.011702571598159631
9.80950e-06	-0.011717504796849965
9.80975e-06	-0.0117324379955404
9.81000e-06	-0.011763951630986971
9.81025e-06	-0.011797982716656781
9.81050e-06	-0.011832013802326822
9.81075e-06	-0.011866044887996863
9.81100e-06	-0.011900075973666904
9.81125e-06	-0.011943571275895142
9.81150e-06	-0.011988503554389181
9.81175e-06	-0.012033435832883221
9.81200e-06	-0.012082580694668742
9.81225e-06	-0.01213236516377653
9.81250e-06	-0.012182149632884316
9.81275e-06	-0.012233463622796672
9.81300e-06	-0.012285009843774774
9.81325e-06	-0.012336556064752875
9.81350e-06	-0.012387132556064369
9.81375e-06	-0.012437561810834647
9.81400e-06	-0.012487991065604926
9.81425e-06	-0.012535315056242096
9.81450e-06	-0.012582167566664564
9.81475e-06	-0.012624997100471333
9.81500e-06	-0.012667215815423516
9.81525e-06	-0.012702587128513685
9.81550e-06	-0.012736918783022593
9.81575e-06	-0.01277125043753127
9.81600e-06	-0.012795566493338966
9.81625e-06	-0.012818361855116114
9.81650e-06	-0.012841157216893105
9.81675e-06	-0.012853198228158376
9.81700e-06	-0.012863606378811444
9.81725e-06	-0.01287401452946444
9.81750e-06	-0.01287322739638325
9.81775e-06	-0.012870740454668158
9.81800e-06	-0.01286825351295308
9.81825e-06	-0.01285146572689997
9.81850e-06	-0.012832506606984007
9.81875e-06	-0.012813547487068174
9.81900e-06	-0.012794588367152212
9.81925e-06	-0.012775629247236249
9.81950e-06	-0.012741271801270021
9.81975e-06	-0.012704576387978766
9.82000e-06	-0.012667880974687261
9.82025e-06	-0.012631185561395758
9.82050e-06	-0.012594490148104502
9.82075e-06	-0.012548364315948366
9.82100e-06	-0.012500806639116485
9.82125e-06	-0.012453248962284925
9.82150e-06	-0.01240153422309294
9.82175e-06	-0.012349188306464103
9.82200e-06	-0.01229458651509795
9.82225e-06	-0.012239642208485935
9.82250e-06	-0.012183504067088914
9.82275e-06	-0.012127184662695861
9.82300e-06	-0.012070648160679825
9.82325e-06	-0.012014295389519081
9.82350e-06	-0.011958464696603189
9.82375e-06	-0.011903473171868045
9.82400e-06	-0.01184965941880057
9.82425e-06	-0.011797373318358539
9.82450e-06	-0.01174697244760989
9.82475e-06	-0.01169996513416087
9.82500e-06	-0.011653434395688247
9.82525e-06	-0.011619495819861369
9.82550e-06	-0.01158746914437594
9.82575e-06	-0.011555442468890727
9.82600e-06	-0.011523415793405298
9.82625e-06	-0.011491389117919868
9.82650e-06	-0.011459362442434656
9.82675e-06	-0.011427335766949227
9.82700e-06	-0.011395309091463798
9.82725e-06	-0.011363282415978586
9.82750e-06	-0.011331255740493157
9.82775e-06	-0.011305005065918033
9.82800e-06	-0.011288666297458533
9.82825e-06	-0.011272327528999142
9.82850e-06	-0.01125598876053964
9.82875e-06	-0.011239649992080138
9.82900e-06	-0.011223311223620747
9.82925e-06	-0.011206972455161245
9.82950e-06	-0.011190633686701743
9.82975e-06	-0.011174294918242351
9.83000e-06	-0.011157956149782851
9.83025e-06	-0.011141617381323349
9.83050e-06	-0.011132408543201706
9.83075e-06	-0.011124282260685058
9.83100e-06	-0.01111615597816841
9.83125e-06	-0.011108029695651818
9.83150e-06	-0.01109990341313517
9.83175e-06	-0.011091777130618522
9.83200e-06	-0.01108365084810193
9.83225e-06	-0.011075524565585282
9.83250e-06	-0.011068803793463962
9.83275e-06	-0.011064494947397011
9.83300e-06	-0.011060186101330033
9.83325e-06	-0.011055877255263052
9.83350e-06	-0.011051568409196102
9.83375e-06	-0.011047259563129122
9.83400e-06	-0.011042950717062142
9.83425e-06	-0.011038641870995191
9.83450e-06	-0.011034333024928211
9.83475e-06	-0.011030717588049433
9.83500e-06	-0.01102727373496052
9.83525e-06	-0.011023915953009727
9.83550e-06	-0.011020793681358361
9.83575e-06	-0.011018961105115691
9.83600e-06	-0.01102026637460581
9.83625e-06	-0.011025787809050041
9.83650e-06	-0.011035562005273915
9.83675e-06	-0.011049371825429527
9.83700e-06	-0.011068518430731235
9.83725e-06	-0.011088395182779966
9.83750e-06	-0.011114456993539546
9.83775e-06	-0.011141457897622798
9.83800e-06	-0.011178854422314862
9.83825e-06	-0.011217829340739682
9.83850e-06	-0.011256804259164765
9.83875e-06	-0.01131081688710259
9.83900e-06	-0.011367112729034505
9.83925e-06	-0.011423408570966801
9.83950e-06	-0.011479704412899099
9.83975e-06	-0.011536000254831013
9.84000e-06	-0.011607757005142313
9.84025e-06	-0.011681861224817377
9.84050e-06	-0.011755965444491938
9.84075e-06	-0.011830069664167003
9.84100e-06	-0.011904173883842068
9.84125e-06	-0.011986475957702357
9.84150e-06	-0.012070022732785103
9.84175e-06	-0.012153569507867851
9.84200e-06	-0.012240309006025043
9.84225e-06	-0.012327533263514087
9.84250e-06	-0.012414757521003133
9.84275e-06	-0.012502062903736021
9.84300e-06	-0.012589380603923388
9.84325e-06	-0.012676698304110752
9.84350e-06	-0.012760145440725052
9.84375e-06	-0.012843004899747735
9.84400e-06	-0.012925864358770415
9.84425e-06	-0.01300330230664836
9.84450e-06	-0.013079917092587816
9.84475e-06	-0.01314803731078168
9.84500e-06	-0.013214867776972653
9.84525e-06	-0.013281698243163173
9.84550e-06	-0.013335388845427832
9.84575e-06	-0.01338708438845873
9.84600e-06	-0.013438779931489278
9.84625e-06	-0.013469972118189321
9.84650e-06	-0.01349805122772184
9.84675e-06	-0.01352613033725417
9.84700e-06	-0.013554209446786689
9.84725e-06	-0.013582288556319209
9.84750e-06	-0.013610367665851539
9.84775e-06	-0.013638446775384058
9.84800e-06	-0.013638613333445038
9.84825e-06	-0.013634541857241002
9.84850e-06	-0.01363047038103694
9.84875e-06	-0.013626398904832877
9.84900e-06	-0.013622327428628843
9.84925e-06	-0.013618255952424779
9.84950e-06	-0.013614184476220717
9.84975e-06	-0.01358885890864241
9.85000e-06	-0.013560306277869453
9.85025e-06	-0.013531753647096495
9.85050e-06	-0.013503201016323732
9.85075e-06	-0.013474648385550774
9.85100e-06	-0.013446095754777817
9.85125e-06	-0.013412504505172118
9.85150e-06	-0.01337026673392697
9.85175e-06	-0.01332802896268182
9.85200e-06	-0.013285791191436956
9.85225e-06	-0.013243553420191807
9.85250e-06	-0.013201315648946657
9.85275e-06	-0.013159077877701795
9.85300e-06	-0.013114038559234674
9.85325e-06	-0.013068573874668811
9.85350e-06	-0.013023109190102949
9.85375e-06	-0.01297847314196262
9.85400e-06	-0.01293396290781531
9.85425e-06	-0.012891613947206417
9.85450e-06	-0.01284959313830134
9.85475e-06	-0.012810790387264603
9.85500e-06	-0.01277247624220621
9.85525e-06	-0.012738388425911691
9.85550e-06	-0.012704942303950813
9.85575e-06	-0.012678123251998488
9.85600e-06	-0.012652310405079761
9.85625e-06	-0.01262649755816086
9.85650e-06	-0.012609462947823162
9.85675e-06	-0.01259376115965611
9.85700e-06	-0.01257805937148895
9.85725e-06	-0.012576899029415063
9.85750e-06	-0.012577946552390907
9.85775e-06	-0.012578994075366756
9.85800e-06	-0.012580041598342607
9.85825e-06	-0.01258108912131845
9.85850e-06	-0.012582136644294301
9.85875e-06	-0.012590904760089588
9.85900e-06	-0.01261292179887498
9.85925e-06	-0.01263493883766052
9.85950e-06	-0.012656955876446059
9.85975e-06	-0.01267897291523145
9.86000e-06	-0.012700989954016991
9.86025e-06	-0.012723006992802531
9.86050e-06	-0.012758368193940639
9.86075e-06	-0.012795755473468166
9.86100e-06	-0.012833142752995694
9.86125e-06	-0.012870530032522969
9.86150e-06	-0.012907917312050496
9.86175e-06	-0.012945304591578024
9.86200e-06	-0.012982691871105298
9.86225e-06	-0.01302484651970697
9.86250e-06	-0.013067725010180513
9.86275e-06	-0.013110603500654057
9.86300e-06	-0.013153481991127309
9.86325e-06	-0.013196360481600852
9.86350e-06	-0.013239238972074394
9.86375e-06	-0.013282117462547647
9.86400e-06	-0.013322027123300434
9.86425e-06	-0.013361486019023459
9.86450e-06	-0.013400944914746216
9.86475e-06	-0.013435340624948656
9.86500e-06	-0.01346896757870944
9.86525e-06	-0.013502594532469995
9.86550e-06	-0.013528510545224559
9.86575e-06	-0.013553255786032092
9.86600e-06	-0.013578001026839459
9.86625e-06	-0.01359225335065115
9.86650e-06	-0.013604912507967068
9.86675e-06	-0.013617571665282902
9.86700e-06	-0.013613497865000159
9.86725e-06	-0.013606883456854804
9.86750e-06	-0.013600269048709493
9.86775e-06	-0.013593654640564137
9.86800e-06	-0.01358704023241878
9.86825e-06	-0.01358042582427347
9.86850e-06	-0.013551970667600648
9.86875e-06	-0.013520199374069751
9.86900e-06	-0.013488428080539069
9.86925e-06	-0.013456656787008171
9.86950e-06	-0.013424885493477274
9.86975e-06	-0.013393114199946592
9.87000e-06	-0.013344463158923273
9.87025e-06	-0.013293249222551037
9.87050e-06	-0.013242035286179146
9.87075e-06	-0.01319082134980691
9.87100e-06	-0.013139607413434673
9.87125e-06	-0.013084357653887008
9.87150e-06	-0.013022182220143346
9.87175e-06	-0.012960006786399263
9.87200e-06	-0.01289783135265518
9.87225e-06	-0.012835655918911516
9.87250e-06	-0.012773480485167433
9.87275e-06	-0.012708982764733999
9.87300e-06	-0.012644132445557526
9.87325e-06	-0.012579990422534519
9.87350e-06	-0.01251595594193297
9.87375e-06	-0.01245383652918632
9.87400e-06	-0.012392007886102747
9.87425e-06	-0.012332368007503886
9.87450e-06	-0.01227497916099229
9.87475e-06	-0.0122214696093993
9.87500e-06	-0.012168504828919631
9.87525e-06	-0.012121494668332232
9.87550e-06	-0.012075388612953318
9.87575e-06	-0.012036048564669999
9.87600e-06	-0.011997735816595727
9.87625e-06	-0.011966069409143252
9.87650e-06	-0.01193541213263206
9.87675e-06	-0.011913507488387886
9.87700e-06	-0.011892931778746906
9.87725e-06	-0.011872356069105926
9.87750e-06	-0.011862798299636402
9.87775e-06	-0.011854913412278812
9.87800e-06	-0.011847028524921224
9.87825e-06	-0.011854119869768618
9.87850e-06	-0.011863485094358533
9.87875e-06	-0.011872850318948447
9.87900e-06	-0.0118822155435383
9.87925e-06	-0.011891580768128213
9.87950e-06	-0.011900945992718128
9.87975e-06	-0.011926834084778943
9.88000e-06	-0.011955230886180954
9.88025e-06	-0.011983627687583157
9.88050e-06	-0.01201202448898536
9.88075e-06	-0.012040421290387371
9.88100e-06	-0.012068818091789576
9.88125e-06	-0.012107680433267327
9.88150e-06	-0.012148131784533694
9.88175e-06	-0.012188583135800336
9.88200e-06	-0.012229034487066977
9.88225e-06	-0.012269485838333344
9.88250e-06	-0.012309937189599983
9.88275e-06	-0.012351074121785639
9.88300e-06	-0.01239338754507964
9.88325e-06	-0.012435700968373927
9.88350e-06	-0.012478014391668216
9.88375e-06	-0.012520327814962215
9.88400e-06	-0.012562641238256504
9.88425e-06	-0.012604954661550791
9.88450e-06	-0.012642013250523701
9.88475e-06	-0.012678273984525496
9.88500e-06	-0.012714534718527291
9.88525e-06	-0.012743992251800071
9.88550e-06	-0.012772416837659053
9.88575e-06	-0.012800841423518033
9.88600e-06	-0.012818828343794848
9.88625e-06	-0.012835230486538155
9.88650e-06	-0.012851632629281462
9.88675e-06	-0.012856221481035789
9.88700e-06	-0.012859016690523074
9.88725e-06	-0.012861811900010359
9.88750e-06	-0.012852594913424439
9.88775e-06	-0.012841554084302324
9.88800e-06	-0.012830513255180207
9.88825e-06	-0.012803087498455431
9.88850e-06	-0.012773173976152529
9.88875e-06	-0.012743260453849424
9.88900e-06	-0.01271334693154632
9.88925e-06	-0.012683433409243418
9.88950e-06	-0.012636085128600266
9.88975e-06	-0.012586089683885244
9.89000e-06	-0.01253609423917056
9.89025e-06	-0.012486098794455535
9.89050e-06	-0.012436103349740513
9.89075e-06	-0.012375276364254032
9.89100e-06	-0.012312804798153118
9.89125e-06	-0.012250333232052203
9.89150e-06	-0.012183355845898624
9.89175e-06	-0.012115694329530234
9.89200e-06	-0.012045543265379195
9.89225e-06	-0.011975014206804042
9.89250e-06	-0.011903358019417437
9.89275e-06	-0.011831250936363183
9.89300e-06	-0.011759175763775507
9.89325e-06	-0.01168754122949836
9.89350e-06	-0.01161675052424172
9.89375e-06	-0.011547175254182664
9.89400e-06	-0.011479166997826834
9.89425e-06	-0.011413121897460871
9.89450e-06	-0.011349485260737181
9.89475e-06	-0.011288713630447091
9.89500e-06	-0.011231264285975186
9.89525e-06	-0.011177594506705961
9.89550e-06	-0.011128185828740398
9.89575e-06	-0.011083648797514502
9.89600e-06	-0.011044618646989744
9.89625e-06	-0.011011446858330907
9.89650e-06	-0.010984228240195648
9.89675e-06	-0.010962998508807113
9.89700e-06	-0.010947792563361858
9.89725e-06	-0.010941296244793588
