Time(s)	Current(A)
0.00000e+00	-3.0770070674819517e-21
2.50000e-10	-8.05587212763242e-15
5.00000e-10	-3.662033331202236e-15
7.50000e-10	9.425343845110847e-07
1.00000e-09	6.410293479551904e-06
1.25000e-09	1.9273837992585835e-05
1.50000e-09	3.735627256040027e-05
1.75000e-09	5.728113069218218e-05
2.00000e-09	7.802107620816078e-05
2.25000e-09	9.945978522958083e-05
2.50000e-09	0.00012148093815245701
2.75000e-09	0.0001445585802568333
3.00000e-09	0.00017082044015134812
3.25000e-09	0.00020194799789130297
3.50000e-09	0.00023646098014613642
3.75000e-09	0.00027212784928725255
4.00000e-09	0.0003081887413497747
4.25000e-09	0.00034443960092612124
4.50000e-09	0.00038072913801879215
4.75000e-09	0.0004178725583356251
5.00000e-09	0.00045540089997168676
5.25000e-09	0.000495600803794864
5.50000e-09	0.0005370050189481707
5.75000e-09	0.0005779249490100996
6.00000e-09	0.0006186265685923504
6.25000e-09	0.0006578000852563038
6.50000e-09	0.0006962847496573433
6.75000e-09	0.0007333295380499847
7.00000e-09	0.0007697252459161619
7.25000e-09	0.0008054990323042352
7.50000e-09	0.0008409924632185928
7.75000e-09	0.0008735665824375904
8.00000e-09	0.000904824707528562
8.25000e-09	0.000932254410623397
8.50000e-09	0.0009579583025023444
8.75000e-09	0.0009802815670833759
9.00000e-09	0.0010010808814537547
9.25000e-09	0.0010195358435341004
9.50000e-09	0.001036933996965814
9.75000e-09	0.0010507828929484941
1.00000e-08	0.0010630318220728194
1.02500e-08	0.001071381354483586
1.05000e-08	0.0010779730810437317
1.07500e-08	0.0010805556789218898
1.10000e-08	0.0010813310049652572
1.12500e-08	0.0010821063310086246
1.15000e-08	0.0010786813500045336
1.17500e-08	0.00107336291602687
1.20000e-08	0.0010680444820492065
1.22500e-08	0.0010581911554803736
1.25000e-08	0.0010462935483947682
1.27500e-08	0.0010343959413091628
1.30000e-08	0.0010192987078349299
1.32500e-08	0.00100275911740169
1.35000e-08	0.00098621952696845
1.37500e-08	0.000966935032469379
1.40000e-08	0.0009464131649147442
1.42500e-08	0.0009258912973601095
1.45000e-08	0.0009029905771426255
1.47500e-08	0.0008790174958817058
1.50000e-08	0.0008550444146207861
1.52500e-08	0.0008310713333598665
1.55000e-08	0.0008070982520989469
1.57500e-08	0.0007825952316307899
1.60000e-08	0.000757853320301461
1.62500e-08	0.000733111408972132
1.65000e-08	0.0007083694976428028
1.67500e-08	0.0006836275863134738
1.70000e-08	0.0006604394074386149
1.72500e-08	0.0006379516343442884
1.75000e-08	0.0006154638612499621
1.77500e-08	0.0005949378630471492
1.80000e-08	0.0005752962117408476
1.82500e-08	0.0005577681947412343
1.85000e-08	0.0005411929812195153
1.87500e-08	0.0005268351960089905
1.90000e-08	0.0005153103097302643
1.92500e-08	0.0005064966400371039
1.95000e-08	0.0005003659961456453
1.97500e-08	0.0004968547270570346
2.00000e-08	0.0004959339515465329
2.02500e-08	0.0004975923369645392
2.05000e-08	0.0005018844291813784
2.07500e-08	0.0005089636114581158
2.10000e-08	0.0005189571952348759
2.12500e-08	0.0005318463966440163
2.15000e-08	0.0005483725649106338
2.17500e-08	0.0005661358258954273
2.20000e-08	0.0005872372055783018
2.22500e-08	0.000609843373054926
2.25000e-08	0.0006355420160937251
2.27500e-08	0.0006626347136582376
2.30000e-08	0.0006926774358328566
2.32500e-08	0.0007240499971851845
2.35000e-08	0.000758367006276097
2.37500e-08	0.0007940113405513724
2.40000e-08	0.0008296556748266483
2.42500e-08	0.0008674275254053494
2.45000e-08	0.0009061584373158833
2.47500e-08	0.0009460868519912039
2.50000e-08	0.0009865550879570226
2.52500e-08	0.0010276982056197108
2.55000e-08	0.0010691455526497544
2.57500e-08	0.0011106632725765531
2.60000e-08	0.0011520317684297207
2.62500e-08	0.0011929696391589633
2.65000e-08	0.0012332487222451725
2.67500e-08	0.001272665357670186
2.70000e-08	0.0013110093714094205
2.72500e-08	0.0013480345852148563
2.75000e-08	0.001383465861996777
2.77500e-08	0.0014170226158701893
2.80000e-08	0.0014484296384812525
2.82500e-08	0.00147740820249206
2.85000e-08	0.001503591589950251
2.87500e-08	0.0015265108463725155
2.90000e-08	0.0015458121715190244
2.92500e-08	0.001561366145159348
2.95000e-08	0.0015731454294006502
2.97500e-08	0.0015811375711190458
3.00000e-08	0.0015840198904158642
3.02500e-08	0.0015851297358865013
3.05000e-08	0.0015808402870539113
3.07500e-08	0.0015741168947647794
3.10000e-08	0.001560512646052432
3.12500e-08	0.0015438065817089792
3.15000e-08	0.0015271005173655267
3.17500e-08	0.0015028894818187657
3.20000e-08	0.0014752952864503764
3.22500e-08	0.001447701091081987
3.25000e-08	0.0014134433500466283
3.27500e-08	0.0013761817547179793
3.30000e-08	0.0013389201593893294
3.32500e-08	0.0012960203603261293
3.35000e-08	0.0012505789200195254
3.37500e-08	0.0012051374797129215
3.40000e-08	0.0011556328404807746
3.42500e-08	0.0011042965551330349
3.45000e-08	0.0010529602697852934
3.47500e-08	0.000999067008905586
3.50000e-08	0.00094402109112017
3.52500e-08	0.000888975173334754
3.55000e-08	0.0008331816070468346
3.57500e-08	0.0007770510089028497
3.60000e-08	0.0007209204107588633
3.62500e-08	0.0006656266949167637
3.65000e-08	0.000610710236562064
3.67500e-08	0.00057669495601533
3.70000e-08	-0.000496044264936286
3.72500e-08	-0.009443846788121373
3.75000e-08	-0.013675755353312145
3.77500e-08	-0.01176089445647424
3.80000e-08	-0.009266275420830758
3.82500e-08	-0.002405508169350079
3.85000e-08	0.0015703856632305997
3.87500e-08	0.0014487185211604406
3.90000e-08	0.000350421014644245
3.92500e-08	-0.004785059013109821
3.95000e-08	-0.007869986262324755
3.97500e-08	-0.006916009382695294
4.00000e-08	-0.005721038950409292
4.02500e-08	-0.0018785684362561065
4.05000e-08	0.0011890057680430572
4.07500e-08	0.0020656062737377415
4.10000e-08	0.0009962772656697011
4.12500e-08	-0.0014309771209352197
4.15000e-08	-0.003475308383932641
4.17500e-08	-0.003757692928354104
4.20000e-08	-0.0025980679833789615
4.22500e-08	-0.0006061662387538776
4.25000e-08	0.001135683161073849
4.27500e-08	0.0016678806279518915
4.30000e-08	0.0009837967481627747
4.32500e-08	-0.0005485338845903182
4.35000e-08	-0.0018389517090440367
4.37500e-08	-0.002023988984198915
4.40000e-08	-0.0013043976660591945
4.42500e-08	-6.239820989532158e-05
4.45000e-08	0.0010238317445310547
4.47500e-08	0.0013530739959217147
4.50000e-08	0.0009210978133584487
4.52500e-08	-4.163126802449158e-05
4.55000e-08	-0.000852336352585778
4.57500e-08	-0.0009702832417984481
4.60000e-08	-0.0005213713609422488
4.62500e-08	0.00025485461887198106
4.65000e-08	0.0009335010887907369
4.67500e-08	0.0011379253073689893
4.70000e-08	0.0008654600091871408
4.72500e-08	0.0002604500581049988
4.75000e-08	-0.00024945429543073134
4.77500e-08	-0.00032560928675055324
4.80000e-08	-4.6958250125079143e-05
4.82500e-08	0.0004363832326245469
4.85000e-08	0.0008582365968579002
4.87500e-08	0.000982708280651657
4.90000e-08	0.0008081906944224274
4.92500e-08	0.00042514769924939457
4.95000e-08	0.00010147779563950021
4.97500e-08	4.9303106450556966e-05
5.00000e-08	0.00021916329718335423
5.02500e-08	0.0005170231675458186
5.05000e-08	0.0007761584660514963
5.07500e-08	0.0008488303647219632
5.10000e-08	0.0007340637887504508
5.12500e-08	0.0004885549362467191
5.15000e-08	0.00028013500784990534
5.17500e-08	0.00024168353672481392
5.20000e-08	0.000342220736453673
5.22500e-08	0.0005228495781386382
5.25000e-08	0.0006791483649149091
5.27500e-08	0.0007185969615133902
5.30000e-08	0.000640612311098821
5.32500e-08	0.0004807351374414763
5.35000e-08	0.00034411459855618776
5.37500e-08	0.00031399768463825987
5.40000e-08	0.0003709873240583907
5.42500e-08	0.0004782017140930936
5.45000e-08	0.0005702472269779111
5.47500e-08	0.0005891910381493027
5.50000e-08	0.0005346923065179866
5.52500e-08	0.0004290371299854646
5.55000e-08	0.0003381102075234356
5.57500e-08	0.0003140713976166736
5.60000e-08	0.0003447826578769356
5.62500e-08	0.00040715517287968645
5.65000e-08	0.00046024331423669644
5.67500e-08	0.0004677784390387569
5.70000e-08	0.000429569079223793
5.72500e-08	0.00035959664607174494
5.75000e-08	0.000299150203130949
5.77500e-08	0.0002809182014669558
5.80000e-08	0.00029731180637970013
5.82500e-08	0.00033388027710666443
5.85000e-08	0.00036495787823145805
5.87500e-08	0.00036775568661392494
5.90000e-08	0.00034207533518161706
5.92500e-08	0.0002966380605993782
5.95000e-08	0.00025729735034109254
5.97500e-08	0.00024452124790339344
6.00000e-08	0.000253547494351533
6.02500e-08	0.00027531618371616777
6.05000e-08	0.00029374346237978426
6.07500e-08	0.0002945488867020003
6.10000e-08	0.0002776034013708391
6.12500e-08	0.0002483649562222648
6.15000e-08	0.00022302208956561617
6.17500e-08	0.00021438861189923507
6.20000e-08	0.000219473643719961
6.22500e-08	0.00023259465988637222
6.25000e-08	0.00024367008447275247
6.27500e-08	0.0002437488616740812
6.30000e-08	0.0002327447592373236
6.32500e-08	0.0002140710649580045
6.35000e-08	0.00019786211578796164
6.37500e-08	0.00019213747446258922
6.40000e-08	0.00019501638356983432
6.42500e-08	0.00020293230601324785
6.45000e-08	0.00020956358314438048
6.47500e-08	0.00020929727720496048
6.50000e-08	0.00020207361461509188
6.52500e-08	0.00019002481659628157
6.55000e-08	0.00017949278919962146
6.57500e-08	0.00017549422971862511
6.60000e-08	0.00017684409788825596
6.62500e-08	0.00018130155869310662
6.65000e-08	0.0001849002497054992
6.67500e-08	0.00018411808388368243
6.70000e-08	0.00017891165242534505
6.72500e-08	0.00017061054930419387
6.75000e-08	0.00016318104856770184
6.77500e-08	0.00015975901240906635
6.80000e-08	0.00015959543773009775
6.82500e-08	0.00016133037288590572
6.85000e-08	0.0001629687302310412
6.87500e-08	0.00016350464491508347
6.90000e-08	0.0001640532485335813
6.92500e-08	0.00016580749434412677
6.95000e-08	0.0001711387409546169
6.97500e-08	0.00018183350381804005
7.00000e-08	0.00019724479229085595
7.02500e-08	0.00021634297811404753
7.05000e-08	0.00023770069075467737
7.07500e-08	0.0002605103120680643
7.10000e-08	0.00028529280001754974
7.12500e-08	0.00031261780492039006
7.15000e-08	0.00034379306497382277
7.17500e-08	0.00037975983739524377
7.20000e-08	0.0004199350034980945
7.22500e-08	0.0004634958427197825
7.25000e-08	0.0005093705598236881
7.27500e-08	0.0005568756337874009
7.30000e-08	0.0006061598241296138
7.32500e-08	0.0006582245521722996
7.35000e-08	0.0007119907939350839
7.37500e-08	0.0007680984820710891
7.40000e-08	0.0008278143456515667
7.42500e-08	0.0008888762774255869
7.45000e-08	0.0009505443433369059
7.47500e-08	0.0010128902445429469
7.50000e-08	0.0010754727237223714
7.52500e-08	0.0011382265246087959
7.55000e-08	0.0012013759944960228
7.57500e-08	0.0012650015263252902
7.60000e-08	0.0013285853572235998
7.62500e-08	0.0013915159376473114
7.65000e-08	0.0014530840405330555
7.67500e-08	0.0015127327919476393
7.70000e-08	0.0015702320337600544
7.72500e-08	0.0016253634943627093
7.75000e-08	0.0016780902397096652
7.77500e-08	0.0017282854119771967
7.80000e-08	0.001775447387071445
7.82500e-08	0.0018190276043117807
7.85000e-08	0.0018585385871123148
7.87500e-08	0.001893832418360579
7.90000e-08	0.0019250812117287382
7.92500e-08	0.001952378867544618
7.95000e-08	0.0019758521674342567
7.97500e-08	0.001995558224333378
8.00000e-08	0.0020113195391012724
8.02500e-08	0.002022929400249504
8.05000e-08	0.002029127708928282
8.07500e-08	0.0020322425172790834
8.10000e-08	0.0020312280215624163
8.12500e-08	0.002026465936407764
8.15000e-08	0.0020170973457293126
8.17500e-08	0.002003548076862734
8.20000e-08	0.001989998807996155
8.22500e-08	0.001971156341971373
8.25000e-08	0.0019475099841916718
8.27500e-08	0.00192386362641197
8.30000e-08	0.0018958012734520023
8.32500e-08	0.001863731141790011
8.35000e-08	0.0018316610101280213
8.37500e-08	0.0017962845628083717
8.40000e-08	0.0017579074370608699
8.42500e-08	0.0017195303113133702
8.45000e-08	0.001678704766566764
8.47500e-08	0.0016356571357177825
8.50000e-08	0.0015926095048687985
8.52500e-08	0.0015484564664856911
8.55000e-08	0.001503300204912456
8.57500e-08	0.0014581439433392208
8.60000e-08	0.0014130049121195353
8.62500e-08	0.0013678815184721626
8.65000e-08	0.0013233654795302312
8.67500e-08	0.0012794006511656802
8.70000e-08	0.0012367142458688076
8.72500e-08	0.0011951880856658893
8.75000e-08	0.0011556216391510417
8.77500e-08	0.001117833749554969
8.80000e-08	0.0010826141489205436
8.82500e-08	0.0010497254235205743
8.85000e-08	0.0010199562871959565
8.87500e-08	0.000993018363801813
8.90000e-08	0.0009695509885939865
8.92500e-08	0.0009492333426176666
8.95000e-08	0.0009325379309330054
8.97500e-08	0.0009191299126569095
9.00000e-08	0.0009094360984816659
9.02500e-08	0.0009031131457957885
9.05000e-08	0.0009005604975738024
9.07500e-08	0.0009014296252627318
9.10000e-08	0.0009059997138882162
9.12500e-08	0.0009139286450425267
9.15000e-08	0.0009253642532000358
9.17500e-08	0.0009399823796426918
9.20000e-08	0.000957875580284371
9.22500e-08	0.0009787411058690388
9.25000e-08	0.0010026276291377155
9.27500e-08	0.0010292558877757995
9.30000e-08	0.0010591596834116594
9.32500e-08	0.0010920362240079441
9.35000e-08	0.0011249127646042305
9.37500e-08	0.001160456531381144
9.40000e-08	0.0011984209648127693
9.42500e-08	0.0012380071671292722
9.45000e-08	0.0012790652213231265
9.47500e-08	0.001321054019750566
9.50000e-08	0.0013643383408593484
9.52500e-08	0.0014083444536372538
9.55000e-08	0.0014528111739035307
9.57500e-08	0.0014974753886638566
9.60000e-08	0.001542068321091581
9.62500e-08	0.0015863205204901002
9.65000e-08	0.0016299611530194169
9.67500e-08	0.0016727147225851595
9.70000e-08	0.0017142952233945225
9.72500e-08	0.0017544042291202171
9.75000e-08	0.001792740535890247
9.77500e-08	0.0018290016223311036
9.80000e-08	0.0018628815705149866
9.82500e-08	0.0018940577530416009
9.85000e-08	0.0019220746360295521
9.87500e-08	0.0019463024699053432
9.90000e-08	0.0019662266125939944
9.92500e-08	0.0019816581833574072
9.95000e-08	0.0019925855950724447
9.97500e-08	0.001999019112797386
1.00000e-07	0.002000966874321775
1.00250e-07	0.001998426665171951
1.00500e-07	0.001991312866103589
1.00750e-07	0.0019781460549599035
1.01000e-07	0.001961492028265308
1.01250e-07	0.0019387434404015583
1.01500e-07	0.0019104636752029316
1.01750e-07	0.0018821839100043036
1.02000e-07	0.001847419510402442
1.02250e-07	0.0018067699187677712
1.02500e-07	0.0017661203271331003
1.02750e-07	0.0017196668933169342
1.03000e-07	0.0016679461269663073
1.03250e-07	0.001616225360615683
1.03500e-07	0.0015598963392602736
1.03750e-07	0.0014993850519584948
1.04000e-07	0.0014388737646567193
1.04250e-07	0.001375242379709536
1.04500e-07	0.0013087793202742515
1.04750e-07	0.0012423162608389633
1.05000e-07	0.0011741305525622013
1.05250e-07	0.0011043814378377044
1.05500e-07	0.0010346323231132074
1.05750e-07	0.0009647909537802883
1.06000e-07	0.0008948658578942963
1.06250e-07	0.0008258439214019742
1.06500e-07	0.0007576416558636989
1.06750e-07	0.0006911108973619212
1.07000e-07	0.0006260971310731673
1.07250e-07	0.0005628732974444906
1.07500e-07	0.0005027830752972077
1.07750e-07	0.00044580924353797177
1.08000e-07	0.0003924049736797115
1.08250e-07	0.000342961990091837
1.08500e-07	0.00029731249033056607
1.08750e-07	0.000254345907566665
1.09000e-07	0.00021289046489820856
1.09250e-07	0.00017262518536513596
1.09500e-07	0.00013377303346895562
1.09750e-07	9.663324767831062e-05
1.10000e-07	6.15047828279973e-05
1.10250e-07	2.864813157721828e-05
1.10500e-07	-2.0267279660490716e-06
1.10750e-07	-3.120033495366495e-05
1.11000e-07	-5.95914903439442e-05
1.11250e-07	-8.738602017401569e-05
1.11500e-07	-0.00011442902669507895
1.11750e-07	-0.00014051784964699127
1.12000e-07	-0.00016545001304033174
1.12250e-07	-0.00018904716018369017
1.12500e-07	-0.0002111919432855497
1.12750e-07	-0.00023262722000715272
1.13000e-07	-0.0002536433002303338
1.13250e-07	-0.000274278934658224
1.13500e-07	-0.00029416242957101455
1.13750e-07	-0.00031336331306632546
1.14000e-07	-0.0003325641965616354
1.14250e-07	-0.00035052183478014845
1.14500e-07	-0.00036735115384558517
1.14750e-07	-0.000384180472911021
1.15000e-07	-0.0004003686885620074
1.15250e-07	-0.00041597506467165135
1.15500e-07	-0.0004315814407812961
1.15750e-07	-0.00044632358344947416
1.16000e-07	-0.0004602813827841741
1.16250e-07	-0.000474239182118874
1.16500e-07	-0.0004871819693410539
1.16750e-07	-0.000499203572603372
1.17000e-07	-0.0005112251758656894
1.17250e-07	-0.000523204071623448
1.17500e-07	-0.0005334630887056452
1.17750e-07	-0.000543722105787842
1.18000e-07	-0.0005539811228700392
1.18250e-07	-0.0005629170419111293
1.18500e-07	-0.0005706521706584288
1.18750e-07	-0.000576216839371548
1.19000e-07	-0.0005776844191227041
1.19250e-07	-0.0005751109843554451
1.19500e-07	-0.0005685975029208292
1.19750e-07	-0.0005583073942372443
1.20000e-07	-0.0005444041054165335
1.20250e-07	-0.0005270207829665206
1.20500e-07	-0.0005060246052918132
1.20750e-07	-0.00048086540565432184
1.21000e-07	-0.0004510461478532974
1.21250e-07	-0.00041655482313920233
1.21500e-07	-0.00037766874519482154
1.21750e-07	-0.0003347043156077742
1.22000e-07	-0.0002879779373760662
1.22250e-07	-0.0002377870246242215
1.22500e-07	-0.00018426237835024608
1.22750e-07	-0.00012727336517437155
1.23000e-07	-6.672265654531089e-05
1.23250e-07	-2.816766115270156e-06
1.23500e-07	6.405658776240889e-05
1.23750e-07	0.00013348523206529873
1.24000e-07	0.00020505700779401828
1.24250e-07	0.0002783716821306805
1.24500e-07	0.0003531334335909215
1.24750e-07	0.0004292101856730294
1.25000e-07	0.0005064490068119935
1.25250e-07	0.0005845066732912006
1.25500e-07	0.0006629264340522556
1.25750e-07	0.0007412362721468286
1.26000e-07	0.000818964300888648
1.26250e-07	0.0008956460123871607
1.26500e-07	0.0009708823460516746
1.26750e-07	0.0010443769175368049
1.27000e-07	0.0011158202707088724
1.27250e-07	0.0011847837052551798
1.27500e-07	0.0012507674306921023
1.27750e-07	0.0013132623130718741
1.28000e-07	0.001371759140493827
1.28250e-07	0.001425792480991026
1.28500e-07	0.0014753040444864967
1.28750e-07	0.0015209421147353722
1.29000e-07	0.0015634551561804616
1.29250e-07	0.0016030270864510663
1.29500e-07	0.0016394668704612773
1.29750e-07	0.001672529986289827
1.30000e-07	0.001701971956119391
1.30250e-07	0.0017266105204010462
1.30500e-07	0.0017485035276161587
1.30750e-07	0.0017671868983415464
1.31000e-07	0.0017829573327434757
1.31250e-07	0.0017952796824985341
1.31500e-07	0.001804472690022349
1.31750e-07	0.0018136656975461637
1.32000e-07	0.0018184840261211905
1.32250e-07	0.0018193320729355924
1.32500e-07	0.0018201801197499942
1.32750e-07	0.0018166216551985688
1.33000e-07	0.001809064019071693
1.33250e-07	0.001801506382944817
1.33500e-07	0.0017939487468179411
1.33750e-07	0.0017863911106910644
1.34000e-07	0.0017748044035522154
1.34250e-07	0.001759561074444454
1.34500e-07	0.001744317745336691
1.34750e-07	0.0017290744162289297
1.35000e-07	0.0017138310871211682
1.35250e-07	0.0016969102417131073
1.35500e-07	0.0016784669503271366
1.35750e-07	0.0016600236589411682
1.36000e-07	0.0016411033796982942
1.36250e-07	0.0016217502055594778
1.36500e-07	0.0016024016695795878
1.36750e-07	0.0015830573430052324
1.37000e-07	0.001564359826001375
1.37250e-07	0.0015462493272154008
1.37500e-07	0.0015281928096094644
1.37750e-07	0.0015123101741203577
1.38000e-07	0.0014964275386312497
1.38250e-07	0.0014817063225481186
1.38500e-07	0.0014680391637656364
1.38750e-07	0.0014538817943047526
1.39000e-07	0.0014392795294496956
1.39250e-07	0.0014232674982239165
1.39500e-07	0.0014059760200321038
1.39750e-07	0.001388684541840289
1.40000e-07	0.001370286476231817
1.40250e-07	0.001350884116619531
1.40500e-07	0.0013314817570072427
1.40750e-07	0.001309046763628028
1.41000e-07	0.0012838594744409642
1.41250e-07	0.0012586721852539005
1.41500e-07	0.001233484896066834
1.41750e-07	0.0012082976068797703
1.42000e-07	0.0011831103176927064
1.42250e-07	0.0011543267363726087
1.42500e-07	0.0011222793056983736
1.42750e-07	0.0010902318750241387
1.43000e-07	0.0010581844443499037
1.43250e-07	0.0010261370136756653
1.43500e-07	0.0009940895830014302
1.43750e-07	0.0009598825421266087
1.44000e-07	0.0009237155263393908
1.44250e-07	0.0008875485105521768
1.44500e-07	0.0008513814947649627
1.44750e-07	0.0008152144789777486
1.45000e-07	0.0007787034521636925
1.45250e-07	0.0007418802148488722
1.45500e-07	0.000705056977534052
1.45750e-07	0.0006682337402192278
1.46000e-07	0.0006314105029044075
