Time(s)	Current(A)
7.55000e-06	-0.0008648591664153173
7.55025e-06	-0.0008028375371317624
7.55050e-06	-0.0007393445118423846
7.55075e-06	-0.0006747263090327656
7.55100e-06	-0.000609194665577863
7.55125e-06	-0.0005427798596003008
7.55150e-06	-0.00047555091974740995
7.55175e-06	-0.0004077958944200778
7.55200e-06	-0.0003399174474826363
7.55225e-06	-0.000272325250901206
7.55250e-06	-0.00020542896540053036
7.55275e-06	-0.00013962221986108845
7.55300e-06	-7.521437614475578e-05
7.55325e-06	-1.24010931580553e-05
7.55350e-06	4.859765245390706e-05
7.55375e-06	0.0001074247767646714
7.55400e-06	0.00016365140416262956
7.55425e-06	0.00021684426786217764
7.55450e-06	0.0002665701709841154
7.55475e-06	0.00031238168501526384
7.55500e-06	0.0003537753569309716
7.55525e-06	0.00039022972780668544
7.55550e-06	0.000421381620107425
7.55575e-06	0.0004470906306390241
7.55600e-06	0.000467309450861499
7.55625e-06	0.00048199563118255325
7.55650e-06	0.0004911068284913867
7.55675e-06	0.0004945917857197238
7.55700e-06	0.0004923641326464361
7.55725e-06	0.0004843263024158016
7.55750e-06	0.00047047983347783584
7.55775e-06	0.0004509658394750298
7.55800e-06	0.00042598374246653026
7.55825e-06	0.0003957360078669662
7.55850e-06	0.00036042514675132224
7.55875e-06	0.00032024805995495113
7.55900e-06	0.00027537970647038693
7.55925e-06	0.00022598796398177998
7.55950e-06	0.00017230283358494181
7.55975e-06	0.00011464170107379631
7.56000e-06	5.3358453995031266e-05
7.56025e-06	-1.1191128290028339e-05
7.56050e-06	-7.865125831633655e-05
7.56075e-06	-0.00014866967336006997
7.56100e-06	-0.00022090789889573202
7.56125e-06	-0.00029531647288705596
7.56150e-06	-0.0003710264061856959
7.56175e-06	-0.0004474757682172517
7.56200e-06	-0.0005248544132911364
7.56225e-06	-0.0006021724715450669
7.56250e-06	-0.0006794143868234653
7.56275e-06	-0.0007558026959723048
7.56300e-06	-0.0008311182287125103
7.56325e-06	-0.0009047907727707941
7.56350e-06	-0.0009763984775108118
7.56375e-06	-0.001045489752929198
7.56400e-06	-0.0011114184854400775
7.56425e-06	-0.001173924668764185
7.56450e-06	-0.0012321295357099287
7.56475e-06	-0.0012860661656684776
7.56500e-06	-0.0013346386542632779
7.56525e-06	-0.0013785339641822043
7.56550e-06	-0.001416551191962407
7.56575e-06	-0.0014497302436512747
7.56600e-06	-0.0014768288783972004
7.56625e-06	-0.0014988993487531788
7.56650e-06	-0.0015146506328346677
7.56675e-06	-0.0015252210087431464
7.56700e-06	-0.0015292802363922689
7.56725e-06	-0.0015282793426187036
7.56750e-06	-0.0015209191003114925
7.56775e-06	-0.0015087748205824406
7.56800e-06	-0.0014906181631213636
7.56825e-06	-0.0014679354200406983
7.56850e-06	-0.001439564482242526
7.56875e-06	-0.0014069487013458855
7.56900e-06	-0.00136899817954509
7.56925e-06	-0.0013281335323081628
7.56950e-06	-0.0012818502645687382
7.56975e-06	-0.0012317387771817437
7.57000e-06	-0.0011781034857581206
7.57025e-06	-0.0011212478202115876
7.57050e-06	-0.0010614753784563436
7.57075e-06	-0.0009990928026313527
7.57100e-06	-0.0009344280399155922
7.57125e-06	-0.0008678541905973683
7.57150e-06	-0.0007997780342065157
7.57175e-06	-0.0007306083300356428
7.57200e-06	-0.0006607482323616355
7.57225e-06	-0.0005906002987446794
7.57250e-06	-0.0005205670097157708
7.57275e-06	-0.00045105267934666537
7.57300e-06	-0.0003824751377310968
7.57325e-06	-0.00031528036446448846
7.57350e-06	-0.0002499353989950337
7.57375e-06	-0.00018690851838344872
7.57400e-06	-0.00012666443900105092
7.57425e-06	-6.96674502907971e-05
7.57450e-06	-1.638178993551604e-05
7.57475e-06	3.277364538363361e-05
7.57500e-06	7.763786603751506e-05
7.57525e-06	0.00011845525672971017
7.57550e-06	0.00015553698723143412
7.57575e-06	0.0001889049232675241
7.57600e-06	0.00021840588149383265
7.57625e-06	0.00024387495463994873
7.57650e-06	0.0002651473034028068
7.57675e-06	0.0002820864975479576
7.57700e-06	0.00029471764750702814
7.57725e-06	0.000303319817131737
7.57750e-06	0.00030821388892129855
7.57775e-06	0.0003095394922979519
7.57800e-06	0.0003073266057790478
7.57825e-06	0.0003015978364183662
7.57850e-06	0.0002923758818924739
7.57875e-06	0.000279701243395019
7.57900e-06	0.00026371559118079353
7.57925e-06	0.0002447196463808757
7.57950e-06	0.000223040310305995
7.57975e-06	0.00019889092068653308
7.58000e-06	0.00017241612809308852
7.58025e-06	0.00014375598015771809
7.58050e-06	0.00011305054063315064
7.58075e-06	8.045102303856138e-05
7.58100e-06	4.617201598622691e-05
7.58125e-06	1.0527717981451805e-05
7.58150e-06	-2.6151308061097398e-05
7.58175e-06	-6.360564519498077e-05
7.58200e-06	-0.00010168779981973181
7.58225e-06	-0.0001401015794163747
7.58250e-06	-0.00017851535901314776
7.58275e-06	-0.00021675662264874305
7.58300e-06	-0.0002547810754547278
7.58325e-06	-0.00029204673250848823
7.58350e-06	-0.0003283587668621021
7.58375e-06	-0.000363397001375601
7.58400e-06	-0.00039683437763542715
7.58425e-06	-0.0004290285827686812
7.58450e-06	-0.00045867844662757115
7.58475e-06	-0.0004859788290877808
7.58500e-06	-0.0005105660556919853
7.58525e-06	-0.0005319957621870326
7.58550e-06	-0.0005499353237896951
7.58575e-06	-0.0005642723118349215
7.58600e-06	-0.0005749951680910422
7.58625e-06	-0.0005820980975844956
7.58650e-06	-0.0005855753119642919
7.58675e-06	-0.0005854094353790922
7.58700e-06	-0.0005815293652772249
7.58725e-06	-0.0005738134385858768
7.58750e-06	-0.000562209920154312
7.58775e-06	-0.0005468051232016042
7.58800e-06	-0.0005277485556715755
7.58825e-06	-0.0005051932064673794
7.58850e-06	-0.00047929213594455816
7.58875e-06	-0.0004501911372189731
7.58900e-06	-0.000418002343530042
7.58925e-06	-0.00038280621320167546
7.58950e-06	-0.000344727027231395
7.58975e-06	-0.00030397549106032197
7.59000e-06	-0.00026080188908976883
7.59025e-06	-0.00021545870680817015
7.59050e-06	-0.00016819843118573265
7.59075e-06	-0.00011926898730021341
7.59100e-06	-6.88971700269863e-05
7.59125e-06	-1.7289962497690615e-05
7.59150e-06	3.531822256477658e-05
7.59175e-06	8.863886814984456e-05
7.59200e-06	0.00014235867342906358
7.59225e-06	0.00019616298407164768
7.59250e-06	0.0002497371771699612
7.59275e-06	0.0003027694758474428
7.59300e-06	0.0003549613702133155
7.59325e-06	0.0004060268252943379
7.59350e-06	0.0004556625964408842
7.59375e-06	0.0005035315705063883
7.59400e-06	0.0005492811824688472
7.59425e-06	0.0005925579729299882
7.59450e-06	0.0006330085595206899
7.59475e-06	0.0006702599552292999
7.59500e-06	0.0007038514541250167
7.59525e-06	0.0007332516857860594
7.59550e-06	0.0007580719369347625
7.59575e-06	0.0007781748918147553
7.59600e-06	0.0007935354542075208
7.59625e-06	0.0008041348038683396
7.59650e-06	0.0008099540233074846
7.59675e-06	0.0008109619435496534
7.59700e-06	0.0008070725873718363
7.59725e-06	0.0007981556832373871
7.59750e-06	0.0007841702825308882
7.59775e-06	0.0007652329953813335
7.59800e-06	0.0007415306725610316
7.59825e-06	0.0007132540082925225
7.59850e-06	0.0006805938205331248
7.59875e-06	0.000643733111384765
7.59900e-06	0.0006028205655353524
7.59925e-06	0.0005579771287428599
7.59950e-06	0.0005093797128796411
7.59975e-06	0.00045730387281877575
7.60000e-06	0.0004020691497957235
7.60025e-06	0.0003439975227978548
7.60050e-06	0.0002834109512943782
7.60075e-06	0.00022062658129669253
7.60100e-06	0.00015593996195126803
7.60125e-06	8.962923708299248e-05
7.60150e-06	2.2007647539922356e-05
7.60175e-06	-4.661813926123965e-05
7.60200e-06	-0.0001157265089050396
7.60225e-06	-0.00018475014704466019
7.60250e-06	-0.0002536672899704442
7.60275e-06	-0.00032179462476510665
7.60300e-06	-0.00038892936180245636
7.60325e-06	-0.0004545917346603783
7.60350e-06	-0.0005184037019261705
7.60375e-06	-0.0005806362786151703
7.60400e-06	-0.00063956230475348
7.60425e-06	-0.0006953040655844039
7.60450e-06	-0.0007474064678224886
7.60475e-06	-0.0007954185125828565
7.60500e-06	-0.0008389306002026788
7.60525e-06	-0.0008776481270297084
7.60550e-06	-0.0009114103970209709
7.60575e-06	-0.0009401242315567945
7.60600e-06	-0.0009637075519098741
7.60625e-06	-0.000982078104032985
7.60650e-06	-0.0009951536729163508
7.60675e-06	-0.0010028546677729154
7.60700e-06	-0.0010051274824706023
7.60725e-06	-0.001001990457625142
7.60750e-06	-0.000993545834452864
7.60775e-06	-0.0009799381840498412
7.60800e-06	-0.0009613190017872165
7.60825e-06	-0.0009378397373763565
7.60850e-06	-0.0009096518021881593
7.60875e-06	-0.000875959476795318
7.60900e-06	-0.0008385859675372862
7.60925e-06	-0.0007984764307514261
7.60950e-06	-0.0007532695696916157
7.60975e-06	-0.0007044511284895357
7.61000e-06	-0.000652318839330576
7.61025e-06	-0.0005971704086080635
7.61050e-06	-0.0005393034845071367
7.61075e-06	-0.00047901671450187707
7.61100e-06	-0.0004166189282204232
7.61125e-06	-0.00035244719698030087
7.61150e-06	-0.0002868714640946198
7.61175e-06	-0.00022027821536041122
7.61200e-06	-0.0001530566483726964
7.61225e-06	-8.559588300006796e-05
7.61250e-06	-1.8285003559824905e-05
7.61275e-06	4.848630083416286e-05
7.61300e-06	0.00011432200719733409
7.61325e-06	0.00017880843623819384
7.61350e-06	0.00024151134428084512
7.61375e-06	0.0003019861332385662
7.61400e-06	0.0003597865312491906
7.61425e-06	0.000414466399073367
7.61450e-06	0.00046557962361241283
7.61475e-06	0.0005126428115260872
7.61500e-06	0.0005549963252707233
7.61525e-06	0.0005918036630822341
7.61550e-06	0.0006224297998151648
7.61575e-06	0.0006466658287828255
7.61600e-06	0.0006645010965835534
7.61625e-06	0.000675936359917032
7.61650e-06	0.0006809724528606611
7.61675e-06	0.0006795868354700821
7.61700e-06	0.0006716465844997576
7.61725e-06	0.0006569080956657965
7.61750e-06	0.0006352538165989788
7.61775e-06	0.0006068332708736687
7.61800e-06	0.0005719201665931039
7.61825e-06	0.0005307953100611274
7.61850e-06	0.0004837395406937935
7.61875e-06	0.0004310190145979907
7.61900e-06	0.000372830813881145
7.61925e-06	0.000309302588469518
7.61950e-06	0.0002406410469615244
7.61975e-06	0.00016722011254740934
7.62000e-06	8.949149837066624e-05
7.62025e-06	7.911338353694935e-06
7.62050e-06	-7.706427410071678e-05
7.62075e-06	-0.00016498841485947942
7.62100e-06	-0.00025545751463610365
7.62125e-06	-0.00034844591724641485
7.62150e-06	-0.0004429610286605194
7.62175e-06	-0.0005383157859588557
7.62200e-06	-0.0006347257750144283
7.62225e-06	-0.0007309738252243433
7.62250e-06	-0.0008270183574805442
7.62275e-06	-0.0009219198777277804
7.62300e-06	-0.0010153849083867706
7.62325e-06	-0.0011067847770694806
7.62350e-06	-0.0011955892367347522
7.62375e-06	-0.0012812725595461785
7.62400e-06	-0.0013630333683716713
7.62425e-06	-0.0014405499015336307
7.62450e-06	-0.0015127324069251688
7.62475e-06	-0.0015799674787646237
7.62500e-06	-0.001640984823470591
7.62525e-06	-0.001698263324321572
7.62550e-06	-0.001750843002916638
7.62575e-06	-0.0018000244547457939
7.62600e-06	-0.0018449351576001888
7.62625e-06	-0.0018859200718278973
7.62650e-06	-0.001921971219445297
7.62675e-06	-0.0019529651430056038
7.62700e-06	-0.0019776033593273544
7.62725e-06	-0.002002241575649021
7.62750e-06	-0.0020222893624063432
7.62775e-06	-0.002036568089679538
7.62800e-06	-0.002050846816952684
7.62825e-06	-0.002060542508540402
7.62850e-06	-0.0020644784329611693
7.62875e-06	-0.0020684143573819237
7.62900e-06	-0.002068281034729022
7.62925e-06	-0.0020630336529027684
7.62950e-06	-0.0020577862710765326
7.62975e-06	-0.002049605101252637
7.63000e-06	-0.0020377368696332925
7.63025e-06	-0.002025868638013868
7.63050e-06	-0.002011708286724357
7.63075e-06	-0.001994667295500124
7.63100e-06	-0.0019761987611885633
7.63125e-06	-0.001955936150555637
7.63150e-06	-0.0019348723701507863
7.63175e-06	-0.001912801713154566
7.63200e-06	-0.00189018082260135
7.63225e-06	-0.0018668684215750206
7.63250e-06	-0.0018432148876077977
7.63275e-06	-0.0018191326320580689
7.63300e-06	-0.0017951211256128643
7.63325e-06	-0.0017711985336771833
7.63350e-06	-0.0017479041463311197
7.63375e-06	-0.001725399260184485
7.63400e-06	-0.0017041427789137018
7.63425e-06	-0.0016844552405680469
7.63450e-06	-0.0016647677022223922
7.63475e-06	-0.0016482416330834185
7.63500e-06	-0.0016356887659413517
7.63525e-06	-0.001623135898799285
7.63550e-06	-0.0016105830316573031
7.63575e-06	-0.0015980301645152361
7.63600e-06	-0.0015854772973731693
7.63625e-06	-0.0015729244302311875
7.63650e-06	-0.0015701564719425736
7.63675e-06	-0.001567978717382227
7.63700e-06	-0.001565800962821895
7.63725e-06	-0.0015636232082615483
7.63750e-06	-0.0015614454537012015
7.63775e-06	-0.0015592676991408696
7.63800e-06	-0.0015618156803397381
7.63825e-06	-0.0015703027681785281
7.63850e-06	-0.0015787898560172607
7.63875e-06	-0.0015872769438560507
7.63900e-06	-0.0015957640316948407
7.63925e-06	-0.001604251119533573
7.63950e-06	-0.001612738207372363
7.63975e-06	-0.001621225295211153
7.64000e-06	-0.0016297123830498856
7.64025e-06	-0.001645230231241022
7.64050e-06	-0.0016611721591079354
7.64075e-06	-0.0016771140869747407
7.64100e-06	-0.001693056014841654
7.64125e-06	-0.0017089979427085675
7.64150e-06	-0.0017249398705754808
7.64175e-06	-0.0017408817984422861
7.64200e-06	-0.0017568237263091997
7.64225e-06	-0.0017733194553723392
7.64250e-06	-0.0017905111785682657
7.64275e-06	-0.0018077029017643084
7.64300e-06	-0.0018248946249603513
7.64325e-06	-0.0018420863481562778
7.64350e-06	-0.0018572845745399994
7.64375e-06	-0.0018723625576726665
7.64400e-06	-0.0018874405408052313
7.64425e-06	-0.0019025185239378982
7.64450e-06	-0.001916242839724558
7.64475e-06	-0.001928265923124458
7.64500e-06	-0.001938292427074537
7.64525e-06	-0.0019458097136508933
7.64550e-06	-0.0019500593356079634
7.64575e-06	-0.0019502022936231675
7.64600e-06	-0.0019463733458416808
7.64625e-06	-0.0019375526733221957
7.64650e-06	-0.0019287320008026508
7.64675e-06	-0.0019151641828759908
7.64700e-06	-0.0018956303515603873
7.64725e-06	-0.0018760965202446512
7.64750e-06	-0.0018510139438732572
7.64775e-06	-0.0018189579372705313
7.64800e-06	-0.0017869019306675884
7.64825e-06	-0.0017507572809559598
7.64850e-06	-0.0017094741959452937
7.64875e-06	-0.0016653630296138131
7.64900e-06	-0.0016176976492066884
7.64925e-06	-0.0015678617956341758
7.64950e-06	-0.0015138864501310642
7.64975e-06	-0.0014568783229801797
7.65000e-06	-0.0013971891383258593
7.65025e-06	-0.001335178321852213
7.65050e-06	-0.0012712054156573999
7.65075e-06	-0.0012056126940430936
7.65100e-06	-0.0011386536392133774
7.65125e-06	-0.0010704670837761137
7.65150e-06	-0.001001230008253934
7.65175e-06	-0.0009312755549224995
7.65200e-06	-0.0008610163784511434
7.65225e-06	-0.0007908700605997313
7.65250e-06	-0.0007212541315429235
7.65275e-06	-0.0006525752753166335
7.65300e-06	-0.0005851845587309365
7.65325e-06	-0.0005193611962788061
7.65350e-06	-0.0004554082870722017
7.65375e-06	-0.0003937267037644962
7.65400e-06	-0.0003347671637835544
7.65425e-06	-0.00027898335384526614
7.65450e-06	-0.0002268289186665984
7.65475e-06	-0.00017869871500431574
7.65500e-06	-0.00013465965585095186
7.65525e-06	-9.428113062170043e-05
7.65550e-06	-5.709184014337194e-05
7.65575e-06	-2.3029245472025074e-05
7.65600e-06	7.732547499764868e-06
7.65625e-06	3.5003950277041996e-05
7.65650e-06	5.8595427323034295e-05
7.65675e-06	7.835429606540834e-05
7.65700e-06	9.43332998813051e-05
7.65725e-06	0.00010689680607102728
7.65750e-06	0.00011643464953194065
7.65775e-06	0.0001230805958044886
7.65800e-06	0.0001268201824680036
7.65825e-06	0.0001276292484634682
7.65850e-06	0.00012548366745608556
7.65875e-06	0.00012038240650770972
7.65900e-06	0.00011245311469838561
7.65925e-06	0.00010201862169507124
7.65950e-06	8.941768327415319e-05
7.65975e-06	7.482864304440745e-05
7.66000e-06	5.83369749069434e-05
7.66025e-06	4.002207650764561e-05
7.66050e-06	1.9963371349984412e-05
7.66075e-06	-1.7452567911682797e-06
7.66100e-06	-2.4929330341887245e-05
7.66125e-06	-4.929212565257507e-05
7.66150e-06	-7.452696048941486e-05
7.66175e-06	-0.00010052461432911777
7.66200e-06	-0.0001269680927476319
7.66225e-06	-0.00015368034726345525
7.66250e-06	-0.00018073038831361167
7.66275e-06	-0.00020778042936395142
7.66300e-06	-0.00023459996086461874
7.66325e-06	-0.00026112979762387583
7.66350e-06	-0.0002869343367714702
7.66375e-06	-0.00031182735227814755
7.66400e-06	-0.0003356502327699245
7.66425e-06	-0.00035812821242530205
7.66450e-06	-0.00037920814928151707
7.66475e-06	-0.00039853108454035576
7.66500e-06	-0.0004161404754568304
7.66525e-06	-0.0004315963556591834
7.66550e-06	-0.00044516449474008783
7.66575e-06	-0.00045636019989592983
7.66600e-06	-0.000465611284797125
7.66625e-06	-0.00047241845246220356
7.66650e-06	-0.000477231897208547
7.66675e-06	-0.00047953971454845195
7.66700e-06	-0.0004798125150153739
7.66725e-06	-0.00047752779156495193
7.66750e-06	-0.0004737377667841958
7.66775e-06	-0.00046662418220266215
7.66800e-06	-0.000457711221436809
7.66825e-06	-0.00044699408757671566
7.66850e-06	-0.000434009544585681
7.66875e-06	-0.00041934615474873506
7.66900e-06	-0.00040257286055692755
7.66925e-06	-0.0003842717287497139
7.66950e-06	-0.0003640504746600037
7.66975e-06	-0.0003425185179661284
7.67000e-06	-0.00031933932517164154
7.67025e-06	-0.00029508441971268354
7.67050e-06	-0.00026947760366022436
7.67075e-06	-0.00024302980695650706
7.67100e-06	-0.0002155251010163202
7.67125e-06	-0.00018743022167662878
7.67150e-06	-0.00015859363714306406
7.67175e-06	-0.00012945908036280556
7.67200e-06	-9.995004455058038e-05
7.67225e-06	-7.044636150907717e-05
7.67250e-06	-4.0949405605680814e-05
7.67275e-06	-1.1645852296450193e-05
7.67300e-06	1.7184465499822862e-05
7.67325e-06	4.54158966084725e-05
7.67350e-06	7.286431813004828e-05
7.67375e-06	9.933737377424838e-05
7.67400e-06	0.00012463994398954884
7.67425e-06	0.0001485768156613117
7.67450e-06	0.00017095278369099116
7.67475e-06	0.00019163644834171447
7.67500e-06	0.000210775101194043
7.67525e-06	0.00022917641272989688
7.67550e-06	0.0002475217833383051
7.67575e-06	0.00026579684973347147
7.67600e-06	0.0002837603350608046
7.67625e-06	0.0003013322383603449
7.67650e-06	0.0003189041416597661
7.67675e-06	0.00033592902688025275
7.67700e-06	0.00035226644270458654
7.67725e-06	0.0003686038585288097
7.67750e-06	0.00038524280920301064
7.67775e-06	0.00040226071623916855
7.67800e-06	0.0004192786232752112
7.67825e-06	0.0004362965303113691
7.67850e-06	0.0004533144373475271
7.67875e-06	0.0004703323443835697
7.67900e-06	0.00048754411290742865
7.67925e-06	0.0005049995184242891
7.67950e-06	0.0005224549239410311
7.67975e-06	0.0005399103294578915
7.68000e-06	0.0005573657349747519
7.68025e-06	0.000574821140491494
7.68050e-06	0.0005922582698011802
7.68075e-06	0.000609672430339645
7.68100e-06	0.0006270865908779917
7.68125e-06	0.0006444050178791724
7.68150e-06	0.00066160313098288
7.68175e-06	0.0006788012440864711
7.68200e-06	0.0006958092055382631
7.68225e-06	0.000712578192363163
7.68250e-06	0.0007289741021111632
7.68275e-06	0.0007449011442247803
7.68300e-06	0.0007603878292619711
7.68325e-06	0.0007753210919807114
7.68350e-06	0.000789813301222907
7.68375e-06	0.0008037512129401281
7.68400e-06	0.0008172585042877971
7.68425e-06	0.0008298761777556047
7.68450e-06	0.0008416615357246853
7.68475e-06	0.000852463077623742
7.68500e-06	0.0008618837830492188
7.68525e-06	0.000869212371511697
7.68550e-06	0.0008738505859394179
7.68575e-06	0.0008756389867357066
7.68600e-06	0.0008746409749332602
7.68625e-06	0.0008709335526449904
7.68650e-06	0.0008640221582949154
7.68675e-06	0.0008549503488223685
7.68700e-06	0.0008433428171629344
7.68725e-06	0.0008285484961307936
7.68750e-06	0.0008109149900649423
7.68775e-06	0.0007897133152384991
7.68800e-06	0.0007659434711333526
7.68825e-06	0.0007389460595097555
7.68850e-06	0.0007097084573212797
7.68875e-06	0.0006776554775169215
7.68900e-06	0.0006434726865833624
7.68925e-06	0.0006066132382826878
7.68950e-06	0.0005676857521326397
7.68975e-06	0.0005261592426837537
7.69000e-06	0.00048298628834442996
7.69025e-06	0.0004377441510691004
7.69050e-06	0.00039131282013307365
7.69075e-06	0.0003433869604433611
7.69100e-06	0.00029459276704968125
7.69125e-06	0.00024470728824765593
7.69150e-06	0.00019420575532081992
7.69175e-06	0.0001429299913888623
7.69200e-06	9.165422745655721e-05
7.69225e-06	4.04065575775136e-05
7.69250e-06	-1.0566064258816187e-05
7.69275e-06	-6.086958926077695e-05
7.69300e-06	-0.00011024360426671679
7.69325e-06	-0.00015847610616285404
7.69350e-06	-0.0002053376916275776
