Time(s)	Current(A)
2.50000e-06	-0.004408278834345826
2.50025e-06	-0.0043783843110232435
2.50050e-06	-0.004348838194986178
2.50075e-06	-0.004323361167465641
2.50100e-06	-0.004298175143489761
2.50125e-06	-0.004276387783179243
2.50150e-06	-0.004254858317345945
2.50175e-06	-0.004236340830594865
2.50200e-06	-0.0042181933647578215
2.50225e-06	-0.004204367415476391
2.50250e-06	-0.004190541466194937
2.50275e-06	-0.004177332426554497
2.50300e-06	-0.0041713283451363875
2.50325e-06	-0.004165324263718267
2.50350e-06	-0.0041593201823001465
2.50375e-06	-0.004153316100882037
2.50400e-06	-0.004147312019463916
2.50425e-06	-0.004141978248223685
2.50450e-06	-0.004144473106180651
2.50475e-06	-0.004146967964137615
2.50500e-06	-0.004149462822094582
2.50525e-06	-0.0041519576800515485
2.50550e-06	-0.004154452538008512
2.50575e-06	-0.004157427753127932
2.50600e-06	-0.004166013114461926
2.50625e-06	-0.004174598475795918
2.50650e-06	-0.004183183837129896
2.50675e-06	-0.004191769198463889
2.50700e-06	-0.0042003545597978816
2.50725e-06	-0.004208939921131859
2.50750e-06	-0.004219146607331061
2.50775e-06	-0.004230532813847916
2.50800e-06	-0.004241919020364751
2.50825e-06	-0.004253305226881604
2.50850e-06	-0.004264691433398459
2.50875e-06	-0.004276077639915313
2.50900e-06	-0.004287432199367605
2.50925e-06	-0.004298417149135194
2.50950e-06	-0.004309402098902784
2.50975e-06	-0.004320260757992151
2.51000e-06	-0.004329644453813119
2.51025e-06	-0.004339028149634086
2.51050e-06	-0.004348073897611108
2.51075e-06	-0.004353172714084139
2.51100e-06	-0.0043582715305571776
2.51125e-06	-0.004363370347030217
2.51150e-06	-0.004368469163503247
2.51175e-06	-0.004373567979976287
2.51200e-06	-0.004378666796449326
2.51225e-06	-0.0043837656129223565
2.51250e-06	-0.00438835117457923
2.51275e-06	-0.00438694237456214
2.51300e-06	-0.004385533574545051
2.51325e-06	-0.004384124774527964
2.51350e-06	-0.004382715974510875
2.51375e-06	-0.004381307174493786
2.51400e-06	-0.004379898374476699
2.51425e-06	-0.004378489574459609
2.51450e-06	-0.004376663468283554
2.51475e-06	-0.004369963595769942
2.51500e-06	-0.004363263723256343
2.51525e-06	-0.004356563850742731
2.51550e-06	-0.00434986397822912
2.51575e-06	-0.00434316410571552
2.51600e-06	-0.004336464233201908
2.51625e-06	-0.004329764360688297
2.51650e-06	-0.004321437943574603
2.51675e-06	-0.0043119282087652035
2.51700e-06	-0.004302418473955804
2.51725e-06	-0.0042929087391464045
2.51750e-06	-0.0042833990043370206
2.51775e-06	-0.004273889269527621
2.51800e-06	-0.0042643795347182215
2.51825e-06	-0.004254840687924277
2.51850e-06	-0.0042449618389344725
2.51875e-06	-0.004235082989944667
2.51900e-06	-0.004225249449388362
2.51925e-06	-0.004215945071206682
2.51950e-06	-0.004206640693024986
2.51975e-06	-0.0041974077114345235
2.52000e-06	-0.0041890085787953685
2.52025e-06	-0.00418068963877809
2.52050e-06	-0.004173307277559757
2.52075e-06	-0.004166056562988178
2.52100e-06	-0.0041603433646542
2.52125e-06	-0.004154834623533896
2.52150e-06	-0.004151713761586357
2.52175e-06	-0.004148851614344325
2.52200e-06	-0.0041490110257250135
2.52225e-06	-0.004149170437105701
2.52250e-06	-0.004149637446351835
2.52275e-06	-0.004153696926234159
2.52300e-06	-0.004157756406116484
2.52325e-06	-0.004162316990417651
2.52350e-06	-0.004172730030514194
2.52375e-06	-0.004183143070610755
2.52400e-06	-0.004193556110707316
2.52425e-06	-0.00420396915080386
2.52450e-06	-0.0042143821909004205
2.52475e-06	-0.004225341227614028
2.52500e-06	-0.0042426770212383195
2.52525e-06	-0.004260012814862641
2.52550e-06	-0.004277348608486963
2.52575e-06	-0.004294684402111284
2.52600e-06	-0.004312020195735577
2.52625e-06	-0.0043296913252568086
2.52650e-06	-0.004351278881055007
2.52675e-06	-0.004372866436853168
2.52700e-06	-0.004394453992651365
2.52725e-06	-0.0044160415484495626
2.52750e-06	-0.004437629104247761
2.52775e-06	-0.004459216660045922
2.52800e-06	-0.0044808113487445934
2.52825e-06	-0.00450241122665686
2.52850e-06	-0.004524011104569092
2.52875e-06	-0.004545610982481359
2.52900e-06	-0.0045672108603936265
2.52925e-06	-0.004588810738305857
2.52950e-06	-0.004610162721746289
2.52975e-06	-0.00462861951730959
2.53000e-06	-0.00464707631287289
2.53025e-06	-0.004665237569151411
2.53050e-06	-0.004679947188335746
2.53075e-06	-0.004694656807520081
2.53100e-06	-0.004709015785215076
2.53125e-06	-0.004719279580869055
2.53150e-06	-0.004729543376523033
2.53175e-06	-0.004739214519070486
2.53200e-06	-0.0047419639982313406
2.53225e-06	-0.004744713477392201
2.53250e-06	-0.004747462956553061
2.53275e-06	-0.0047502124357139165
2.53300e-06	-0.004752961914874777
2.53325e-06	-0.004755711394035637
2.53350e-06	-0.004752740701722584
2.53375e-06	-0.004745608561805975
2.53400e-06	-0.004738476421889367
2.53425e-06	-0.0047313442819727596
2.53450e-06	-0.004724212142056163
2.53475e-06	-0.004717080002139555
2.53500e-06	-0.0047093567342137545
2.53525e-06	-0.004694729614687513
2.53550e-06	-0.0046801024951612456
2.53575e-06	-0.0046654753756349785
2.53600e-06	-0.0046508482561087115
2.53625e-06	-0.004636221136582469
2.53650e-06	-0.004621270810368156
2.53675e-06	-0.004602545716293151
2.53700e-06	-0.004583820622218179
2.53725e-06	-0.004565095528143174
2.53750e-06	-0.0045463704340681695
2.53775e-06	-0.004527645339993197
2.53800e-06	-0.004508859040970016
2.53825e-06	-0.004489357922359713
2.53850e-06	-0.004469856803749411
2.53875e-06	-0.004450401881133129
2.53900e-06	-0.004431486486812045
2.53925e-06	-0.004412654553783928
2.53950e-06	-0.004394797374738281
2.53975e-06	-0.004377027568372895
2.54000e-06	-0.00436034952066765
2.54025e-06	-0.004344585593195655
2.54050e-06	-0.0043298633494651025
2.54075e-06	-0.004316378251805666
2.54100e-06	-0.004304704581433022
2.54125e-06	-0.00429569658811045
2.54150e-06	-0.004289923823218112
2.54175e-06	-0.0042884316116229325
2.54200e-06	-0.004287407976884201
2.54225e-06	-0.004291856904823144
2.54250e-06	-0.004296763777255806
2.54275e-06	-0.004307019035786193
2.54300e-06	-0.004317943221123882
2.54325e-06	-0.004336679879120854
2.54350e-06	-0.004355416537117826
2.54375e-06	-0.00437518972332924
2.54400e-06	-0.004407068641061267
2.54425e-06	-0.004438947558793293
2.54450e-06	-0.004470826476525267
2.54475e-06	-0.0045027053942572936
2.54500e-06	-0.00453458431198932
2.54525e-06	-0.00457435047588692
2.54550e-06	-0.0046198546428854815
2.54575e-06	-0.004665358809884121
2.54600e-06	-0.004710862976882761
2.54625e-06	-0.004756367143881323
2.54650e-06	-0.00480239406120208
2.54675e-06	-0.004854526239300043
2.54700e-06	-0.004906658417398006
2.54725e-06	-0.004958968193292275
2.54750e-06	-0.005013352154155229
2.54775e-06	-0.005067736115018184
2.54800e-06	-0.005122083740990325
2.54825e-06	-0.005176007007619703
2.54850e-06	-0.005229930274249082
2.54875e-06	-0.005283604889272771
2.54900e-06	-0.005334375473766646
2.54925e-06	-0.005385146058260522
2.54950e-06	-0.005435560633054405
2.54975e-06	-0.005481817329859685
2.55000e-06	-0.005527658960525424
2.55025e-06	-0.005568652986292274
2.55050e-06	-0.005609113171960635
2.55075e-06	-0.005643338578085823
2.55100e-06	-0.005676719253091772
2.55125e-06	-0.005700234216778238
2.55150e-06	-0.005723749180464665
2.55175e-06	-0.005746175125775569
2.55200e-06	-0.005755882300970792
2.55225e-06	-0.005765589476165998
2.55250e-06	-0.005774175607354217
2.55275e-06	-0.005769668937415647
2.55300e-06	-0.0057651622674770855
2.55325e-06	-0.005759259577085379
2.55350e-06	-0.005737052604214812
2.55375e-06	-0.0057148456313442465
2.55400e-06	-0.005692638658473718
2.55425e-06	-0.0056704316856031525
2.55450e-06	-0.005637487527243039
2.55475e-06	-0.005596732023535639
2.55500e-06	-0.005555976519828169
2.55525e-06	-0.005515221016120699
2.55550e-06	-0.005473475133635425
2.55575e-06	-0.005420162504174227
2.55600e-06	-0.005366849874712938
2.55625e-06	-0.005313054106281927
2.55650e-06	-0.005253615702586206
2.55675e-06	-0.005193896946072042
2.55700e-06	-0.005130903916939556
2.55725e-06	-0.005067759261867503
2.55750e-06	-0.005002780653740171
2.55775e-06	-0.004937032008460755
2.55800e-06	-0.0048708931954597745
2.55825e-06	-0.004804742870817205
2.55850e-06	-0.004738960401575412
2.55875e-06	-0.004673922410692552
2.55900e-06	-0.0046099935476833324
2.55925e-06	-0.004547541461861697
2.55950e-06	-0.004486965994838967
2.55975e-06	-0.004428692625910229
2.56000e-06	-0.004373150658055828
2.56025e-06	-0.004320769038774472
2.56050e-06	-0.004271977610161084
2.56075e-06	-0.004227205945439014
2.56100e-06	-0.004186867828931687
2.56125e-06	-0.004151275082411813
2.56150e-06	-0.004120583856174665
2.56175e-06	-0.0040948697474117906
2.56200e-06	-0.004074199419140612
2.56225e-06	-0.004058640282067861
2.56250e-06	-0.004048258570276266
2.56275e-06	-0.004043330540519758
2.56300e-06	-0.004045728928980038
2.56325e-06	-0.004049140746266265
2.56350e-06	-0.004064388514678316
2.56375e-06	-0.0040796362830903665
2.56400e-06	-0.0040960028184574985
2.56425e-06	-0.0041254355610034505
2.56450e-06	-0.004154868303549453
2.56475e-06	-0.004185299655721558
2.56500e-06	-0.004227393883889816
2.56525e-06	-0.004269488112058144
2.56550e-06	-0.004312404490582099
2.56575e-06	-0.0043649228571075805
2.56600e-06	-0.0044174412236331504
2.56625e-06	-0.004470486788856012
2.56650e-06	-0.004529689567940456
2.56675e-06	-0.004589201603709996
2.56700e-06	-0.004652325483664215
2.56725e-06	-0.004715648991278595
2.56750e-06	-0.004781303973159864
2.56775e-06	-0.004847036338074994
2.56800e-06	-0.004913672468288732
2.56825e-06	-0.004980262561657283
2.56850e-06	-0.005046314985447269
2.56875e-06	-0.005112197181253776
2.56900e-06	-0.0051760912649772015
2.56925e-06	-0.005239682812990746
2.56950e-06	-0.005299741011859974
2.56975e-06	-0.005359216444623292
2.57000e-06	-0.0054118856854058605
2.57025e-06	-0.005464554926188519
2.57050e-06	-0.005516150855356312
2.57075e-06	-0.005553045368579168
2.57100e-06	-0.005583384868913723
2.57125e-06	-0.005628607339132999
2.57150e-06	-0.022643880230192797
2.57175e-06	-0.02419477836213918
2.57200e-06	-0.020543919383501284
2.57225e-06	-0.017080007837480024
2.57250e-06	-0.005226941756738304
2.57275e-06	-0.0011721258315967745
2.57300e-06	-0.0024114484471546736
2.57325e-06	-0.003696142045157396
2.57350e-06	-0.011057108454367474
2.57375e-06	-0.014405419478678962
2.57400e-06	-0.012831809901721024
2.57425e-06	-0.009260854588810801
2.57450e-06	-0.004586628164861359
2.57475e-06	-0.0018248861124068743
2.57500e-06	-0.0022378213305045114
2.57525e-06	-0.004538566994260519
2.57550e-06	-0.008272209973915824
2.57575e-06	-0.010286179706847207
2.57600e-06	-0.009346255623456945
2.57625e-06	-0.007142779371509167
2.57650e-06	-0.004238489572959026
2.57675e-06	-0.0025245379511270507
2.57700e-06	-0.002793129218506761
2.57725e-06	-0.004239424853272842
2.57750e-06	-0.006579516107392248
2.57775e-06	-0.007839587676436274
2.57800e-06	-0.007247433805812067
2.57825e-06	-0.005862652477342241
2.57850e-06	-0.004038338787057272
2.57875e-06	-0.0029595527007130174
2.57900e-06	-0.0031228288641920563
2.57925e-06	-0.004024263553361715
2.57950e-06	-0.005486251519087817
2.57975e-06	-0.006272660203419708
2.58000e-06	-0.005900096137182415
2.58025e-06	-0.005032573492994873
2.58050e-06	-0.0038914944895360867
2.58075e-06	-0.003219261007685357
2.58100e-06	-0.003326376393924573
2.58125e-06	-0.003896159688547553
2.58150e-06	-0.004816741495222844
2.58175e-06	-0.005313758298550827
2.58200e-06	-0.005084494665483311
2.58225e-06	-0.004544959938700087
2.58250e-06	-0.003833884957204875
2.58275e-06	-0.003416322028350453
2.58300e-06	-0.003486752301678949
2.58325e-06	-0.003846787198300713
2.58350e-06	-0.004426343475531238
2.58375e-06	-0.004740376404772484
2.58400e-06	-0.004599311119826152
2.58425e-06	-0.0042637773869024075
2.58450e-06	-0.00382070009078179
2.58475e-06	-0.0035613961743796644
2.58500e-06	-0.003607676325644993
2.58525e-06	-0.0038352586183807423
2.58550e-06	-0.0042002380787328625
2.58575e-06	-0.004398795323886962
2.58600e-06	-0.004312211344862431
2.58625e-06	-0.004103772156185679
2.58650e-06	-0.0038279462710296484
2.58675e-06	-0.003667221392058992
2.58700e-06	-0.0036978950980937966
2.58725e-06	-0.0038421129067811263
2.58750e-06	-0.00407237311760944
2.58775e-06	-0.004198373794953833
2.58800e-06	-0.004145771441890234
2.58825e-06	-0.004016869338533703
2.58850e-06	-0.0038458017707412194
2.58875e-06	-0.0037468864214805844
2.58900e-06	-0.0037679158855373008
2.58925e-06	-0.003860123105048403
2.58950e-06	-0.004006284481596284
2.58975e-06	-0.004087204910397107
2.59000e-06	-0.004056333232931768
2.59025e-06	-0.003977767906406686
2.59050e-06	-0.003872904237273433
2.59075e-06	-0.003813387152295144
2.59100e-06	-0.0038293602176111227
2.59125e-06	-0.003890618663288326
2.59150e-06	-0.003986544737435423
2.59175e-06	-0.004042454771810379
2.59200e-06	-0.004029143119059449
2.59225e-06	-0.003986716124793244
2.59250e-06	-0.003928526345415726
2.59275e-06	-0.003899400610313534
2.59300e-06	-0.0039181667373169825
2.59325e-06	-0.0039658505020304866
2.59350e-06	-0.004035747344405164
2.59375e-06	-0.004081025702773378
2.59400e-06	-0.004083343257922812
2.59425e-06	-0.004067773858914589
2.59450e-06	-0.004042632573334729
2.59475e-06	-0.004035948052947483
2.59500e-06	-0.004059460582076079
2.59525e-06	-0.004101231930031567
2.59550e-06	-0.004157009794250972
2.59575e-06	-0.004197408185295999
2.59600e-06	-0.004210889017340973
2.59625e-06	-0.004213109055377591
2.59650e-06	-0.004209227070198335
2.59675e-06	-0.004216749029470741
2.59700e-06	-0.004242976541696385
2.59725e-06	-0.004280379083904006
2.59750e-06	-0.004326242111171559
2.59775e-06	-0.004362106504346627
2.59800e-06	-0.0043806960411524164
2.59825e-06	-0.004391767629852479
2.59850e-06	-0.004398503133027808
2.59875e-06	-0.004411815772984113
2.59900e-06	-0.004436228625831927
2.59925e-06	-0.0044669729419753315
2.59950e-06	-0.0045022970633054995
2.59975e-06	-0.004530586734723162
2.60000e-06	-0.004547233967325582
2.60025e-06	-0.0045583007525884164
2.60050e-06	-0.004565728767379854
2.60075e-06	-0.004576292010869365
2.60100e-06	-0.004592695366417946
2.60125e-06	-0.004611797157601188
2.60150e-06	-0.00463245719751084
2.60175e-06	-0.0046474565165151045
2.60200e-06	-0.004653980193653617
2.60225e-06	-0.0046558963379656785
2.60250e-06	-0.004654492378000398
2.60275e-06	-0.004654082611686148
2.60300e-06	-0.004656431040030715
2.60325e-06	-0.004659567214147842
2.60350e-06	-0.004661052440823711
2.60375e-06	-0.004662257285497762
2.60400e-06	-0.004655522327822933
2.60425e-06	-0.0046453579878291944
2.60450e-06	-0.004632716215201364
2.60475e-06	-0.004620131959929947
2.60500e-06	-0.004609151899605892
2.60525e-06	-0.0045981306898322145
2.60550e-06	-0.004585961796241645
2.60575e-06	-0.004573575977516947
2.60600e-06	-0.004555139981491146
2.60625e-06	-0.0045366168511431545
2.60650e-06	-0.004515663490198168
2.60675e-06	-0.004494761924692423
2.60700e-06	-0.0044753049662942
2.60725e-06	-0.004455818659564805
2.60750e-06	-0.004435513809572644
2.60775e-06	-0.004415208959580448
2.60800e-06	-0.004394821869788668
2.60825e-06	-0.004372141060688238
2.60850e-06	-0.004349460251587769
2.60875e-06	-0.004326867965650414
2.60900e-06	-0.004306744645950053
2.60925e-06	-0.004286685758260991
2.60950e-06	-0.004268423919556643
2.60975e-06	-0.0042501888314867824
2.61000e-06	-0.004232699835298966
2.61025e-06	-0.00421521083911112
2.61050e-06	-0.004197906824715869
2.61075e-06	-0.004185762067902028
2.61100e-06	-0.0041736173110882065
2.61125e-06	-0.0041614725542743645
2.61150e-06	-0.0041493277974605225
2.61175e-06	-0.0041393153140967375
2.61200e-06	-0.004131158997948825
2.61225e-06	-0.004123002681800914
2.61250e-06	-0.004114846365653016
2.61275e-06	-0.004106915763279649
2.61300e-06	-0.004105280458872579
2.61325e-06	-0.004103645154465509
2.61350e-06	-0.004102009850058442
2.61375e-06	-0.004100374545651372
2.61400e-06	-0.004098739241244302
2.61425e-06	-0.004097103936837235
2.61450e-06	-0.004095468632430164
2.61475e-06	-0.004093833328023095
2.61500e-06	-0.004092198023616025
2.61525e-06	-0.00409354803364697
2.61550e-06	-0.004097496792346364
2.61575e-06	-0.004101445551045757
2.61600e-06	-0.004105394309745143
2.61625e-06	-0.004109343068444536
2.61650e-06	-0.0041132918271439296
2.61675e-06	-0.004117240585843316
2.61700e-06	-0.0041211893445427085
2.61725e-06	-0.004125138103242102
2.61750e-06	-0.00412915224148742
2.61775e-06	-0.004134989856050788
2.61800e-06	-0.004140827470614165
2.61825e-06	-0.004146665085177543
2.61850e-06	-0.004152502699740911
2.61875e-06	-0.004158340314304288
2.61900e-06	-0.00416402806173807
2.61925e-06	-0.00416958534820648
2.61950e-06	-0.0041751426346749
2.61975e-06	-0.00418069992114332
2.62000e-06	-0.00418625720761174
2.62025e-06	-0.0041917752167695945
2.62050e-06	-0.0041961977572355855
2.62075e-06	-0.0042006202977015765
2.62100e-06	-0.00420512069707387
2.62125e-06	-0.004211792629910243
2.62150e-06	-0.004218464562746616
2.62175e-06	-0.004225136495582989
2.62200e-06	-0.00423180842841935
2.62225e-06	-0.004238480361255723
2.62250e-06	-0.004245152294092096
2.62275e-06	-0.004251824226928457
2.62300e-06	-0.004261027868670357
2.62325e-06	-0.004272435390534137
2.62350e-06	-0.004283842912397897
2.62375e-06	-0.0042952504342616766
2.62400e-06	-0.004306657956125457
2.62425e-06	-0.004318065477989236
2.62450e-06	-0.004329472999852996
2.62475e-06	-0.004341037415611689
2.62500e-06	-0.004356977699968164
2.62525e-06	-0.004372917984324612
2.62550e-06	-0.004388858268681087
2.62575e-06	-0.004404798553037562
2.62600e-06	-0.0044207388373940365
2.62625e-06	-0.0044366791217504845
2.62650e-06	-0.004452619406106959
2.62675e-06	-0.004468616970078152
2.62700e-06	-0.0044862120982343675
2.62725e-06	-0.004503807226390612
2.62750e-06	-0.004521402354546857
2.62775e-06	-0.004538997482703072
2.62800e-06	-0.004556592610859317
2.62825e-06	-0.004574187739015562
2.62850e-06	-0.0045917828671718066
2.62875e-06	-0.004609259594544668
2.62900e-06	-0.004623434050211915
2.62925e-06	-0.004637608505879163
2.62950e-06	-0.004651782961546387
2.62975e-06	-0.004665957417213634
2.63000e-06	-0.004680131872880882
2.63025e-06	-0.004694306328548129
2.63050e-06	-0.0047084807842153525
2.63075e-06	-0.0047226552398826
2.63100e-06	-0.004731425897475728
2.63125e-06	-0.004735492490105939
2.63150e-06	-0.004739559082736158
2.63175e-06	-0.004743625675366377
2.63200e-06	-0.004747692267996588
2.63225e-06	-0.004751758860626807
2.63250e-06	-0.004755825453257025
2.63275e-06	-0.004759892045887244
2.63300e-06	-0.004763547976202326
2.63325e-06	-0.004755750278377235
2.63350e-06	-0.004747952580552144
2.63375e-06	-0.004740154882727066
2.63400e-06	-0.004732357184901975
2.63425e-06	-0.004724559487076884
2.63450e-06	-0.004716761789251792
2.63475e-06	-0.004708662487674904
2.63500e-06	-0.004692151269318665
2.63525e-06	-0.004675640050962426
2.63550e-06	-0.004659128832606216
2.63575e-06	-0.004642617614249977
2.63600e-06	-0.004626106395893738
2.63625e-06	-0.004609595177537527
2.63650e-06	-0.004592923693957531
2.63675e-06	-0.004571782313312772
2.63700e-06	-0.004550640932668014
2.63725e-06	-0.00452949955202329
2.63750e-06	-0.004508358171378532
2.63775e-06	-0.004487216790733773
2.63800e-06	-0.004466075410089049
2.63825e-06	-0.004445119936688607
2.63850e-06	-0.004424326297565164
2.63875e-06	-0.004403532658441721
2.63900e-06	-0.004382739019318314
2.63925e-06	-0.004361945380194872
2.63950e-06	-0.00434115174107143
2.63975e-06	-0.004320601757300027
2.64000e-06	-0.0043068474732906896
2.64025e-06	-0.004293093189281352
2.64050e-06	-0.0042793389052720385
2.64075e-06	-0.0042655846212627
2.64100e-06	-0.004251830337253363
2.64125e-06	-0.004238076053244026
2.64150e-06	-0.004224321769234712
2.64175e-06	-0.004210567485225375
2.64200e-06	-0.004196813201216037
2.64225e-06	-0.00418334269689855
2.64250e-06	-0.004177786985211938
2.64275e-06	-0.004172231273525328
2.64300e-06	-0.004166675561838716
2.64325e-06	-0.004161119850152114
2.64350e-06	-0.004155564138465503
2.64375e-06	-0.004150008426778892
2.64400e-06	-0.004144452715092291
2.64425e-06	-0.004138897003405679
2.64450e-06	-0.004133341291719068
2.64475e-06	-0.004127977430274447
2.64500e-06	-0.004127964391758402
2.64525e-06	-0.004127951353242358
2.64550e-06	-0.004127938314726313
2.64575e-06	-0.004127925276210268
2.64600e-06	-0.004127912237694224
2.64625e-06	-0.004127899199178179
