Time(s)	Current(A)
1.55000e-06	-0.011840061657001194
1.55025e-06	-0.011859210495792171
1.55050e-06	-0.011880502693999111
1.55075e-06	-0.011903356333991932
1.55100e-06	-0.011926209973984735
1.55125e-06	-0.011949063613977556
1.55150e-06	-0.011971917253970359
1.55175e-06	-0.011994843347748257
1.55200e-06	-0.012018619547416924
1.55225e-06	-0.012042376949595507
1.55250e-06	-0.012065913799362496
1.55275e-06	-0.012089395756069963
1.55300e-06	-0.012112233648244684
1.55325e-06	-0.012135007102330918
1.55350e-06	-0.01215696788742126
1.55375e-06	-0.01217819729639307
1.55400e-06	-0.012198561438221527
1.55425e-06	-0.012217928776997686
1.55450e-06	-0.012236162715443293
1.55475e-06	-0.012253083946872915
1.55500e-06	-0.01226834628243168
1.55525e-06	-0.012281526414431396
1.55550e-06	-0.012292430320916774
1.55575e-06	-0.012300970909307265
1.55600e-06	-0.012306401451239847
1.55625e-06	-0.012311483435044413
1.55650e-06	-0.012312475759247666
1.55675e-06	-0.012313002498147397
1.55700e-06	-0.012308066488501935
1.55725e-06	-0.012303130478856472
1.55750e-06	-0.012297464994940924
1.55775e-06	-0.012283240532729792
1.55800e-06	-0.012269016070518649
1.55825e-06	-0.012254791608307516
1.55850e-06	-0.012240567146096372
1.55875e-06	-0.012225584742754701
1.55900e-06	-0.012201709357231858
1.55925e-06	-0.012177833971708995
1.55950e-06	-0.012153958586186153
1.55975e-06	-0.01213008320066329
1.56000e-06	-0.012105660956901578
1.56025e-06	-0.012074822382929193
1.56050e-06	-0.012043983808956783
1.56075e-06	-0.0120131452349844
1.56100e-06	-0.011982306661011988
1.56125e-06	-0.011951468087039605
1.56150e-06	-0.011920485569641346
1.56175e-06	-0.011887814152842091
1.56200e-06	-0.011855142736042863
1.56225e-06	-0.011822471319243608
1.56250e-06	-0.011789799902444381
1.56275e-06	-0.011757128485645125
1.56300e-06	-0.011724647871903306
1.56325e-06	-0.011694405965260392
1.56350e-06	-0.011664368307609713
1.56375e-06	-0.011636727119256413
1.56400e-06	-0.011609365442997607
1.56425e-06	-0.0115852833038632
1.56450e-06	-0.01156156182785533
1.56475e-06	-0.011542072040336335
1.56500e-06	-0.011523039463363699
1.56525e-06	-0.01150937137325863
1.56550e-06	-0.011496197393831198
1.56575e-06	-0.011488820853378956
1.56600e-06	-0.011482070542409368
1.56625e-06	-0.011482667830620553
1.56650e-06	-0.01148326511883174
1.56675e-06	-0.011484639321204405
1.56700e-06	-0.011495129117803166
1.56725e-06	-0.011505618914401917
1.56750e-06	-0.011516983793895954
1.56775e-06	-0.011538616088997854
1.56800e-06	-0.011560248384099735
1.56825e-06	-0.011581880679201633
1.56850e-06	-0.011604382614216122
1.56875e-06	-0.011637088101899538
1.56900e-06	-0.011669793589582981
1.56925e-06	-0.011702499077266396
1.56950e-06	-0.01173575409896641
1.56975e-06	-0.011775456845983556
1.57000e-06	-0.011815379713803666
1.57025e-06	-0.011858009910051088
1.57050e-06	-0.011902210769303031
1.57075e-06	-0.011947776215749092
1.57100e-06	-0.011994519126693682
1.57125e-06	-0.012042249799948675
1.57150e-06	-0.012090735565726611
1.57175e-06	-0.012139712786596929
1.57200e-06	-0.012188916820664511
1.57225e-06	-0.012238081236530949
1.57250e-06	-0.012286939037185347
1.57275e-06	-0.01233522775546878
1.57300e-06	-0.012382697650647322
1.57325e-06	-0.012429095290792279
1.57350e-06	-0.012474142244549291
1.57375e-06	-0.012517355917371608
1.57400e-06	-0.012556650279439785
1.57425e-06	-0.012595944641507961
1.57450e-06	-0.012634754328214492
1.57475e-06	-0.012667877281241979
1.57500e-06	-0.012700843052144351
1.57525e-06	-0.01273196459295899
1.57550e-06	-0.012762993987063223
1.57575e-06	-0.0127929422166543
1.57600e-06	-0.012822890446245351
1.57625e-06	-0.012852612252632423
1.57650e-06	-0.012879677417973323
1.57675e-06	-0.012906742583314246
1.57700e-06	-0.012933718262250003
1.57725e-06	-0.012959643990240962
1.57750e-06	-0.012985569718231943
1.57775e-06	-0.013011495446222904
1.57800e-06	-0.013037421174213883
1.57825e-06	-0.013063346902204844
1.57850e-06	-0.013089272630195803
1.57875e-06	-0.013114669170480844
1.57900e-06	-0.01313968019642313
1.57925e-06	-0.01316469122236544
1.57950e-06	-0.013189702248307726
1.57975e-06	-0.013214713274250015
1.58000e-06	-0.013239724300192322
1.58025e-06	-0.013264636733954244
1.58050e-06	-0.013288392378003227
1.58075e-06	-0.013312148022052191
1.58100e-06	-0.013335903666101174
1.58125e-06	-0.013359659310150138
1.58150e-06	-0.0133834149541991
1.58175e-06	-0.013407170598248084
1.58200e-06	-0.01343070161281312
1.58225e-06	-0.013451597032189375
1.58250e-06	-0.013472492451565612
1.58275e-06	-0.013493387870941849
1.58300e-06	-0.013514283290318103
1.58325e-06	-0.01353517870969434
1.58350e-06	-0.013556074129070596
1.58375e-06	-0.0135767680945232
1.58400e-06	-0.013595029193119234
1.58425e-06	-0.013612400044669622
1.58450e-06	-0.013628749332410851
1.58475e-06	-0.01364369954235398
1.58500e-06	-0.013655849852036474
1.58525e-06	-0.0136632059748454
1.58550e-06	-0.013664860477612386
1.58575e-06	-0.013660917883221286
1.58600e-06	-0.013651604995528388
1.58625e-06	-0.013637143835016395
1.58650e-06	-0.013617751862890758
1.58675e-06	-0.013593491135406383
1.58700e-06	-0.013563782486219816
1.58725e-06	-0.013527675416386421
1.58750e-06	-0.013484900370047674
1.58775e-06	-0.013435823054786003
1.58800e-06	-0.013380685152169272
1.58825e-06	-0.013318205514606043
1.58850e-06	-0.013254685035253521
1.58875e-06	-0.013178952278315276
1.58900e-06	-0.013103219521376969
1.58925e-06	-0.013027486764438725
1.58950e-06	-0.012942767384698002
1.58975e-06	-0.012851501231583807
1.59000e-06	-0.012760235078469614
1.59025e-06	-0.012668322407679032
1.59050e-06	-0.0125688240947587
1.59075e-06	-0.012469024290577222
1.59100e-06	-0.012365687066004325
1.59125e-06	-0.012262136851971892
1.59150e-06	-0.012156087616061625
1.59175e-06	-0.012050016656981983
1.59200e-06	-0.011943690818267055
1.59225e-06	-0.011837548895072826
1.59250e-06	-0.011733564866971859
1.59275e-06	-0.01162993418779905
1.59300e-06	-0.01153044937905605
1.59325e-06	-0.011431316017549613
1.59350e-06	-0.011336608436458562
1.59375e-06	-0.011245804814438116
1.59400e-06	-0.011159849751345251
1.59425e-06	-0.011081505033723448
1.59450e-06	-0.011004198383719938
1.59475e-06	-0.010939071461738364
1.59500e-06	-0.010875085189008702
1.59525e-06	-0.010824482242578258
1.59550e-06	-0.010775057028386038
1.59575e-06	-0.010739450238052022
1.59600e-06	-0.010705068941672308
1.59625e-06	-0.010685066461075986
1.59650e-06	-0.010666329702525575
1.59675e-06	-0.010662443759082992
1.59700e-06	-0.010659796219155011
1.59725e-06	-0.01067167896388453
1.59750e-06	-0.010685011455893581
1.59775e-06	-0.010715353945374553
1.59800e-06	-0.010745696434855552
1.59825e-06	-0.010778128488441778
1.59850e-06	-0.01083507756002791
1.59875e-06	-0.01089202663161409
1.59900e-06	-0.010948975703200223
1.59925e-06	-0.011005924774786404
1.59950e-06	-0.011064203889479877
1.59975e-06	-0.011138455456629297
1.60000e-06	-0.011217346920952423
1.60025e-06	-0.011300463917045398
1.60050e-06	-0.01138739235254936
1.60075e-06	-0.011477707246851269
1.60100e-06	-0.011570930202337166
1.60125e-06	-0.011666508266919296
1.60150e-06	-0.011763871217660348
1.60175e-06	-0.01186246763845433
1.60200e-06	-0.011961745547582262
1.60225e-06	-0.012061156176621913
1.60250e-06	-0.01216014803632497
1.60275e-06	-0.012258165141686775
1.60300e-06	-0.012354615239741016
1.60325e-06	-0.012448861998219886
1.60350e-06	-0.012540256451096228
1.60375e-06	-0.01262777609594601
1.60400e-06	-0.012707007432658847
1.60425e-06	-0.012786238769371752
1.60450e-06	-0.012863382390033259
1.60475e-06	-0.012916030676058034
1.60500e-06	-0.012968678962082765
1.60525e-06	-0.013021327248107497
1.60550e-06	-0.013073975534132273
1.60575e-06	-0.013126623820157005
1.60600e-06	-0.013179272106181781
1.60625e-06	-0.013231920392206513
1.60650e-06	-0.013284568678231289
1.60675e-06	-0.013337216964256021
1.60700e-06	-0.013389865250280752
1.60725e-06	-0.013427234922835398
1.60750e-06	-0.013453474093750003
1.60775e-06	-0.013479713264664628
1.60800e-06	-0.013505952435579232
1.60825e-06	-0.013532191606493835
1.60850e-06	-0.01355843077740846
1.60875e-06	-0.013584669948323065
1.60900e-06	-0.01361090911923769
1.60925e-06	-0.013637148290152293
1.60950e-06	-0.013663387461066897
1.60975e-06	-0.013688505643258103
1.61000e-06	-0.013700471177662807
1.61025e-06	-0.013712436712067523
1.61050e-06	-0.013724402246472228
1.61075e-06	-0.013736367780876942
1.61100e-06	-0.013748333315281648
1.61125e-06	-0.013760298849686353
1.61150e-06	-0.013772264384091067
1.61175e-06	-0.013784229918495773
1.61200e-06	-0.013796195452900487
1.61225e-06	-0.013804676064457599
1.61250e-06	-0.013810617902483646
1.61275e-06	-0.013816559740509698
1.61300e-06	-0.013822501578535743
1.61325e-06	-0.013828443416561795
1.61350e-06	-0.013834385254587842
1.61375e-06	-0.013840327092613888
1.61400e-06	-0.01384626893063994
1.61425e-06	-0.013852210768665985
1.61450e-06	-0.0138579196881928
1.61475e-06	-0.013860895756871824
1.61500e-06	-0.013863871825550848
1.61525e-06	-0.013866847894229874
1.61550e-06	-0.013869823962908898
1.61575e-06	-0.013872800031587926
1.61600e-06	-0.01387577610026695
1.61625e-06	-0.013878752168945976
1.61650e-06	-0.013881728237625
1.61675e-06	-0.013881702664969622
1.61700e-06	-0.013879490390369141
1.61725e-06	-0.013877278115768664
1.61750e-06	-0.013875065841168184
1.61775e-06	-0.013872853566567707
1.61800e-06	-0.01387064129196723
1.61825e-06	-0.01386842901736675
1.61850e-06	-0.013866216742766273
1.61875e-06	-0.013863651226799124
1.61900e-06	-0.0138569411024327
1.61925e-06	-0.013850230978066277
1.61950e-06	-0.013843520853699848
1.61975e-06	-0.013836810729333425
1.62000e-06	-0.013830100604966996
1.62025e-06	-0.013823390480600573
1.62050e-06	-0.013816680356234144
1.62075e-06	-0.01380997023186772
1.62100e-06	-0.013802322463030642
1.62125e-06	-0.013793991618249657
1.62150e-06	-0.013785660773468678
1.62175e-06	-0.013777329928687694
1.62200e-06	-0.013768999083906715
1.62225e-06	-0.013760668239125737
1.62250e-06	-0.013752337394344751
1.62275e-06	-0.013744006549563773
1.62300e-06	-0.0137357482306539
1.62325e-06	-0.013728340863424436
1.62350e-06	-0.013720933496194973
1.62375e-06	-0.013714176141232945
1.62400e-06	-0.0137078923215575
1.62425e-06	-0.013701691166953243
1.62450e-06	-0.013696494963062335
1.62475e-06	-0.013691709827673955
1.62500e-06	-0.013686683689445749
1.62525e-06	-0.013678829846174016
1.62550e-06	-0.01367061570548527
1.62575e-06	-0.013658174167210982
1.62600e-06	-0.013645429930832686
1.62625e-06	-0.013629134114083351
1.62650e-06	-0.013612564234317058
1.62675e-06	-0.013592778751880624
1.62700e-06	-0.01357257690869586
1.62725e-06	-0.013547489872503421
1.62750e-06	-0.01352186412121245
1.62775e-06	-0.013489917583817132
1.62800e-06	-0.013457971046421786
1.62825e-06	-0.013425365992232973
1.62850e-06	-0.01338503450934567
1.62875e-06	-0.013344703026458403
1.62900e-06	-0.0133043715435711
1.62925e-06	-0.013264040060683832
1.62950e-06	-0.013223214693858532
1.62975e-06	-0.013176462746561814
1.63000e-06	-0.013128057424260505
1.63025e-06	-0.01307831537662989
1.63050e-06	-0.013027550839659929
1.63075e-06	-0.012976034003854255
1.63100e-06	-0.012923839360166016
1.63125e-06	-0.01287092443374727
1.63150e-06	-0.012817430532388258
1.63175e-06	-0.012763683438610686
1.63200e-06	-0.012710028746231675
1.63225e-06	-0.012656812834106957
1.63250e-06	-0.01260437968693012
1.63275e-06	-0.012553045539718217
1.63300e-06	-0.012503005321555514
1.63325e-06	-0.012454379002576411
1.63350e-06	-0.012407403553373166
1.63375e-06	-0.012362537016138129
1.63400e-06	-0.012321068015858189
1.63425e-06	-0.012279945928012131
1.63450e-06	-0.012243147261970963
1.63475e-06	-0.012209483933076097
1.63500e-06	-0.012177768674120142
1.63525e-06	-0.012145974568104559
1.63550e-06	-0.012113173643816158
1.63575e-06	-0.012079414131808894
1.63600e-06	-0.01204563618802149
1.63625e-06	-0.01201164198272545
1.63650e-06	-0.011977686323255366
1.63675e-06	-0.01194418292495615
1.63700e-06	-0.011910429673636858
1.63725e-06	-0.011873744877422755
1.63750e-06	-0.01183706008120862
1.63775e-06	-0.011800027685025992
1.63800e-06	-0.011758916871408285
1.63825e-06	-0.011717806057790544
1.63850e-06	-0.011676695244172839
1.63875e-06	-0.011635584430555098
1.63900e-06	-0.011594116303713278
1.63925e-06	-0.01154845579305406
1.63950e-06	-0.011502795282394805
1.63975e-06	-0.011457134771735586
1.64000e-06	-0.01141147426107633
1.64025e-06	-0.011365664999124569
1.64050e-06	-0.011318110426701269
1.64075e-06	-0.011270555854277931
1.64100e-06	-0.011222973999894302
1.64125e-06	-0.01117507204415063
1.64150e-06	-0.011127170088407001
1.64175e-06	-0.011079352538513785
1.64200e-06	-0.011032525329021261
1.64225e-06	-0.010985698119528736
1.64250e-06	-0.010939148873959066
1.64275e-06	-0.010895861000690938
1.64300e-06	-0.010852573127422774
1.64325e-06	-0.01080957094674727
1.64350e-06	-0.01076992081945559
1.64375e-06	-0.010730592297471041
1.64400e-06	-0.010695037195539946
1.64425e-06	-0.010659904707996997
1.64450e-06	-0.01062973078790203
1.64475e-06	-0.010600108138946504
1.64500e-06	-0.010576953597096395
1.64525e-06	-0.010554457515964477
1.64550e-06	-0.01053968720559235
1.64575e-06	-0.010525591630030034
1.64600e-06	-0.010519412770408743
1.64625e-06	-0.010513914460385052
1.64650e-06	-0.010516401091659276
1.64675e-06	-0.010519771229348605
1.64700e-06	-0.010533507616442466
1.64725e-06	-0.01054724400353634
1.64750e-06	-0.010562015057147243
1.64775e-06	-0.010588925933381616
1.64800e-06	-0.010615836809616011
1.64825e-06	-0.0106436679583032
1.64850e-06	-0.010682296735171418
1.64875e-06	-0.010720925512039603
1.64900e-06	-0.010760368212914706
1.64925e-06	-0.010809360747393254
1.64950e-06	-0.010858353281871758
1.64975e-06	-0.010907806659615915
1.65000e-06	-0.010962859144906334
1.65025e-06	-0.011020333385371889
1.65050e-06	-0.011079937530860081
1.65075e-06	-0.011141389010348475
1.65100e-06	-0.011204434231052168
1.65125e-06	-0.011268822130730431
1.65150e-06	-0.01133423691293767
1.65175e-06	-0.011400317716985483
1.65200e-06	-0.011466698533102108
1.65225e-06	-0.011533013424657759
1.65250e-06	-0.011598897532629026
1.65275e-06	-0.01166399025480015
1.65300e-06	-0.011727950873392678
1.65325e-06	-0.011790437315026143
1.65350e-06	-0.011851069195333774
1.65375e-06	-0.011909319024930382
1.65400e-06	-0.011963725492755603
1.65425e-06	-0.012017739736687218
1.65450e-06	-0.012066864466063717
1.65475e-06	-0.012112405916329295
1.65500e-06	-0.012155486104663283
1.65525e-06	-0.012198633364197383
1.65550e-06	-0.012242567575332293
1.65575e-06	-0.012286527239877956
1.65600e-06	-0.012330785551268833
1.65625e-06	-0.012374943048623974
1.65650e-06	-0.012417917687066208
1.65675e-06	-0.012460892325508406
1.65700e-06	-0.012504133384738549
1.65725e-06	-0.012550500379769729
1.65750e-06	-0.012596867374800908
1.65775e-06	-0.012643234369832128
1.65800e-06	-0.012689601364863308
1.65825e-06	-0.012735968359894526
1.65850e-06	-0.012784702072789582
1.65875e-06	-0.012835159944562611
1.65900e-06	-0.012885617816335683
1.65925e-06	-0.012936075688108714
1.65950e-06	-0.012986533559881787
1.65975e-06	-0.01303723388352447
1.66000e-06	-0.013090778913788266
1.66025e-06	-0.013144323944052017
1.66050e-06	-0.013197868974315767
1.66075e-06	-0.013251414004579562
1.66100e-06	-0.013304959034843314
1.66125e-06	-0.01335850406510711
1.66150e-06	-0.013410888513122696
1.66175e-06	-0.013462427474560732
1.66200e-06	-0.01351396643599881
1.66225e-06	-0.013565505397436848
1.66250e-06	-0.013617044358874926
1.66275e-06	-0.013668583320312962
1.66300e-06	-0.013719676856440597
1.66325e-06	-0.013765544182799589
1.66350e-06	-0.013811411509158544
1.66375e-06	-0.013856287897868023
1.66400e-06	-0.013889537538157496
1.66425e-06	-0.013922787178446997
1.66450e-06	-0.01395603681873647
1.66475e-06	-0.013989286459025944
1.66500e-06	-0.014022536099315447
1.66525e-06	-0.01405578573960492
1.66550e-06	-0.014089035379894421
1.66575e-06	-0.014122285020183895
1.66600e-06	-0.014144789528677346
1.66625e-06	-0.014159466186347043
1.66650e-06	-0.014174142844016729
1.66675e-06	-0.014188819501686427
1.66700e-06	-0.014203496159356111
1.66725e-06	-0.014218172817025797
1.66750e-06	-0.014232849474695494
1.66775e-06	-0.01424752613236518
1.66800e-06	-0.014261039677587153
1.66825e-06	-0.014260906334107941
1.66850e-06	-0.014260772990628728
1.66875e-06	-0.014260639647149515
1.66900e-06	-0.014260506303670303
1.66925e-06	-0.01426037296019109
1.66950e-06	-0.014260239616711877
1.66975e-06	-0.014260106273232665
1.67000e-06	-0.014259972929753452
1.67025e-06	-0.014254873848540942
1.67050e-06	-0.014246157217079343
1.67075e-06	-0.014237440585617751
1.67100e-06	-0.014228723954156152
1.67125e-06	-0.01422000732269456
1.67150e-06	-0.014211290691232968
1.67175e-06	-0.01420257405977137
1.67200e-06	-0.014193857428309777
1.67225e-06	-0.01418503848043097
1.67250e-06	-0.014175019046081093
1.67275e-06	-0.014164999611731207
1.67300e-06	-0.014154980177381328
1.67325e-06	-0.01414496074303145
1.67350e-06	-0.014134941308681565
1.67375e-06	-0.014124921874331687
1.67400e-06	-0.014115224891646391
1.67425e-06	-0.014109311259389747
1.67450e-06	-0.014103397627133104
1.67475e-06	-0.014097483994876455
1.67500e-06	-0.01409157036261981
1.67525e-06	-0.01408565673036316
1.67550e-06	-0.014079743098106516
1.67575e-06	-0.01407433645348836
1.67600e-06	-0.014074878334215175
1.67625e-06	-0.01407542021494199
1.67650e-06	-0.014075962095668804
1.67675e-06	-0.014076503976395618
1.67700e-06	-0.014077045857122434
1.67725e-06	-0.014077587737849248
1.67750e-06	-0.014078129618576062
1.67775e-06	-0.014078671499302876
1.67800e-06	-0.01407921338002969
1.67825e-06	-0.014079755260756504
1.67850e-06	-0.014080297141483318
1.67875e-06	-0.014080839022210134
1.67900e-06	-0.014084620834773057
1.67925e-06	-0.014090762944405548
1.67950e-06	-0.014096905054038046
1.67975e-06	-0.01410304716367054
1.68000e-06	-0.01410918927330303
1.68025e-06	-0.014115331382935529
1.68050e-06	-0.01412147349256802
1.68075e-06	-0.014127615602200518
1.68100e-06	-0.014133757711833011
1.68125e-06	-0.014139899821465508
1.68150e-06	-0.014146041931098
1.68175e-06	-0.014152184040730492
1.68200e-06	-0.014158433007877176
1.68225e-06	-0.014165935742538278
1.68250e-06	-0.014173438477199388
1.68275e-06	-0.01418094121186049
1.68300e-06	-0.014188443946521594
1.68325e-06	-0.014195700507954356
1.68350e-06	-0.014202777731679144
1.68375e-06	-0.01420985495540394
1.68400e-06	-0.014216932179128727
1.68425e-06	-0.014223916943257775
1.68450e-06	-0.01422981687176797
1.68475e-06	-0.014235716800278159
1.68500e-06	-0.014241213326361225
1.68525e-06	-0.014241976700431553
1.68550e-06	-0.01424274007450188
1.68575e-06	-0.01424297280347209
1.68600e-06	-0.014236979432263581
1.68625e-06	-0.014230986061055068
1.68650e-06	-0.014224219915963059
1.68675e-06	-0.014208386754869075
1.68700e-06	-0.014192553593775104
1.68725e-06	-0.014176720432681134
1.68750e-06	-0.014160887271587149
1.68775e-06	-0.01414505411049318
1.68800e-06	-0.014121637538254055
1.68825e-06	-0.014092696435250811
1.68850e-06	-0.014063755332247569
1.68875e-06	-0.0140348142292443
1.68900e-06	-0.014005873126241056
1.68925e-06	-0.013976147098032495
1.68950e-06	-0.01393721148142006
1.68975e-06	-0.013898275864807626
1.69000e-06	-0.013859340248195158
1.69025e-06	-0.013820404631582723
1.69050e-06	-0.013781070200983608
1.69075e-06	-0.013737056454900825
1.69100e-06	-0.013693042708818005
1.69125e-06	-0.013649028962735222
1.69150e-06	-0.013605015216652439
1.69175e-06	-0.01356092579787208
1.69200e-06	-0.0135159485054536
1.69225e-06	-0.013471055509172637
1.69250e-06	-0.013427151566021402
1.69275e-06	-0.013383359566677999
1.69300e-06	-0.0133409722207823
1.69325e-06	-0.013299763715071567
1.69350e-06	-0.013259962779567789
1.69375e-06	-0.013221871255450424
1.69400e-06	-0.013185802559575176
1.69425e-06	-0.01315206539856612
1.69450e-06	-0.013120976261242418
1.69475e-06	-0.013092898475877048
1.69500e-06	-0.01306838823232846
1.69525e-06	-0.013048044063310876
1.69550e-06	-0.013032320220852413
1.69575e-06	-0.013022777424091615
1.69600e-06	-0.013013936717243551
1.69625e-06	-0.013013333685876488
1.69650e-06	-0.013013441192321425
1.69675e-06	-0.013021885494105464
1.69700e-06	-0.013031266281483093
1.69725e-06	-0.013051634927071667
1.69750e-06	-0.013072003572660225
