Time(s)	Current(A)
1.35000e-05	-0.00754578105438178
1.35003e-05	-0.007557387972408705
1.35005e-05	-0.007568994890435709
1.35008e-05	-0.007580594810737656
1.35010e-05	-0.007586468972656627
1.35013e-05	-0.007592343134575559
1.35015e-05	-0.007598209821871471
1.35018e-05	-0.007597960537862331
1.35020e-05	-0.007597711253853194
1.35023e-05	-0.007597450335673787
1.35025e-05	-0.007587669974046248
1.35028e-05	-0.007577889612418775
1.35030e-05	-0.007568109250791237
1.35033e-05	-0.007558328889163697
1.35035e-05	-0.007548548527536224
1.35038e-05	-0.007538754189216338
1.35040e-05	-0.007517523682195165
1.35043e-05	-0.007496293175174136
1.35045e-05	-0.007475062668152963
1.35048e-05	-0.00745383216113179
1.35050e-05	-0.007432601654110761
1.35053e-05	-0.007411361819423313
1.35055e-05	-0.007382489795155401
1.35058e-05	-0.007353617770887684
1.35060e-05	-0.007324745746619773
1.35063e-05	-0.00729587372235186
1.35065e-05	-0.0072669976231357625
1.35068e-05	-0.007234787273099141
1.35070e-05	-0.00720257692306252
1.35073e-05	-0.007170366573026117
1.35075e-05	-0.007138156222989496
1.35078e-05	-0.0071059457403422665
1.35080e-05	-0.007073626751527535
1.35083e-05	-0.007041308989346497
1.35085e-05	-0.007009994897589557
1.35088e-05	-0.00697868222885321
1.35090e-05	-0.0069485351791624544
1.35093e-05	-0.00691942069752165
1.35095e-05	-0.006892259605955749
1.35098e-05	-0.006865102528517831
1.35100e-05	-0.006841229936962712
1.35103e-05	-0.006817362683178704
1.35105e-05	-0.006797862961552395
1.35108e-05	-0.006778363239925955
1.35110e-05	-0.006758868980173962
1.35113e-05	-0.006743843797857364
1.35115e-05	-0.006728818615540663
1.35118e-05	-0.006713802816589862
1.35120e-05	-0.006706464782744105
1.35123e-05	-0.006699126748898299
1.35125e-05	-0.006691788715052492
1.35128e-05	-0.006684450681206735
1.35130e-05	-0.0066771126473609286
1.35133e-05	-0.006669774613515121
1.35135e-05	-0.006666912814488289
1.35138e-05	-0.006668505447731083
1.35140e-05	-0.006670098080973877
1.35143e-05	-0.00667169071421666
1.35145e-05	-0.006673283347459454
1.35148e-05	-0.006674875980702248
1.35150e-05	-0.00667647657983203
1.35153e-05	-0.006684595118284077
1.35155e-05	-0.006692713656736123
1.35158e-05	-0.006700832195188114
1.35160e-05	-0.006708950733640161
1.35163e-05	-0.006717069272092206
1.35165e-05	-0.006725187810544198
1.35168e-05	-0.006733310053826777
1.35170e-05	-0.006744463706026454
1.35173e-05	-0.006755617358226056
1.35175e-05	-0.006766771010425734
1.35178e-05	-0.0067779246626254105
1.35180e-05	-0.006789078314825012
1.35183e-05	-0.006800231967024689
1.35185e-05	-0.0068113851495533615
1.35188e-05	-0.00682215403248364
1.35190e-05	-0.006832922915413846
1.35193e-05	-0.00684368579031651
1.35195e-05	-0.006849532707896299
1.35198e-05	-0.006855379625476049
1.35200e-05	-0.006861226543055839
1.35203e-05	-0.006867073460635628
1.35205e-05	-0.006872920378215378
1.35208e-05	-0.006878767295795167
1.35210e-05	-0.006884614213374956
1.35213e-05	-0.006890461130954706
1.35215e-05	-0.006896308048534495
1.35218e-05	-0.006902154966114285
1.35220e-05	-0.006908001883694034
1.35223e-05	-0.0069138488012738235
1.35225e-05	-0.006919695718853613
1.35228e-05	-0.006925542636433362
1.35230e-05	-0.006931389554013152
1.35233e-05	-0.006932181484429864
1.35235e-05	-0.006932521082259608
1.35238e-05	-0.006932860680089354
1.35240e-05	-0.006933200277919099
1.35243e-05	-0.006933539875748842
1.35245e-05	-0.006933879473578587
1.35248e-05	-0.006934219071408333
1.35250e-05	-0.006934558669238077
1.35253e-05	-0.006934898267067822
1.35255e-05	-0.006935237864897568
1.35258e-05	-0.006935577462727311
1.35260e-05	-0.0069359170605570565
1.35263e-05	-0.0069362566583868026
1.35265e-05	-0.006936596256216545
1.35268e-05	-0.006936935854046291
1.35270e-05	-0.006935741406755819
1.35273e-05	-0.006934242753512833
1.35275e-05	-0.006932744100269858
1.35278e-05	-0.006931245447026872
1.35280e-05	-0.006929746793783887
1.35283e-05	-0.006928248140540912
1.35285e-05	-0.0069265089435414625
1.35288e-05	-0.006924722045961634
1.35290e-05	-0.006922935148381817
1.35293e-05	-0.006921148250801988
1.35295e-05	-0.00691936135322216
1.35298e-05	-0.0069175744556423426
1.35300e-05	-0.0069159481796338676
1.35303e-05	-0.006914353755386122
1.35305e-05	-0.006912759331138388
1.35308e-05	-0.00691290713280577
1.35310e-05	-0.006913400423329461
1.35313e-05	-0.0069138937138531475
1.35315e-05	-0.006918684186554352
1.35318e-05	-0.0069243268039417835
1.35320e-05	-0.006929969421329177
1.35323e-05	-0.006935612038716607
1.35325e-05	-0.006941254656104038
1.35328e-05	-0.006946897273491431
1.35330e-05	-0.006952539890878863
1.35333e-05	-0.0069645349618799
1.35335e-05	-0.006977789744330874
1.35338e-05	-0.006991044526781937
1.35340e-05	-0.007004299309233001
1.35343e-05	-0.007017554091683974
1.35345e-05	-0.007030808874135037
1.35348e-05	-0.007044063656586101
1.35350e-05	-0.007062504691219543
1.35353e-05	-0.007081974175906395
1.35355e-05	-0.007101443660593247
1.35358e-05	-0.007120913145280098
1.35360e-05	-0.007140382629966817
1.35363e-05	-0.007159852114653669
1.35365e-05	-0.007179321599340521
1.35368e-05	-0.007199410092968456
1.35370e-05	-0.007220730053522897
1.35373e-05	-0.007242050014077337
1.35375e-05	-0.007263369974631634
1.35378e-05	-0.007284689935186075
1.35380e-05	-0.007306009895740515
1.35383e-05	-0.007327329856294812
1.35385e-05	-0.007348649816849253
1.35388e-05	-0.0073682764115344055
1.35390e-05	-0.007387567206463143
1.35393e-05	-0.007406858001392012
1.35395e-05	-0.007423834550358235
1.35398e-05	-0.007440352177100646
1.35400e-05	-0.007456869803843168
1.35403e-05	-0.007469958678171567
1.35405e-05	-0.0074823676201556605
1.35408e-05	-0.007494776562139837
1.35410e-05	-0.007499912067146162
1.35413e-05	-0.007503605226815779
1.35415e-05	-0.00750729838648542
1.35418e-05	-0.007510991546155061
1.35420e-05	-0.007514684705824677
1.35423e-05	-0.007518377865494318
1.35425e-05	-0.007522071025163959
1.35428e-05	-0.007515319212013402
1.35430e-05	-0.007506496128033642
1.35433e-05	-0.007497673044053883
1.35435e-05	-0.007488849960074182
1.35438e-05	-0.0074800268760944226
1.35440e-05	-0.007471203792114662
1.35443e-05	-0.0074623807081349025
1.35445e-05	-0.007444978933357649
1.35448e-05	-0.007425875977322341
1.35450e-05	-0.007406773021287034
1.35453e-05	-0.007387670065251856
1.35455e-05	-0.0073685671092165485
1.35458e-05	-0.007349464153181241
1.35460e-05	-0.007330361197146063
1.35463e-05	-0.007307852656693007
1.35465e-05	-0.0072836325099796305
1.35468e-05	-0.007259206868035785
1.35470e-05	-0.007234781226091774
1.35473e-05	-0.007209558046232662
1.35475e-05	-0.007184176712106838
1.35478e-05	-0.007158795377980843
1.35480e-05	-0.007133657048748256
1.35483e-05	-0.007108566908147426
1.35485e-05	-0.0070834767675464275
1.35488e-05	-0.007059370434069854
1.35490e-05	-0.0070354591926280515
1.35493e-05	-0.007013381757303321
1.35495e-05	-0.006991667971476161
1.35498e-05	-0.0069699541856491475
1.35500e-05	-0.006954488319879764
1.35503e-05	-0.006940261436229938
1.35505e-05	-0.006926034552580208
1.35508e-05	-0.006911807668930382
1.35510e-05	-0.006897580785280556
1.35513e-05	-0.0068833539016308265
1.35515e-05	-0.006869127017981
1.35518e-05	-0.006854900134331174
1.35520e-05	-0.006840673250681445
1.35523e-05	-0.0068264463670316185
1.35525e-05	-0.006815114653011022
1.35528e-05	-0.006809542638744485
1.35530e-05	-0.006803970624477986
1.35533e-05	-0.00679839861021145
1.35535e-05	-0.006792826595944913
1.35538e-05	-0.006787254581678415
1.35540e-05	-0.006781682567411879
1.35543e-05	-0.006776110553145342
1.35545e-05	-0.006770538538878844
1.35548e-05	-0.0067649665246123074
1.35550e-05	-0.006759394510345771
1.35553e-05	-0.006758013826965174
1.35555e-05	-0.0067574642976291725
1.35558e-05	-0.0067569147682931706
1.35560e-05	-0.006756365238957173
1.35563e-05	-0.006755815709621172
1.35565e-05	-0.00675526618028517
1.35568e-05	-0.006754716650949172
1.35570e-05	-0.006754167121613171
1.35573e-05	-0.006753617592277169
1.35575e-05	-0.006753612290290346
1.35578e-05	-0.006754689683458245
1.35580e-05	-0.006755767076626144
1.35583e-05	-0.006756844469794036
1.35585e-05	-0.006757921862961935
1.35588e-05	-0.006758999256129833
1.35590e-05	-0.006760076649297724
1.35593e-05	-0.006761154042465623
1.35595e-05	-0.006762231435633523
1.35598e-05	-0.006763308828801414
1.35600e-05	-0.006764027925420892
1.35603e-05	-0.006764675970712395
1.35605e-05	-0.006765324016003895
1.35608e-05	-0.006767318562290449
1.35610e-05	-0.006769580123942473
1.35613e-05	-0.0067718416855944985
1.35615e-05	-0.006777772932017022
1.35618e-05	-0.006784431888425523
1.35620e-05	-0.0067910908448340235
1.35623e-05	-0.006797749801242479
1.35625e-05	-0.00680440875765098
1.35628e-05	-0.0068110677140594805
1.35630e-05	-0.006817726670467936
1.35633e-05	-0.006829949998520786
1.35635e-05	-0.006843276758902246
1.35638e-05	-0.006856603519283616
1.35640e-05	-0.0068699302796650765
1.35643e-05	-0.006883257040046536
1.35645e-05	-0.006896583800427906
1.35648e-05	-0.006909910560809366
1.35650e-05	-0.006927849725051302
1.35653e-05	-0.006946703543428034
1.35655e-05	-0.006965557361804892
1.35658e-05	-0.006984411180181752
1.35660e-05	-0.007003264998558483
1.35663e-05	-0.007022118816935341
1.35665e-05	-0.007040972635312201
1.35668e-05	-0.007060334055974313
1.35670e-05	-0.007080705309266079
1.35673e-05	-0.007101076562557845
1.35675e-05	-0.0071214478158494725
1.35678e-05	-0.0071418190691412385
1.35680e-05	-0.0071621903224330045
1.35683e-05	-0.0071825615757246325
1.35685e-05	-0.0072029328290163985
1.35688e-05	-0.007220019545119971
1.35690e-05	-0.007236454927209305
1.35693e-05	-0.0072528903092987495
1.35695e-05	-0.007269325691388194
1.35698e-05	-0.007285761073477639
1.35700e-05	-0.007302196455566972
1.35703e-05	-0.007318631837656416
1.35705e-05	-0.007329268466440382
1.35708e-05	-0.007338755184277515
1.35710e-05	-0.007348241902114713
1.35713e-05	-0.00735772861995191
1.35715e-05	-0.007367215337789043
1.35718e-05	-0.00737670205562624
1.35720e-05	-0.007386188773463438
1.35723e-05	-0.00738896805709744
1.35725e-05	-0.007390417235515828
1.35728e-05	-0.007391866413934216
1.35730e-05	-0.007393315592352595
1.35733e-05	-0.007394764770770983
1.35735e-05	-0.007396213949189372
1.35738e-05	-0.00739766312760775
1.35740e-05	-0.007399112306026139
1.35743e-05	-0.007400561484444527
1.35745e-05	-0.007402010662862906
1.35748e-05	-0.007403459841281294
1.35750e-05	-0.007402833297311041
1.35753e-05	-0.0073980772758762215
1.35755e-05	-0.00739332125444137
1.35758e-05	-0.007388565233006518
1.35760e-05	-0.007383809211571698
1.35763e-05	-0.007379053190136847
1.35765e-05	-0.007374297168701995
1.35768e-05	-0.007369541147267176
1.35770e-05	-0.007364785125832324
1.35773e-05	-0.007360029104397472
1.35775e-05	-0.007355273082962653
1.35778e-05	-0.007350517061527801
1.35780e-05	-0.007344700783549356
1.35783e-05	-0.00733867425337668
1.35785e-05	-0.007332647723204045
1.35788e-05	-0.007326621193031369
1.35790e-05	-0.007320594662858693
1.35793e-05	-0.007314568132686059
1.35795e-05	-0.007308541602513383
1.35798e-05	-0.007302515072340707
1.35800e-05	-0.007297284347572039
1.35803e-05	-0.007292211433508109
1.35805e-05	-0.007285908080487977
1.35808e-05	-0.007279360727568046
1.35810e-05	-0.00727281337464807
1.35813e-05	-0.007262027425715411
1.35815e-05	-0.007250400949914419
1.35818e-05	-0.007238774474113348
1.35820e-05	-0.007223458494913089
1.35823e-05	-0.007207410875629998
1.35825e-05	-0.007191363256346799
1.35828e-05	-0.007168844504836921
1.35830e-05	-0.00714504250753312
1.35833e-05	-0.007121240510229157
1.35835e-05	-0.007097438512925194
1.35838e-05	-0.007073636515621392
1.35840e-05	-0.007042535900024988
1.35843e-05	-0.007009987945555069
1.35845e-05	-0.00697743999108537
1.35848e-05	-0.0069448920366154505
1.35850e-05	-0.006912344082145532
1.35853e-05	-0.006874774320156424
1.35855e-05	-0.0068362087180028844
1.35858e-05	-0.006797643115849345
1.35860e-05	-0.006757103422771624
1.35863e-05	-0.006716172261278561
1.35865e-05	-0.00667427970196127
1.35868e-05	-0.006632196494443408
1.35870e-05	-0.006589344440686859
1.35873e-05	-0.006546339922312058
1.35875e-05	-0.006503197256432606
1.35878e-05	-0.006460216443950811
1.35880e-05	-0.006417673030027658
1.35883e-05	-0.006375815517075401
1.35885e-05	-0.006334830238008209
1.35888e-05	-0.006294824899448536
1.35890e-05	-0.006255942605709945
1.35893e-05	-0.006218414591011212
1.35895e-05	-0.006182504754259424
1.35898e-05	-0.006150380512315232
1.35900e-05	-0.00611895241115333
1.35903e-05	-0.006087524309991214
1.35905e-05	-0.006061106954185208
1.35908e-05	-0.00603568324488224
1.35910e-05	-0.0060102595355791
1.35913e-05	-0.005990721181994312
1.35915e-05	-0.005972349912887571
1.35918e-05	-0.005953978643780706
1.35920e-05	-0.005935607374673841
1.35923e-05	-0.005917236105567101
1.35925e-05	-0.005898864836460236
1.35928e-05	-0.005880493567353371
1.35930e-05	-0.005865061074552981
1.35933e-05	-0.005855475033380636
1.35935e-05	-0.005845888992208291
1.35938e-05	-0.00583630295103601
1.35940e-05	-0.0058267169098636645
1.35943e-05	-0.005817130868691319
1.35945e-05	-0.005807544827519038
1.35948e-05	-0.005797958786346693
1.35950e-05	-0.005793250456361478
1.35953e-05	-0.005789509391786905
1.35955e-05	-0.005785768327212358
1.35958e-05	-0.005782027262637785
1.35960e-05	-0.005778286198063213
1.35963e-05	-0.005774545133488665
1.35965e-05	-0.005770804068914093
1.35968e-05	-0.00576706300433952
1.35970e-05	-0.005766081732478075
1.35973e-05	-0.005765647736158303
1.35975e-05	-0.005765213739838532
1.35978e-05	-0.005764779743518763
1.35980e-05	-0.005764345747198992
1.35983e-05	-0.00576391175087922
1.35985e-05	-0.005763477754559452
1.35988e-05	-0.00576304375823968
1.35990e-05	-0.005763149139518893
1.35993e-05	-0.005763361481065905
1.35995e-05	-0.005763573822612917
1.35998e-05	-0.005763609091830965
1.36000e-05	-0.0057636092470513935
1.36003e-05	-0.005763609402271823
1.36005e-05	-0.005763886500169156
1.36008e-05	-0.005764218516667004
1.36010e-05	-0.005765825337353226
1.36013e-05	-0.005767684955704095
1.36015e-05	-0.005771128315700949
1.36018e-05	-0.005774885736628243
1.36020e-05	-0.005778643157555538
1.36023e-05	-0.0057841384002570335
1.36025e-05	-0.00578997825846116
1.36028e-05	-0.005795818116665286
1.36030e-05	-0.005805070276523983
1.36033e-05	-0.005814999106491959
1.36035e-05	-0.0058249279364599345
1.36038e-05	-0.00583485676642791
1.36040e-05	-0.005844785596395819
1.36043e-05	-0.0058547144263637945
1.36045e-05	-0.005868330298593322
1.36048e-05	-0.005882677322855176
1.36050e-05	-0.005897024347117127
1.36053e-05	-0.005911371371379079
1.36055e-05	-0.005925718395640933
1.36058e-05	-0.005940065419902885
1.36060e-05	-0.005956643955213155
1.36063e-05	-0.005973665006155835
1.36065e-05	-0.005990686057098631
1.36068e-05	-0.006007707108041427
1.36070e-05	-0.006024728158984107
1.36073e-05	-0.006041749209926902
1.36075e-05	-0.006058770260869698
1.36078e-05	-0.0060752091881501125
1.36080e-05	-0.0060915326784845205
1.36083e-05	-0.006107856168818929
1.36085e-05	-0.006124179659153227
1.36088e-05	-0.006140503149487636
1.36090e-05	-0.006156826639822045
1.36093e-05	-0.006173150130156343
1.36095e-05	-0.006186899104667788
1.36098e-05	-0.0062001375446250895
1.36100e-05	-0.0062133759845823
1.36103e-05	-0.006223898106516143
1.36105e-05	-0.006233881574075163
1.36108e-05	-0.006243865041634115
1.36110e-05	-0.006250679989633227
1.36113e-05	-0.0062568666102759685
1.36115e-05	-0.006263053230918668
1.36118e-05	-0.006263878070352865
1.36120e-05	-0.006263639651773763
1.36123e-05	-0.006263401233194661
1.36125e-05	-0.006263162814615561
1.36128e-05	-0.006262924396036458
1.36130e-05	-0.006262685977457356
1.36133e-05	-0.006259679527187644
1.36135e-05	-0.006251166307533066
1.36138e-05	-0.006242653087878488
1.36140e-05	-0.006234139868223968
1.36143e-05	-0.00622562664856939
1.36145e-05	-0.006217113428914812
1.36148e-05	-0.006208600209260292
1.36150e-05	-0.006195159746271126
1.36153e-05	-0.006180742195490569
1.36155e-05	-0.006166324644710111
1.36158e-05	-0.006151907093929554
1.36160e-05	-0.006137489543148998
1.36163e-05	-0.006122061583624589
1.36165e-05	-0.006104623499737488
1.36168e-05	-0.006087185415850388
1.36170e-05	-0.006069747331963406
1.36173e-05	-0.006052309248076306
1.36175e-05	-0.0060348711641892054
1.36178e-05	-0.006016933145661736
1.36180e-05	-0.005998895988528514
1.36183e-05	-0.005981108701565392
1.36185e-05	-0.005963370964640029
1.36188e-05	-0.005946231284000365
1.36190e-05	-0.0059292101997960485
1.36193e-05	-0.005913159062628487
1.36195e-05	-0.005897300268997291
1.36198e-05	-0.005882401901688633
1.36200e-05	-0.005868458367261271
1.36203e-05	-0.005855531047534441
1.36205e-05	-0.005843826352448148
1.36208e-05	-0.00583438036322382
1.36210e-05	-0.005825340946314664
1.36213e-05	-0.005819266551797033
1.36215e-05	-0.005813780130509955
1.36218e-05	-0.0058112379414837325
1.36220e-05	-0.005809279602939954
1.36223e-05	-0.005811052671889604
1.36225e-05	-0.0058135656906367645
1.36228e-05	-0.005816078709383941
1.36230e-05	-0.005825164683127214
1.36233e-05	-0.005835554094441112
1.36235e-05	-0.005845943505755079
1.36238e-05	-0.005856332917069046
1.36240e-05	-0.005866722328382943
1.36243e-05	-0.005879975102585351
1.36245e-05	-0.005898924299682632
1.36248e-05	-0.005917873496779785
1.36250e-05	-0.0059368226938770665
1.36253e-05	-0.0059557718909743484
1.36255e-05	-0.005974721088071501
1.36258e-05	-0.0059986191429380106
1.36260e-05	-0.006023498571806503
1.36263e-05	-0.006048378000674827
1.36265e-05	-0.006073257429543319
1.36268e-05	-0.006098136858411811
1.36270e-05	-0.006123016287280135
1.36273e-05	-0.006149274859591282
1.36275e-05	-0.00617580692036843
1.36278e-05	-0.0062023389811453975
1.36280e-05	-0.006228871041922546
1.36283e-05	-0.006255403102699693
1.36285e-05	-0.006281935163476661
1.36288e-05	-0.006306669104623969
1.36290e-05	-0.006331046473014529
1.36293e-05	-0.0063554238414050895
1.36295e-05	-0.0063748220477621255
1.36298e-05	-0.006393232870686571
1.36300e-05	-0.006411643693611017
1.36303e-05	-0.006430054516535338
1.36305e-05	-0.006448465339459784
1.36308e-05	-0.006466876162384229
1.36310e-05	-0.00648528698530855
1.36313e-05	-0.006503697808232995
1.36315e-05	-0.006521648578408016
1.36318e-05	-0.006538684111808043
1.36320e-05	-0.006555719645208186
1.36323e-05	-0.006572755178608329
1.36325e-05	-0.006589790712008356
1.36328e-05	-0.006606826245408499
1.36330e-05	-0.006623861778808642
1.36333e-05	-0.006640897312208669
1.36335e-05	-0.006657932845608812
1.36338e-05	-0.006677437089888742
1.36340e-05	-0.006697430887271494
1.36343e-05	-0.006717424684654381
1.36345e-05	-0.006737418482037269
1.36348e-05	-0.006757412279420021
1.36350e-05	-0.006777406076802909
1.36353e-05	-0.006797399874185797
1.36355e-05	-0.006817393671568549
1.36358e-05	-0.006837865755945772
1.36360e-05	-0.006859289352615418
1.36363e-05	-0.006880712949284919
1.36365e-05	-0.006902136545954565
1.36368e-05	-0.006923560142624211
1.36370e-05	-0.006944983739293711
1.36373e-05	-0.006966407335963357
1.36375e-05	-0.006987830932633003
1.36378e-05	-0.007009254529302649
1.36380e-05	-0.007028414318624515
1.36383e-05	-0.007047125187855909
1.36385e-05	-0.0070658360570873035
1.36388e-05	-0.007084546926318571
1.36390e-05	-0.007103257795549966
1.36393e-05	-0.00712196866478136
1.36395e-05	-0.007140679534012628
1.36398e-05	-0.007154210357572509
1.36400e-05	-0.007166713961844091
1.36403e-05	-0.007179217566115589
1.36405e-05	-0.007191721170387171
1.36408e-05	-0.007204224774658753
1.36410e-05	-0.00721672837893025
1.36413e-05	-0.007229231983201833
1.36415e-05	-0.007235007333828973
1.36418e-05	-0.007239448450675322
1.36420e-05	-0.0072438895675217005
1.36423e-05	-0.0072483306843680794
1.36425e-05	-0.007252771801214428
1.36428e-05	-0.007257212918060807
1.36430e-05	-0.007261654034907186
1.36433e-05	-0.007266095151753534
1.36435e-05	-0.007270536268599913
1.36438e-05	-0.007274977385446292
1.36440e-05	-0.007279418502292641
1.36443e-05	-0.00728385961913902
1.36445e-05	-0.007288300735985398
1.36448e-05	-0.007292741852831747
1.36450e-05	-0.007297182969678125
1.36453e-05	-0.0072996462807248365
1.36455e-05	-0.007298174911227607
1.36458e-05	-0.007296703541730369
1.36460e-05	-0.00729523217223313
1.36463e-05	-0.007293760802735891
1.36465e-05	-0.0072922894332386615
