Time(s)	Current(A)
1.07500e-05	0.0066517448514597476
1.07503e-05	0.006659296391858632
1.07505e-05	0.006666847932257515
1.07508e-05	0.006674399472656348
1.07510e-05	0.0066819510130552325
1.07513e-05	0.006689502553454116
1.07515e-05	0.006697054093852949
1.07518e-05	0.006704605634251833
1.07520e-05	0.006712157174650717
1.07523e-05	0.0067197087150495495
1.07525e-05	0.006727260255448434
1.07528e-05	0.006734811795847318
1.07530e-05	0.00674236333624615
1.07533e-05	0.006749914876645034
1.07535e-05	0.006757466417043919
1.07538e-05	0.006765017957442752
1.07540e-05	0.006772569497841635
1.07543e-05	0.006780121038240519
1.07545e-05	0.006776804094499022
1.07548e-05	0.006771974787811392
1.07550e-05	0.006767145481123761
1.07553e-05	0.006762316174436163
1.07555e-05	0.006757486867748533
1.07558e-05	0.006752657561060902
1.07560e-05	0.006747828254373304
1.07563e-05	0.006742998947685673
1.07565e-05	0.006738169640998042
1.07567e-05	0.006733340334310445
1.07570e-05	0.006728511027622814
1.07573e-05	0.0067236817209351835
1.07575e-05	0.006718852414247586
1.07578e-05	0.006714023107559955
1.07580e-05	0.006709193800872325
1.07582e-05	0.006704364494184726
1.07585e-05	0.0066995351874970955
1.07588e-05	0.006694705880809465
1.07590e-05	0.006689876574121834
1.07593e-05	0.006685047267434237
1.07595e-05	0.006680217960746606
1.07598e-05	0.006673231898309908
1.07600e-05	0.0066659457206559415
1.07603e-05	0.006658659543001926
1.07605e-05	0.006651373365347911
1.07608e-05	0.006644087187693945
1.07610e-05	0.00663680101003993
1.07613e-05	0.006629514832385914
1.07615e-05	0.006622228654731948
1.07618e-05	0.006614942477077933
1.07620e-05	0.006600907710600721
1.07623e-05	0.006575760873695788
1.07625e-05	0.006550614036790685
1.07628e-05	0.006525467199885582
1.07630e-05	0.006500320362980649
1.07633e-05	0.006475173526075547
1.07635e-05	0.006450026689170444
1.07638e-05	0.006424879852265511
1.07640e-05	0.006399733015360408
1.07643e-05	0.006374586178455305
1.07645e-05	0.006326874000225647
1.07648e-05	0.006276021826972538
1.07650e-05	0.006225169653719428
1.07652e-05	0.006174317480466663
1.07655e-05	0.006123465307213554
1.07658e-05	0.0060726131339604444
1.07660e-05	0.006021760960707679
1.07663e-05	0.00597090878745457
1.07665e-05	0.00592005661420146
1.07667e-05	0.005864595200918584
1.07670e-05	0.005801544319498273
1.07673e-05	0.005738493438077962
1.07675e-05	0.005675442556657651
1.07678e-05	0.005612391675237766
1.07680e-05	0.005549340793817455
1.07683e-05	0.005486289912397144
1.07685e-05	0.0054232390309772605
1.07688e-05	0.005360188149556949
1.07690e-05	0.005297137268136638
1.07693e-05	0.005244146788555616
1.07695e-05	0.005192556226274935
1.07698e-05	0.005140965663994254
1.07700e-05	0.005089375101713921
1.07703e-05	0.00503778453943324
1.07705e-05	0.004986193977152558
1.07708e-05	0.004934603414872227
1.07710e-05	0.004883012852591545
1.07713e-05	0.004831422290310864
1.07715e-05	0.004802121047797489
1.07718e-05	0.0047759213915692655
1.07720e-05	0.004749721735341041
1.07723e-05	0.004723522079112994
1.07725e-05	0.004697322422884769
1.07728e-05	0.004671122766656545
1.07730e-05	0.004644923110428498
1.07733e-05	0.004618723454200274
1.07735e-05	0.004592523797972049
1.07737e-05	0.004587063874670654
1.07740e-05	0.004584489910738636
1.07743e-05	0.004581915946806617
1.07745e-05	0.004579341982874616
1.07748e-05	0.004576768018942597
1.07750e-05	0.004574194055010578
1.07752e-05	0.004571620091078576
1.07755e-05	0.004569046127146557
1.07758e-05	0.0045664721632145385
1.07760e-05	0.004563898199282537
1.07763e-05	0.004561324235350518
1.07765e-05	0.004571583224343934
1.07768e-05	0.004583627934535763
1.07770e-05	0.004595672644727509
1.07773e-05	0.004607717354919337
1.07775e-05	0.004619762065111165
1.07778e-05	0.004631806775302912
1.07780e-05	0.00464385148549474
1.07783e-05	0.004655896195686568
1.07785e-05	0.004667940905878315
1.07788e-05	0.004679985616070143
1.07790e-05	0.004692030326261971
1.07793e-05	0.0047041674205446455
1.07795e-05	0.0047163173701873905
1.07798e-05	0.0047284673198301356
1.07800e-05	0.004740617269472798
1.07803e-05	0.004752767219115542
1.07805e-05	0.004764917168758287
1.07808e-05	0.00477706711840095
1.07810e-05	0.004789217068043695
1.07813e-05	0.00480136701768644
1.07815e-05	0.0048135169673291026
1.07818e-05	0.004825666916971848
1.07820e-05	0.004840192208009873
1.07822e-05	0.0048550480307273745
1.07825e-05	0.004869903853444976
1.07828e-05	0.004884759676162578
1.07830e-05	0.004899615498880078
1.07833e-05	0.00491447132159768
1.07835e-05	0.004929327144315282
1.07837e-05	0.004944182967032783
1.07840e-05	0.004959038789750385
1.07843e-05	0.004973894612467986
1.07845e-05	0.004988750435185487
1.07848e-05	0.005011721572258303
1.07850e-05	0.005035821965315172
1.07853e-05	0.005059922358372042
1.07855e-05	0.005084022751428748
1.07858e-05	0.005108123144485617
1.07860e-05	0.005132223537542487
1.07863e-05	0.005156323930599193
1.07865e-05	0.005180424323656062
1.07868e-05	0.005204524716712932
1.07870e-05	0.0052286251097696385
1.07873e-05	0.005252725502826508
1.07875e-05	0.005276825895883377
1.07878e-05	0.005300834331205714
1.07880e-05	0.005324691351047385
1.07883e-05	0.005348548370889056
1.07885e-05	0.005372405390730565
1.07888e-05	0.0053962624105722366
1.07890e-05	0.005420119430413908
1.07893e-05	0.005443976450255417
1.07895e-05	0.005467833470097088
1.07898e-05	0.005491690489938758
1.07900e-05	0.005515547509780268
1.07903e-05	0.005539404529621939
1.07905e-05	0.00556326154946361
1.07907e-05	0.005587118569305119
1.07910e-05	0.0055979178710389346
1.07913e-05	0.005606900175220539
1.07915e-05	0.005615882479402083
1.07918e-05	0.005624864783583688
1.07920e-05	0.005633847087765292
1.07922e-05	0.005642829391946837
1.07925e-05	0.005651811696128442
1.07928e-05	0.0056607940003100465
1.07930e-05	0.00566977630449159
1.07933e-05	0.005678758608673195
1.07935e-05	0.0056877409128548
1.07938e-05	0.005696723217036405
1.07940e-05	0.005705705521217949
1.07943e-05	0.005714687825399554
1.07945e-05	0.0057236701295811585
1.07948e-05	0.005732652433762702
1.07950e-05	0.005741634737944307
1.07953e-05	0.0057506170421259125
1.07955e-05	0.005755870683320151
1.07958e-05	0.005754984794184648
1.07960e-05	0.005754098905049145
1.07963e-05	0.005753213015913647
1.07965e-05	0.005752327126778144
1.07968e-05	0.005751441237642641
1.07970e-05	0.005750555348507144
1.07973e-05	0.005749669459371641
1.07975e-05	0.005748783570236138
1.07978e-05	0.005747897681100641
1.07980e-05	0.005747011791965137
1.07983e-05	0.005746125902829634
1.07985e-05	0.005745240013694137
1.07988e-05	0.005744354124558634
1.07990e-05	0.005743468235423131
1.07992e-05	0.005742582346287634
1.07995e-05	0.0057416964571521305
1.07998e-05	0.0057408105680166275
1.08000e-05	0.0057399246788811305
1.08003e-05	0.005734735511600512
1.08005e-05	0.005728947537867187
1.08007e-05	0.005723159564133901
1.08010e-05	0.005717371590400577
1.08013e-05	0.005711583616667252
1.08015e-05	0.005705795642933967
1.08018e-05	0.005700007669200642
1.08020e-05	0.005694219695467317
1.08023e-05	0.005688431721733993
1.08025e-05	0.005674339496455362
1.08028e-05	0.005646573682436485
1.08030e-05	0.005618807868417608
1.08033e-05	0.0055910420543989195
1.08035e-05	0.005563276240380042
1.08038e-05	0.0055355104263611656
1.08040e-05	0.005507744612342476
1.08043e-05	0.0054799787983236
1.08045e-05	0.0054522129843047225
1.08048e-05	0.005424447170286034
1.08050e-05	0.005376323776229571
1.08053e-05	0.005325367599842632
1.08055e-05	0.005274411423456038
1.08058e-05	0.005223455247069099
1.08060e-05	0.00517249907068216
1.08063e-05	0.005121542894295566
1.08065e-05	0.005070586717908627
1.08068e-05	0.0050196305415216875
1.08070e-05	0.004968674365135094
1.08073e-05	0.004910179165478342
1.08075e-05	0.004850634901449873
1.08077e-05	0.004791090637421806
1.08080e-05	0.004731546373393336
1.08083e-05	0.004672002109364867
1.08085e-05	0.0046124578453368
1.08088e-05	0.004552913581308331
1.08090e-05	0.004493369317279861
1.08092e-05	0.004433825053251794
1.08095e-05	0.004384887825018528
1.08098e-05	0.004337426578878186
1.08100e-05	0.004289965332738167
1.08103e-05	0.004242504086597825
1.08105e-05	0.0041950428404574835
1.08108e-05	0.004147581594317142
1.08110e-05	0.004100120348177122
1.08113e-05	0.004052659102036781
1.08115e-05	0.00403358036405735
1.08118e-05	0.004018451087040473
1.08120e-05	0.0040033218100234925
1.08123e-05	0.003988192533006512
1.08125e-05	0.003973063255989634
1.08128e-05	0.003957933978972654
1.08130e-05	0.0039428047019556735
1.08133e-05	0.003927675424938795
1.08135e-05	0.003936941083473911
1.08138e-05	0.003949601327332862
1.08140e-05	0.0039622615711917275
1.08143e-05	0.003996705997313904
1.08145e-05	0.0040341817192245
1.08148e-05	0.0040716574411348416
1.08150e-05	0.0041091331630454375
1.08153e-05	0.004146608884956033
1.08155e-05	0.004184084606866376
1.08158e-05	0.004221560328776972
1.08160e-05	0.004259036050687568
1.08162e-05	0.004317879732510093
1.08165e-05	0.004379696792269143
1.08168e-05	0.004441513852028194
1.08170e-05	0.0045033309117868256
1.08173e-05	0.004565147971545876
1.08175e-05	0.004626965031304927
1.08177e-05	0.0046887820910635584
1.08180e-05	0.004750599150822609
1.08183e-05	0.0048157217930663385
1.08185e-05	0.004881304411183227
1.08188e-05	0.004946887029300559
1.08190e-05	0.005012469647417892
1.08193e-05	0.0050780522655352245
1.08195e-05	0.005143634883652113
1.08198e-05	0.005209217501769445
1.08200e-05	0.005267462738179875
1.08203e-05	0.005313626411381759
1.08205e-05	0.005359790084583956
1.08208e-05	0.005405953757786152
1.08210e-05	0.005452117430988036
1.08213e-05	0.0054982811041902335
1.08215e-05	0.00554444477739243
1.08218e-05	0.005590608450594314
1.08220e-05	0.00559956990298523
1.08223e-05	0.005603354620533697
1.08225e-05	0.0056071393380821375
1.08228e-05	0.005610924055630603
1.08230e-05	0.00561470877317907
1.08233e-05	0.005618493490727509
1.08235e-05	0.005622278208275976
1.08238e-05	0.005626062925824442
1.08240e-05	0.005629847643372882
1.08243e-05	0.005633632360921349
1.08245e-05	0.005620618586262339
1.08247e-05	0.005579944802415298
1.08250e-05	0.005539271018567982
1.08253e-05	0.005498597234720666
1.08255e-05	0.005457923450873625
1.08258e-05	0.005417249667026308
1.08260e-05	0.005376575883178992
1.08262e-05	0.0053359020993319515
1.08265e-05	0.005295228315484635
1.08268e-05	0.005254554531637318
1.08270e-05	0.005213880747790278
1.08273e-05	0.005156459398417014
1.08275e-05	0.005096707604674834
1.08278e-05	0.0050369558109326544
1.08280e-05	0.00497720401719088
1.08283e-05	0.0049174522234487
1.08285e-05	0.00485770042970652
1.08288e-05	0.004797948635964745
1.08290e-05	0.004740352235047847
1.08293e-05	0.004686304854163359
1.08295e-05	0.004632257473279237
1.08298e-05	0.004578210092394748
1.08300e-05	0.0045241627115102595
1.08303e-05	0.004470115330626138
1.08305e-05	0.004416067949741649
1.08308e-05	0.0043620205688571605
1.08310e-05	0.004333959295970571
1.08313e-05	0.004309514022016607
1.08315e-05	0.004285068748062643
1.08318e-05	0.004260623474108844
1.08320e-05	0.00423617820015488
1.08323e-05	0.004211732926200916
1.08325e-05	0.004187287652247117
1.08328e-05	0.004162842378293153
1.08330e-05	0.004138397104339189
1.08332e-05	0.00411395183038539
1.08335e-05	0.004089506556431426
1.08338e-05	0.0040781234251762635
1.08340e-05	0.004088248116330852
1.08343e-05	0.00409837280748551
1.08345e-05	0.004108497498640168
1.08347e-05	0.004118622189794757
1.08350e-05	0.004128746880949415
1.08353e-05	0.004138871572104073
1.08355e-05	0.004148996263258662
1.08358e-05	0.00415912095441332
1.08360e-05	0.004169245645567977
1.08363e-05	0.004179370336722635
1.08365e-05	0.0041894950278772245
1.08368e-05	0.00421511115583969
1.08370e-05	0.004242882936314008
1.08373e-05	0.004270654716788138
1.08375e-05	0.004298426497262457
1.08378e-05	0.004326198277736775
1.08380e-05	0.004353970058210905
1.08383e-05	0.0043817418386852235
1.08385e-05	0.004409513619159542
1.08388e-05	0.0044372853996336725
1.08390e-05	0.004463621093487563
1.08393e-05	0.004489756954119427
1.08395e-05	0.0045158928147511134
1.08398e-05	0.004542028675382976
1.08400e-05	0.00456816453601484
1.08403e-05	0.0045943003966465255
1.08405e-05	0.004620436257278389
1.08408e-05	0.004646572117910253
1.08410e-05	0.004672707978541938
1.08413e-05	0.0046822974027307795
1.08415e-05	0.004689584369908263
1.08418e-05	0.004696871337085696
1.08420e-05	0.00470415830426318
1.08423e-05	0.004711445271440663
1.08425e-05	0.004718732238618097
1.08428e-05	0.00472601920579558
1.08430e-05	0.0047333061729730634
1.08432e-05	0.0047405931401504975
1.08435e-05	0.004747880107327981
1.08438e-05	0.004755167074505464
1.08440e-05	0.004762454041682898
1.08443e-05	0.004769741008860381
1.08445e-05	0.004777027976037864
1.08448e-05	0.004767234397864435
1.08450e-05	0.004755064040767034
1.08453e-05	0.004742893683669549
1.08455e-05	0.004730723326572065
1.08458e-05	0.004718552969474663
1.08460e-05	0.004706382612377179
1.08463e-05	0.004694212255279695
1.08465e-05	0.004682041898182293
1.08468e-05	0.004669871541084809
1.08470e-05	0.004657701183987324
1.08473e-05	0.004645530826889922
1.08475e-05	0.004633360469792438
1.08478e-05	0.004621190112694954
1.08480e-05	0.004609019755597552
1.08483e-05	0.004592793302620533
1.08485e-05	0.004576002438905789
1.08488e-05	0.004559211575191159
1.08490e-05	0.004542420711476414
1.08493e-05	0.0045256298477616705
1.08495e-05	0.00450883898404704
1.08498e-05	0.004492048120332296
1.08500e-05	0.004475257256617553
1.08503e-05	0.004458466392902922
1.08505e-05	0.004445571270183217
1.08508e-05	0.004439090784590195
1.08510e-05	0.004432610298997216
1.08513e-05	0.004426129813404194
1.08515e-05	0.004419649327811171
1.08517e-05	0.004413168842218192
1.08520e-05	0.00440668835662517
1.08523e-05	0.004400207871032148
1.08525e-05	0.004393727385439169
1.08528e-05	0.004387246899846147
1.08530e-05	0.004401434366980868
1.08533e-05	0.004418497805195907
1.08535e-05	0.00443556124341083
1.08538e-05	0.004452624681625869
1.08540e-05	0.004469688119840908
1.08543e-05	0.004486751558055831
1.08545e-05	0.004503814996270871
1.08548e-05	0.004520878434485909
1.08550e-05	0.004537941872700833
1.08553e-05	0.004555005310915872
1.08555e-05	0.00457206874913091
1.08558e-05	0.004605843785610944
1.08560e-05	0.004641944261575186
1.08563e-05	0.00467804473753943
1.08565e-05	0.004714145213503429
1.08568e-05	0.004750245689467672
1.08570e-05	0.004786346165431915
1.08573e-05	0.004822446641395914
1.08575e-05	0.004858547117360158
1.08578e-05	0.0048946475933244
1.08580e-05	0.004930748069288399
1.08583e-05	0.004966848545252643
1.08585e-05	0.005003251352634363
1.08588e-05	0.005039696229804997
1.08590e-05	0.005076141106975879
1.08593e-05	0.00511258598414676
1.08595e-05	0.005149030861317395
1.08598e-05	0.005185475738488277
1.08600e-05	0.005221920615659158
1.08602e-05	0.005258365492829793
1.08605e-05	0.005294810370000675
1.08608e-05	0.005313123120669448
1.08610e-05	0.005328912763599384
1.08613e-05	0.005344702406529426
1.08615e-05	0.005360492049459469
1.08618e-05	0.005376281692389512
1.08620e-05	0.005392071335319448
1.08623e-05	0.0054078609782494905
1.08625e-05	0.0054236506211795335
1.08628e-05	0.005439440264109469
1.08630e-05	0.005423656908178418
1.08633e-05	0.005403480130562261
1.08635e-05	0.005383303352946241
1.08638e-05	0.005363126575330084
1.08640e-05	0.005342949797713927
1.08643e-05	0.005322773020097907
1.08645e-05	0.00530259624248175
1.08648e-05	0.005282419464865593
1.08650e-05	0.005262242687249573
1.08653e-05	0.005242065909633416
1.08655e-05	0.005196056332799835
1.08658e-05	0.005146452090132582
1.08660e-05	0.005096847847464992
1.08663e-05	0.005047243604797403
1.08665e-05	0.0049976393621301496
1.08668e-05	0.0049480351194625604
1.08670e-05	0.0048984308767949705
1.08673e-05	0.004848826634127718
1.08675e-05	0.004799222391460128
1.08678e-05	0.004749618148792539
1.08680e-05	0.004693925723000139
1.08683e-05	0.004637386119025469
1.08685e-05	0.004580846515050798
1.08687e-05	0.004524306911076512
1.08690e-05	0.0044677673071018414
1.08693e-05	0.004411227703127171
1.08695e-05	0.0043546880991528845
1.08698e-05	0.004298148495178214
1.08700e-05	0.004255188790490966
1.08703e-05	0.004214118745518964
1.08705e-05	0.0041730487005472395
1.08708e-05	0.004131978655575237
1.08710e-05	0.0040909086106032345
1.08713e-05	0.00404983856563151
1.08715e-05	0.004008768520659508
1.08718e-05	0.003967698475687505
1.08720e-05	0.003952458606931949
1.08723e-05	0.0039408130390180835
1.08725e-05	0.003929167471104218
1.08728e-05	0.003917521903190432
1.08730e-05	0.003905876335276567
1.08733e-05	0.003894230767362702
1.08735e-05	0.0038825851994489153
1.08738e-05	0.0038709396315350503
1.08740e-05	0.0038592940636211852
1.08743e-05	0.0038476484957073987
1.08745e-05	0.0038466261464199947
1.08748e-05	0.003863095743526904
1.08750e-05	0.003879565340633702
1.08753e-05	0.0038960349377406113
1.08755e-05	0.003912504534847521
1.08758e-05	0.003928974131954318
1.08760e-05	0.003945443729061228
1.08763e-05	0.003961913326168138
1.08765e-05	0.003978382923274936
1.08768e-05	0.0039948525203818445
1.08770e-05	0.004011322117488754
1.08772e-05	0.004038629478456244
1.08775e-05	0.004067444927616933
1.08778e-05	0.00409626037677762
1.08780e-05	0.004125075825938114
1.08783e-05	0.004153891275098801
1.08785e-05	0.00418270672425949
1.08788e-05	0.004211522173420177
1.08790e-05	0.0042403376225806704
1.08793e-05	0.004267573405933386
1.08795e-05	0.004292208148056626
1.08798e-05	0.004316842890179698
1.08800e-05	0.004341477632302936
1.08803e-05	0.004366112374426176
1.08805e-05	0.004390747116549248
1.08808e-05	0.004415381858672488
1.08810e-05	0.004440016600795726
1.08813e-05	0.004464651342918798
1.08815e-05	0.004490152621593968
1.08818e-05	0.00451577447989793
1.08820e-05	0.004541396338201718
1.08823e-05	0.00456701819650568
1.08825e-05	0.004592640054809641
1.08828e-05	0.004618261913113429
1.08830e-05	0.004643883771417391
1.08833e-05	0.004669505629721352
1.08835e-05	0.00469512748802514
1.08838e-05	0.0047207493463291015
1.08840e-05	0.004746371204633063
1.08843e-05	0.00477729878289144
1.08845e-05	0.0048169626370680235
1.08848e-05	0.004856626491244608
1.08850e-05	0.004896290345420922
1.08853e-05	0.004935954199597505
1.08855e-05	0.004975618053774089
1.08857e-05	0.005015281907950404
1.08860e-05	0.005054945762126987
1.08863e-05	0.005094609616303571
1.08865e-05	0.005134273470479885
1.08868e-05	0.005173937324656469
1.08870e-05	0.0052136011788330525
1.08873e-05	0.005257720893743727
1.08875e-05	0.005302460647165234
1.08878e-05	0.005347200400587044
1.08880e-05	0.005391940154008854
1.08883e-05	0.005436679907430361
1.08885e-05	0.005481419660852171
1.08888e-05	0.005526159414273981
1.08890e-05	0.0055708991676954875
1.08893e-05	0.005615638921117297
1.08895e-05	0.005650190943976562
1.08898e-05	0.005683325331575435
1.08900e-05	0.005716459719174532
1.08903e-05	0.005749594106773629
1.08905e-05	0.005782728494372502
1.08908e-05	0.0058158628819716
1.08910e-05	0.005848997269570697
1.08913e-05	0.00588213165716957
1.08915e-05	0.005915266044768667
1.08918e-05	0.00591563953943426
1.08920e-05	0.005911454315482347
1.08923e-05	0.005907269091530405
1.08925e-05	0.005903083867578464
1.08928e-05	0.005898898643626551
1.08930e-05	0.0058947134196746095
1.08933e-05	0.005890528195722668
1.08935e-05	0.005886342971770755
1.08938e-05	0.005882157747818814
1.08940e-05	0.005877972523866872
1.08942e-05	0.005835025919479009
1.08945e-05	0.005786685621243527
1.08948e-05	0.005738345323008045
1.08950e-05	0.005690005024772891
1.08953e-05	0.005641664726537409
1.08955e-05	0.005593324428301927
1.08958e-05	0.005544984130066445
1.08960e-05	0.00549664383183129
1.08963e-05	0.005448303533595809
1.08965e-05	0.0053999632353603265
1.08968e-05	0.0053313872239709684
1.08970e-05	0.005259995388162214
1.08973e-05	0.005188603552353461
1.08975e-05	0.00511721171654519
1.08978e-05	0.005045819880736436
1.08980e-05	0.004974428044927683
1.08983e-05	0.004903036209119412
1.08985e-05	0.004832416576172701
1.08988e-05	0.004763068434621683
1.08990e-05	0.004693720293071135
1.08993e-05	0.0046243721515201175
1.08995e-05	0.0045550240099691
1.08998e-05	0.004485675868418552
1.09000e-05	0.004416327726867534
1.09003e-05	0.0043469795853165166
1.09005e-05	0.004306451941748958
1.09008e-05	0.00426993470598803
