Time(s)	Current(A)
2.50000e-07	-0.0002993691351587869
2.50250e-07	-0.0002918690198424273
2.50500e-07	-0.0002843689045260661
2.50750e-07	-0.0002750055825132116
2.51000e-07	-0.00026480234707977466
2.51250e-07	-0.0002535360656490692
2.51500e-07	-0.0002411918633229643
2.51750e-07	-0.00022803073351155133
2.52000e-07	-0.00021392329947433574
2.52250e-07	-0.00019848368922456314
2.52500e-07	-0.000181440993236565
2.52750e-07	-0.00016281755841620203
2.53000e-07	-0.0001427576441632208
2.53250e-07	-0.00012141820291369535
2.53500e-07	-9.895614147356052e-05
2.53750e-07	-7.550906070366745e-05
2.54000e-07	-5.1077858981428385e-05
2.54250e-07	-2.5502790350138875e-05
2.54500e-07	1.3038866809037125e-06
2.54750e-07	2.9246202163548215e-05
2.55000e-07	5.8151827097003414e-05
2.55250e-07	8.784051354651414e-05
2.55500e-07	0.00011826442705214521
2.55750e-07	0.0001489179346172869
2.56000e-07	0.00018018823815452395
2.56250e-07	0.0002117365866428101
2.56500e-07	0.00024328493513108953
2.56750e-07	0.00027497643168038525
2.57000e-07	0.000306732457826853
2.57250e-07	0.0003384884839733141
2.57500e-07	0.00037024451011978185
2.57750e-07	0.00040046692167365535
2.58000e-07	0.00042999799636148767
2.58250e-07	0.0004595290710493262
2.58500e-07	0.0004890601457371585
2.58750e-07	0.0005165096832205736
2.59000e-07	0.0005430208862525606
2.59250e-07	0.0005674551058565053
2.59500e-07	0.0005909530438021544
2.59750e-07	0.0006116475205309717
2.60000e-07	0.0006310782272741186
2.60250e-07	0.0006505089340172695
2.60500e-07	0.0006682354852360891
2.60750e-07	0.000685193821581937
2.61000e-07	0.0007021521579277884
2.61250e-07	0.0007171834243739545
2.61500e-07	0.0007313459885584682
2.61750e-07	0.0007455085527429848
2.62000e-07	0.0007567981543394007
2.62250e-07	0.0007667926554839224
2.62500e-07	0.0007767871566284443
2.62750e-07	0.0007867816577729639
2.63000e-07	0.0007967761589174856
2.63250e-07	0.0008067706600620074
2.63500e-07	0.0008167651612065271
2.63750e-07	0.0008267596623510488
2.64000e-07	0.0008367541634955706
2.64250e-07	0.0008439700452430522
2.64500e-07	0.0008499333554284581
2.64750e-07	0.0008558966656138641
2.65000e-07	0.0008618599757992688
2.65250e-07	0.0008678232859846747
2.65500e-07	0.0008737865961700806
2.65750e-07	0.0008797499063554853
2.66000e-07	0.0008857132165408913
2.66250e-07	0.0008916765267262959
2.66500e-07	0.0008961723093868466
2.66750e-07	0.000900006546516489
2.67000e-07	0.0009038407836461307
2.67250e-07	0.0009076750207757731
2.67500e-07	0.0009115092579054155
2.67750e-07	0.0009153434950350571
2.68000e-07	0.0009189428227991357
2.68250e-07	0.0009215359920028804
2.68500e-07	0.0009241291612066243
2.68750e-07	0.0009267223304103689
2.69000e-07	0.0009293154996141135
2.69250e-07	0.0009319086688178575
2.69500e-07	0.0009345018380216021
2.69750e-07	0.0009356640793129568
2.70000e-07	0.0009361812737827265
2.70250e-07	0.0009366984682524964
2.70500e-07	0.0009332093692842964
2.70750e-07	0.0009279142765786587
2.71000e-07	0.0009191309309789974
2.71250e-07	0.0009087751187143922
2.71500e-07	0.000895284583076718
2.71750e-07	0.0008803809480572815
2.72000e-07	0.0008619711058272367
2.72250e-07	0.0008419807033205723
2.72500e-07	0.0008176349045803397
2.72750e-07	0.000791325740339389
2.73000e-07	0.0007610981016696896
2.73250e-07	0.000729104057121789
2.73500e-07	0.000693822466872587
2.73750e-07	0.0006570588865894369
2.74000e-07	0.0006171845353958095
2.74250e-07	0.0005759078823313946
2.74500e-07	0.0005313980179416305
2.74750e-07	0.0004854306568667679
2.75000e-07	0.0004369132211369125
2.75250e-07	0.0003872462393420411
2.75500e-07	0.0003358337870340138
2.75750e-07	0.00028363449550301725
2.76000e-07	0.00023020973660686732
2.76250e-07	0.00017623255028094122
2.76500e-07	0.00012136244764536055
2.76750e-07	6.608982799792098e-05
2.77000e-07	1.0660612105145388e-05
2.77250e-07	-4.4637609468724295e-05
2.77500e-07	-9.941393503276327e-05
2.77750e-07	-0.00015334508811101535
2.78000e-07	-0.00020617482200340325
2.78250e-07	-0.00025772336771985696
2.78500e-07	-0.0003077705334163791
2.78750e-07	-0.0003560020572566174
2.79000e-07	-0.00040206509621829424
2.79250e-07	-0.00044560285740071886
2.79500e-07	-0.0004862586171283789
2.79750e-07	-0.0005237047668541324
2.80000e-07	-0.0005578369463025869
2.80250e-07	-0.0005888624383352165
2.80500e-07	-0.0006169809906859982
2.80750e-07	-0.000642179333790871
2.81000e-07	-0.0006632436277944634
2.81250e-07	-0.0006828571939043699
2.81500e-07	-0.0006979048268504446
2.81750e-07	-0.0007108941865254172
2.82000e-07	-0.0007193716164111489
2.82250e-07	-0.000725815117162779
2.82500e-07	-0.000728296912701043
2.82750e-07	-0.0007289928143910941
2.83000e-07	-0.0007258710666749612
2.83250e-07	-0.000721028363909944
2.83500e-07	-0.0007124351548645794
2.83750e-07	-0.0007021512581650305
2.84000e-07	-0.000688425709551853
2.84250e-07	-0.0006731487014914871
2.84500e-07	-0.0006550496961377446
2.84750e-07	-0.0006356785649355427
2.85000e-07	-0.0006138505810998034
2.85250e-07	-0.0005909150746777307
2.85500e-07	-0.0005653921940930775
2.85750e-07	-0.0005387029532289098
2.86000e-07	-0.0005120137123647479
2.86250e-07	-0.00048331800139414
2.86500e-07	-0.0004537177954076899
2.86750e-07	-0.0004241175894212461
2.87000e-07	-0.00039375317817703297
2.87250e-07	-0.0003630442714706104
2.87500e-07	-0.00033233536476419434
2.87750e-07	-0.0003020053710371138
2.88000e-07	-0.00027184618718163484
2.88250e-07	-0.00024168700332616227
2.88500e-07	-0.00021252747703437728
2.88750e-07	-0.00018458376041466872
2.89000e-07	-0.0001578924918183556
2.89250e-07	-0.00013266014738339883
2.89500e-07	-0.00010909316962238028
2.89750e-07	-8.738642701755321e-05
2.90000e-07	-6.764223044050782e-05
2.90250e-07	-4.982467038751081e-05
2.90500e-07	-3.388066249949826e-05
2.90750e-07	-1.982944206172821e-05
2.91000e-07	-7.726748544927291e-06
2.91250e-07	2.3674242917051445e-06
2.91500e-07	1.0393100190258932e-05
2.91750e-07	1.629757621795023e-05
2.92000e-07	2.008612448805317e-05
2.92250e-07	2.185059823755e-05
2.92500e-07	2.169360702774071e-05
2.92750e-07	1.9672452037576103e-05
2.93000e-07	1.582156620075697e-05
2.93250e-07	1.0172719729510985e-05
2.93500e-07	2.7576951629909344e-06
2.93750e-07	-6.387172237200431e-06
2.94000e-07	-1.7189230002881274e-05
2.94250e-07	-2.9521599998413574e-05
2.94500e-07	-4.325067264209053e-05
2.94750e-07	-5.8271233770635186e-05
2.95000e-07	-7.449238371064485e-05
2.95250e-07	-9.18249151937966e-05
2.95500e-07	-0.00011017960216467205
2.95750e-07	-0.00012946438647633553
2.96000e-07	-0.00014977706261904114
2.96250e-07	-0.00017042688516427898
2.96500e-07	-0.0001918767981963191
2.96750e-07	-0.00021368738336357347
2.97000e-07	-0.00023549796853083245
2.97250e-07	-0.00025730855369809143
2.97500e-07	-0.0002791191388653458
2.97750e-07	-0.0003009297240326047
2.98000e-07	-0.00032274030919985915
2.98250e-07	-0.00034356225012164784
2.98500e-07	-0.00036393852091378445
2.98750e-07	-0.0003843147917059167
2.99000e-07	-0.00040315388546147265
2.99250e-07	-0.00042130003643975475
2.99500e-07	-0.00043775178138854296
2.99750e-07	-0.0004534397064311275
3.00000e-07	-0.00046714819648905763
3.00250e-07	-0.00047996437867153585
3.00500e-07	-0.0004927805608540167
3.00750e-07	-0.0005037077349506283
3.01000e-07	-0.0005137833646394255
3.01250e-07	-0.0005238589943282249
3.01500e-07	-0.0005317225452228889
3.01750e-07	-0.0005385889149297779
3.02000e-07	-0.0005454552846366669
3.02250e-07	-0.0005504516504169965
3.02500e-07	-0.0005546050386589234
3.02750e-07	-0.0005587584269008502
3.03000e-07	-0.0005612902695354699
3.03250e-07	-0.0005630911369539181
3.03500e-07	-0.0005648920043723664
3.03750e-07	-0.0005641855745489229
3.04000e-07	-0.0005623488822554378
3.04250e-07	-0.0005605121899619527
3.04500e-07	-0.0005586754976684681
3.04750e-07	-0.000556838805374983
3.05000e-07	-0.000555002113081498
3.05250e-07	-0.0005531654207880134
3.05500e-07	-0.0005507430665240766
3.05750e-07	-0.0005458122179578831
3.06000e-07	-0.0005408813693916885
3.06250e-07	-0.0005359505208254937
3.06500e-07	-0.0005310196722593002
3.06750e-07	-0.0005260888236931056
3.07000e-07	-0.0005211579751269108
3.07250e-07	-0.0005162271265607173
3.07500e-07	-0.0005108099961959108
3.07750e-07	-0.0005051736552574023
3.08000e-07	-0.0004995373143188949
3.08250e-07	-0.0004939009733803864
3.08500e-07	-0.0004882646324418779
3.08750e-07	-0.00048326526251030167
3.09000e-07	-0.00047855303221722145
3.09250e-07	-0.0004738408019241422
3.09500e-07	-0.000469128571631062
3.09750e-07	-0.0004644163413379818
3.10000e-07	-0.0004596146504026351
3.10250e-07	-0.00045477263157763306
3.10500e-07	-0.00044804638245418015
3.10750e-07	-0.0004404707426977853
3.11000e-07	-0.00043107303068757723
3.11250e-07	-0.0004208539482184566
3.11500e-07	-0.00040911171782122
3.11750e-07	-0.00039668286881701094
3.12000e-07	-0.0003824610355579341
3.12250e-07	-0.00036743094439516626
3.12500e-07	-0.0003505293113196921
3.12750e-07	-0.0003310322177681338
3.13000e-07	-0.0003107454364040176
3.13250e-07	-0.00028892885699340065
3.13500e-07	-0.00026555074339090187
3.13750e-07	-0.00024099973946359912
3.14000e-07	-0.00021528447376197092
3.14250e-07	-0.0001882579246370297
3.14500e-07	-0.00015984610424177472
3.14750e-07	-0.00013015656913871023
3.15000e-07	-9.937205688749941e-05
3.15250e-07	-6.76830932066282e-05
3.15500e-07	-3.528018262352021e-05
3.15750e-07	-2.3419647553026948e-06
3.16000e-07	3.1036538889570505e-05
3.16250e-07	6.498727464756198e-05
3.16500e-07	9.913689439823329e-05
3.16750e-07	0.0001334754426683032
3.17000e-07	0.00016789915259294642
3.17250e-07	0.00020232286251758237
3.17500e-07	0.00023610455684072156
3.17750e-07	0.00026959683747669724
3.18000e-07	0.0003020478680539557
3.18250e-07	0.0003340295143700817
3.18500e-07	0.0003646385983195133
3.18750e-07	0.00039462894600387436
3.19000e-07	0.00042267779012290666
3.19250e-07	0.0004498514254399136
3.19500e-07	0.00047448260916377506
3.19750e-07	0.0004979676832163622
3.20000e-07	0.00051860133094495
3.20250e-07	0.000537949586536417
3.20500e-07	0.000554566759876759
3.20750e-07	0.0005699527908860126
3.21000e-07	0.000582482741491445
3.21250e-07	0.0005937252019509134
3.21500e-07	0.000601934245516452
3.21750e-07	0.0006087758575648999
3.22000e-07	0.000612589629590935
3.22250e-07	0.0006150384840932257
3.22500e-07	0.0006147339889796837
3.22750e-07	0.0006131883136479572
3.23000e-07	0.0006090100941691122
3.23250e-07	0.0006036451522703783
3.23500e-07	0.0005957356724668478
3.23750e-07	0.0005866791425053215
3.24000e-07	0.0005752806474757755
3.24250e-07	0.0005628264199314109
3.24500e-07	0.0005484012297000289
3.24750e-07	0.0005330875508132875
3.25000e-07	0.0005157061297892581
3.25250e-07	0.0004973925929807426
3.25500e-07	0.0004790790561722308
3.25750e-07	0.00045884133151638165
3.26000e-07	0.00043773620379684023
3.26250e-07	0.00041663107607730335
3.26500e-07	0.00039441884741591544
3.26750e-07	0.00037170754962772385
3.27000e-07	0.0003489962518395371
3.27250e-07	0.0003262849540513455
3.27500e-07	0.00030368801974313685
3.27750e-07	0.00028114263925440507
3.28000e-07	0.0002585972587656685
3.28250e-07	0.00023605187827693196
3.28500e-07	0.0002146432091427629
3.28750e-07	0.0001937469571890903
3.29000e-07	0.0001738077856585799
3.29250e-07	0.00015507882160258925
3.29500e-07	0.00013758522208128556
3.29750e-07	0.00012147010209327527
3.30000e-07	0.0001067981048710303
3.30250e-07	9.35200681609271e-05
3.30500e-07	8.157985630483918e-05
3.30750e-07	7.098865486121645e-05
3.31000e-07	6.179033334249376e-05
3.31250e-07	5.403250836968675e-05
3.31500e-07	4.7762781024687884e-05
3.31750e-07	4.302247688854943e-05
3.32000e-07	3.980376652991343e-05
3.32250e-07	3.802753791629834e-05
3.32500e-07	3.761031842086976e-05
3.32750e-07	3.8510801048039555e-05
3.33000e-07	4.0708164315805656e-05
3.33250e-07	4.418392202985456e-05
3.33500e-07	4.891957983632455e-05
3.33750e-07	5.489271286351617e-05
3.34000e-07	6.205010963543634e-05
3.34250e-07	7.029391090065353e-05
3.34500e-07	7.952353671441256e-05
3.34750e-07	8.966481232053615e-05
3.35000e-07	0.00010065641215322627
3.35250e-07	0.00011243847641558753
3.35500e-07	0.00012495112348285108
3.35750e-07	0.00013832462021823202
3.36000e-07	0.0001519864529997406
3.36250e-07	0.0001663529776618486
3.36500e-07	0.0001810371697996413
3.36750e-07	0.0001957213619374309
3.37000e-07	0.00021071982482794257
3.37250e-07	0.00022585995757367047
3.37500e-07	0.00024100009031939517
3.37750e-07	0.0002561402230651231
3.38000e-07	0.0002706717195240003
3.38250e-07	0.00028492884932962545
3.38500e-07	0.00029918597913525366
3.38750e-07	0.00031344310894088187
3.39000e-07	0.0003265020890245254
3.39250e-07	0.0003390209561763371
3.39500e-07	0.0003503586098427932
3.39750e-07	0.0003611637852496492
3.40000e-07	0.0003703659009740666
3.40250e-07	0.0003788453747372121
3.40500e-07	0.00038531420577065647
3.40750e-07	0.0003908766608147845
3.41000e-07	0.0003943833767005066
3.41250e-07	0.00039696338761475064
3.41500e-07	0.0003974904778973831
3.41750e-07	0.00039709213376992183
3.42000e-07	0.0003945581186690281
3.42250e-07	0.0003910613661992273
3.42500e-07	0.00038535508932971294
3.42750e-07	0.00037865278276574626
3.43000e-07	0.00036989421546546183
3.43250e-07	0.0003602087080720218
3.43500e-07	0.00034865019433560326
3.43750e-07	0.0003362473496039073
3.44000e-07	0.0003221011106403906
3.44250e-07	0.00030716896841902176
3.44500e-07	0.0002906286410091923
3.44750e-07	0.00027336336111543263
3.45000e-07	0.0002547673453914034
3.45250e-07	0.0002355714483523814
3.45500e-07	0.00021534100653991338
3.45750e-07	0.00019464420313636076
3.46000e-07	0.00017317541427120937
3.46250e-07	0.0001513586227121055
3.46500e-07	0.00012896868222486292
3.46750e-07	0.00010632037240174212
3.47000e-07	8.367206257861652e-05
3.47250e-07	6.102375275549092e-05
3.47500e-07	3.8375442932370114e-05
3.47750e-07	1.5958832935949477e-05
3.48000e-07	-6.0716214388774606e-06
3.48250e-07	-2.7614127779251878e-05
3.48500e-07	-4.85418187340136e-05
3.48750e-07	-6.8712059458865e-05
3.49000e-07	-8.79762509122045e-05
3.49250e-07	-0.00010618523532614574
3.49500e-07	-0.00012318986786072426
3.49750e-07	-0.00013883161753435442
3.50000e-07	-0.000152894088923359
3.50250e-07	-0.00016511745150381106
3.50500e-07	-0.00017532743845249731
3.50750e-07	-0.00018347105598086439
3.51000e-07	-0.00018954031594458474
3.51250e-07	-0.000193531567787343
3.51500e-07	-0.00019544115799121302
3.51750e-07	-0.0001952595617523906
3.52000e-07	-0.00019294102204613805
3.52250e-07	-0.00018841256257249114
3.52500e-07	-0.00018165484178917272
3.52750e-07	-0.0001727244493487466
3.53000e-07	-0.00016170619657008254
3.53250e-07	-0.0001486875886410144
3.53500e-07	-0.00013375614628850137
3.53750e-07	-0.00011699568805519436
3.54000e-07	-9.84673308853837e-05
3.54250e-07	-7.821516943122425e-05
3.54500e-07	-5.6316857435417285e-05
3.54750e-07	-3.2897635558093276e-05
3.55000e-07	-8.100405596461084e-06
3.55250e-07	1.793025411585344e-05
3.55500e-07	4.50497742362147e-05
3.55750e-07	7.311589957641947e-05
3.56000e-07	0.00010200060396813311
3.56250e-07	0.00013176458902809993
3.56500e-07	0.00016181560000906286
3.56750e-07	0.00019233757255991208
3.57000e-07	0.00022307184949111277
3.57250e-07	0.00025380612642230695
3.57500e-07	0.0002843520646765221
3.57750e-07	0.00031409131490592757
3.58000e-07	0.0003438305651353268
3.58250e-07	0.0003735698153647323
3.58500e-07	0.0004017795512631217
3.58750e-07	0.000429299798648953
3.59000e-07	0.00045503779424852593
3.59250e-07	0.0004799723700250955
3.59500e-07	0.000502555010571272
3.59750e-07	0.0005240774241612636
3.60000e-07	0.0005432993481576185
3.60250e-07	0.000559471065957743
3.60500e-07	0.0005725356137919591
3.60750e-07	0.000582398816029375
3.61000e-07	0.0005890681914613945
3.61250e-07	0.0005925613007153291
3.61500e-07	0.0005928956823833963
3.61750e-07	0.000590074613882394
3.62000e-07	0.0005840077281231819
3.62250e-07	0.0005745169119341785
3.62500e-07	0.0005615227867405896
3.62750e-07	0.0005451108175228298
3.63000e-07	0.0005254301207602245
3.63250e-07	0.0005026361329424994
3.63500e-07	0.0004768843066712692
3.63750e-07	0.0004483210581949927
3.64000e-07	0.0004170342495172987
3.64250e-07	0.0003830566892222684
3.64500e-07	0.00034648308917679927
3.64750e-07	0.0003075113920685169
3.65000e-07	0.0002663794095897869
3.65250e-07	0.00022332888818670996
3.65500e-07	0.00017860153870560553
3.65750e-07	0.0001324334519591288
3.66000e-07	8.502400001835869e-05
3.66250e-07	3.6538068219667655e-05
3.66500e-07	-1.2820700792181686e-05
3.66750e-07	-6.280707473595848e-05
3.67000e-07	-0.00011296389946326833
3.67250e-07	-0.0001631207241905676
3.67500e-07	-0.00021327754891787746
3.67750e-07	-0.00026247932869336997
3.68000e-07	-0.0003112505818982641
3.68250e-07	-0.0003584024460199557
3.68500e-07	-0.00040482430706314577
3.68750e-07	-0.0004487996567580224
3.69000e-07	-0.0004916721456059562
3.69250e-07	-0.0005321435003839091
3.69500e-07	-0.000569629051614387
3.69750e-07	-0.0006041270491178946
3.70000e-07	-0.0006353322234601372
3.70250e-07	-0.0006630170222517881
3.70500e-07	-0.0006870541073427892
3.70750e-07	-0.000707373850096727
3.71000e-07	-0.0007239195737049034
3.71250e-07	-0.0007366351077745337
3.71500e-07	-0.0007454644825197206
3.71750e-07	-0.0007503520593142598
3.72000e-07	-0.0007512569122311748
3.72250e-07	-0.0007481867058331389
3.72500e-07	-0.0007412118936871813
3.72750e-07	-0.0007304390671898832
3.73000e-07	-0.0007159829592474897
3.73250e-07	-0.0006979586865270069
3.73500e-07	-0.0006753433609596399
3.73750e-07	-0.0006511532175104079
3.74000e-07	-0.0006226018201065857
3.74250e-07	-0.0005920844166045749
3.74500e-07	-0.0005577127930605746
3.74750e-07	-0.000521603728820566
3.75000e-07	-0.00048224707977170665
3.75250e-07	-0.00044142645462671835
3.75500e-07	-0.000397971118780251
3.75750e-07	-0.0003533280838545761
3.76000e-07	-0.00030668321284165194
3.76250e-07	-0.0002591359357785307
3.76500e-07	-0.0002103182052553697
3.76750e-07	-0.0001609277680574982
3.77000e-07	-0.00011106062620110202
3.77250e-07	-6.097859104210833e-05
3.77500e-07	-1.1037422040753171e-05
3.77750e-07	3.848044388360006e-05
3.78000e-07	8.727333650939811e-05
3.78250e-07	0.00013503648483183839
3.78500e-07	0.0001814496813473057
3.78750e-07	0.00022618388106591144
3.79000e-07	0.00026890810577010616
3.79250e-07	0.00030929133400104026
3.79500e-07	0.000347002543312687
3.79750e-07	0.0003817128331704488
3.80000e-07	0.00041312575689434643
3.80250e-07	0.00044103329008565045
3.80500e-07	0.000465323015983562
3.80750e-07	0.0004859277455508656
3.81000e-07	0.0005027880888871408
3.81250e-07	0.0005158447945423871
3.81500e-07	0.0005250385850827064
3.81750e-07	0.0005303115110284692
3.82000e-07	0.0005316259775515798
3.82250e-07	0.0005289997889521388
3.82500e-07	0.000522510589147452
3.82750e-07	0.0005122644205565142
3.83000e-07	0.0004983722269810209
3.83250e-07	0.00048094491210129897
3.83500e-07	0.00046009348187552745
3.83750e-07	0.0004359296986448321
3.84000e-07	0.0004085781190088176
3.84250e-07	0.0003781979722786884
3.84500e-07	0.0003449859760323002
3.84750e-07	0.00030915658469911556
3.85000e-07	0.00027092735138618937
3.85250e-07	0.00023051579614795668
3.85500e-07	0.00018813945203080757
3.85750e-07	0.0001440163516239225
3.86000e-07	9.837249299300289e-05
3.86250e-07	5.145559977581531e-05
3.86500e-07	3.536853296180623e-06
3.86750e-07	-4.51014622317053e-05
3.87000e-07	-9.41532423197116e-05
3.87250e-07	-0.0001433029908397059
3.87500e-07	-0.00019245273935970022
3.87750e-07	-0.00024089184436684795
3.88000e-07	-0.0002890106042448277
3.88250e-07	-0.0003356005490500954
3.88500e-07	-0.0003815013205608827
3.88750e-07	-0.0004249851000271164
3.89000e-07	-0.00046737932562914564
3.89250e-07	-0.000507399458969899
3.89500e-07	-0.0005444673034302772
3.89750e-07	-0.0005777220003003842
3.90000e-07	-0.000609640229369945
3.90250e-07	-0.0006388986317555052
3.90500e-07	-0.0006669580130486321
3.90750e-07	-0.0006928952743637357
3.91000e-07	-0.0007178759069520031
3.91250e-07	-0.0007402636152538341
3.91500e-07	-0.0007614824613402468
3.91750e-07	-0.0007792530087382198
3.92000e-07	-0.0007954691003946529
3.92250e-07	-0.0008116851920510895
3.92500e-07	-0.000825176453704509
3.92750e-07	-0.000837439391472561
3.93000e-07	-0.000849702329240613
3.93250e-07	-0.0008591617589836823
3.93500e-07	-0.0008673573976402985
3.93750e-07	-0.0008755530362969147
