Time(s)	Current(A)
9.50000e-06	-0.011734294097252553
9.50025e-06	-0.011767339891597168
9.50050e-06	-0.011804353134239002
9.50075e-06	-0.011841366376881088
9.50100e-06	-0.011880027881447246
9.50125e-06	-0.01192044634986271
9.50150e-06	-0.011960864818278447
9.50175e-06	-0.012001829351406737
9.50200e-06	-0.012043375961900912
9.50225e-06	-0.012084922572395365
9.50250e-06	-0.01212590132968434
9.50275e-06	-0.012166274784175365
9.50300e-06	-0.012206648238666662
9.50325e-06	-0.01224523128010075
9.50350e-06	-0.012281905831766533
9.50375e-06	-0.012318580383432068
9.50400e-06	-0.012350322971979216
9.50425e-06	-0.012376808337277277
9.50450e-06	-0.012403293702575155
9.50475e-06	-0.012429779067873216
9.50500e-06	-0.012456264433171275
9.50525e-06	-0.012482749798469155
9.50550e-06	-0.012509235163767214
9.50575e-06	-0.012535720529065273
9.50600e-06	-0.012562205894363153
9.50625e-06	-0.01258640812613291
9.50650e-06	-0.0126081766530314
9.50675e-06	-0.012629945179929743
9.50700e-06	-0.012651713706828233
9.50725e-06	-0.012673482233726724
9.50750e-06	-0.012695250760625066
9.50775e-06	-0.012717019287523557
9.50800e-06	-0.012738787814422047
9.50825e-06	-0.012760556341320388
9.50850e-06	-0.012782274052128168
9.50875e-06	-0.012803937595553275
9.50900e-06	-0.012825601138978236
9.50925e-06	-0.012847264682403345
9.50950e-06	-0.012868928225828453
9.50975e-06	-0.012890591769253414
9.51000e-06	-0.012912255312678523
9.51025e-06	-0.012933918856103632
9.51050e-06	-0.012955582399528593
9.51075e-06	-0.012977245942953701
9.51100e-06	-0.012997264782462626
9.51125e-06	-0.013017256944985008
9.51150e-06	-0.013037249107507524
9.51175e-06	-0.01305724127003004
9.51200e-06	-0.013077233432552559
9.51225e-06	-0.01309722559507494
9.51250e-06	-0.013117217757597456
9.51275e-06	-0.013137209920119972
9.51300e-06	-0.013157202082642355
9.51325e-06	-0.013173859487827498
9.51350e-06	-0.013186962210346103
9.51375e-06	-0.01320006493286462
9.51400e-06	-0.013213167655383225
9.51425e-06	-0.01322627037790183
9.51450e-06	-0.013239373100420346
9.51475e-06	-0.013252475822938951
9.51500e-06	-0.013265578545457556
9.51525e-06	-0.013278681267976072
9.51550e-06	-0.013278856222643944
9.51575e-06	-0.013278821489790277
9.51600e-06	-0.013278786756936613
9.51625e-06	-0.013278752024082949
9.51650e-06	-0.013278717291229283
9.51675e-06	-0.013278682558375618
9.51700e-06	-0.013278647825521952
9.51725e-06	-0.013278613092668288
9.51750e-06	-0.013272020757092348
9.51775e-06	-0.013258438348664156
9.51800e-06	-0.013244855940235964
9.51825e-06	-0.013231273531807863
9.51850e-06	-0.013217691123379671
9.51875e-06	-0.013204108714951479
9.51900e-06	-0.013190526306523379
9.51925e-06	-0.013176943898095187
9.51950e-06	-0.01315447624904471
9.51975e-06	-0.01313186448199126
9.52000e-06	-0.013109252714937654
9.52025e-06	-0.01308664094788405
9.52050e-06	-0.013064029180830447
9.52075e-06	-0.013041417413776997
9.52100e-06	-0.013018805646723391
9.52125e-06	-0.012994634139133715
9.52150e-06	-0.0129688000270162
9.52175e-06	-0.012942965914898514
9.52200e-06	-0.012917131802780826
9.52225e-06	-0.012891297690663312
9.52250e-06	-0.012865463578545625
9.52275e-06	-0.012840744511336617
9.52300e-06	-0.0128172140256074
9.52325e-06	-0.012793683539878024
9.52350e-06	-0.012770153054148647
9.52375e-06	-0.01274662256841943
9.52400e-06	-0.012723092082690055
9.52425e-06	-0.012701611443348568
9.52450e-06	-0.012682315836586527
9.52475e-06	-0.012663377936772002
9.52500e-06	-0.012644821334472789
9.52525e-06	-0.012624521953270641
9.52550e-06	-0.012602364857897964
9.52575e-06	-0.012578142363661471
9.52600e-06	-0.012551718258692944
9.52625e-06	-0.012525294153724236
9.52650e-06	-0.012496818774845776
9.52675e-06	-0.012466156841721919
9.52700e-06	-0.012435494908597853
9.52725e-06	-0.012400481537950104
9.52750e-06	-0.012360829754974116
9.52775e-06	-0.01232117797199786
9.52800e-06	-0.012281526189021605
9.52825e-06	-0.012241874406045617
9.52850e-06	-0.012193783676978391
9.52875e-06	-0.012145556068774504
9.52900e-06	-0.012097328460570616
9.52925e-06	-0.012049100852367055
9.52950e-06	-0.011997639381016926
9.52975e-06	-0.011942730775103605
9.53000e-06	-0.011887822169190656
9.53025e-06	-0.011831678230861328
9.53050e-06	-0.011774217490652703
9.53075e-06	-0.011716373122703556
9.53100e-06	-0.011657824104542056
9.53125e-06	-0.011598687129388278
9.53150e-06	-0.011539130057334148
9.53175e-06	-0.011479476096741902
9.53200e-06	-0.011420075484359525
9.53225e-06	-0.01136127743642313
9.53250e-06	-0.01130342672066311
9.53275e-06	-0.011246799227000287
9.53300e-06	-0.01119153595223095
9.53325e-06	-0.011137757205015072
9.53350e-06	-0.011085713356996745
9.53375e-06	-0.011035749453175255
9.53400e-06	-0.010988228169368326
9.53425e-06	-0.010943512780839933
9.53450e-06	-0.010901976361455831
9.53475e-06	-0.010864110415916587
9.53500e-06	-0.010830596007962314
9.53525e-06	-0.0108020336040759
9.53550e-06	-0.010778676223109868
9.53575e-06	-0.010760557110559357
9.53600e-06	-0.010747673923253199
9.53625e-06	-0.010740024798546077
9.53650e-06	-0.010737613734146213
9.53675e-06	-0.010740518143266254
9.53700e-06	-0.01075030952557499
9.53725e-06	-0.010764476338918801
9.53750e-06	-0.01078518443350126
9.53775e-06	-0.010812865203063857
9.53800e-06	-0.01084054597262664
9.53825e-06	-0.010876827536893993
9.53850e-06	-0.010922277113337781
9.53875e-06	-0.010967726689781876
9.53900e-06	-0.011013176266225973
9.53925e-06	-0.011058625842669761
9.53950e-06	-0.01112117957451606
9.53975e-06	-0.011184010734611064
9.54000e-06	-0.01124684189470564
9.54025e-06	-0.011309673054800644
9.54050e-06	-0.011377110402475993
9.54075e-06	-0.01144945771315764
9.54100e-06	-0.011521805023839777
9.54125e-06	-0.01159606716738592
9.54150e-06	-0.011672370425923648
9.54175e-06	-0.011748673684461895
9.54200e-06	-0.011825157036164031
9.54225e-06	-0.011901832358070318
9.54250e-06	-0.01197761532849297
9.54275e-06	-0.012052447097363323
9.54300e-06	-0.012125562909716685
9.54325e-06	-0.012196849599206765
9.54350e-06	-0.012265498228133475
9.54375e-06	-0.01233133481791646
9.54400e-06	-0.012393529423542136
9.54425e-06	-0.012451841858245247
9.54450e-06	-0.012505525290061053
9.54475e-06	-0.012554274438906726
9.54500e-06	-0.01259770892353316
9.54525e-06	-0.012635478244885147
9.54550e-06	-0.012666246021869977
9.54575e-06	-0.012689550506654632
9.54600e-06	-0.012712854991439287
9.54625e-06	-0.012727394942248303
9.54650e-06	-0.012732592343096386
9.54675e-06	-0.012737789743944468
9.54700e-06	-0.012734163706753406
9.54725e-06	-0.01272113233084847
9.54750e-06	-0.012708100954943532
9.54775e-06	-0.012685594439663045
9.54800e-06	-0.012652987905003183
9.54825e-06	-0.01262038137034332
9.54850e-06	-0.01258777483568368
9.54875e-06	-0.012545751276818187
9.54900e-06	-0.012493689646405251
9.54925e-06	-0.012441628015992667
9.54950e-06	-0.01238956638557973
9.54975e-06	-0.012331832045902876
9.55000e-06	-0.012268050885042056
9.55025e-06	-0.012201360509579894
9.55050e-06	-0.012131569058483359
9.55075e-06	-0.012060011387071778
9.55100e-06	-0.011985641021144001
9.55125e-06	-0.011909558957073204
9.55150e-06	-0.011832200964635541
9.55175e-06	-0.011754007499948227
9.55200e-06	-0.011675418687252699
9.55225e-06	-0.011596874051345176
9.55250e-06	-0.01151881413753215
9.55275e-06	-0.011441683939626234
9.55300e-06	-0.011365947290849799
9.55325e-06	-0.011292092327999914
9.55350e-06	-0.01122062094475552
9.55375e-06	-0.01115203836874892
9.55400e-06	-0.011086848955747979
9.55425e-06	-0.011025557873925495
9.55450e-06	-0.010968667735324173
9.55475e-06	-0.010916631237355083
9.55500e-06	-0.010869758838092394
9.55525e-06	-0.010828203284768712
9.55550e-06	-0.010792056778319153
9.55575e-06	-0.010761415576845759
9.55600e-06	-0.010736380263186851
9.55625e-06	-0.010717051420180545
9.55650e-06	-0.010703527827479107
9.55675e-06	-0.010695877942456931
9.55700e-06	-0.010695447709710903
9.55725e-06	-0.01069947195455583
9.55750e-06	-0.01071008293594195
9.55775e-06	-0.01072771504536535
9.55800e-06	-0.010745347154788868
9.55825e-06	-0.010771932731969096
9.55850e-06	-0.010808062252967912
9.55875e-06	-0.010844191773966973
9.55900e-06	-0.010880321294966034
9.55925e-06	-0.01091645081596485
9.55950e-06	-0.010969998531866606
9.55975e-06	-0.011023828769718809
9.56000e-06	-0.011077659007570647
9.56025e-06	-0.01113148924542285
9.56050e-06	-0.011190199003741217
9.56075e-06	-0.011254110084101198
9.56100e-06	-0.01131802116446161
9.56125e-06	-0.011383977357846626
9.56150e-06	-0.011452113538286748
9.56175e-06	-0.011520249718727333
9.56200e-06	-0.01158876652159931
9.56225e-06	-0.011657689048733261
9.56250e-06	-0.011725985419660972
9.56275e-06	-0.01179361433973925
9.56300e-06	-0.011859762619024486
9.56325e-06	-0.011924332610106439
9.56350e-06	-0.011983827309861457
9.56375e-06	-0.012037912005737101
9.56400e-06	-0.01209199670161238
9.56425e-06	-0.012146081397488025
9.56450e-06	-0.01220016609336367
9.56475e-06	-0.012247585944708142
9.56500e-06	-0.012287901408847127
9.56525e-06	-0.01232821687298611
9.56550e-06	-0.012368532337124823
9.56575e-06	-0.012408847801263808
9.56600e-06	-0.012443914339595278
9.56625e-06	-0.012473385788471718
9.56650e-06	-0.012502857237348359
9.56675e-06	-0.012532328686225001
9.56700e-06	-0.012561800135101442
9.56725e-06	-0.012591271583978082
9.56750e-06	-0.012620743032854724
9.56775e-06	-0.012650214481731165
9.56800e-06	-0.012679685930607806
9.56825e-06	-0.012709157379484448
9.56850e-06	-0.012738628828360889
9.56875e-06	-0.012764394116065515
9.56900e-06	-0.012786208823393489
9.56925e-06	-0.012808023530721314
9.56950e-06	-0.012829838238049287
9.56975e-06	-0.012851652945377259
9.57000e-06	-0.012873467652705084
9.57025e-06	-0.012895282360033056
9.57050e-06	-0.012917097067361029
9.57075e-06	-0.012938911774688854
9.57100e-06	-0.012960726482016826
9.57125e-06	-0.0129825411893448
9.57150e-06	-0.013002282745478079
9.57175e-06	-0.013019814427283928
9.57200e-06	-0.013037346109089777
9.57225e-06	-0.013054877790895626
9.57250e-06	-0.013072409472701357
9.57275e-06	-0.013089941154507206
9.57300e-06	-0.013105388954798049
9.57325e-06	-0.013118615442782219
9.57350e-06	-0.01313184193076648
9.57375e-06	-0.013145068418750738
9.57400e-06	-0.013158294906734909
9.57425e-06	-0.013171521394719169
9.57450e-06	-0.01318229757884394
9.57475e-06	-0.013190461862973842
9.57500e-06	-0.013198626147103798
9.57525e-06	-0.013203190972205113
9.57550e-06	-0.013203918956017602
9.57575e-06	-0.013204646939830094
9.57600e-06	-0.013199229886668083
9.57625e-06	-0.01318726253486474
9.57650e-06	-0.013175295183061314
9.57675e-06	-0.013163327831257888
9.57700e-06	-0.013151360479454545
9.57725e-06	-0.013139393127651118
9.57750e-06	-0.013127425775847693
9.57775e-06	-0.01309823254426605
9.57800e-06	-0.013068759910069738
9.57825e-06	-0.013039287275873425
9.57850e-06	-0.013009814641677313
9.57875e-06	-0.012980342007481
9.57900e-06	-0.012950869373284688
9.57925e-06	-0.01291499527987208
9.57950e-06	-0.0128722975546754
9.57975e-06	-0.01282959982947872
9.58000e-06	-0.012786902104282332
9.58025e-06	-0.012744204379085652
9.58050e-06	-0.012701506653888972
9.58075e-06	-0.01265587056259179
9.58100e-06	-0.01260710232163367
9.58125e-06	-0.012558334080675217
9.58150e-06	-0.012509565839716765
9.58175e-06	-0.012460797598758643
9.58200e-06	-0.01241202935780019
9.58225e-06	-0.012363290644006264
9.58250e-06	-0.01231458340467678
9.58275e-06	-0.012266722310199108
9.58300e-06	-0.012219763163341847
9.58325e-06	-0.012174084278275021
9.58350e-06	-0.012129770087529667
9.58375e-06	-0.012087302358859077
9.58400e-06	-0.012046802865379623
9.58425e-06	-0.012008740151866933
9.58450e-06	-0.011973274922564288
9.58475e-06	-0.011940719358657691
9.58500e-06	-0.011911265350912902
9.58525e-06	-0.01188565753809522
9.58550e-06	-0.011864149574557196
9.58575e-06	-0.011842641611019026
9.58600e-06	-0.011825984817860007
9.58625e-06	-0.011814499126988185
9.58650e-06	-0.011803013436116283
9.58675e-06	-0.01179886302921305
9.58700e-06	-0.01180253166405487
9.58725e-06	-0.011806200298896712
9.58750e-06	-0.011809868933738556
9.58775e-06	-0.011813537568580374
9.58800e-06	-0.011817206203422219
9.58825e-06	-0.011829361681649069
9.58850e-06	-0.011850563705721382
9.58875e-06	-0.011871765729793838
9.58900e-06	-0.011892967753866295
9.58925e-06	-0.01191416977793875
9.58950e-06	-0.011935371802011064
9.58975e-06	-0.011962791628697176
9.59000e-06	-0.011996839318518216
9.59025e-06	-0.012030887008339024
9.59050e-06	-0.012064934698160062
9.59075e-06	-0.012098982387981102
9.59100e-06	-0.01213303007780191
9.59125e-06	-0.01216707776762295
9.59150e-06	-0.012203091380565903
9.59175e-06	-0.012241200568134582
9.59200e-06	-0.01227930975570352
9.59225e-06	-0.012317418943272457
9.59250e-06	-0.012355528130841134
9.59275e-06	-0.012393637318410072
9.59300e-06	-0.01243174650597901
9.59325e-06	-0.012467911816516705
9.59350e-06	-0.012502005052446512
9.59375e-06	-0.012536098288376318
9.59400e-06	-0.012567323407312399
9.59425e-06	-0.012595491258581644
9.59450e-06	-0.01262365910985089
9.59475e-06	-0.012647459495283786
9.59500e-06	-0.012666604383009298
9.59525e-06	-0.01268574927073481
9.59550e-06	-0.012699353870644033
9.59575e-06	-0.012707052803927537
9.59600e-06	-0.012714751737211044
9.59625e-06	-0.012716807601098
9.59650e-06	-0.012712848238392442
9.59675e-06	-0.012708888875686884
9.59700e-06	-0.012696648656233354
9.59725e-06	-0.012675581462270017
9.59750e-06	-0.012654514268306681
9.59775e-06	-0.012633447074343343
9.59800e-06	-0.012612379880380149
9.59825e-06	-0.012591312686416813
9.59850e-06	-0.01255128364954447
9.59875e-06	-0.012510947052849884
9.59900e-06	-0.012470610456155024
9.59925e-06	-0.012430273859460165
9.59950e-06	-0.012389937262765579
9.59975e-06	-0.012344029164018791
9.60000e-06	-0.01229218212584909
9.60025e-06	-0.01224033508767974
9.60050e-06	-0.012185969449995991
9.60075e-06	-0.012128919112601912
9.60100e-06	-0.01207186877520822
9.60125e-06	-0.012013514884876725
9.60150e-06	-0.011953771473037717
9.60175e-06	-0.011893697627434347
9.60200e-06	-0.011833271556148146
9.60225e-06	-0.011773008673160505
9.60250e-06	-0.011713247018836649
9.60275e-06	-0.011654312521497182
9.60300e-06	-0.011596511764648154
9.60325e-06	-0.011540160892559301
9.60350e-06	-0.011485613124023623
9.60375e-06	-0.011433246036021102
9.60400e-06	-0.011383440509755314
9.60425e-06	-0.011336577485888368
9.60450e-06	-0.011293917349409717
9.60475e-06	-0.011254011108410289
9.60500e-06	-0.011217541063006474
9.60525e-06	-0.011184733828331782
9.60550e-06	-0.01115534047483111
9.60575e-06	-0.011129586146013979
9.60600e-06	-0.011107448782151025
9.60625e-06	-0.011089166920011323
9.60650e-06	-0.011075589569152503
9.60675e-06	-0.01106702698940147
9.60700e-06	-0.011058464409650434
9.60725e-06	-0.011057128014305855
9.60750e-06	-0.011063494366094556
9.60775e-06	-0.011069860717883259
9.60800e-06	-0.011076227069671917
9.60825e-06	-0.01108259342146062
9.60850e-06	-0.011088959773249321
9.60875e-06	-0.011111517266399184
9.60900e-06	-0.011134337378779354
9.60925e-06	-0.011157157491159525
9.60950e-06	-0.01117997760353954
9.60975e-06	-0.011202797715919711
9.61000e-06	-0.011231301545030043
9.61025e-06	-0.01126586392873656
9.61050e-06	-0.011300426312443315
9.61075e-06	-0.011334988696150067
9.61100e-06	-0.011369551079856587
9.61125e-06	-0.01140411346356334
9.61150e-06	-0.011438675847270093
9.61175e-06	-0.011476839627719641
9.61200e-06	-0.011515061822583841
9.61225e-06	-0.011553284017448042
9.61250e-06	-0.011591506212311982
9.61275e-06	-0.01162972840717618
9.61300e-06	-0.011667950602040381
9.61325e-06	-0.011704303748774514
9.61350e-06	-0.011738664584724095
9.61375e-06	-0.011773025420673674
9.61400e-06	-0.011804513030604367
9.61425e-06	-0.011832937926904206
9.61450e-06	-0.011861362823204045
9.61475e-06	-0.011886090137126342
9.61500e-06	-0.011906876015228185
9.61525e-06	-0.011927661893330171
9.61550e-06	-0.011941961154631276
9.61575e-06	-0.011949346010463612
9.61600e-06	-0.011956730866295999
9.61625e-06	-0.011964115722128386
9.61650e-06	-0.011971500577960722
9.61675e-06	-0.011978885433793109
9.61700e-06	-0.011986270289625496
9.61725e-06	-0.01198479255253941
9.61750e-06	-0.011973867739600902
9.61775e-06	-0.011962942926662395
9.61800e-06	-0.011952018113723963
9.61825e-06	-0.011941093300785455
9.61850e-06	-0.011930168487846948
9.61875e-06	-0.011919243674908516
9.61900e-06	-0.011901653094054412
9.61925e-06	-0.011876957141703136
9.61950e-06	-0.011852261189352026
9.61975e-06	-0.011827565237000749
9.62000e-06	-0.011802869284649473
9.62025e-06	-0.011778173332298364
9.62050e-06	-0.011753477379947086
9.62075e-06	-0.011721809440455007
9.62100e-06	-0.01169002841579746
9.62125e-06	-0.011658247391139697
9.62150e-06	-0.011626466366481934
9.62175e-06	-0.011594685341824387
9.62200e-06	-0.011562904317166623
9.62225e-06	-0.011530733480766456
9.62250e-06	-0.011498147124762596
9.62275e-06	-0.011465560768758518
9.62300e-06	-0.011433657294174893
9.62325e-06	-0.011402481736650927
9.62350e-06	-0.011372339179088628
9.62375e-06	-0.011343297747244394
9.62400e-06	-0.011315685565401381
9.62425e-06	-0.011289596891780142
9.62450e-06	-0.011265383981998814
9.62475e-06	-0.011243170541610373
9.62500e-06	-0.011223589076031071
9.62525e-06	-0.011206813162494523
9.62550e-06	-0.011193018140184202
9.62575e-06	-0.011182400597172334
9.62600e-06	-0.011175497992199017
9.62625e-06	-0.011172555323304082
9.62650e-06	-0.01116961265440917
9.62675e-06	-0.011173640349789576
9.62700e-06	-0.011185098100984225
9.62725e-06	-0.011196555852178797
9.62750e-06	-0.011208013603373446
9.62775e-06	-0.011219471354568095
9.62800e-06	-0.011230929105762667
9.62825e-06	-0.011250708032659297
9.62850e-06	-0.011279356912038364
9.62875e-06	-0.011308005791417237
9.62900e-06	-0.011336654670796302
9.62925e-06	-0.011365303550175369
9.62950e-06	-0.011393952429554242
9.62975e-06	-0.011428551700107236
9.63000e-06	-0.011469493786730503
9.63025e-06	-0.01151043587335349
9.63050e-06	-0.011551377959976754
9.63075e-06	-0.01159232004660002
9.63100e-06	-0.011633262133223007
9.63125e-06	-0.011674204219846274
9.63150e-06	-0.011718941851249361
9.63175e-06	-0.011763741046135496
9.63200e-06	-0.011808540241021325
9.63225e-06	-0.01185333943590746
9.63250e-06	-0.011898138630793595
9.63275e-06	-0.011942937825679425
9.63300e-06	-0.011985971805874743
9.63325e-06	-0.012027124156479278
9.63350e-06	-0.012068276507083532
9.63375e-06	-0.012106597405470265
9.63400e-06	-0.01214190011898364
9.63425e-06	-0.012177202832496774
9.63450e-06	-0.01220823124476649
9.63475e-06	-0.01223470346806822
9.63500e-06	-0.012261175691369768
9.63525e-06	-0.012281976595369845
9.63550e-06	-0.012296732159801229
9.63575e-06	-0.012311487724232512
9.63600e-06	-0.012320259867984715
9.63625e-06	-0.0123226539878832
9.63650e-06	-0.012325048107781667
9.63675e-06	-0.012318701230751627
9.63700e-06	-0.012303036893040709
9.63725e-06	-0.012287372555329894
9.63750e-06	-0.012271708217618974
9.63775e-06	-0.012256043879908054
9.63800e-06	-0.01224037954219724
9.63825e-06	-0.012203999261559665
9.63850e-06	-0.012167282969709356
9.63875e-06	-0.012130566677859295
9.63900e-06	-0.012093850386008987
9.63925e-06	-0.012057134094158678
9.63950e-06	-0.012013299144231247
9.63975e-06	-0.011961876064793568
9.64000e-06	-0.011910452985355887
9.64025e-06	-0.011859029905918209
9.64050e-06	-0.011807606826480877
9.64075e-06	-0.011748593644438407
9.64100e-06	-0.011689457351437761
9.64125e-06	-0.011630321058437518
9.64150e-06	-0.011571184765436872
9.64175e-06	-0.011511015973359882
9.64200e-06	-0.01144974658948278
9.64225e-06	-0.01138861582549969
9.64250e-06	-0.011327946577611497
9.64275e-06	-0.011268083759773664
9.64300e-06	-0.011209351561430643
9.64325e-06	-0.011152086615948843
9.64350e-06	-0.011096656770865762
9.64375e-06	-0.011044127560643383
9.64400e-06	-0.010993572111664244
9.64425e-06	-0.010946915525656254
9.64450e-06	-0.010904414930404536
9.64475e-06	-0.010861914335152816
9.64500e-06	-0.01082546925795144
9.64525e-06	-0.010795479056756358
9.64550e-06	-0.010765488855561278
9.64575e-06	-0.010735498654366401
9.64600e-06	-0.010705508453171319
9.64625e-06	-0.010675518251976239
9.64650e-06	-0.01064552805078136
9.64675e-06	-0.01061553784958628
9.64700e-06	-0.010600306405256023
9.64725e-06	-0.010585314346978996
