Time(s)	Current(A)
3.00000e-06	0.002106096276551917
3.00025e-06	0.002125463945802752
3.00050e-06	0.002153815360751457
3.00075e-06	0.0021821667757001137
3.00100e-06	0.002210518190648819
3.00125e-06	0.002238869605597524
3.00150e-06	0.002267221020546181
3.00175e-06	0.002295572435494886
3.00200e-06	0.0023239238504435913
3.00225e-06	0.002352469399695696
3.00250e-06	0.0023810672425975893
3.00275e-06	0.0024096650854995316
3.00300e-06	0.0024382629284014734
3.00325e-06	0.0024668607713033666
3.00350e-06	0.0024954586142053085
3.00375e-06	0.0025240564571072507
3.00400e-06	0.002547664930386831
3.00425e-06	0.0025589261337131
3.00450e-06	0.0025701873370393884
3.00475e-06	0.0025814485403656763
3.00500e-06	0.002592709743691945
3.00525e-06	0.0026039709470182335
3.00550e-06	0.0026152321503445214
3.00575e-06	0.0026264933536707903
3.00600e-06	0.0026377545569970786
3.00625e-06	0.0026490157603233666
3.00650e-06	0.0026602769636496545
3.00675e-06	0.0026715381669759238
3.00700e-06	0.0026732114176484874
3.00725e-06	0.0026511572140177457
3.00750e-06	0.0026291030103870413
3.00775e-06	0.0026070488067562996
3.00800e-06	0.002584994603125558
3.00825e-06	0.0025629403994948162
3.00850e-06	0.002540886195864112
3.00875e-06	0.00251883199223337
3.00900e-06	0.0024967777886026284
3.00925e-06	0.002474723584971924
3.00950e-06	0.0024526693813411824
3.00975e-06	0.0024306151777104407
3.01000e-06	0.0024031966171126147
3.01025e-06	0.0023625027995956773
3.01050e-06	0.00232180898207874
3.01075e-06	0.0022811151645618023
3.01100e-06	0.002240421347044934
3.01125e-06	0.0021997275295279964
3.01150e-06	0.002159033712011059
3.01175e-06	0.002116291729056914
3.01200e-06	0.0020729980350227013
3.01225e-06	0.0020297043409884877
3.01250e-06	0.001986410646954275
3.01275e-06	0.0019431169529201349
3.01300e-06	0.0018998232588859217
3.01325e-06	0.0018594719693057714
3.01350e-06	0.001826402293407967
3.01375e-06	0.0017933326175101063
3.01400e-06	0.0017602629416122457
3.01425e-06	0.001727193265714441
3.01450e-06	0.0016941235898165806
3.01475e-06	0.00166105391391872
3.01500e-06	0.0016279842380208594
3.01525e-06	0.0015949145621230547
3.01550e-06	0.0015795132786930828
3.01575e-06	0.0015688713021595143
3.01600e-06	0.001558229325625964
3.01625e-06	0.0015475873490923958
3.01650e-06	0.0015369453725588276
3.01675e-06	0.0015263033960252594
3.01700e-06	0.0015156614194917091
3.01725e-06	0.0015050194429581409
3.01750e-06	0.0014989928453138107
3.01775e-06	0.0015043879969885551
3.01800e-06	0.0015097831486633087
3.01825e-06	0.001517333048021562
3.01850e-06	0.001530215334704265
3.01875e-06	0.00154309762138699
3.01900e-06	0.001558828380378236
3.01925e-06	0.001581608297722687
3.01950e-06	0.0016043882150670995
3.01975e-06	0.0016271681324115505
3.02000e-06	0.0016499480497560014
3.02025e-06	0.0016727279671004138
3.02050e-06	0.0016955078844448647
3.02075e-06	0.0017204840603783332
3.02100e-06	0.0017508953513145052
3.02125e-06	0.0017813066422506258
3.02150e-06	0.0018117179331867978
3.02175e-06	0.0018421292241229698
3.02200e-06	0.0018725405150590902
3.02225e-06	0.0019029518059952622
3.02250e-06	0.0019314328996509675
3.02275e-06	0.0019551373043275324
3.02300e-06	0.0019788417090041374
3.02325e-06	0.002002546113680742
3.02350e-06	0.002026250518357347
3.02375e-06	0.0020499549230339116
3.02400e-06	0.0020736593277105165
3.02425e-06	0.0020973637323871215
3.02450e-06	0.002121068137063686
3.02475e-06	0.002144772541740291
3.02500e-06	0.002168476946416896
3.02525e-06	0.002192181351093501
3.02550e-06	0.002215885755770066
3.02575e-06	0.0022395901604466708
3.02600e-06	0.002257229172331593
3.02625e-06	0.002259858063129085
3.02650e-06	0.002262486953926581
3.02675e-06	0.002265115844724078
3.02700e-06	0.00226774473552157
3.02725e-06	0.0022703736263190665
3.02750e-06	0.0022730025171165628
3.02775e-06	0.002275631407914059
3.02800e-06	0.0022782602987115514
3.02825e-06	0.0022808891895090477
3.02850e-06	0.0022835180803065444
3.02875e-06	0.0022861469711040363
3.02900e-06	0.0022887758619015326
3.02925e-06	0.0022914047526990293
3.02950e-06	0.0022903947024009437
3.02975e-06	0.0022803793084505246
3.03000e-06	0.002270363914500088
3.03025e-06	0.0022603485205496517
3.03050e-06	0.0022503331265992326
3.03075e-06	0.002240317732648796
3.03100e-06	0.0022303023386983597
3.03125e-06	0.00222028694474794
3.03150e-06	0.002210271550797504
3.03175e-06	0.0022002561568470677
3.03200e-06	0.002188600657421017
3.03225e-06	0.002176503365380513
3.03250e-06	0.002164406073339988
3.03275e-06	0.0021523087812994634
3.03300e-06	0.002140211489258959
3.03325e-06	0.0021281141972184343
3.03350e-06	0.0021160169051779093
3.03375e-06	0.0021039196131373847
3.03400e-06	0.00209182232109688
3.03425e-06	0.002080659005916136
3.03450e-06	0.0020718070176750595
3.03475e-06	0.0020629550294339978
3.03500e-06	0.0020541030411929213
3.03525e-06	0.002045251052951845
3.03550e-06	0.0020363990647107835
3.03575e-06	0.002027547076469707
3.03600e-06	0.0020186950882286306
3.03625e-06	0.002009843099987554
3.03650e-06	0.0020009911117464924
3.03675e-06	0.001992139123505416
3.03700e-06	0.0019832871352643395
3.03725e-06	0.001974435147023278
3.03750e-06	0.0019655831587822017
3.03775e-06	0.0019567311705411252
3.03800e-06	0.0019478791823000488
3.03825e-06	0.0019390271940589873
3.03850e-06	0.0019301752058179108
3.03875e-06	0.0019213232175768343
3.03900e-06	0.001912292768237813
3.03925e-06	0.0019028206784672199
3.03950e-06	0.0018933485886966268
3.03975e-06	0.0018838764989260496
3.04000e-06	0.0018744044091554566
3.04025e-06	0.0018649323193848633
3.04050e-06	0.0018554602296142703
3.04075e-06	0.0018459881398436933
3.04100e-06	0.0018365160500731
3.04125e-06	0.001827043960302507
3.04150e-06	0.0018175718705319298
3.04175e-06	0.0018080997807613367
3.04200e-06	0.0017986276909907435
3.04225e-06	0.0017891556012201504
3.04250e-06	0.0017796835114495732
3.04275e-06	0.0017702114216789802
3.04300e-06	0.001760739331908387
3.04325e-06	0.00175126724213781
3.04350e-06	0.0017417951523672167
3.04375e-06	0.0017335078253266102
3.04400e-06	0.0017281524488868296
3.04425e-06	0.0017227970724470396
3.04450e-06	0.0017174416960072496
3.04475e-06	0.0017120863195674598
3.04500e-06	0.0017067309431276789
3.04525e-06	0.0017013755666878889
3.04550e-06	0.0016960201902480989
3.04575e-06	0.0016906648138083182
3.04600e-06	0.0016853094373685282
3.04625e-06	0.0016799540609287382
3.04650e-06	0.0016745986844889484
3.04675e-06	0.0016692433080491675
3.04700e-06	0.0016638879316093775
3.04725e-06	0.0016585325551695875
3.04750e-06	0.0016531771787298068
3.04775e-06	0.0016478218022900168
3.04800e-06	0.0016424664258502268
3.04825e-06	0.0016378361612831428
3.04850e-06	0.0016350003422510996
3.04875e-06	0.0016321645232190564
3.04900e-06	0.0016293287041870132
3.04925e-06	0.0016264928851549747
3.04950e-06	0.0016236570661229315
3.04975e-06	0.0016208212470908883
3.05000e-06	0.00161798542805885
3.05025e-06	0.0016151496090268068
3.05050e-06	0.0016123137899947636
3.05075e-06	0.0016094779709627204
3.05100e-06	0.001606642151930682
3.05125e-06	0.0016038063328986387
3.05150e-06	0.0016009705138665955
3.05175e-06	0.001598134694834557
3.05200e-06	0.0015952988758025138
3.05225e-06	0.0015924630567704706
3.05250e-06	0.0015896272377384322
3.05275e-06	0.0015870687995712472
3.05300e-06	0.0015851968001085095
3.05325e-06	0.001583324800645772
3.05350e-06	0.0015814528011830376
3.05375e-06	0.0015795808017202999
3.05400e-06	0.0015777088022575624
3.05425e-06	0.001575836802794828
3.05450e-06	0.0015739648033320905
3.05475e-06	0.0015720928038693528
3.05500e-06	0.0015681799061497263
3.05525e-06	0.00156371725489874
3.05550e-06	0.001559254603647746
3.05575e-06	0.001554791952396752
3.05600e-06	0.0015503293011457657
3.05625e-06	0.0015458666498947718
3.05650e-06	0.0015414039986437777
3.05675e-06	0.0015369413473927914
3.05700e-06	0.0015304676888780596
3.05725e-06	0.0015190173596707846
3.05750e-06	0.0015075670304635096
3.05775e-06	0.0014961167012562538
3.05800e-06	0.0014846663720489788
3.05825e-06	0.0014732160428417038
3.05850e-06	0.0014617657136344483
3.05875e-06	0.0014503153844271732
3.05900e-06	0.0014388650552198982
3.05925e-06	0.0014274147260126232
3.05950e-06	0.001411529029984839
3.05975e-06	0.001394448586220634
3.06000e-06	0.001377368142456429
3.06025e-06	0.0013602876986922529
3.06050e-06	0.001343207254928048
3.06075e-06	0.0013261268111638429
3.06100e-06	0.0013090463673996668
3.06125e-06	0.001291965923635462
3.06150e-06	0.0012748854798712568
3.06175e-06	0.0012575073869913003
3.06200e-06	0.0012393926972537727
3.06225e-06	0.0012212780075162143
3.06250e-06	0.001203163317778656
3.06275e-06	0.0011855692489308675
3.06300e-06	0.0011692635686288086
3.06325e-06	0.0011529578883267496
3.06350e-06	0.0011366522080246907
3.06375e-06	0.0011203465277226593
3.06400e-06	0.0011040408474206004
3.06425e-06	0.0010918759452245214
3.06450e-06	0.0010808264378693937
3.06475e-06	0.0010697769305142474
3.06500e-06	0.0010587274231591008
3.06525e-06	0.0010476779158039731
3.06550e-06	0.001038973251245809
3.06575e-06	0.0010360714053237329
3.06600e-06	0.001033169559401657
3.06625e-06	0.0010321026473873495
3.06650e-06	0.0010355766746162035
3.06675e-06	0.0010390507018450577
3.06700e-06	0.0010445115345997674
3.06725e-06	0.0010548891456333917
3.06750e-06	0.001065266756667016
3.06775e-06	0.0010776068384772029
3.06800e-06	0.001094803476986805
3.06825e-06	0.0011120001154964361
3.06850e-06	0.0011308780071037218
3.06875e-06	0.0011539165216830187
3.06900e-06	0.0011769550362623546
3.06925e-06	0.0012021897776446488
3.06950e-06	0.0012328595553703443
3.06975e-06	0.001263529333096092
3.07000e-06	0.0012941991108218396
3.07025e-06	0.0013248688885475872
3.07050e-06	0.0013555386662732827
3.07075e-06	0.0013862084439990304
3.07100e-06	0.0014208951730134902
3.07125e-06	0.0014566639418352055
3.07150e-06	0.0014924327106569815
3.07175e-06	0.0015282014794787576
3.07200e-06	0.0015639702483005334
3.07225e-06	0.001599739017122249
3.07250e-06	0.0016330208232615865
3.07275e-06	0.0016601481044920651
3.07300e-06	0.0016872753857224976
3.07325e-06	0.0017144026669529762
3.07350e-06	0.0017415299481834546
3.07375e-06	0.001768657229413887
3.07400e-06	0.0017957845106443657
3.07425e-06	0.001822911791874844
3.07450e-06	0.0018500390731053227
3.07475e-06	0.0018771663543357552
3.07500e-06	0.0019042936355662338
3.07525e-06	0.0019314209167967122
3.07550e-06	0.0019585481980271447
3.07575e-06	0.0019856754792576233
3.07600e-06	0.002006870453394052
3.07625e-06	0.0020133846556652313
3.07650e-06	0.002019898857936422
3.07675e-06	0.0020264130602076127
3.07700e-06	0.0020329272624788034
3.07725e-06	0.0020394414647499828
3.07750e-06	0.0020459556670211734
3.07775e-06	0.002052469869292364
3.07800e-06	0.0020589840715635435
3.07825e-06	0.002065498273834734
3.07850e-06	0.0020720124761059245
3.07875e-06	0.002078526678377115
3.07900e-06	0.0020850408806482945
3.07925e-06	0.0020915550829194852
3.07950e-06	0.0020948002236032886
3.07975e-06	0.0020899553671548253
3.08000e-06	0.0020851105107063538
3.08025e-06	0.0020802656542578822
3.08050e-06	0.002075420797809419
3.08075e-06	0.0020705759413609474
3.08100e-06	0.002065731084912476
3.08125e-06	0.0020608862284640043
3.08150e-06	0.002056041372015541
3.08175e-06	0.0020511965155670694
3.08200e-06	0.0020457008190451465
3.08225e-06	0.0020385944785548758
3.08250e-06	0.002031488138064593
3.08275e-06	0.00202438179757431
3.08300e-06	0.0020172754570840275
3.08325e-06	0.002010169116593757
3.08350e-06	0.002003062776103474
3.08375e-06	0.001995956435613191
3.08400e-06	0.0019888500951229203
3.08425e-06	0.0019817437546326374
3.08450e-06	0.001973771405547962
3.08475e-06	0.0019636559316373657
3.08500e-06	0.001953540457726752
3.08525e-06	0.0019434249838161384
3.08550e-06	0.0019333095099055247
3.08575e-06	0.0019231940359949282
3.08600e-06	0.0019130785620843146
3.08625e-06	0.001902963088173701
3.08650e-06	0.0018928476142631044
3.08675e-06	0.0018827321403524907
3.08700e-06	0.001872616666441877
3.08725e-06	0.0018625011925312632
3.08750e-06	0.0018523857186206667
3.08775e-06	0.001842270244710053
3.08800e-06	0.0018225124369049773
3.08825e-06	0.0018001572888881592
3.08850e-06	0.001777802140871303
3.08875e-06	0.0017554469928544472
3.08900e-06	0.001733091844837629
3.08925e-06	0.0017107366968207732
3.08950e-06	0.001688381548803917
3.08975e-06	0.0016660264007870612
3.09000e-06	0.001643671252770243
3.09025e-06	0.0016213161047533872
3.09050e-06	0.0015989609567365311
3.09075e-06	0.0015766058087197132
3.09100e-06	0.001554250660702857
3.09125e-06	0.0015307428624639291
3.09150e-06	0.0015043825829416694
3.09175e-06	0.0014780223034194546
3.09200e-06	0.0014516620238971948
3.09225e-06	0.001425301744374935
3.09250e-06	0.0013989414648527202
3.09275e-06	0.0013725811853304605
3.09300e-06	0.0013491875661344147
3.09325e-06	0.0013265930715325952
3.09350e-06	0.0013039985769307373
3.09375e-06	0.0012814040823288795
3.09400e-06	0.0012588095877270216
3.09425e-06	0.001236215093125202
3.09450e-06	0.0012154839735133587
3.09475e-06	0.0011993641767306267
3.09500e-06	0.001183244379947922
3.09525e-06	0.0011692422535793594
3.09550e-06	0.0011604807588484448
3.09575e-06	0.0011517192641175302
3.09600e-06	0.0011452363462110678
3.09625e-06	0.0011443922575176077
3.09650e-06	0.0011435481688241472
3.09675e-06	0.0011446339742829086
3.09700e-06	0.0011504957185675434
3.09725e-06	0.0011584177975146749
3.09750e-06	0.0011714386184303591
3.09775e-06	0.0011844594393460655
3.09800e-06	0.0011997231557993788
3.09825e-06	0.001220537400434782
3.09850e-06	0.0012413516450701498
3.09875e-06	0.0012641408014688058
3.09900e-06	0.0012918173024697268
3.09925e-06	0.0013194938034706007
3.09950e-06	0.0013495893969267608
3.09975e-06	0.001385671555794895
3.10000e-06	0.001421753714663029
3.10025e-06	0.001457835873531102
3.10050e-06	0.0014939180323992362
3.10075e-06	0.0015300001912673703
3.10100e-06	0.0015660823501354433
3.10125e-06	0.001606067357429134
3.10150e-06	0.0016471036688228756
3.10175e-06	0.0016881399802165476
3.10200e-06	0.001729176291610289
3.10225e-06	0.0017702126030040308
3.10250e-06	0.0018112489143977725
3.10275e-06	0.001849810819043872
3.10300e-06	0.0018822492711454385
3.10325e-06	0.0019146877232470052
3.10350e-06	0.0019471261753485167
3.10375e-06	0.0019795646274500833
3.10400e-06	0.00201200307955165
3.10425e-06	0.0020444415316532164
3.10450e-06	0.002076879983754728
3.10475e-06	0.002109318435856295
3.10500e-06	0.002141756887957861
3.10525e-06	0.002174195340059373
3.10550e-06	0.0022016934065673213
3.10575e-06	0.0022169654246436653
3.10600e-06	0.0022322374427199833
3.10625e-06	0.0022475094607963273
3.10650e-06	0.0022627814788726713
3.10675e-06	0.0022780534969490153
3.10700e-06	0.0022933255150253333
3.10725e-06	0.0023085975331016773
3.10750e-06	0.0023238695511780213
3.10775e-06	0.0023391415692543393
3.10800e-06	0.0023544135873306833
3.10825e-06	0.002366401360513477
3.10850e-06	0.0023702615622000984
3.10875e-06	0.0023741217638867133
3.10900e-06	0.0023779819655733348
3.10925e-06	0.0023818421672599562
3.10950e-06	0.002385702368946571
3.10975e-06	0.0023895625706331926
3.11000e-06	0.002393422772319814
3.11025e-06	0.002397282974006429
3.11050e-06	0.0024011431756930505
3.11075e-06	0.002405003377379672
3.11100e-06	0.002408863579066294
3.11125e-06	0.002412723780752909
3.11150e-06	0.002412642733257807
3.11175e-06	0.0024115000377116563
3.11200e-06	0.0024103573421655074
3.11225e-06	0.002409214646619357
3.11250e-06	0.002408071951073206
3.11275e-06	0.0024069292555270556
3.11300e-06	0.002405786559980907
3.11325e-06	0.0024046438644347566
3.11350e-06	0.002403501168888606
3.11375e-06	0.002402358473342457
3.11400e-06	0.002401215777796307
3.11425e-06	0.0024000730822501563
3.11450e-06	0.0023968140594561632
3.11475e-06	0.0023883177289782927
3.11500e-06	0.002379821398500422
3.11525e-06	0.0023713250680225516
3.11550e-06	0.002362828737544696
3.11575e-06	0.0023543324070668253
3.11600e-06	0.002345836076588955
3.11625e-06	0.002337339746111099
3.11650e-06	0.0023288434156332285
3.11675e-06	0.002320347085155358
3.11700e-06	0.0023118507546774874
3.11725e-06	0.0023033544241996317
3.11750e-06	0.002294858093721761
3.11775e-06	0.0022812054242734997
3.11800e-06	0.0022547922832401473
3.11825e-06	0.00222837914220675
3.11850e-06	0.0022019660011733527
3.11875e-06	0.00217555286014
3.11900e-06	0.002149139719106603
3.11925e-06	0.0021227265780732053
3.11950e-06	0.0020963134370398082
3.11975e-06	0.002069900296006456
3.12000e-06	0.0020434871549730583
3.12025e-06	0.0020170740139396613
3.12050e-06	0.001990660872906309
3.12075e-06	0.0019642477318729114
3.12100e-06	0.0019358617582605497
3.12125e-06	0.0019025935854344639
3.12150e-06	0.0018693254126084344
3.12175e-06	0.0018360572397823488
3.12200e-06	0.001802789066956263
3.12225e-06	0.0017695208941302335
3.12250e-06	0.0017362527213041477
3.12275e-06	0.001704226448708827
3.12300e-06	0.0016752735257707504
3.12325e-06	0.001646320602832625
3.12350e-06	0.0016173676798944994
3.12375e-06	0.0015884147569563741
3.12400e-06	0.0015594618340182976
3.12425e-06	0.0015305089110801721
3.12450e-06	0.0015038920474952943
3.12475e-06	0.0014830562660253885
3.12500e-06	0.0014622204845554474
3.12525e-06	0.001443277564640503
3.12550e-06	0.0014290189384129253
3.12575e-06	0.0014147603121853719
3.12600e-06	0.0014025026523192138
3.12625e-06	0.0013951968147724238
3.12650e-06	0.0013878909772256465
3.12675e-06	0.0013826567762071295
3.12700e-06	0.001382549286059976
3.12725e-06	0.0013824417959128225
3.12750e-06	0.0013842848939471504
3.12775e-06	0.0013909551426418759
3.12800e-06	0.0013976253913366014
3.12825e-06	0.0014060903138323655
3.12850e-06	0.0014189965432662797
3.12875e-06	0.0014319027727001936
3.12900e-06	0.0014472016410158686
3.12925e-06	0.001468421609678599
3.12950e-06	0.0014896415783413294
3.12975e-06	0.0015108615470040595
3.13000e-06	0.001532081515666754
3.13025e-06	0.001553301484329484
3.13050e-06	0.0015745214529922144
3.13075e-06	0.001597559554326558
3.13100e-06	0.0016250970166281104
3.13125e-06	0.0016526344789296627
3.13150e-06	0.0016801719412311684
3.13175e-06	0.0017077094035327207
3.13200e-06	0.001735246865834273
3.13225e-06	0.0017627843281358252
3.13250e-06	0.0017890103898896047
3.13275e-06	0.001811991108479605
3.13300e-06	0.0018349718270696052
3.13325e-06	0.0018579525456595667
3.13350e-06	0.0018809332642495669
3.13375e-06	0.0019039139828395672
3.13400e-06	0.0019268947014295676
3.13425e-06	0.001949875420019529
3.13450e-06	0.001972856138609529
3.13475e-06	0.0019958368571995296
3.13500e-06	0.0020188175757894907
3.13525e-06	0.0020417982943794913
3.13550e-06	0.0020517890442215162
3.13575e-06	0.0020582807067510054
3.13600e-06	0.0020647723692805054
3.13625e-06	0.0020712640318100058
3.13650e-06	0.0020777556943395057
3.13675e-06	0.002084247356868995
3.13700e-06	0.002090739019398495
3.13725e-06	0.0020972306819279952
3.13750e-06	0.0021037223444574844
3.13775e-06	0.0021102140069869844
3.13800e-06	0.0021167056695164843
3.13825e-06	0.0021208596350690743
3.13850e-06	0.002119228465853713
3.13875e-06	0.0021154515742531593
3.13900e-06	-0.009870374335328778
3.13925e-06	-0.02892346053733189
3.13950e-06	-0.011796130266273734
3.13975e-06	0.007279918529467217
3.14000e-06	0.02147483013936759
3.14025e-06	0.027741256928374116
3.14050e-06	0.016465165816232828
3.14075e-06	0.002874678957373887
3.14100e-06	-0.010344588450641503
3.14125e-06	-0.016623963337375522
3.14150e-06	-0.0059680604904632124
3.14175e-06	0.0059049566777787475
3.14200e-06	0.014742202699968253
3.14225e-06	0.018619001471795002
3.14250e-06	0.011510898744521155
3.14275e-06	0.002956716960715378
3.14300e-06	-0.005361419830738047
3.14325e-06	-0.00932922970208641
3.14350e-06	-0.0026863934989111273
3.14375e-06	0.004720649979732548
3.14400e-06	0.010227877549906391
3.14425e-06	0.012629836651859665
3.14450e-06	0.008153214719439927
3.14475e-06	0.002773346373095981
3.14500e-06	-0.0024564690062238437
3.14525e-06	-0.004959861216061615
3.14550e-06	-0.0008162990093754656
3.14575e-06	0.003805943666242456
3.14600e-06	0.0072381286235306
3.14625e-06	0.008725279703457364
3.14650e-06	0.005904062370924613
3.14675e-06	0.002517624046482111
3.14700e-06	-0.0007742428984709601
3.14725e-06	-0.002357796641898323
3.14750e-06	0.0002225026462087089
3.14775e-06	0.0031026481791889106
3.14800e-06	0.0052373630718753166
