Time(s)	Current(A)
3.00000e-06	0.003993037251198246
3.00025e-06	0.004008040347865319
3.00050e-06	0.004023043444532391
3.00075e-06	0.0040380465411994386
3.00100e-06	0.004052996092630098
3.00125e-06	0.0040678942381127525
3.00150e-06	0.004082792383595382
3.00175e-06	0.004097690529078037
3.00200e-06	0.0041125886745606915
3.00225e-06	0.004127486820043347
3.00250e-06	0.004142384965525977
3.00275e-06	0.0041572831110086314
3.00300e-06	0.004172181256491286
3.00325e-06	0.004187079401973916
3.00350e-06	0.004202026540856196
3.00375e-06	0.004221731813135876
3.00400e-06	0.0042414370854155555
3.00425e-06	0.0042611423576952015
3.00450e-06	0.004280847629974881
3.00475e-06	0.004300552902254561
3.00500e-06	0.004320258174534208
3.00525e-06	0.004339963446813888
3.00550e-06	0.004359668719093567
3.00575e-06	0.004379373991373213
3.00600e-06	0.004399079263652893
3.00625e-06	0.004418784535932573
3.00650e-06	0.004438477873758179
3.00675e-06	0.004457012163120677
3.00700e-06	0.0044755464524832075
3.00725e-06	0.004494080741845738
3.00750e-06	0.004512615031208236
3.00775e-06	0.004531149320570766
3.00800e-06	0.004549683609933295
3.00825e-06	0.004568217899295826
3.00850e-06	0.004586752188658325
3.00875e-06	0.004605286478020854
3.00900e-06	0.004623820767383384
3.00925e-06	0.004642355056745882
3.00950e-06	0.0046607100522137
3.00975e-06	0.004661652410960825
3.01000e-06	0.004662594769707948
3.01025e-06	0.0046635371284550736
3.01050e-06	0.004664479487202199
3.01075e-06	0.004665421845949323
3.01100e-06	0.0046663642046964465
3.01125e-06	0.004667306563443572
3.01150e-06	0.004668248922190697
3.01175e-06	0.00466919128093782
3.01200e-06	0.004669805439034232
3.01225e-06	0.004638545457118866
3.01250e-06	0.004607285475203502
3.01275e-06	0.004576025493288189
3.01300e-06	0.0045447655113728235
3.01325e-06	0.004513505529457458
3.01350e-06	0.004482245547542146
3.01375e-06	0.004450985565626781
3.01400e-06	0.004419725583711415
3.01425e-06	0.004388465601796103
3.01450e-06	0.004356978738220602
3.01475e-06	0.004303457616678949
3.01500e-06	0.004249936495137296
3.01525e-06	0.0041964153735957336
3.01550e-06	0.004142894252054081
3.01575e-06	0.004089373130512428
3.01600e-06	0.004035852008970865
3.01625e-06	0.003982330887429213
3.01650e-06	0.003926380450301515
3.01675e-06	0.0038680977558326127
3.01700e-06	0.0038098150613638092
3.01725e-06	0.003751532366894907
3.01750e-06	0.0036932496724260046
3.01775e-06	0.0036349669779572012
3.01800e-06	0.003576684283488299
3.01825e-06	0.0035184866924026226
3.01850e-06	0.0034685541585275995
3.01875e-06	0.003418621624652492
3.01900e-06	0.003368689090777384
3.01925e-06	0.003318756556902276
3.01950e-06	0.003268992630095883
3.01975e-06	0.0032356034585104424
3.02000e-06	0.003202214286925002
3.02025e-06	0.0031688251153396177
3.02050e-06	0.003135435943754177
3.02075e-06	0.0031022944227969604
3.02100e-06	0.0030847457673593127
3.02125e-06	0.00042573154428676366
3.02150e-06	-0.005444356897335227
3.02175e-06	-0.007390270440388943
3.02200e-06	-0.006208130328594887
3.02225e-06	-0.00351683222299457
3.02250e-06	0.0003219060061059138
3.02275e-06	0.0026424303155072187
3.02300e-06	0.002671374034658738
3.02325e-06	0.0009083847932878264
3.02350e-06	-0.0017832029201425403
3.02375e-06	-0.0033418052530134364
3.02400e-06	-0.0028973548203894903
3.02425e-06	-0.0010739678250691982
3.02450e-06	0.0012758975835211513
3.02475e-06	0.002916965700089904
3.02500e-06	0.003072879206845148
3.02525e-06	0.001953216766397946
3.02550e-06	0.00012934783168995354
3.02575e-06	-0.0004581818239943437
3.02600e-06	-0.00014649803482627186
3.02625e-06	0.0011493685244632038
3.02650e-06	0.0026590087072590816
3.02675e-06	0.0036677470353790845
3.02700e-06	0.0038387983201991884
3.02725e-06	0.0031500700130491664
3.02750e-06	0.0021807165393878947
3.02775e-06	0.001584728374964186
3.02800e-06	0.0017200605292805064
3.02825e-06	0.0025368110416401865
3.02850e-06	0.003495402182510069
3.02875e-06	0.004138252600312198
3.02900e-06	0.004254323283251538
3.02925e-06	0.0038297079837053467
3.02950e-06	0.0032271035399605384
3.02975e-06	0.002856047599555596
3.03000e-06	0.002940625326840857
3.03025e-06	0.003449487820428402
3.03050e-06	0.004044664879407265
3.03075e-06	0.004439647713682984
3.03100e-06	0.004502400278882703
3.03125e-06	0.004224377080345678
3.03150e-06	0.003832925570154761
3.03175e-06	0.0035847118077743318
3.03200e-06	0.0036202157967183293
3.03225e-06	0.003919908269722353
3.03250e-06	0.004272203457145054
3.03275e-06	0.0044977682186573545
3.03300e-06	0.004514042078597658
3.03325e-06	0.004315823777468172
3.03350e-06	0.004045668022171668
3.03375e-06	0.003864480197363662
3.03400e-06	0.0038603761993313717
3.03425e-06	0.004021238328540555
3.03450e-06	0.00421465103428227
3.03475e-06	0.004328413359326439
3.03500e-06	0.004310950125011258
3.03525e-06	0.004159145804896166
3.03550e-06	0.003962435006412465
3.03575e-06	0.003821738625789378
3.03600e-06	0.0037923753231167774
3.03625e-06	0.0038668748214237846
3.03650e-06	0.003962417037185825
3.03675e-06	0.004008850583607448
3.03700e-06	0.003974004972692029
3.03725e-06	0.0038560664134917053
3.03750e-06	0.0037111916315942595
3.03775e-06	0.0036027273264566816
3.03800e-06	0.0035654498693248452
3.03825e-06	0.0035948037199242267
3.03850e-06	0.003639036764481171
3.03875e-06	0.003654336913253613
3.03900e-06	0.0036206862478724215
3.03925e-06	0.0035370831049123573
3.03950e-06	0.0034388369504240513
3.03975e-06	0.003365740666063629
3.04000e-06	0.003339582644104211
3.04025e-06	0.0033573132671384357
3.04050e-06	0.0033862379126266217
3.04075e-06	0.0033987371536341564
3.04100e-06	0.0033821742153216125
3.04125e-06	0.003335830302297846
3.04150e-06	0.0032817312580735902
3.04175e-06	0.003244709071267525
3.04200e-06	0.0032383159008329315
3.04225e-06	0.003260544705841502
3.04250e-06	0.0032908201506813574
3.04275e-06	0.003311747555853577
3.04300e-06	0.0033131752761122383
3.04325e-06	0.0032974987888750363
3.04350e-06	0.0032824683786120573
3.04375e-06	0.0032752114713543155
3.04400e-06	0.0032896723263881465
3.04425e-06	0.0033216766445882256
3.04450e-06	0.0033526493294618264
3.04475e-06	0.0033819411706633353
3.04500e-06	0.003402955637669441
3.04525e-06	0.0034104837508707082
3.04550e-06	0.0034204081313364628
3.04575e-06	0.003434236758170307
3.04600e-06	0.0034566574737782936
3.04625e-06	0.0034930773087199192
3.04650e-06	0.003528449615212136
3.04675e-06	0.003562115180054601
3.04700e-06	0.0035900522577120182
3.04725e-06	0.0036086558918012497
3.04750e-06	0.0036294150639533678
3.04775e-06	0.0036536862615704217
3.04800e-06	0.0036779574591874757
3.04825e-06	0.0037053933359307814
3.04850e-06	0.0037379854350907374
3.04875e-06	0.00376531224473658
3.04900e-06	0.0037840603003479133
3.04925e-06	0.0038028083559592148
3.04950e-06	0.0038215564115705483
3.04975e-06	0.0038383431620852364
3.05000e-06	0.003854863294528947
3.05025e-06	0.0038713834269726854
3.05050e-06	0.003884730199642843
3.05075e-06	0.003892906606488296
3.05100e-06	0.0039010830133337352
3.05125e-06	0.003909259420179188
3.05150e-06	0.003917435827024642
3.05175e-06	0.003922759382520291
3.05200e-06	0.003923434777651402
3.05225e-06	0.003924110172782513
3.05250e-06	0.003924785567913623
3.05275e-06	0.003925460963044735
3.05300e-06	0.003921722165945309
3.05325e-06	0.003910791310497259
3.05350e-06	0.0038998604550492286
3.05375e-06	0.003888929599601179
3.05400e-06	0.00387799874415313
3.05425e-06	0.003867067888705099
3.05450e-06	0.00385613703325705
3.05475e-06	0.0038452061778090005
3.05500e-06	0.0038342753223609507
3.05525e-06	0.0038205774265969617
3.05550e-06	0.003802371182676301
3.05575e-06	0.00378416493875564
3.05600e-06	0.00376595869483501
3.05625e-06	0.0037477524509143493
3.05650e-06	0.0037295462069936885
3.05675e-06	0.0037113399630730585
3.05700e-06	0.0036931337191523977
3.05725e-06	0.003674927475231737
3.05750e-06	0.0036569333055848727
3.05775e-06	0.003639284669270471
3.05800e-06	0.00362163603295604
3.05825e-06	0.0036039873966416083
3.05850e-06	0.003586338760327207
3.05875e-06	0.003568690124012776
3.05900e-06	0.0035510414876983444
3.05925e-06	0.0035333928513839132
3.05950e-06	0.003515744215069512
3.05975e-06	0.0034980955787550804
3.06000e-06	0.003487936283700044
3.06025e-06	0.0034787950830368307
3.06050e-06	0.003469653882373602
3.06075e-06	0.0034605126817103737
3.06100e-06	0.0034513714810471604
3.06125e-06	0.003442230280383932
3.06150e-06	0.0034330890797207034
3.06175e-06	0.0034239478790574745
3.06200e-06	0.0034148066783942616
3.06225e-06	0.0034080237258001466
3.06250e-06	0.0034073078394146437
3.06275e-06	0.0034102167695970963
3.06300e-06	0.003413125699779554
3.06325e-06	0.0034160346299620115
3.06350e-06	0.0034189435601444692
3.06375e-06	0.003421852490326922
3.06400e-06	0.003424761420509379
3.06425e-06	0.003427670350691837
3.06450e-06	0.0034305792808742895
3.06475e-06	0.003433488211056747
3.06500e-06	0.0034363971412392047
3.06525e-06	0.0034393060714216573
3.06550e-06	0.0034422150016041146
3.06575e-06	0.00345023080459604
3.06600e-06	0.003458940831337068
3.06625e-06	0.0034676508580780818
3.06650e-06	0.0034763608848191103
3.06675e-06	0.0034850709115601384
3.06700e-06	0.003493780938301152
3.06725e-06	0.0035024909650421807
3.06750e-06	0.0035112009917832093
3.06775e-06	0.0035199110185242374
3.06800e-06	0.003528621045265251
3.06825e-06	0.0035373310720062797
3.06850e-06	0.003546041098747308
3.06875e-06	0.00355283922332274
3.06900e-06	0.0035565222792253767
3.06925e-06	0.003560205335128013
3.06950e-06	0.003563888391030643
3.06975e-06	0.0035675714469332797
3.07000e-06	0.003571254502835916
3.07025e-06	0.0035749375587385526
3.07050e-06	0.003578620614641183
3.07075e-06	0.0035823036705438195
3.07100e-06	0.0035859867264464557
3.07125e-06	0.003589669782349086
3.07150e-06	0.0035933528382517226
3.07175e-06	0.003597035894154359
3.07200e-06	0.0036007189500569955
3.07225e-06	0.0036044020059596256
3.07250e-06	0.0036080850618622623
3.07275e-06	0.0036117681177648985
3.07300e-06	0.0036154511736675287
3.07325e-06	0.0036191342295701654
3.07350e-06	0.0036228172854728016
3.07375e-06	0.003626500341375432
3.07400e-06	0.0036301833972780684
3.07425e-06	0.0036301794398946523
3.07450e-06	0.003629674273203249
3.07475e-06	0.003629169106511847
3.07500e-06	0.0036286639398204435
3.07525e-06	0.0036281587731290406
3.07550e-06	0.0036276536064376386
3.07575e-06	0.0036271484397462353
3.07600e-06	0.0036266432730548324
3.07625e-06	0.00362613810636343
3.07650e-06	0.003625632939672027
3.07675e-06	0.003625127772980624
3.07700e-06	0.0036246226062892207
3.07725e-06	0.0036241174395978187
3.07750e-06	0.0036236122729064154
3.07775e-06	0.0036231071062150125
3.07800e-06	0.0036226019395236104
3.07825e-06	0.003622096772832207
3.07850e-06	0.003621591606140804
3.07875e-06	0.003621086439449401
3.07900e-06	0.003620581272757999
3.07925e-06	0.003620076106066596
3.07950e-06	0.0036216377258450057
3.07975e-06	0.0036265667678178647
3.08000e-06	0.0036314958097907325
3.08025e-06	0.0036364248517636003
3.08050e-06	0.00364135389373646
3.08075e-06	0.0036462829357093276
3.08100e-06	0.003651211977682195
3.08125e-06	0.0036561410196550626
3.08150e-06	0.003661070061627922
3.08175e-06	0.00366599910360079
3.08200e-06	0.0036709281455736577
3.08225e-06	0.0036758571875465168
3.08250e-06	0.0036807862295193845
3.08275e-06	0.0036857152714922523
3.08300e-06	0.0037048339580605764
3.08325e-06	0.0037258815722994226
3.08350e-06	0.003746929186538304
3.08375e-06	0.0037679768007771856
3.08400e-06	0.0037890244150160317
3.08425e-06	0.003810072029254913
3.08450e-06	0.0038311196434937947
3.08475e-06	0.003852167257732641
3.08500e-06	0.0038732148719715226
3.08525e-06	0.003894262486210404
3.08550e-06	0.003915310100449286
3.08575e-06	0.003936357714688131
3.08600e-06	0.003957405328927013
3.08625e-06	0.003980035535266597
3.08650e-06	0.004005244264275389
3.08675e-06	0.004030452993284222
3.08700e-06	0.0040556617222930556
3.08725e-06	0.004080870451301889
3.08750e-06	0.00410607918031068
3.08775e-06	0.004131287909319514
3.08800e-06	0.004156496638328348
3.08825e-06	0.004181705367337138
3.08850e-06	0.004206914096345972
3.08875e-06	0.004232122825354805
3.08900e-06	0.004257331554363596
3.08925e-06	0.004278813888017809
3.08950e-06	0.00429422479310083
3.08975e-06	0.00430963569818385
3.09000e-06	0.004325046603266844
3.09025e-06	0.004340457508349865
3.09050e-06	0.004355868413432886
3.09075e-06	0.00437127931851588
3.09100e-06	0.0043866902235989
3.09125e-06	0.004402101128681921
3.09150e-06	0.0044175120337649415
3.09175e-06	0.004432922938847936
3.09200e-06	0.004448333843930957
3.09225e-06	0.00446172051478956
3.09250e-06	0.004471809093970906
3.09275e-06	0.0044818976731522695
3.09300e-06	0.004491986252333633
3.09325e-06	0.00450207483151498
3.09350e-06	0.004512163410696344
3.09375e-06	0.004522251989877707
3.09400e-06	0.004532340569059071
3.09425e-06	0.004542429148240417
3.09450e-06	0.004552517727421781
3.09475e-06	0.004562606306603144
3.09500e-06	0.0045726948857844904
3.09525e-06	0.004582783464965854
3.09550e-06	0.0045928720441472184
3.09575e-06	0.004602960623328582
3.09600e-06	0.004613049202509928
3.09625e-06	0.004623137781691292
3.09650e-06	0.004631578206176901
3.09675e-06	0.004637333286634887
3.09700e-06	0.004643088367092884
3.09725e-06	0.004648843447550881
3.09750e-06	0.004654598528008867
3.09775e-06	0.004660353608466864
3.09800e-06	0.00466610868892486
3.09825e-06	0.004671863769382857
3.09850e-06	0.004677618849840843
3.09875e-06	0.00468337393029884
3.09900e-06	0.004689129010756837
3.09925e-06	0.004694884091214823
3.09950e-06	0.00470063917167282
3.09975e-06	0.004706394252130816
3.10000e-06	0.004712149332588813
3.10025e-06	0.004717904413046799
3.10050e-06	0.004723659493504796
3.10075e-06	0.004723272030436812
3.10100e-06	0.0047128765003986725
3.10125e-06	0.004702480970360516
3.10150e-06	0.00469208544032236
3.10175e-06	0.004681689910284221
3.10200e-06	0.004671294380246065
3.10225e-06	0.0046608988502079085
3.10250e-06	0.004650503320169752
3.10275e-06	0.004640107790131613
3.10300e-06	0.0046297122600934566
3.10325e-06	0.0046193167300553
3.10350e-06	0.004608921200017162
3.10375e-06	0.0045985256699790054
3.10400e-06	0.004582196242266761
3.10425e-06	0.004556198694977257
3.10450e-06	0.004530201147687798
3.10475e-06	0.004504203600398295
3.10500e-06	0.004478206053108792
3.10525e-06	0.004452208505819333
3.10550e-06	0.004426210958529829
3.10575e-06	0.004400213411240326
3.10600e-06	0.0043742158639508665
3.10625e-06	0.004348218316661364
3.10650e-06	0.00432222076937186
3.10675e-06	0.004296223222082357
3.10700e-06	0.004270225674792898
3.10725e-06	0.0042447915653689725
3.10750e-06	0.004220275467167699
3.10775e-06	0.004195759368966468
3.10800e-06	0.004171243270765195
3.10825e-06	0.004146727172563921
3.10850e-06	0.004122211074362648
3.10875e-06	0.004097694976161416
3.10900e-06	0.004073178877960143
3.10925e-06	0.00404866277975887
3.10950e-06	0.004024146681557639
3.10975e-06	0.0039996305833563655
3.11000e-06	0.0039751144851550915
3.11025e-06	0.00395059838695386
3.11050e-06	0.0039325714954371776
3.11075e-06	0.003915426740908177
3.11100e-06	0.003898281986379177
3.11125e-06	0.0038811372318502055
3.11150e-06	0.0038639924773212053
3.11175e-06	0.0038468477227922046
3.11200e-06	0.003829702968263233
3.11225e-06	0.0038125582137342327
3.11250e-06	0.003795413459205232
3.11275e-06	0.003778268704676232
3.11300e-06	0.0037611239501472602
3.11325e-06	0.0037439791956182596
3.11350e-06	0.0037268250074172483
3.11375e-06	0.003709655448902508
3.11400e-06	0.003692485890387739
3.11425e-06	0.0036753163318729697
3.11450e-06	0.0036581467733582296
3.11475e-06	0.0036409772148434604
3.11500e-06	0.003623807656328691
3.11525e-06	0.003606638097813922
3.11550e-06	0.003589468539299182
3.11575e-06	0.0035722989807844122
3.11600e-06	0.003555129422269643
3.11625e-06	0.003537959863754903
3.11650e-06	0.0035207903052401337
3.11675e-06	0.0035047009611600234
3.11700e-06	0.0034903716141169404
3.11725e-06	0.003476042267073881
3.11750e-06	0.003461712920030798
3.11775e-06	0.0034473835729877146
3.11800e-06	0.003433054225944656
3.11825e-06	0.0034187248789015723
3.11850e-06	0.0034043955318584893
3.11875e-06	0.00339006618481543
3.11900e-06	0.003375736837772347
3.11925e-06	0.0033614074907292635
3.11950e-06	0.0033470781436861804
3.11975e-06	0.0033327487966431212
3.12000e-06	0.0033240319912787512
3.12025e-06	0.0033244597190811927
3.12050e-06	0.0033248874468836337
3.12075e-06	0.0033253151746860756
3.12100e-06	0.0033257429024885175
3.12125e-06	0.0033261706302909594
3.12150e-06	0.0033265983580934005
3.12175e-06	0.003327026085895842
3.12200e-06	0.003327453813698284
3.12225e-06	0.003327881541500725
3.12250e-06	0.003328309269303167
3.12275e-06	0.0033287369971056087
3.12300e-06	0.0033291647249080497
3.12325e-06	0.0033366978417191124
3.12350e-06	0.0033558077929080484
3.12375e-06	0.0033749177440969844
3.12400e-06	0.0033940276952858883
3.12425e-06	0.0034131376464748243
3.12450e-06	0.0034322475976637603
3.12475e-06	0.0034513575488526642
3.12500e-06	0.0034704675000416002
3.12525e-06	0.0034895774512305362
3.12550e-06	0.0035086874024194722
3.12575e-06	0.003527797353608376
3.12600e-06	0.003546907304797312
3.12625e-06	0.003566017255986248
3.12650e-06	0.003587157428713386
3.12675e-06	0.0036116054482692593
3.12700e-06	0.003636053467825133
3.12725e-06	0.0036605014873809646
3.12750e-06	0.0036849495069368383
3.12775e-06	0.0037093975264927115
3.12800e-06	0.0037338455460485848
3.12825e-06	0.003758293565604417
3.12850e-06	0.00378274158516029
3.12875e-06	0.0038037160161020988
3.12900e-06	0.0038190309173496933
3.12925e-06	0.003834345818597314
3.12950e-06	0.0038496607198449345
3.12975e-06	0.003864975621092555
3.13000e-06	0.0038802905223401496
3.13025e-06	0.0038956054235877702
3.13050e-06	0.003910920324835391
3.13075e-06	0.003926235226082986
3.13100e-06	0.0039328723159886645
3.13125e-06	0.003925370618482245
3.13150e-06	0.003917868920975839
3.13175e-06	0.003910367223469419
3.13200e-06	0.003902865525963
3.13225e-06	0.003895363828456581
3.13250e-06	0.003887862130950174
3.13275e-06	0.003880360433443755
3.13300e-06	0.0038728587359373357
3.13325e-06	0.0038653570384309293
3.13350e-06	0.00385785534092451
3.13375e-06	0.0038419929617152684
3.13400e-06	0.003812508495489
3.13425e-06	0.003783024029262782
3.13450e-06	0.0037535395630365143
3.13475e-06	0.003724055096810246
3.13500e-06	0.003694570630584028
3.13525e-06	0.00366508616435776
3.13550e-06	0.003635601698131492
3.13575e-06	0.003606117231905274
3.13600e-06	0.003576632765679006
3.13625e-06	0.0035471482994527377
3.13650e-06	0.0035155848413106297
3.13675e-06	0.0034806340745982614
3.13700e-06	0.0034456833078858346
3.13725e-06	0.0034107325411734074
3.13750e-06	0.0033757817744610396
3.13775e-06	0.0033408310077486124
3.13800e-06	0.003305880241036185
3.13825e-06	0.003270929474323758
3.13850e-06	0.00323597870761139
3.13875e-06	0.003201027940898963
3.13900e-06	0.00317049594751681
3.13925e-06	0.0031471634764888793
3.13950e-06	0.003123831005460909
3.13975e-06	0.0031004985344329386
3.14000e-06	0.003077166063405008
3.14025e-06	0.0030538335923770378
3.14050e-06	0.003030501121349067
3.14075e-06	0.003007168650321097
3.14100e-06	0.002983836179293166
3.14125e-06	0.002960503708265196
3.14150e-06	0.0029421592045389476
3.14175e-06	0.0029319416128327147
3.14200e-06	0.002921724021126465
3.14225e-06	0.0029115064294202146
3.14250e-06	0.0029012888377139643
3.14275e-06	0.002891071246007732
3.14300e-06	0.0028808536543014815
3.14325e-06	0.0028706360625952317
3.14350e-06	0.002860418470888999
3.14375e-06	0.0028502008791827485
3.14400e-06	0.0028399832874764987
3.14425e-06	0.0028297656957702658
3.14450e-06	0.002819548104064016
3.14475e-06	0.0028093305123577657
3.14500e-06	0.0028057882427192983
3.14525e-06	0.0028031534104287154
3.14550e-06	0.0028005185781381278
3.14575e-06	0.0027978837458475406
3.14600e-06	0.0027952489135569577
3.14625e-06	0.00279261408126637
3.14650e-06	0.002789979248975783
3.14675e-06	0.0027873444166851952
3.14700e-06	0.0027847095843946124
3.14725e-06	0.0027820747521040247
3.14750e-06	0.0027794399198134375
3.14775e-06	0.0027768050875228542
3.14800e-06	0.002774170255232267
3.14825e-06	0.0027722350946221518
3.14850e-06	0.002771439911451034
3.14875e-06	0.0027706447282799147
3.14900e-06	0.002769849545108795
3.14925e-06	0.0027690543619376755
