Time(s)	Current(A)
3.55000e-06	0.0006268680972819381
3.55025e-06	0.00062340624306954
3.55050e-06	0.0006245810809449986
3.55075e-06	0.0006299071079197243
3.55100e-06	0.0006392165043938621
3.55125e-06	0.0006523413698861289
3.55150e-06	0.00066911371708716
3.55175e-06	0.000689536783134975
3.55200e-06	0.0007140497231084891
3.55225e-06	0.0007432567959780193
3.55250e-06	0.0007773584131357503
3.55275e-06	0.0008161390798825471
3.55300e-06	0.000860495228432899
3.55325e-06	0.0009071564684816055
3.55350e-06	0.0009583555761447601
3.55375e-06	0.0010122533672211203
3.55400e-06	0.0010706516492686095
3.55425e-06	0.0011317263867280307
3.55450e-06	0.0011980085228270156
3.55475e-06	0.0012673875144383175
3.55500e-06	0.0013367665060496194
3.55525e-06	0.0014112765077856438
3.55550e-06	0.0014888379365559353
3.55575e-06	0.0015663993653263581
3.55600e-06	0.0016439607940967813
3.55625e-06	0.0017215222228670727
3.55650e-06	0.001801125423784357
3.55675e-06	0.0018819428726909574
3.55700e-06	0.001962760321597558
3.55725e-06	0.0020435777705040217
3.55750e-06	0.002124395219410622
3.55775e-06	0.002199243637459241
3.55800e-06	0.0022705422550421653
3.55825e-06	0.002341840872625211
3.55850e-06	0.0024131394902082563
3.55875e-06	0.0024844381077911808
3.55900e-06	0.0025557367253742263
3.55925e-06	0.002623820284938042
3.55950e-06	0.0026698186292791978
3.55975e-06	0.0027158169736202754
3.56000e-06	0.0027618153179614314
3.56025e-06	0.002807813662302587
3.56050e-06	0.0028538120066436646
3.56075e-06	0.0028998103509848203
3.56100e-06	0.00293224739039603
3.56125e-06	0.002956619481292001
3.56150e-06	0.00298099157218793
3.56175e-06	0.0029963877205730735
3.56200e-06	0.0030064458491584974
3.56225e-06	0.0030165039777439043
3.56250e-06	0.0030187870831576446
3.56275e-06	0.003016446359086775
3.56300e-06	0.0030141056350159096
3.56325e-06	0.0030043242821962317
3.56350e-06	0.0029901179652532537
3.56375e-06	0.0029759116483102756
3.56400e-06	0.0029519247829108385
3.56425e-06	0.0029221213961544866
3.56450e-06	0.0028923180093981347
3.56475e-06	0.002862514622641833
3.56500e-06	0.0028327112358854808
3.56525e-06	0.002802907849129129
3.56550e-06	0.002773104462372777
3.56575e-06	0.0027355254614822647
3.56600e-06	0.0026933222796598796
3.56625e-06	0.0026511190978374946
3.56650e-06	0.0026089159160151807
3.56675e-06	0.0025667127341927956
3.56700e-06	0.0025245095523704106
3.56725e-06	0.002482306370548097
3.56750e-06	0.0024394631435987863
3.56775e-06	0.0023962392799022816
3.56800e-06	0.0023530154162057773
3.56825e-06	0.002309560782951309
3.56850e-06	0.002265544968376061
3.56875e-06	0.0022215291538008135
3.56900e-06	0.0021775133392256405
3.56925e-06	0.002158757093319525
3.56950e-06	0.0021184560318400826
3.56975e-06	0.0020871717424055304
3.57000e-06	0.0020581911259334707
3.57025e-06	0.0020342777890157127
3.57050e-06	0.0020103644520979547
3.57075e-06	0.001988916453233047
3.57100e-06	0.0019728913409120495
3.57125e-06	0.0019568662285910517
3.57150e-06	0.0019436092155619609
3.57175e-06	0.001936441058535785
3.57200e-06	0.0019292729015096095
3.57225e-06	0.0019243266146675908
3.57250e-06	0.0019242676697096392
3.57275e-06	0.0019242087247516874
3.57300e-06	0.0019265925477990893
3.57325e-06	0.0019343496111332674
3.57350e-06	0.0019421066744674587
3.57375e-06	0.0019524810652953011
3.57400e-06	0.001968612666591672
3.57425e-06	0.0019847442678880152
3.57450e-06	0.002000875869184386
3.57475e-06	0.0020170074704807567
3.57500e-06	0.0020354954647806575
3.57525e-06	0.0020591667043951523
3.57550e-06	0.002082837944009647
3.57575e-06	0.0021065091836241015
3.57600e-06	0.0021301804232385963
3.57625e-06	0.002154648816070887
3.57650e-06	0.0021810426127842303
3.57675e-06	0.002207814626434672
3.57700e-06	0.0022345866400851596
3.57725e-06	0.0022613586537356466
3.57750e-06	0.0022881306673860884
3.57775e-06	0.002314902681036576
3.57800e-06	0.002341674694687063
3.57825e-06	0.002363978850809312
3.57850e-06	0.0023852521926988435
3.57875e-06	0.0024065255345884114
3.57900e-06	0.002427798876477979
3.57925e-06	0.0024490722183675103
3.57950e-06	0.002470345560257078
3.57975e-06	0.002488180373648137
3.58000e-06	0.002498451619882701
3.58025e-06	0.002508722866117283
3.58050e-06	0.002515271570503148
3.58075e-06	0.0025136319771105354
3.58100e-06	0.0025119923837179257
3.58125e-06	0.0025066988924684445
3.58150e-06	0.00249336809635582
3.58175e-06	0.0024800373002432183
3.58200e-06	0.00246269856821532
3.58225e-06	0.002436543770691106
3.58250e-06	0.0024103889731668924
3.58275e-06	0.0023803752190200644
3.58300e-06	0.0023418731020220275
3.58325e-06	0.002303370985023991
3.58350e-06	0.002261553290451368
3.58375e-06	0.002212442478005887
3.58400e-06	0.002163331665560405
3.58425e-06	0.0021111891900014324
3.58450e-06	0.002052378109669829
3.58475e-06	0.0019935670293382253
3.58500e-06	0.0019320125251681521
3.58525e-06	0.0018644234424131183
3.58550e-06	0.0017968343596579698
3.58575e-06	0.0017292452769028213
3.58600e-06	0.0016616561941477875
3.58625e-06	0.0015925790818653654
3.58650e-06	0.0015202288219950746
3.58675e-06	0.0014478785621247839
3.58700e-06	0.0013755283022546159
3.58725e-06	0.001303178042384325
3.58750e-06	0.0012315193282843796
3.58775e-06	0.0011613817744361723
3.58800e-06	0.001091244220587846
3.58825e-06	0.0010224438329027833
3.58850e-06	0.0009565847458585218
3.58875e-06	0.0008923887323398398
3.58900e-06	0.0008318509023446845
3.58925e-06	0.0007728978571599406
3.58950e-06	0.0007186643055256598
3.58975e-06	0.0006684687056271964
3.59000e-06	0.0006225273780612119
3.59025e-06	0.0005808749109671423
3.59050e-06	0.0005435355214832165
3.59075e-06	0.0005105972968778566
3.59100e-06	0.0004821652272848148
3.59125e-06	0.00045834136158241594
3.59150e-06	0.000439225200176525
3.59175e-06	0.0004248878281981352
3.59200e-06	0.0004152965787462343
3.59225e-06	0.000410304841991913
3.59250e-06	0.0004097595626144073
3.59275e-06	0.00041354770916957013
3.59300e-06	0.00042156684337506175
3.59325e-06	0.00043371264251106247
3.59350e-06	0.000449879219483412
3.59375e-06	0.00046994290672915773
3.59400e-06	0.0004937150518253936
3.59425e-06	0.0005209355986232092
3.59450e-06	0.0005517758424481187
3.59475e-06	0.0005856484228366795
3.59500e-06	0.0006211165212393009
3.59525e-06	0.0006600942045282774
3.59550e-06	0.0007006186607138729
3.59575e-06	0.0007445454794758475
3.59600e-06	0.000788472298237822
3.59625e-06	0.0008335701054779917
3.59650e-06	0.0008812436802302786
3.59675e-06	0.0009289172549825653
3.59700e-06	0.0009765908297347714
3.59725e-06	0.001024264404487058
3.59750e-06	0.0010708711143445715
3.59775e-06	0.0011172316794870619
3.59800e-06	0.0011635922446294738
3.59825e-06	0.0012099528097719641
3.59850e-06	0.0012543269358349979
3.59875e-06	0.0012943315865866797
3.59900e-06	0.0013343362373384295
3.59925e-06	0.001371648503364156
3.59950e-06	0.0014030384591058197
3.59975e-06	0.0014344284148474302
3.60000e-06	0.0014642820549860874
3.60025e-06	0.0014907563349585017
3.60050e-06	0.0015172306149308708
3.60075e-06	0.0015421520889046122
3.60100e-06	0.001563657929575151
3.60125e-06	0.0015851637702456532
3.60150e-06	0.001606669610916192
3.60175e-06	0.0016281754515867306
3.60200e-06	0.0016496812922572692
3.60225e-06	0.0016711871329277716
3.60250e-06	0.0016926929735983102
3.60275e-06	0.0017141988142688489
3.60300e-06	0.0017325952463668214
3.60325e-06	0.0017502742825782612
3.60350e-06	0.0017679533187897009
3.60375e-06	0.0017856323550011106
3.60400e-06	0.0018033113912125506
3.60425e-06	0.0018209904274239903
3.60450e-06	0.0018386694636354302
3.60475e-06	0.00185634849984684
3.60500e-06	0.0018732326083841094
3.60525e-06	0.0018883681524259031
3.60550e-06	0.0019035036964676713
3.60575e-06	0.001918639240509465
3.60600e-06	0.0019337747845512587
3.60625e-06	0.0019489103285930526
3.60650e-06	0.0019640458726348205
3.60675e-06	0.0019791814166766146
3.60700e-06	0.0019943169607184084
3.60725e-06	0.0020094525047601765
3.60750e-06	0.00202458804880197
3.60775e-06	0.002034433537146323
3.60800e-06	0.002043058515509823
3.60825e-06	0.0020516834938733375
3.60850e-06	0.0020603084722368523
3.60875e-06	0.002068933450600367
3.60900e-06	0.0020775584289638668
3.60925e-06	0.0020861834073273816
3.60950e-06	0.0020948083856908964
3.60975e-06	0.0021034333640543965
3.61000e-06	0.002112058342417911
3.61025e-06	0.0021157809556374254
3.61050e-06	0.0021087200700387106
3.61075e-06	0.0021016591844400076
3.61100e-06	0.002094598298841293
3.61125e-06	0.002087537413242578
3.61150e-06	0.002080476527643875
3.61175e-06	0.0020734156420451604
3.61200e-06	0.0020663547564464457
3.61225e-06	0.002059293870847743
3.61250e-06	0.002052232985249028
3.61275e-06	0.0020451720996503132
3.61300e-06	0.0020327548360460617
3.61325e-06	0.0020085554031833456
3.61350e-06	0.0019843559703205888
3.61375e-06	0.001960156537457832
3.61400e-06	0.0019359571045951159
3.61425e-06	0.001911757671732359
3.61450e-06	0.001887558238869602
3.61475e-06	0.001863358806006845
3.61500e-06	0.0018391593731441292
3.61525e-06	0.0018149599402813722
3.61550e-06	0.0017907605074186151
3.61575e-06	0.001764293025529243
3.61600e-06	0.0017328366243567496
3.61625e-06	0.0017013802231842564
3.61650e-06	0.0016699238220118165
3.61675e-06	0.0016384674208393232
3.61700e-06	0.0016070110196668302
3.61725e-06	0.001575554618494337
3.61750e-06	0.0015446918700374197
3.61775e-06	0.0015151349511481355
3.61800e-06	0.0014855780322588514
3.61825e-06	0.0014560211133696173
3.61850e-06	0.0014264641944803332
3.61875e-06	0.001396907275591049
3.61900e-06	0.001367350356701765
3.61925e-06	0.00133951987279647
3.61950e-06	0.0013154869455935588
3.61975e-06	0.0012914540183906476
3.62000e-06	0.001267421091187777
3.62025e-06	0.0012433881639848658
3.62050e-06	0.0012193552367819548
3.62075e-06	0.0011942225211436168
3.62100e-06	0.0011688360647434646
3.62125e-06	0.0011434496083433125
3.62150e-06	0.0011180631519431604
3.62175e-06	0.0010926766955430514
3.62200e-06	0.0010657843112407883
3.62225e-06	0.0010355794091481759
3.62250e-06	0.0010053745070556148
3.62275e-06	0.0009751696049630023
3.62300e-06	0.00094496470287039
3.62325e-06	0.0009147598007777777
3.62350e-06	0.0008845548986852165
3.62375e-06	0.0008543499965926041
3.62400e-06	0.0008197463168306115
3.62425e-06	0.0007841277607881556
3.62450e-06	0.0007485092047456393
3.62475e-06	0.000712890648703123
3.62500e-06	0.0006772720926606671
3.62525e-06	0.0006416535366181508
3.62550e-06	0.0006060349805756346
3.62575e-06	0.00056985159893737
3.62600e-06	0.0005324257973720284
3.62625e-06	0.0004949999958066234
3.62650e-06	0.00045757419424121847
3.62675e-06	0.00042032431716082123
3.62700e-06	0.00038346141278027993
3.62725e-06	0.00034659850839973864
3.62750e-06	0.00030973560401919734
3.62775e-06	0.00027349857957788135
3.62800e-06	0.00023863827339127983
3.62825e-06	0.0002041615337010114
3.62850e-06	0.00017084179824107816
3.62875e-06	0.0001385848375443294
3.62900e-06	0.0001075837282380966
3.62925e-06	7.803148465203319e-05
3.62950e-06	5.011435897072347e-05
3.62975e-06	2.3891081738450368e-05
3.63000e-06	-9.669804923940111e-07
3.63025e-06	-2.502832828827994e-05
3.63050e-06	-4.8577856092523205e-05
3.63075e-06	-7.156606867123196e-05
3.63100e-06	-9.38659679376707e-05
3.63125e-06	-0.00011535059775448557
3.63150e-06	-0.00013589725774296846
3.63175e-06	-0.00015538321694212536
3.63200e-06	-0.00017407224166988524
3.63225e-06	-0.0001925599892670298
3.63250e-06	-0.00021060499715851714
3.63275e-06	-0.00022835071012036786
3.63300e-06	-0.00024543807829854923
3.63325e-06	-0.0002625254464767306
3.63350e-06	-0.00027890667071111923
3.63375e-06	-0.0002937346237874395
3.63400e-06	-0.00030856257686375974
3.63425e-06	-0.00032339052994008
3.63450e-06	-0.0003382184830163751
3.63475e-06	-0.00035304643609269536
3.63500e-06	-0.00036787438916901567
3.63525e-06	-0.00038270234224531077
3.63550e-06	-0.0003975302953216311
3.63575e-06	-0.0004106227270823414
3.63600e-06	-0.00042331474319347914
3.63625e-06	-0.00043600675930459534
3.63650e-06	-0.00044869877541573307
3.63675e-06	-0.0004613907915268708
3.63700e-06	-0.000474082807637987
3.63725e-06	-0.0004867748237491247
3.63750e-06	-0.0004994668398602624
3.63775e-06	-0.0005114300439758942
3.63800e-06	-0.000521790115101024
3.63825e-06	-0.000532150186226154
3.63850e-06	-0.0005425102573512838
3.63875e-06	-0.0005528703284763962
3.63900e-06	-0.000563230399601526
3.63925e-06	-0.0005735904707266558
3.63950e-06	-0.0005839505418517682
3.63975e-06	-0.000594310612976898
3.64000e-06	-0.0006046706841020278
3.64025e-06	-0.0006150307552271577
3.64050e-06	-0.00062539082635227
3.64075e-06	-0.0006352178680879897
3.64100e-06	-0.0006438724304951629
3.64125e-06	-0.0006525269929023215
3.64150e-06	-0.0006611815553094947
3.64175e-06	-0.0006698361177166679
3.64200e-06	-0.0006784906801238264
3.64225e-06	-0.0006871452425309996
3.64250e-06	-0.0006957998049381728
3.64275e-06	-0.0007044543673453461
3.64300e-06	-0.0007131089297525046
3.64325e-06	-0.0007217634921596779
3.64350e-06	-0.0007304180545668511
3.64375e-06	-0.0007388597558968763
3.64400e-06	-0.0007468332368665431
3.64425e-06	-0.00075480671783621
3.64450e-06	-0.0007627801988058769
3.64475e-06	-0.0007707536797755302
3.64500e-06	-0.0007787271607451972
3.64525e-06	-0.0007867006417148641
3.64550e-06	-0.0007946741226845175
3.64575e-06	-0.0008026476036541843
3.64600e-06	-0.0008106210846238512
3.64625e-06	-0.0008185945655935046
3.64650e-06	-0.0008265680465631715
3.64675e-06	-0.0008345415275328384
3.64700e-06	-0.0008420566261348912
3.64725e-06	-0.000849465967768199
3.64750e-06	-0.0008568753094015194
3.64775e-06	-0.0008642846510348397
3.64800e-06	-0.0008716939926681475
3.64825e-06	-0.0008791033343014679
3.64850e-06	-0.0008865126759347883
3.64875e-06	-0.0008939220175681085
3.64900e-06	-0.0009013313592014164
3.64925e-06	-0.0009087407008347367
3.64950e-06	-0.0009161500424680571
3.64975e-06	-0.0009235593841013649
3.65000e-06	-0.0009294664861739743
3.65025e-06	-0.0009320691835240599
3.65050e-06	-0.000934671880874141
3.65075e-06	-0.0009372745782242265
3.65100e-06	-0.0009398772755743121
3.65125e-06	-0.0009424799729243976
3.65150e-06	-0.0009450826702744787
3.65175e-06	-0.0009476853676245641
3.65200e-06	-0.0009502880649746497
3.65225e-06	-0.0009528907623247308
3.65250e-06	-0.0009554934596748163
3.65275e-06	-0.0009580961570249018
3.65300e-06	-0.0009582903916907058
3.65325e-06	-0.0009531868458452267
3.65350e-06	-0.0009480832999997391
3.65375e-06	-0.0009429797541542515
3.65400e-06	-0.0009378762083087724
3.65425e-06	-0.0009327726624632848
3.65450e-06	-0.000927669116617797
3.65475e-06	-0.0009225655707723181
3.65500e-06	-0.0009174620249268304
3.65525e-06	-0.0009123584790813427
3.65550e-06	-0.000907254933235855
3.65575e-06	-0.000902151387390376
3.65600e-06	-0.0008961730094296724
3.65625e-06	-0.0008882703049842934
3.65650e-06	-0.0008803676005389276
3.65675e-06	-0.0008724648960935485
3.65700e-06	-0.0008645621916481694
3.65725e-06	-0.0008566594872027902
3.65750e-06	-0.0008487567827574245
3.65775e-06	-0.000841454303490404
3.65800e-06	-0.0008354721109245839
3.65825e-06	-0.000829489918358774
3.65850e-06	-0.000823507725792954
3.65875e-06	-0.0008175255332271339
3.65900e-06	-0.000811543340661324
3.65925e-06	-0.000805561148095504
3.65950e-06	-0.0008012973069436949
3.65975e-06	-0.0008008132414523274
3.66000e-06	-0.0008003291759609606
3.66025e-06	-0.0007998451104695929
3.66050e-06	-0.0007993610449782253
3.66075e-06	-0.0007988769794868585
3.66100e-06	-0.0007983929139954908
3.66125e-06	-0.0007979088485041233
3.66150e-06	-0.0007974247830127557
3.66175e-06	-0.0007969407175213889
3.66200e-06	-0.0007964566520300212
3.66225e-06	-0.0007975163751410743
3.66250e-06	-0.0008019718964205061
3.66275e-06	-0.0008064274176999455
3.66300e-06	-0.0008108829389793848
3.66325e-06	-0.0008153384602588166
3.66350e-06	-0.0008197939815382559
3.66375e-06	-0.0008242495028176953
3.66400e-06	-0.0008287050240971347
3.66425e-06	-0.0008331605453765665
3.66450e-06	-0.0008376160666560058
3.66475e-06	-0.0008420715879354451
3.66500e-06	-0.0008473630666216351
3.66525e-06	-0.0008544933609502799
3.66550e-06	-0.0008616236552789246
3.66575e-06	-0.0008687539496075693
3.66600e-06	-0.0008758842439362019
3.66625e-06	-0.0008830145382648468
3.66650e-06	-0.0008901448325934915
3.66675e-06	-0.0008972751269221241
3.66700e-06	-0.0009044054212507688
3.66725e-06	-0.0009115357155794135
3.66750e-06	-0.0009186660099080462
3.66775e-06	-0.0009262747295314518
3.66800e-06	-0.000933993830383549
3.66825e-06	-0.0009417129312356461
3.66850e-06	-0.0009494320320877302
3.66875e-06	-0.0009571511329398274
3.66900e-06	-0.0009648702337919245
3.66925e-06	-0.0009725893346440086
3.66950e-06	-0.0009803084354961058
3.66975e-06	-0.0009880275363482029
3.67000e-06	-0.0009957466372003002
3.67025e-06	-0.0010057516064830136
3.67050e-06	-0.001020784691544171
3.67075e-06	-0.0010358177766053283
3.67100e-06	-0.0010508508616664603
3.67125e-06	-0.0010658839467276174
3.67150e-06	-0.0010809170317887748
3.67175e-06	-0.0010959501168499068
3.67200e-06	-0.001110983201911064
3.67225e-06	-0.0011260162869722215
3.67250e-06	-0.0011410493720333788
3.67275e-06	-0.0011560824570945106
3.67300e-06	-0.001171115542155668
3.67325e-06	-0.001195544934066565
3.67350e-06	-0.00122214222116746
3.67375e-06	-0.0012487395082684005
3.67400e-06	-0.0012753367953693407
3.67425e-06	-0.0013019340824702809
3.67450e-06	-0.0013285313695711762
3.67475e-06	-0.0013551286566721166
3.67500e-06	-0.0013817259437730568
3.67525e-06	-0.001408323230873952
3.67550e-06	-0.0014349205179748923
3.67575e-06	-0.0014615178050758325
3.67600e-06	-0.0014893790285460393
3.67625e-06	-0.0015200204725734597
3.67650e-06	-0.00155066191660088
3.67675e-06	-0.0015813033606283005
3.67700e-06	-0.001611944804655669
3.67725e-06	-0.0016425862486830894
3.67750e-06	-0.0016732276927105098
3.67775e-06	-0.0017038691367378782
3.67800e-06	-0.001731144678147168
3.67825e-06	-0.001757643645928834
3.67850e-06	-0.0017841426137104998
3.67875e-06	-0.001810641581492121
3.67900e-06	-0.0018371405492737867
3.67925e-06	-0.0018636395170554528
3.67950e-06	-0.0018901384848370737
3.67975e-06	-0.0019136672261593217
3.68000e-06	-0.0019306625019822913
3.68025e-06	-0.001947657777805232
3.68050e-06	-0.0019646530536282015
3.68075e-06	-0.001981648329451171
3.68100e-06	-0.0019986436052741407
3.68125e-06	-0.0020156388810970817
3.68150e-06	-0.0020326341569200513
3.68175e-06	-0.002049629432743021
3.68200e-06	-0.0020666247085659615
3.68225e-06	-0.002083619984388931
3.68250e-06	-0.0021006152602119008
3.68275e-06	-0.0021176105360348418
3.68300e-06	-0.002132395924986646
3.68325e-06	-0.002142320331172392
3.68350e-06	-0.0021522447373581383
3.68375e-06	-0.0021621691435438676
3.68400e-06	-0.0021720935497296138
3.68425e-06	-0.00218201795591536
3.68450e-06	-0.0021919423621010897
3.68475e-06	-0.002201866768286836
3.68500e-06	-0.002211791174472582
3.68525e-06	-0.0022217155806583283
3.68550e-06	-0.0022316399868440575
3.68575e-06	-0.0022415643930298037
3.68600e-06	-0.00225148879921555
3.68625e-06	-0.0022605604651040768
3.68650e-06	-0.002267756398826036
3.68675e-06	-0.002274952332547996
3.68700e-06	-0.002282148266269943
3.68725e-06	-0.002289344199991903
3.68750e-06	-0.0022965401337138626
3.68775e-06	-0.002303736067435822
3.68800e-06	-0.0023109320011577695
3.68825e-06	-0.002318127934879729
3.68850e-06	-0.0023253238686016886
3.68875e-06	-0.002331707600790949
3.68900e-06	-0.0023363047720007025
3.68925e-06	-0.0023409019432104558
3.68950e-06	-0.002345499114420209
3.68975e-06	-0.0023500962856299545
3.69000e-06	-0.0023546934568397077
3.69025e-06	-0.0023592906280494614
3.69050e-06	-0.002363887799259207
3.69075e-06	-0.00236848497046896
3.69100e-06	-0.0023730821416787133
3.69125e-06	-0.0023744228244961603
3.69150e-06	-0.0023686003650910405
3.69175e-06	-0.002362777905685921
3.69200e-06	-0.0023569554462808014
3.69225e-06	-0.0023511329868756915
3.69250e-06	-0.0023453105274705718
3.69275e-06	-0.0023394880680654524
3.69300e-06	-0.0023336656086603426
3.69325e-06	-0.0023278431492552228
3.69350e-06	-0.002322020689850103
3.69375e-06	-0.002316198230444983
3.69400e-06	-0.0023072448773378373
3.69425e-06	-0.0022914046466588644
3.69450e-06	-0.002275564415979892
3.69475e-06	-0.0022597241853009463
3.69500e-06	-0.002243883954621974
3.69525e-06	-0.002228043723943001
3.69550e-06	-0.0022122034932640553
