Time(s)	Current(A)
9.25000e-06	0.012833438897856892
9.25025e-06	0.012816491620966701
9.25050e-06	0.012799544344076394
9.25075e-06	0.012782597067186086
9.25100e-06	0.012765649790295895
9.25125e-06	0.01274870251340559
9.25150e-06	0.012731755236515282
9.25175e-06	0.012714807959625091
9.25200e-06	0.012711790670911341
9.25225e-06	0.012718627044270318
9.25250e-06	0.012725463417629248
9.25275e-06	0.012732299790988224
9.25300e-06	0.0127391361643472
9.25325e-06	0.01274597253770613
9.25350e-06	0.012752808911065108
9.25375e-06	0.012759645284424083
9.25400e-06	0.012780771195848105
9.25425e-06	0.01281200510431338
9.25450e-06	0.012843239012778656
9.25475e-06	0.01287447292124372
9.25500e-06	0.012905706829708995
9.25525e-06	0.012936940738174271
9.25550e-06	0.012968174646639335
9.25575e-06	0.01299940855510461
9.25600e-06	0.013030642463569886
9.25625e-06	0.013061876372035161
9.25650e-06	0.013093110280500225
9.25675e-06	0.0131243441889655
9.25700e-06	0.013155578097430776
9.25725e-06	0.013188322333617171
9.25750e-06	0.01322213493101116
9.25775e-06	0.01325594752840515
9.25800e-06	0.013289760125798909
9.25825e-06	0.013323572723192898
9.25850e-06	0.013357385320586888
9.25875e-06	0.013391197917980649
9.25900e-06	0.013425010515374638
9.25925e-06	0.013458823112768628
9.25950e-06	0.013492635710162388
9.25975e-06	0.013526448307556378
9.26000e-06	0.013560260904950367
9.26025e-06	0.013594073502344128
9.26050e-06	0.013612449245490255
9.26075e-06	0.013619905414022629
9.26100e-06	0.013627361582554953
9.26125e-06	0.013634817751087326
9.26150e-06	0.013642273919619701
9.26175e-06	0.013649730088152024
9.26200e-06	0.0136571862566844
9.26225e-06	0.013664642425216774
9.26250e-06	0.013672098593749097
9.26275e-06	0.013679554762281472
9.26300e-06	0.013687010930813846
9.26325e-06	0.01369446709934617
9.26350e-06	0.013701923267878544
9.26375e-06	0.013709379436410919
9.26400e-06	0.013716835604943243
9.26425e-06	0.013724291773475616
9.26450e-06	0.013731747942007991
9.26475e-06	0.013739204110540365
9.26500e-06	0.01373629337383647
9.26525e-06	0.013726049394657266
9.26550e-06	0.013715805415478063
9.26575e-06	0.013705561436298927
9.26600e-06	0.013695317457119723
9.26625e-06	0.013685073477940518
9.26650e-06	0.013674829498761382
9.26675e-06	0.013664585519582178
9.26700e-06	0.013654341540402973
9.26725e-06	0.013644097561223837
9.26750e-06	0.013633853582044633
9.26775e-06	0.01362360960286543
9.26800e-06	0.013613365623686294
9.26825e-06	0.01360312164450709
9.26850e-06	0.013592877665327885
9.26875e-06	0.01358263368614875
9.26900e-06	0.013572389706969544
9.26925e-06	0.01356214572779034
9.26950e-06	0.01355249622596025
9.26975e-06	0.013543267239843101
9.27000e-06	0.013534038253725953
9.27025e-06	0.01352480926760887
9.27050e-06	0.013515580281491722
9.27075e-06	0.013506351295374574
9.27100e-06	0.013497122309257488
9.27125e-06	0.013487893323140342
9.27150e-06	0.013478664337023194
9.27175e-06	0.013469435350906108
9.27200e-06	0.01346020636478896
9.27225e-06	0.013450977378671814
9.27250e-06	0.013441748392554728
9.27275e-06	0.01343251940643758
9.27300e-06	0.013423290420320432
9.27325e-06	0.013414005819091832
9.27350e-06	0.013404127851353562
9.27375e-06	0.013394249883615227
9.27400e-06	0.01338437191587689
9.27425e-06	0.013374493948138621
9.27450e-06	0.013364615980400285
9.27475e-06	0.01335473801266195
9.27500e-06	0.01334486004492368
9.27525e-06	0.013334982077185344
9.27550e-06	0.013325104109447008
9.27575e-06	0.013315226141708738
9.27600e-06	0.013305348173970402
9.27625e-06	0.013295470206232066
9.27650e-06	0.013285592238493796
9.27675e-06	0.01327571427075546
9.27700e-06	0.013265836303017125
9.27725e-06	0.013256260866197899
9.27750e-06	0.013246899430812586
9.27775e-06	0.013237537995427276
9.27800e-06	0.013228176560042028
9.27825e-06	0.013218815124656716
9.27850e-06	0.013209453689271405
9.27875e-06	0.013200092253886157
9.27900e-06	0.013190730818500846
9.27925e-06	0.013181426640174698
9.27950e-06	0.01317273334656121
9.27975e-06	0.013164040052947664
9.28000e-06	0.013155346759334118
9.28025e-06	0.01314665346572063
9.28050e-06	0.013137960172107084
9.28075e-06	0.013129266878493539
9.28100e-06	0.01312057358488005
9.28125e-06	0.013111880291266505
9.28150e-06	0.013098350021944831
9.28175e-06	0.013081398218913172
9.28200e-06	0.013064446415881626
9.28225e-06	0.013047494612849967
9.28250e-06	0.013030542809818307
9.28275e-06	0.013013591006786762
9.28300e-06	0.012996639203755102
9.28325e-06	0.012979687400723442
9.28350e-06	0.012962735597691897
9.28375e-06	0.012945783794660238
9.28400e-06	0.012928831991628578
9.28425e-06	0.012911880188597033
9.28450e-06	0.012894928385565373
9.28475e-06	0.01288269543691823
9.28500e-06	0.0095355312155019
9.28525e-06	-0.0077763555697456365
9.28550e-06	-0.0053322648870353295
9.28575e-06	-0.0019224620739292308
9.28600e-06	0.002786101196820449
9.28625e-06	0.016498419399606456
9.28650e-06	0.01659065554969713
9.28675e-06	0.015754055152959818
9.28700e-06	0.014199980461278985
9.28725e-06	0.006624054949445491
9.28750e-06	0.004241009197137739
9.28775e-06	0.006144573690633652
9.28800e-06	0.010180413229181232
9.28825e-06	0.014329246093725516
9.28850e-06	0.016221111747619022
9.28875e-06	0.015205674534598973
9.28900e-06	0.012331376826070911
9.28925e-06	0.009018032262175298
9.28950e-06	0.007764092330311239
9.28975e-06	0.009058663144767904
9.29000e-06	0.011527626630347121
9.29025e-06	0.014078089515362028
9.29050e-06	0.015224089955239219
9.29075e-06	0.014557222724784383
9.29100e-06	0.012733225557599665
9.29125e-06	0.010640478019610326
9.29150e-06	0.009843069408163969
9.29175e-06	0.010646498606180553
9.29200e-06	0.012189289662288792
9.29225e-06	0.013786293858824027
9.29250e-06	0.014506294827532462
9.29275e-06	0.01409317620974494
9.29300e-06	0.012957443420872676
9.29325e-06	0.011655325932278075
9.29350e-06	0.011166281237630428
9.29375e-06	0.011681360145622403
9.29400e-06	0.01266066077448101
9.29425e-06	0.013674794699021013
9.29450e-06	0.014140297667795627
9.29475e-06	0.013896633374670548
9.29500e-06	0.013200841518949112
9.29525e-06	0.012401223038831526
9.29550e-06	0.012111150827977238
9.29575e-06	0.012450113139787129
9.29600e-06	0.0130797438875642
9.29625e-06	0.013730933309579807
9.29650e-06	0.01403809060054394
9.29675e-06	0.01390057069979484
9.29700e-06	0.013479296329781303
9.29725e-06	0.012992339723535218
9.29750e-06	0.012823787792981064
9.29775e-06	0.013048337846572096
9.29800e-06	0.013453896406781891
9.29825e-06	0.01387176993830802
9.29850e-06	0.014072847847781048
9.29875e-06	0.01399399446883562
9.29900e-06	0.013735917800455771
9.29925e-06	0.01343511516870096
9.29950e-06	0.013332057495213377
9.29975e-06	0.01347340213399621
9.30000e-06	0.013726185344969928
9.30025e-06	0.013984821412279105
9.30050e-06	0.014106241441560674
9.30075e-06	0.014051440848094331
9.30100e-06	0.013883775744618278
9.30125e-06	0.013688815614062155
9.30150e-06	0.013617220779424755
9.30175e-06	0.013698239004222497
9.30200e-06	0.013848606052768254
9.30225e-06	0.014002214147740796
9.30250e-06	0.01406948267238681
9.30275e-06	0.014026022510225151
9.30300e-06	0.013911563271657134
9.30325e-06	0.013779743299133469
9.30350e-06	0.01372496715711146
9.30375e-06	0.013765582421476194
9.30400e-06	0.013849461001394772
9.30425e-06	0.013935224693638363
9.30450e-06	0.013966797275137527
9.30475e-06	0.013928941790349689
9.30500e-06	0.013846583443026392
9.30525e-06	0.013753358672129734
9.30550e-06	0.013708435548074905
9.30575e-06	0.013723335829935047
9.30600e-06	0.013765437053203029
9.30625e-06	0.013808853981185584
9.30650e-06	0.01381849565546535
9.30675e-06	0.013784855152879527
9.30700e-06	0.013723584269909847
9.30725e-06	0.013655788436793308
9.30750e-06	0.013623572095702557
9.30775e-06	0.013625433343867933
9.30800e-06	0.013637172694077593
9.30825e-06	0.01365642175978808
9.30850e-06	0.013650802157951513
9.30875e-06	0.013621663402898134
9.30900e-06	0.013581999126720146
9.30925e-06	0.013533593652647289
9.30950e-06	0.013508207603940918
9.30975e-06	0.013504683944979872
9.31000e-06	0.013507775247065203
9.31025e-06	0.013516287786065662
9.31050e-06	0.013509373654311973
9.31075e-06	0.013487630997484927
9.31100e-06	0.013459101602709769
9.31125e-06	0.013424730726007302
9.31150e-06	0.013404454743866699
9.31175e-06	0.013397660745684856
9.31200e-06	0.01339485544436733
9.31225e-06	0.013395159987711215
9.31250e-06	0.013385564561199811
9.31275e-06	0.013366528327774735
9.31300e-06	0.013343136278619615
9.31325e-06	0.01331589542927393
9.31350e-06	0.013297337400620954
9.31375e-06	0.013287133364832145
9.31400e-06	0.013278766370348988
9.31425e-06	0.013272700666420539
9.31450e-06	0.013261285900056312
9.31475e-06	0.013243170278996118
9.31500e-06	0.013222825485724933
9.31525e-06	0.013199688173342395
9.31550e-06	0.013181259739202637
9.31575e-06	0.013168730190945048
9.31600e-06	0.01315654082020999
9.31625e-06	0.01314477759521088
9.31650e-06	0.013133014370211771
9.31675e-06	0.01311821731569823
9.31700e-06	0.013099853869947733
9.31725e-06	0.013081783728473328
9.31750e-06	0.013063713586999044
9.31775e-06	0.013048426879026031
9.31800e-06	0.013036245492425234
9.31825e-06	0.013023586157714654
9.31850e-06	0.013010926823003989
9.31875e-06	0.012998267488293323
9.31900e-06	0.012983600829354569
9.31925e-06	0.01296881488606781
9.31950e-06	0.01295402894278105
9.31975e-06	0.012941627185323287
9.32000e-06	0.01293221213497564
9.32025e-06	0.012922797084627994
9.32050e-06	0.012912946562953357
9.32075e-06	0.012902550519493782
9.32100e-06	0.012892154476034208
9.32125e-06	0.01288472110754404
9.32150e-06	0.012880999128614724
9.32175e-06	0.012877277149685408
9.32200e-06	0.012873555170756116
9.32225e-06	0.0128698331918268
9.32250e-06	0.012866111212897484
9.32275e-06	0.012862389233968194
9.32300e-06	0.012858667255038878
9.32325e-06	0.012854945276109562
9.32350e-06	0.012854405131822753
9.32375e-06	0.01285785092186855
9.32400e-06	0.012861296711914346
9.32425e-06	0.012864742501960144
9.32450e-06	0.012868188292005917
9.32475e-06	0.012871634082051712
9.32500e-06	0.01287507987209751
9.32525e-06	0.012878525662143283
9.32550e-06	0.012881971452189079
9.32575e-06	0.012887263386483501
9.32600e-06	0.012894868014732904
9.32625e-06	0.01290247264298236
9.32650e-06	0.012910077271231814
9.32675e-06	0.012917681899481217
9.32700e-06	0.012925286527730673
9.32725e-06	0.012932891155980127
9.32750e-06	0.01294049578422953
9.32775e-06	0.012948100412478986
9.32800e-06	0.01295570504072844
9.32825e-06	0.012963309668977843
9.32850e-06	0.012970914297227298
9.32875e-06	0.012978518925476752
9.32900e-06	0.012986123553726156
9.32925e-06	0.01298902235068167
9.32950e-06	0.01299164150570892
9.32975e-06	0.012994260660736149
9.33000e-06	0.012996879815763397
9.33025e-06	0.012999498970790646
9.33050e-06	0.013002118125817877
9.33075e-06	0.013004737280845124
9.33100e-06	0.013007356435872372
9.33125e-06	0.013009975590899604
9.33150e-06	0.013012594745926852
9.33175e-06	0.013015213900954099
9.33200e-06	0.01301783305598133
9.33225e-06	0.013020452211008579
9.33250e-06	0.01301949722161717
9.33275e-06	0.013014064845261335
9.33300e-06	0.013008632468905535
9.33325e-06	0.0130032000925497
9.33350e-06	0.012997767716193863
9.33375e-06	0.012992335339838065
9.33400e-06	0.01298690296348223
9.33425e-06	0.012981470587126393
9.33450e-06	0.012976038210770594
9.33475e-06	0.012970605834414757
9.33500e-06	0.012965173458058922
9.33525e-06	0.012959741081703124
9.33550e-06	0.012954308705347287
9.33575e-06	0.012948876328991452
9.33600e-06	0.012943443952635652
9.33625e-06	0.012938011576279817
9.33650e-06	0.01293257919992398
9.33675e-06	0.01292482385891552
9.33700e-06	0.012916930476767209
9.33725e-06	0.012909037094618896
9.33750e-06	0.012901143712470637
9.33775e-06	0.012893250330322325
9.33800e-06	0.012885356948174012
9.33825e-06	0.012877463566025753
9.33850e-06	0.012869570183877441
9.33875e-06	0.012861676801729128
9.33900e-06	0.012853783419580869
9.33925e-06	0.012845890037432557
9.33950e-06	0.012837996655284244
9.33975e-06	0.012830103273135985
9.34000e-06	0.012822209890987674
9.34025e-06	0.01281431650883936
9.34050e-06	0.012806423126691101
9.34075e-06	0.012797133421983525
9.34100e-06	0.012786094522029648
9.34125e-06	0.012775055622075773
9.34150e-06	0.012764016722121971
9.34175e-06	0.012752977822168094
9.34200e-06	0.01274193892221422
9.34225e-06	0.012730900022260417
9.34250e-06	0.01271986112230654
9.34275e-06	0.012708822222352666
9.34300e-06	0.012697783322398863
9.34325e-06	0.012686744422444987
9.34350e-06	0.012675705522491112
9.34375e-06	0.01266466662253731
9.34400e-06	0.012653627722583433
9.34425e-06	0.012639991616119223
9.34450e-06	0.012623101948182603
9.34475e-06	0.012606212280245868
9.34500e-06	0.012589322612309136
9.34525e-06	0.012572432944372516
9.34550e-06	0.012555543276435783
9.34575e-06	0.012538653608499048
9.34600e-06	0.01252176394056243
9.34625e-06	0.012504874272625695
9.34650e-06	0.012487984604688961
9.34675e-06	0.012471094936752343
9.34700e-06	0.012454205268815608
9.34725e-06	0.012437315600878875
9.34750e-06	0.012420425932942255
9.34775e-06	0.012404121664547046
9.34800e-06	0.012388550735371116
9.34825e-06	0.012372979806195294
9.34850e-06	0.012357408877019365
9.34875e-06	0.012341837947843435
9.34900e-06	0.012326267018667613
9.34925e-06	0.012310696089491683
9.34950e-06	0.012295125160315754
9.34975e-06	0.012279554231139826
9.35000e-06	0.012263983301964002
9.35025e-06	0.012250460914792375
9.35050e-06	0.012237060261317167
9.35075e-06	0.012223659607842047
9.35100e-06	0.012210258954366839
9.35125e-06	0.012196858300891629
9.35150e-06	0.012183457647416511
9.35175e-06	0.012170056993941301
9.35200e-06	0.012156656340466093
9.35225e-06	0.012143255686990973
9.35250e-06	0.012127463886861136
9.35275e-06	0.012108676659682262
9.35300e-06	0.012089889432503515
9.35325e-06	0.01207110220532464
9.35350e-06	0.012052314978145766
9.35375e-06	0.012033527750967018
9.35400e-06	0.012014740523788143
9.35425e-06	0.011995953296609269
9.35450e-06	0.011977166069430521
9.35475e-06	0.011958378842251646
9.35500e-06	0.011939591615072772
9.35525e-06	0.011920804387894024
9.35550e-06	0.011902017160715149
9.35575e-06	0.011883229933536275
9.35600e-06	0.011864442706357527
9.35625e-06	0.011845655479178652
9.35650e-06	0.011826868251999778
9.35675e-06	0.01180808102482103
9.35700e-06	0.011789293797642155
9.35725e-06	0.011771912945566664
9.35750e-06	0.011756293881718826
9.35775e-06	0.011740674817870883
9.35800e-06	0.01172505575402294
9.35825e-06	0.011709436690174997
9.35850e-06	0.011693817626327159
9.35875e-06	0.011678198562479215
9.35900e-06	0.011662579498631273
9.35925e-06	0.011646960434783435
9.35950e-06	0.01163134137093549
9.35975e-06	0.011615722307087548
9.36000e-06	0.01160010324323971
9.36025e-06	0.011584484179391768
9.36050e-06	0.011568865115543824
9.36075e-06	0.011553246051695986
9.36100e-06	0.011537626987848043
9.36125e-06	0.0115220079240001
9.36150e-06	0.011506388860152261
9.36175e-06	0.011490769796304319
9.36200e-06	0.011480481770803217
9.36225e-06	0.01147687202094782
9.36250e-06	0.011473262271092402
9.36275e-06	0.011469652521236981
9.36300e-06	0.011466042771381585
9.36325e-06	0.011462433021526166
9.36350e-06	0.011458823271670745
9.36375e-06	0.011455213521815348
9.36400e-06	0.01145160377195993
9.36425e-06	0.011447994022104509
9.36450e-06	0.011444384272249112
9.36475e-06	0.011440774522393693
9.36500e-06	0.011437164772538273
9.36525e-06	0.011433555022682878
9.36550e-06	0.011429945272827457
9.36575e-06	0.011426335522972036
9.36600e-06	0.011422725773116642
9.36625e-06	0.011423316283903768
9.36650e-06	0.011424156393309865
9.36675e-06	0.01142499650271596
9.36700e-06	0.011425836612122051
9.36725e-06	0.011426676721528148
9.36750e-06	0.011427516830934244
9.36775e-06	0.011428356940340334
9.36800e-06	0.011429197049746431
9.36825e-06	0.011430037159152527
9.36850e-06	0.011430877268558617
9.36875e-06	0.011431717377964714
9.36900e-06	0.01143255748737081
9.36925e-06	0.0114333975967769
9.36950e-06	0.011434237706182997
9.36975e-06	0.011435077815589093
9.37000e-06	0.011435917924995183
9.37025e-06	0.011438619343694159
9.37050e-06	0.011443652453841099
9.37075e-06	0.011448685563988006
9.37100e-06	0.011453718674134946
9.37125e-06	0.011458751784281886
9.37150e-06	0.011463784894428791
9.37175e-06	0.01146881800457573
9.37200e-06	0.01147385111472267
9.37225e-06	0.011478884224869578
9.37250e-06	0.011483917335016518
9.37275e-06	0.011488950445163458
9.37300e-06	0.011493983555310365
9.37325e-06	0.011509008021987422
9.37350e-06	0.01152462622057916
9.37375e-06	0.011540244419170793
9.37400e-06	0.011555862617762532
9.37425e-06	0.011571480816354273
9.37450e-06	0.011587099014945906
9.37475e-06	0.011602717213537644
9.37500e-06	0.011618335412129383
9.37525e-06	0.011633953610721122
9.37550e-06	0.011649571809312757
9.37575e-06	0.011665190007904495
9.37600e-06	0.011682648066398895
9.37625e-06	0.011702410946352706
9.37650e-06	0.01172217382630665
9.37675e-06	0.011741936706260597
9.37700e-06	0.011761699586214407
9.37725e-06	0.011781462466168352
9.37750e-06	0.011801225346122296
9.37775e-06	0.011820988226076109
9.37800e-06	0.011840751106030053
9.37825e-06	0.011860513985983997
9.37850e-06	0.011880276865937808
9.37875e-06	0.011900039745891754
9.37900e-06	0.011919802625845698
9.37925e-06	0.011934508176296432
9.37950e-06	0.011942878330475496
9.37975e-06	0.011951248484654559
9.38000e-06	0.011959618638833568
9.38025e-06	0.01196798879301263
9.38050e-06	0.011976358947191694
9.38075e-06	0.011984729101370701
9.38100e-06	0.011993099255549765
9.38125e-06	0.01200146940972883
9.38150e-06	0.012009839563907837
9.38175e-06	0.012018209718086901
9.38200e-06	0.012026579872265965
9.38225e-06	0.012034950026444972
9.38250e-06	0.01203438961468229
9.38275e-06	0.012022641742394709
9.38300e-06	0.012010893870107207
9.38325e-06	0.011999145997819625
9.38350e-06	0.011987398125532043
9.38375e-06	0.011975650253244461
9.38400e-06	0.011963902380956959
9.38425e-06	0.011952154508669377
9.38450e-06	0.011940406636381795
9.38475e-06	0.011928658764094293
9.38500e-06	0.011916910891806713
9.38525e-06	0.011905163019519131
9.38550e-06	0.011893415147231629
9.38575e-06	0.011881667274944047
9.38600e-06	0.011869919402656465
9.38625e-06	0.011858171530368963
9.38650e-06	0.011846423658081381
9.38675e-06	0.011829304372908188
9.38700e-06	0.01181186589391465
9.38725e-06	0.011794427414920997
9.38750e-06	0.011776988935927343
9.38775e-06	0.011759550456933807
9.38800e-06	0.011742111977940152
9.38825e-06	0.011724673498946498
9.38850e-06	0.011707235019952963
9.38875e-06	0.011689796540959307
9.38900e-06	0.011672358061965654
9.38925e-06	0.011654919582972118
9.38950e-06	0.011637481103978463
9.38975e-06	0.01162004262498481
9.39000e-06	0.011602604145991274
9.39025e-06	0.01158516566699762
9.39050e-06	0.011567727188003965
9.39075e-06	0.011557420480014438
9.39100e-06	0.01155604785381985
9.39125e-06	0.011554675227625261
9.39150e-06	0.011553302601430683
9.39175e-06	0.011551929975236094
9.39200e-06	0.011550557349041505
9.39225e-06	0.011549184722846917
9.39250e-06	0.011547812096652338
9.39275e-06	0.01154643947045775
9.39300e-06	0.01154506684426316
9.39325e-06	0.01154369421806858
9.39350e-06	0.011542321591873992
9.39375e-06	0.011540948965679403
9.39400e-06	0.011546341038844166
9.39425e-06	0.011560207357377233
9.39450e-06	0.0115740736759103
9.39475e-06	0.011587939994443276
9.39500e-06	0.011601806312976344
9.39525e-06	0.011615672631509411
9.39550e-06	0.011629538950042387
9.39575e-06	0.011643405268575454
9.39600e-06	0.011657271587108522
9.39625e-06	0.011671137905641497
9.39650e-06	0.011685004224174565
9.39675e-06	0.011698870542707634
9.39700e-06	0.011712736861240608
9.39725e-06	0.011727466130562286
9.39750e-06	0.011743276431920335
9.39775e-06	0.011759086733278279
9.39800e-06	0.011774897034636328
9.39825e-06	0.011790707335994377
9.39850e-06	0.01180651763735232
9.39875e-06	0.011822327938710369
9.39900e-06	0.011838138240068418
9.39925e-06	0.011853948541426362
9.39950e-06	0.011869758842784411
9.39975e-06	0.01188556914414246
9.40000e-06	0.011897178738248443
9.40025e-06	0.011903526040257205
9.40050e-06	0.011909873342265967
9.40075e-06	0.01191622064427473
9.40100e-06	0.011922567946283451
9.40125e-06	0.011928915248292213
9.40150e-06	0.011935262550300975
9.40175e-06	0.011941609852309696
