Time(s)	Current(A)
5.50000e-06	-0.00014837482622709778
5.50025e-06	-0.000158422043189969
5.50050e-06	-0.00016752260141838395
5.50075e-06	-0.00017568068603496828
5.50100e-06	-0.00018290563522825243
5.50125e-06	-0.00018918168772807302
5.50150e-06	-0.000194483235011674
5.50175e-06	-0.00019878463083038722
5.50200e-06	-0.00020206037792630405
5.50225e-06	-0.00020418804881870285
5.50250e-06	-0.00020507336551332385
5.50275e-06	-0.00020556793192846138
5.50300e-06	-0.00020450990582794893
5.50325e-06	-0.00020308178241527412
5.50350e-06	-0.000200183128213265
5.50375e-06	-0.00019693017109133226
5.50400e-06	-0.00019226944002624524
5.50425e-06	-0.00018727842826430095
5.50450e-06	-0.0001809750915601511
5.50475e-06	-0.00017438707834542094
5.50500e-06	-0.00016666794215293144
5.50525e-06	-0.00015870572651866216
5.50550e-06	-0.0001497776681407294
5.50575e-06	-0.00014064507852780338
5.50600e-06	-0.00013069981217157732
5.50625e-06	-0.00012059370957047894
5.50650e-06	-0.000109848546261986
5.50675e-06	-9.898532635743939e-05
5.50700e-06	-8.76530247986679e-05
5.50725e-06	-7.632072323985803e-05
5.50750e-06	-6.495460184360837e-05
5.50775e-06	-5.345410197263084e-05
5.50800e-06	-4.1953602101692285e-05
5.50825e-06	-3.049325338212826e-05
5.50850e-06	-1.923812439302571e-05
5.50875e-06	-8.226877939174009e-06
5.50900e-06	2.4584263681768257e-06
5.50925e-06	1.2739602696943259e-05
5.50950e-06	2.2539994189644756e-05
5.50975e-06	3.178295323196722e-05
5.51000e-06	4.039152358266548e-05
5.51025e-06	4.827766995734281e-05
5.51050e-06	5.530376841169822e-05
5.51075e-06	6.130223852025146e-05
5.51100e-06	6.617340017668728e-05
5.51125e-06	6.989830606285197e-05
5.51150e-06	7.247972106212966e-05
5.51175e-06	7.39204260532994e-05
5.51200e-06	7.422300729911143e-05
5.51225e-06	7.338311453469083e-05
5.51250e-06	7.136533801520807e-05
5.51275e-06	6.811551443302125e-05
5.51300e-06	6.362201453401277e-05
5.51325e-06	5.792377711651284e-05
5.51350e-06	5.107334987787767e-05
5.51375e-06	4.312328269053176e-05
5.51400e-06	3.41259981665686e-05
5.51425e-06	2.4129577163388025e-05
5.51450e-06	1.3162639255680871e-05
5.51475e-06	1.2420584585976031e-06
5.51500e-06	-1.1588647200286844e-05
5.51525e-06	-2.525428768818305e-05
5.51550e-06	-3.9671153537643435e-05
5.51575e-06	-5.4755543936702734e-05
5.51600e-06	-7.042383092984068e-05
5.51625e-06	-8.663410429027911e-05
5.51650e-06	-0.00010335559366387364
5.51675e-06	-0.00012021615152004396
5.51700e-06	-0.00013762927887258654
5.51725e-06	-0.0001550424062250701
5.51750e-06	-0.00017246246422787385
5.51775e-06	-0.00018991006021695412
5.51800e-06	-0.00020735765620597527
5.51825e-06	-0.00022463235851064877
5.51850e-06	-0.00024122009153015878
5.51875e-06	-0.00025780782454961254
5.51900e-06	-0.0002741186690182561
5.51925e-06	-0.00028932933489714746
5.51950e-06	-0.00030421193796515734
5.51975e-06	-0.0003177910285566774
5.52000e-06	-0.00033094458053465773
5.52025e-06	-0.00034240731333494027
5.52050e-06	-0.0003533138336502962
5.52075e-06	-0.00036201032012524235
5.52100e-06	-0.00037008380297187736
5.52125e-06	-0.0003756818665525881
5.52150e-06	-0.0003806500329169386
5.52175e-06	-0.00038311538929109806
5.52200e-06	-0.00038494355985478943
5.52225e-06	-0.00038423996020158267
5.52250e-06	-0.0003828711058966966
5.52275e-06	-0.0003788589536933243
5.52300e-06	-0.00037419349943040636
5.52325e-06	-0.0003669322392506036
5.52350e-06	-0.00035906714933134294
5.52375e-06	-0.00034880282495777733
5.52400e-06	-0.0003379838856794545
5.52425e-06	-0.00032496126032622306
5.52450e-06	-0.0003114202260352307
5.52475e-06	-0.00029581936510140463
5.52500e-06	-0.00027976135336173273
5.52525e-06	-0.00026188691574459476
5.52550e-06	-0.00024364009124260876
5.52575e-06	-0.0002239136386503141
5.52600e-06	-0.00020389938607309665
5.52625e-06	-0.00018274159982291052
5.52650e-06	-0.0001613724384912221
5.52675e-06	-0.00013916340733309521
5.52700e-06	-0.00011683511797992791
5.52725e-06	-9.403297258496563e-05
5.52750e-06	-7.12183866921822e-05
5.52775e-06	-4.835437019157025e-05
5.52800e-06	-2.554812478709887e-05
5.52825e-06	-3.0443918477335134e-06
5.52850e-06	1.907201907371395e-05
5.52875e-06	4.067761609834935e-05
5.52900e-06	6.163731202562004e-05
5.52925e-06	8.180380527365543e-05
5.52950e-06	0.00010102667854675372
5.52975e-06	0.00011915553926407341
5.53000e-06	0.00013603993336022972
5.53025e-06	0.00015152823378523727
5.53050e-06	0.00016546908631922454
5.53075e-06	0.0001777384850881954
5.53100e-06	0.000188269094581652
5.53125e-06	0.00019703166071859853
5.53150e-06	0.00020400425376272997
5.53175e-06	0.00020916494690379926
5.53200e-06	0.0002124917869198538
5.53225e-06	0.00021396210473921155
5.53250e-06	0.00021355340726115233
5.53275e-06	0.0002112603094527927
5.53300e-06	0.00020711292937557993
5.53325e-06	0.00020116528689219859
5.53350e-06	0.00019347593020959875
5.53375e-06	0.00018410343371252677
5.53400e-06	0.00017310635707791023
5.53425e-06	0.0001605428013067906
5.53450e-06	0.00014647097631391543
5.53475e-06	0.00013095981043673702
5.53500e-06	0.00011410047011583567
5.53525e-06	9.599906303611684e-05
5.53550e-06	7.676456337020826e-05
5.53575e-06	5.650593006598585e-05
5.53600e-06	3.533212083749318e-05
5.53625e-06	1.3351786380856291e-05
5.53650e-06	-9.326355811675057e-06
5.53675e-06	-3.258688228469125e-05
5.53700e-06	-5.633166118665324e-05
5.53725e-06	-8.04741859186196e-05
5.53750e-06	-0.00010461671065058596
5.53775e-06	-0.00012871174953357328
5.53800e-06	-0.0001526180918307448
5.53825e-06	-0.00017652443412799736
5.53850e-06	-0.0002002014334423822
5.53875e-06	-0.0002229671699454431
5.53900e-06	-0.00024540618373238184
5.53925e-06	-0.0002665470097252976
5.53950e-06	-0.0002872324595136614
5.53975e-06	-0.00030610853455986234
5.54000e-06	-0.0003244143787930148
5.54025e-06	-0.00034045448928795625
5.54050e-06	-0.0003559618477343825
5.54075e-06	-0.0003693523891602886
5.54100e-06	-0.00038225958648641686
5.54125e-06	-0.0003932462824838711
5.54150e-06	-0.0004037050133215064
5.54175e-06	-0.00041206594718320164
5.54200e-06	-0.00041985772698929406
5.54225e-06	-0.0004253880514045978
5.54250e-06	-0.00043040345171352465
5.54275e-06	-0.0004333728718792795
5.54300e-06	-0.0004358890678922229
5.54325e-06	-0.00043660444004485184
5.54350e-06	-0.0004368693764951627
5.54375e-06	-0.0004353445686098735
5.54400e-06	-0.00043327508729418626
5.54425e-06	-0.00042904142098658296
5.54450e-06	-0.0004248077546789796
5.54475e-06	-0.0004200571746045599
5.54500e-06	-0.0004132527087450524
5.54525e-06	-0.0004064482428855449
5.54550e-06	-0.00039922546263493374
5.54575e-06	-0.0003903405676628875
5.54600e-06	-0.0003814556726908413
5.54625e-06	-0.00037225477283482427
5.54650e-06	-0.00036179827101811445
5.54675e-06	-0.0003513417692013692
5.54700e-06	-0.0003407317826421383
5.54725e-06	-0.00032951194556020923
5.54750e-06	-0.0003182921084782422
5.54775e-06	-0.00030703806094165427
5.54800e-06	-0.0002956480828668751
5.54825e-06	-0.0002842581047920574
5.54850e-06	-0.00027298603847791396
5.54875e-06	-0.000262182478333646
5.54900e-06	-0.00025137891818934136
5.54925e-06	-0.0002407962147362658
5.54950e-06	-0.00023109105498130778
5.54975e-06	-0.00022163509141106546
5.55000e-06	-0.00021316927462036177
5.55025e-06	-0.00020500344887353328
5.55050e-06	-0.00019802959629542472
5.55075e-06	-0.00019137118096290977
5.55100e-06	-0.00018596611215791585
5.55125e-06	-0.00018088758904797868
5.55150e-06	-0.0001771065503622769
5.55175e-06	-0.00017357904707653593
5.55200e-06	-0.00017123249752789996
5.55225e-06	-0.000169750349760895
5.55250e-06	-0.00016921681938511765
5.55275e-06	-0.0001696934091607619
5.55300e-06	-0.00017049244680886273
5.55325e-06	-0.0001725726867465105
5.55350e-06	-0.0001749587901521459
5.55375e-06	-0.00017856019999626873
5.55400e-06	-0.00018245043391542235
5.55425e-06	-0.0001874882705876949
5.55450e-06	-0.00019278723555508331
5.55475e-06	-0.00019912375790193292
5.55500e-06	-0.0002057331821641198
5.55525e-06	-0.00021342694466708933
5.55550e-06	-0.00022112070717003282
5.55575e-06	-0.000229071190480228
5.55600e-06	-0.00023804171862278512
5.55625e-06	-0.00024701224676531186
5.55650e-06	-0.00025617590655945325
5.55675e-06	-0.0002661069484185803
5.55700e-06	-0.00027603799027767364
5.55725e-06	-0.00028596903213676706
5.55750e-06	-0.0002959000739958941
5.55775e-06	-0.00030583111585498745
5.55800e-06	-0.0003155612316545454
5.55825e-06	-0.0003252056748661441
5.55850e-06	-0.00033485011807771013
5.55875e-06	-0.0003444945612892762
5.55900e-06	-0.00035413900450087494
5.55925e-06	-0.0003634824030528899
5.55950e-06	-0.00037162964203948413
5.55975e-06	-0.0003797768810260508
5.56000e-06	-0.0003876362727242617
5.56025e-06	-0.0003943519427970685
5.56050e-06	-0.0004010676128698525
5.56075e-06	-0.0004079632036952022
5.56100e-06	-0.00041557368489437117
5.56125e-06	-0.0004231841660935144
5.56150e-06	-0.00043079464729265754
5.56175e-06	-0.0004384051284918265
5.56200e-06	-0.0004460156096909697
5.56225e-06	-0.00045362609089011287
5.56250e-06	-0.00046167411679891285
5.56275e-06	-0.0004714606664551657
5.56300e-06	-0.00048124721611141844
5.56325e-06	-0.0004910337657677043
5.56350e-06	-0.0005008203154239572
5.56375e-06	-0.000510606865080243
5.56400e-06	-0.0005203934147364959
5.56425e-06	-0.0005306581502843232
5.56450e-06	-0.0005428228917284527
5.56475e-06	-0.0005549876331725409
5.56500e-06	-0.0005671523746166292
5.56525e-06	-0.0005793171160607586
5.56550e-06	-0.0005914818575048469
5.56575e-06	-0.0006036465989489352
5.56600e-06	-0.0006158113403930647
5.56625e-06	-0.0006286669618940253
5.56650e-06	-0.0006418171667984057
5.56675e-06	-0.0006549673717028307
5.56700e-06	-0.0006681175766072112
5.56725e-06	-0.0006812677815115916
5.56750e-06	-0.0006944179864160166
5.56775e-06	-0.000707568191320397
5.56800e-06	-0.0007203793788284253
5.56825e-06	-0.000731843527322175
5.56850e-06	-0.0007433076758159248
5.56875e-06	-0.0007547718243097134
5.56900e-06	-0.0007662359728034632
5.56925e-06	-0.0007777001212972129
5.56950e-06	-0.0007891642697910015
5.56975e-06	-0.0007997824046586476
5.57000e-06	-0.0008070390206986474
5.57025e-06	-0.0008142956367386719
5.57050e-06	-0.0008215522527786718
5.57075e-06	-0.0008288088688186717
5.57100e-06	-0.0008360654848586961
5.57125e-06	-0.0008433221008986961
5.57150e-06	-0.0008493924256277716
5.57175e-06	-0.0008507491849324473
5.57200e-06	-0.0008521059442371184
5.57225e-06	-0.0008534627035417942
5.57250e-06	-0.0008548194628464653
5.57275e-06	-0.0008561762221511365
5.57300e-06	-0.0008575329814558123
5.57325e-06	-0.0008588897407604834
5.57350e-06	-0.0008602465000651545
5.57375e-06	-0.0008616032593698303
5.57400e-06	-0.0008591102360184165
5.57425e-06	-0.0008549757091010004
5.57450e-06	-0.0008508411821835703
5.57475e-06	-0.0008467066552661543
5.57500e-06	-0.0008425721283487382
5.57525e-06	-0.0008384376014313081
5.57550e-06	-0.000834303074513892
5.57575e-06	-0.000830168547596476
5.57600e-06	-0.0008260340206790459
5.57625e-06	-0.0008213982345797808
5.57650e-06	-0.0008147707640382978
5.57675e-06	-0.0008081432934968372
5.57700e-06	-0.0008015158229553766
5.57725e-06	-0.0007948883524138935
5.57750e-06	-0.000788260881872433
5.57775e-06	-0.0007816334113309724
5.57800e-06	-0.0007750486256594405
5.57825e-06	-0.0007684820403312988
5.57850e-06	-0.0007619154550031571
5.57875e-06	-0.0007553488696749932
5.57900e-06	-0.0007487822843468515
5.57925e-06	-0.0007422156990187098
5.57950e-06	-0.0007358605686739065
5.57975e-06	-0.0007303456256329992
5.58000e-06	-0.0007249479906274342
5.58025e-06	-0.0007199374441949699
5.58050e-06	-0.0007146129275167409
5.58075e-06	-0.0007087369647597352
5.58100e-06	-0.0007006699068260768
5.58125e-06	-0.0006918912410048502
5.58150e-06	-0.0006802850990799528
5.58175e-06	-0.0006686789571550947
5.58200e-06	-0.0006564806571888866
5.58225e-06	-0.0006419294986600623
5.58250e-06	-0.0006267161167847668
5.58275e-06	-0.0006088714814900165
5.58300e-06	-0.0005902579068288852
5.58325e-06	-0.0005685890573159505
5.58350e-06	-0.0005462808011795129
5.58375e-06	-0.0005214319507354696
5.58400e-06	-0.00049606766413966
5.58425e-06	-0.000468655362860987
5.58450e-06	-0.00044068066066742923
5.58475e-06	-0.0004104713357627117
5.58500e-06	-0.00037971094222935574
5.58525e-06	-0.0003467609532662733
5.58550e-06	-0.00031349628780985957
5.58575e-06	-0.000278827094039944
5.58600e-06	-0.00024343208049858677
5.58625e-06	-0.00020749610675553816
5.58650e-06	-0.0001710997558169918
5.58675e-06	-0.0001342296362412004
5.58700e-06	-9.694990334917346e-05
5.58725e-06	-5.9450413427044316e-05
5.58750e-06	-2.195818139513945e-05
5.58775e-06	1.5299822372351915e-05
5.58800e-06	5.209701871348191e-05
5.58825e-06	8.822054682914846e-05
5.58850e-06	0.0001235228875633673
5.58875e-06	0.00015791537048449568
5.58900e-06	0.00019126075483177072
5.58925e-06	0.00022334308225910378
5.58950e-06	0.0002539231368357522
5.58975e-06	0.0002827617577571068
5.59000e-06	0.00030961994553664997
5.59025e-06	0.0003342681574327624
5.59050e-06	0.0003565306354540365
5.59075e-06	0.00037632217131497843
5.59100e-06	0.00039360588008977764
5.59125e-06	0.0004083395626400758
5.59150e-06	0.0004204734049120496
5.59175e-06	0.00042995762765165647
5.59200e-06	0.0004367425455478125
5.59225e-06	0.0004407844034177457
5.59250e-06	0.00044207313305829677
5.59275e-06	0.00044065543491424316
5.59300e-06	0.0004366082102036566
5.59325e-06	0.00043000510847839056
5.59350e-06	0.0004209149776973717
5.59375e-06	0.000409406631019751
5.59400e-06	0.0003955489983316678
5.59425e-06	0.0003794146826684224
5.59450e-06	0.00036109746846474703
5.59475e-06	0.00034072657935218305
5.59500e-06	0.0003184502335725323
5.59525e-06	0.000294414580657654
5.59550e-06	0.0002687627241418296
5.59575e-06	0.00024163777048529037
5.59600e-06	0.00021318288459003286
5.59625e-06	0.0001835435328500229
5.59650e-06	0.00015287840921723587
5.59675e-06	0.0001213684175247281
5.59700e-06	8.917527961256849e-05
5.59725e-06	5.646019494094913e-05
5.59750e-06	2.3689977302021258e-05
5.59775e-06	-9.285232289607505e-06
5.59800e-06	-4.215236362233521e-05
5.59825e-06	-7.472041928411736e-05
5.59850e-06	-0.00010679013947441829
5.59875e-06	-0.0001381483415915868
5.59900e-06	-0.0001685744208042905
5.59925e-06	-0.0001978486302385423
5.59950e-06	-0.00022575241760530203
5.59975e-06	-0.0002520672597975971
5.60000e-06	-0.00027657659071548955
5.60025e-06	-0.00029900942066525473
5.60050e-06	-0.00031945326085043504
5.60075e-06	-0.00033952740165473465
5.60100e-06	-0.0003581325927988956
5.60125e-06	-0.0003763660041966179
5.60150e-06	-0.0003931221998880888
5.60175e-06	-0.00040940159687649045
5.60200e-06	-0.0004237864997738301
5.60225e-06	-0.00043763816686120667
5.60250e-06	-0.00044937109477281113
5.60275e-06	-0.00046110402268445533
5.60300e-06	-0.00047246103157574666
5.60325e-06	-0.0004823243779251946
5.60350e-06	-0.000492187724274676
5.60375e-06	-0.0005015890987922362
5.60400e-06	-0.0005091548917526613
5.60425e-06	-0.0005167206847131122
5.60450e-06	-0.000523700755620962
5.60475e-06	-0.0005283535404843383
5.60500e-06	-0.0005330063253477305
5.60525e-06	-0.0005376591102111069
5.60550e-06	-0.0005423118950744832
5.60575e-06	-0.0005469646799378754
5.60600e-06	-0.0005516174648012518
5.60625e-06	-0.000556270249664644
5.60650e-06	-0.0005609230345280204
5.60675e-06	-0.00056362371272816
5.60700e-06	-0.0005654920348363268
5.60725e-06	-0.0005673603569444872
5.60750e-06	-0.0005692286790526476
5.60775e-06	-0.0005710970011608144
5.60800e-06	-0.0005729653232689748
5.60825e-06	-0.0005748336453771352
5.60850e-06	-0.0005767019674853019
5.60875e-06	-0.0005783716233319397
5.60900e-06	-0.0005792519061033143
5.60925e-06	-0.000580132188874692
5.60950e-06	-0.0005810124716460666
5.60975e-06	-0.0005818927544174413
5.61000e-06	-0.0005827730371888188
5.61025e-06	-0.0005836533199601935
5.61050e-06	-0.0005845336027315711
5.61075e-06	-0.0005854138855029457
5.61100e-06	-0.0005862941682743204
5.61125e-06	-0.000587174451045698
5.61150e-06	-0.000588579734787511
5.61175e-06	-0.0005902088729755039
5.61200e-06	-0.0005918380111635023
5.61225e-06	-0.0005934671493514951
5.61250e-06	-0.000595096287539488
5.61275e-06	-0.0005967254257274865
5.61300e-06	-0.0005983545639154794
5.61325e-06	-0.0005999837021034722
5.61350e-06	-0.0006016128402914706
5.61375e-06	-0.0006032419784794635
5.61400e-06	-0.0006051085776436159
5.61425e-06	-0.0006079186953475725
5.61450e-06	-0.0006107288130515197
5.61475e-06	-0.0006135389307554764
5.61500e-06	-0.0006163490484594235
5.61525e-06	-0.0006191591661633707
5.61550e-06	-0.0006219692838673274
5.61575e-06	-0.0006247794015712745
5.61600e-06	-0.0006275895192752217
5.61625e-06	-0.0006303996369791784
5.61650e-06	-0.0006332097546831255
5.61675e-06	-0.0006360524176982044
5.61700e-06	-0.0006390243950323453
5.61725e-06	-0.0006419963723664762
5.61750e-06	-0.0006449683497006071
5.61775e-06	-0.0006479403270347481
5.61800e-06	-0.000650912304368879
5.61825e-06	-0.0006538842817030099
5.61850e-06	-0.0006568562590371508
5.61875e-06	-0.0006598282363712817
5.61900e-06	-0.0006628002137054227
5.61925e-06	-0.0006657721910395536
5.61950e-06	-0.0006686173195442946
5.61975e-06	-0.0006709584316662422
5.62000e-06	-0.0006731989137882973
5.62025e-06	-0.0006750395564417029
5.62050e-06	-0.0006763664648827001
5.62075e-06	-0.0006756521210654165
5.62100e-06	-0.0006749377772481327
5.62125e-06	-0.0006734267617092399
5.62150e-06	-0.0006687502806212375
5.62175e-06	-0.0006640737995332349
5.62200e-06	-0.0006586539032998736
5.62225e-06	-0.0006502801492008622
5.62250e-06	-0.0006419063951018508
5.62275e-06	-0.0006327577502104398
5.62300e-06	-0.0006205301832976696
5.62325e-06	-0.0006075725124575885
5.62350e-06	-0.0005917138740468217
5.62375e-06	-0.0005758552356360547
5.62400e-06	-0.0005592706442756948
5.62425e-06	-0.0005398015786840019
5.62450e-06	-0.000520332513092309
5.62475e-06	-0.0005002612563035075
5.62500e-06	-0.0004777972755905797
5.62525e-06	-0.0004549345523068246
5.62550e-06	-0.00043048748024223776
5.62575e-06	-0.0004057586049700055
5.62600e-06	-0.00037991002339794223
5.62625e-06	-0.00035386714563733623
5.62650e-06	-0.0003270522586864485
5.62675e-06	-0.0003000897067493737
5.62700e-06	-0.00027254042829256265
5.62725e-06	-0.0002449497239362576
5.62750e-06	-0.00021721125550165857
5.62775e-06	-0.0001895898573026979
5.62800e-06	-0.00016225112611744174
5.62825e-06	-0.00013535314890083156
5.62850e-06	-0.00010901854209369315
5.62875e-06	-8.333921004461412e-05
5.62900e-06	-5.843609227511202e-05
5.62925e-06	-3.447464144310005e-05
5.62950e-06	-1.1633275645394509e-05
5.62975e-06	9.909611765273835e-06
5.63000e-06	2.997774056274594e-05
5.63025e-06	4.847372889190803e-05
5.63050e-06	6.568194765757792e-05
5.63075e-06	8.225561259488787e-05
5.63100e-06	9.86161316554394e-05
5.63125e-06	0.0001147139948069288
5.63150e-06	0.00013037157183030457
5.63175e-06	0.00014579294398041958
5.63200e-06	0.000160275788543155
5.63225e-06	0.00017453923842451565
5.63250e-06	0.00018793095370496225
5.63275e-06	0.00020132266898536345
5.63300e-06	0.00021469705471394553
5.63325e-06	0.0002280025838511326
5.63350e-06	0.0002413081129882746
5.63375e-06	0.00025461364212541664
5.63400e-06	0.0002677780750816294
5.63425e-06	0.00028038188176262907
5.63450e-06	0.00029298568844362877
5.63475e-06	0.0003055894951246712
5.63500e-06	0.00031815788984078717
5.63525e-06	0.00033058557998338726
5.63550e-06	0.00034301327012602954
5.63575e-06	0.00035544096026862964
5.63600e-06	0.0003678686504112719
5.63625e-06	0.00038029634055387207
5.63650e-06	0.00039216761379166426
5.63675e-06	0.00040380163718613574
5.63700e-06	0.0004154356605805678
5.63725e-06	0.0004270696839749998
5.63750e-06	0.0004387037073694713
5.63775e-06	0.00045017023061922457
5.63800e-06	0.0004609712150744971
5.63825e-06	0.0004716209034133748
5.63850e-06	0.00048166943743601894
5.63875e-06	0.0004915872741791559
5.63900e-06	0.0005009858032524112
5.63925e-06	0.0005102650053700298
5.63950e-06	0.0005189721401299414
5.63975e-06	0.0005271783825995083
5.64000e-06	0.00053481376031149
5.64025e-06	0.0005417603725734304
5.64050e-06	0.0005476747548737701
5.64075e-06	0.0005520267915888519
5.64100e-06	0.0005544892227707644
5.64125e-06	0.0005550303925337128
5.64150e-06	0.0005537035842952117
5.64175e-06	0.0005505621627764187
5.64200e-06	0.0005454769650777494
5.64225e-06	0.0005382935867482489
