Time(s)	Current(A)
4.00000e-06	0.0012230575053569733
4.00025e-06	0.0012021184206067199
4.00050e-06	0.0011811793358564666
4.00075e-06	0.0011585323342845936
4.00100e-06	0.0011355592777941056
4.00125e-06	0.0011125862213036174
4.00150e-06	0.0010896131648130514
4.00175e-06	0.0010666401083225634
4.00200e-06	0.0010436670518320752
4.00225e-06	0.0010206939953415091
4.00250e-06	0.000997720938851021
4.00275e-06	0.0009747478823605329
4.00300e-06	0.0009523320550237403
4.00325e-06	0.0009309993771401483
4.00350e-06	0.0009096666992565564
4.00375e-06	0.0008883340213728921
4.00400e-06	0.0008670013434893002
4.00425e-06	0.0008456686656056359
4.00450e-06	0.000824335987722044
4.00475e-06	0.0008076023373775838
4.00500e-06	0.0007917466780049946
4.00525e-06	0.000775891018632459
4.00550e-06	0.0007600353592599234
4.00575e-06	0.000744179699887334
4.00600e-06	0.0007283240405147985
4.00625e-06	0.000714655159006521
4.00650e-06	0.0007052369654451537
4.00675e-06	0.0006958187718838182
4.00700e-06	0.0006879672097893744
4.00725e-06	0.0006831608868124113
4.00750e-06	0.0006783545638354645
4.00775e-06	0.000675173400043525
4.00800e-06	0.0006751512423272706
4.00825e-06	0.0006751290846110162
4.00850e-06	0.0006766476493009054
4.00875e-06	0.0006811610907306894
4.00900e-06	0.0006856745321604733
4.00925e-06	0.0006916030789041672
4.00950e-06	0.0007002823262102061
4.00975e-06	0.000708961573516245
4.01000e-06	0.0007188881269047835
4.01025e-06	0.0007312392104740122
4.01050e-06	0.0007435902940432408
4.01075e-06	0.0007573612922986978
4.01100e-06	0.0007738923396383249
4.01125e-06	0.000790423386977952
4.01150e-06	0.0008069544343176352
4.01175e-06	0.0008234854816572622
4.01200e-06	0.0008400165289968893
4.01225e-06	0.0008565475763365725
4.01250e-06	0.0008750505958255258
4.01275e-06	0.0008939300804973976
4.01300e-06	0.0009128095651692055
4.01325e-06	0.0009316890498410133
4.01350e-06	0.0009505685345128853
4.01375e-06	0.0009694480191846931
4.01400e-06	0.0009876585977453497
4.01425e-06	0.0010045689476956014
4.01450e-06	0.0010214792976457959
4.01475e-06	0.00103838964759599
4.01500e-06	0.0010552999975462418
4.01525e-06	0.0010712465067073335
4.01550e-06	0.0010853194893017044
4.01575e-06	0.001099392471896123
4.01600e-06	0.0011134654544904937
4.01625e-06	0.0011275384370848646
4.01650e-06	0.0011435641099932913
4.01675e-06	0.0011633854483488325
4.01700e-06	0.0011832067867044408
4.01725e-06	0.0012047492749756817
4.01750e-06	0.0012296373573830966
4.01775e-06	0.001254525439790596
4.01800e-06	0.0012816895254269365
4.01825e-06	0.0013132777364616714
4.01850e-06	0.0013448659474965135
4.01875e-06	0.0013791617245897446
4.01900e-06	0.0014187205046588972
4.01925e-06	0.0014582792847281838
4.01950e-06	0.0014998107784456134
4.01975e-06	0.0015451768592338881
4.02000e-06	0.0015905429400223164
4.02025e-06	0.0016388913741000788
4.02050e-06	0.0016930369462340282
4.02075e-06	0.0017471825183681612
4.02100e-06	0.0018013280905021106
4.02125e-06	0.0018554736626360602
4.02150e-06	0.0019096192347701933
4.02175e-06	0.0019637648069041427
4.02200e-06	0.0020219571448922024
4.02225e-06	0.0020809220426990147
4.02250e-06	0.0021398869405058274
4.02275e-06	0.0021988518383128396
4.02300e-06	0.002257816736119652
4.02325e-06	0.0023167816339264647
4.02350e-06	0.002373826506213303
4.02375e-06	0.002427139207314775
4.02400e-06	0.002480451908416248
4.02425e-06	0.0025337646095179014
4.02450e-06	0.0025870773106193737
4.02475e-06	0.0026403900117208464
4.02500e-06	0.0026937027128225
4.02525e-06	0.002731480110132572
4.02550e-06	0.002766291694268242
4.02575e-06	0.00280110327840403
4.02600e-06	0.0028359148625396995
4.02625e-06	0.0028707264466754875
4.02650e-06	0.002905538030811157
4.02675e-06	0.002933221285666142
4.02700e-06	0.002947048399100861
4.02725e-06	0.0029608755125355335
4.02750e-06	0.002969821493370788
4.02775e-06	0.0029692794636323595
4.02800e-06	0.0029687374338939333
4.02825e-06	0.0029632625457078664
4.02850e-06	0.0029481991015553413
4.02875e-06	0.002933135657402867
4.02900e-06	0.0029135303305052643
4.02925e-06	0.002885096431420441
4.02950e-06	0.002856662532335714
4.02975e-06	0.0028241697623633123
4.03000e-06	0.00278378730508699
4.03025e-06	0.0027434048478108047
4.03050e-06	0.002698324433874233
4.03075e-06	0.0026441120691956515
4.03100e-06	0.00258989970451707
4.03125e-06	0.0025356873398383046
4.03150e-06	0.002481474975159723
4.03175e-06	0.0024272626104811417
4.03200e-06	0.0023698379704480054
4.03225e-06	0.0023061692667876365
4.03250e-06	0.0022425005631272676
4.03275e-06	0.0021788318594666827
4.03300e-06	0.002115163155806314
4.03325e-06	0.002051494452145945
4.03350e-06	0.0019885677534047285
4.03375e-06	0.0019270833737108628
4.03400e-06	0.001865598994016997
4.03425e-06	0.001804114614322923
4.03450e-06	0.001742630234629057
4.03475e-06	0.001685377930959254
4.03500e-06	0.0016363519930444057
4.03525e-06	0.0015873260551295574
4.03550e-06	0.001538300117214543
4.03575e-06	0.0014892741792996945
4.03600e-06	0.0014448672291262879
4.03625e-06	0.0014094387288575596
4.03650e-06	0.001376805460997083
4.03675e-06	0.0013496056031288288
4.03700e-06	0.0013253366591557277
4.03725e-06	0.0013067648646570159
4.03750e-06	0.001291261702147042
4.03775e-06	0.0012817233873761026
4.03800e-06	0.0012752000805495195
4.03825e-06	0.0012745373863300197
4.03850e-06	0.001276682816435023
4.03875e-06	0.001284286716010793
4.03900e-06	0.0012945719957647736
4.03925e-06	0.001310069378029358
4.03950e-06	0.0013281226815628322
4.03975e-06	0.001351144218907813
4.04000e-06	0.001376981038359021
4.04025e-06	0.0014082902406724442
4.04050e-06	0.0014395994429859734
4.04075e-06	0.001473643946115248
4.04100e-06	0.0015130053634087965
4.04125e-06	0.0015523667807024785
4.04150e-06	0.0015944056565535393
4.04175e-06	0.0016416490120164876
4.04200e-06	0.0016888923674795962
4.04225e-06	0.0017361357229425448
4.04250e-06	0.0017833790784054933
4.04275e-06	0.0018306224338686017
4.04300e-06	0.00187847190712599
4.04325e-06	0.0019274995602267461
4.04350e-06	0.001976527213327336
4.04375e-06	0.0020255548664279257
4.04400e-06	0.002074582519528682
4.04425e-06	0.0021236101726292717
4.04450e-06	0.0021690235738543117
4.04475e-06	0.002207411544136913
4.04500e-06	0.002245799514419384
4.04525e-06	0.0022841874847018555
4.04550e-06	0.0023225754549844567
4.04575e-06	0.0023609634252669282
4.04600e-06	0.0023993513955493993
4.04625e-06	0.002417261498915245
4.04650e-06	0.002431262214459839
4.04675e-06	0.0024452629300044334
4.04700e-06	0.002459263645549075
4.04725e-06	0.002473264361093669
4.04750e-06	0.002487265076638311
4.04775e-06	0.0024939024820209337
4.04800e-06	0.00248622698702224
4.04825e-06	0.0024785514920235207
4.04850e-06	0.002466192329563059
4.04875e-06	0.002444728991898256
4.04900e-06	0.0024232656542333805
4.04925e-06	0.002397601660964396
4.04950e-06	0.002363772377374278
4.04975e-06	0.0023299430937840453
4.05000e-06	0.002292378608131902
4.05025e-06	0.0022475535869543716
4.05050e-06	0.0022027285657766895
4.05075e-06	0.00215394768920499
4.05100e-06	0.002097477368221641
4.05125e-06	0.0020410070472381
4.05150e-06	0.001984536726254751
4.05175e-06	0.0019280664052712107
4.05200e-06	0.0018715960842878615
4.05225e-06	0.0018089036694831598
4.05250e-06	0.001745023407433162
4.05275e-06	0.0016811431453833806
4.05300e-06	0.0016172628833335994
4.05325e-06	0.0015533826212836015
4.05350e-06	0.0014902409836703835
4.05375e-06	0.001428535094076183
4.05400e-06	0.0013668292044817735
4.05425e-06	0.0013051233148875729
4.05450e-06	0.0012434174252933723
4.05475e-06	0.001190361040381897
4.05500e-06	0.001138955914773831
4.05525e-06	0.0010875507891657647
4.05550e-06	0.0010361456635575245
4.05575e-06	0.0009885299572425787
4.05600e-06	0.0009482801746280324
4.05625e-06	0.0009095136742109315
4.05650e-06	0.0008736303974876062
4.05675e-06	0.0008391503722387885
4.05700e-06	0.0008073980058990007
4.05725e-06	0.0007773676792553726
4.05750e-06	0.0007506846763121091
4.05775e-06	0.000725776437443635
4.05800e-06	0.0007043180086249026
4.05825e-06	0.0006840135249516335
4.05850e-06	0.000665952095223811
4.05875e-06	0.000648953655403871
4.05900e-06	0.0006340214695267058
4.05925e-06	0.0006203111288573358
4.05950e-06	0.0006089758271787081
4.05975e-06	0.0005990612792670164
4.06000e-06	0.0005919084114531114
4.06025e-06	0.000584755543639182
4.06050e-06	0.0005786928863948958
4.06075e-06	0.0005747493949782229
4.06100e-06	0.0005708059035615366
4.06125e-06	0.0005679690737487827
4.06150e-06	0.000567283387503222
4.06175e-06	0.0005665977012576591
4.06200e-06	0.0005667306714696553
4.06225e-06	0.0005684549570088949
4.06250e-06	0.0005701792425481404
4.06275e-06	0.0005725288288688881
4.06300e-06	0.000576093883178132
4.06325e-06	0.0005796589374873881
4.06350e-06	0.0005832239917966321
4.06375e-06	0.0005867890461058761
4.06400e-06	0.0005903541004151321
4.06425e-06	0.0005940132637360384
4.06450e-06	0.000597855357407413
4.06475e-06	0.0006016974510787747
4.06500e-06	0.0006055395447501363
4.06525e-06	0.0006093816384215108
4.06550e-06	0.0006132237320928725
4.06575e-06	0.0006156507726037715
4.06600e-06	0.0006153272139321275
4.06625e-06	0.0006150036552604847
4.06650e-06	0.0006146800965888418
4.06675e-06	0.0006143565379171978
4.06700e-06	0.000614032979245555
4.06725e-06	0.0006137094205739121
4.06750e-06	0.0006133858619022681
4.06775e-06	0.0006130623032306253
4.06800e-06	0.0006127387445589824
4.06825e-06	0.0006124151858873386
4.06850e-06	0.0006120916272156957
4.06875e-06	0.0006059358064601384
4.06900e-06	0.000598666560442334
4.06925e-06	0.0005913973144245296
4.06950e-06	0.0005841280684067006
4.06975e-06	0.0005768588223888962
4.07000e-06	0.0005695895763710918
4.07025e-06	0.0005623203303532628
4.07050e-06	0.0005550510843354584
4.07075e-06	0.000547781838317654
4.07100e-06	0.000540512592299825
4.07125e-06	0.0005332433462820206
4.07150e-06	0.0005248434415506364
4.07175e-06	0.0005142457473510711
4.07200e-06	0.0005036480531515415
4.07225e-06	0.0004930503589520121
4.07250e-06	0.00048245266475244663
4.07275e-06	0.0004718549705529171
4.07300e-06	0.0004612572763533517
4.07325e-06	0.000450813912239869
4.07350e-06	0.0004404000109684245
4.07375e-06	0.00042998610969694466
4.07400e-06	0.00041957220842550017
4.07425e-06	0.0004091583071540556
4.07450e-06	0.00039874440588257584
4.07475e-06	0.00038879472158813764
4.07500e-06	0.00037974738843703557
4.07525e-06	0.0003710770795757257
4.07550e-06	0.0003631396355510064
4.07575e-06	0.00035565484707352494
4.07600e-06	0.0003497400988897846
4.07625e-06	0.0003461741378741116
4.07650e-06	0.00034564812477862867
4.07675e-06	0.00034826637912352746
4.07700e-06	0.00035390788773723364
4.07725e-06	0.000362451665441093
4.07750e-06	0.00037377669906349116
4.07775e-06	0.0003878309514504946
4.07800e-06	0.00040482771099827666
4.07825e-06	0.000425218939048786
4.07850e-06	0.00044927238026652776
4.07875e-06	0.0004768881105896081
4.07900e-06	0.0005078251503016536
4.07925e-06	0.0005418424801408167
4.07950e-06	0.0005791349464980656
4.07975e-06	0.0006190444180229449
4.08000e-06	0.0006607794106002734
4.08025e-06	0.0007060628753153116
4.08050e-06	0.000753096773579382
4.08075e-06	0.0008035331878919532
4.08100e-06	0.0008555596052147365
4.08125e-06	0.000910676691566896
4.08150e-06	0.0009657937779192424
4.08175e-06	0.001022353929754077
4.08200e-06	0.001081719131495534
4.08225e-06	0.001141084333237192
4.08250e-06	0.0012004495349786492
4.08275e-06	0.001259814736720106
4.08300e-06	0.0013190175398621648
4.08325e-06	0.0013779046704430072
4.08350e-06	0.0014367918010238497
4.08375e-06	0.0014956789316048918
4.08400e-06	0.0015545660621857343
4.08425e-06	0.0016114920422954217
4.08450e-06	0.0016646059119974244
4.08475e-06	0.001717719781699247
4.08500e-06	0.0017680852873022878
4.08525e-06	0.0018131084861628274
4.08550e-06	0.0018581316850232144
4.08575e-06	0.0018995500509938494
4.08600e-06	0.0019339612947777804
4.08625e-06	0.001968372538561711
4.08650e-06	0.0020027837823457587
4.08675e-06	0.00203719502612969
4.08700e-06	0.0020716062699136207
4.08725e-06	0.0021031288412582
4.08750e-06	0.0021290363726388533
4.08775e-06	0.0021549439040195067
4.08800e-06	0.0021808514354002477
4.08825e-06	0.002206758966780901
4.08850e-06	0.0022326664981615544
4.08875e-06	0.0022575457608073027
4.08900e-06	0.002278636428882989
4.08925e-06	0.0022962479974696854
4.08950e-06	0.002313859566056441
4.08975e-06	0.002331471134643137
4.09000e-06	0.002349082703229893
4.09025e-06	0.0023666942718165887
4.09050e-06	0.002384305840403285
4.09075e-06	0.0024019174089900406
4.09100e-06	0.002419528977576737
4.09125e-06	0.002437140546163433
4.09150e-06	0.0024547521147501887
4.09175e-06	0.0024723636833368845
4.09200e-06	0.0024899752519235807
4.09225e-06	0.0025075868205103363
4.09250e-06	0.0025194434065187537
4.09275e-06	0.0025302013205387077
4.09300e-06	0.0025409592345586986
4.09325e-06	0.0025517171485786526
4.09350e-06	0.0025624750625986067
4.09375e-06	0.0025732329766185976
4.09400e-06	0.0025839908906385516
4.09425e-06	0.002594748804658542
4.09450e-06	0.0026055067186784965
4.09475e-06	0.0026162646326984506
4.09500e-06	0.0026270225467184415
4.09525e-06	0.0026377804607383955
4.09550e-06	0.0026485383747583495
4.09575e-06	0.00265311757381364
4.09600e-06	0.002645686504424654
4.09625e-06	0.0026382554350356685
4.09650e-06	0.002630824365646658
4.09675e-06	0.002623393296257672
4.09700e-06	0.0026159622268686865
4.09725e-06	0.0026085311574796754
4.09750e-06	0.00260110008809069
4.09775e-06	0.002593669018701704
4.09800e-06	0.0025862379493126935
4.09825e-06	0.002567528730996099
4.09850e-06	0.0025268968965783795
4.09875e-06	0.0024862650621607983
4.09900e-06	0.0024456332277432167
4.09925e-06	0.0024050013933254975
4.09950e-06	0.002364369558907916
4.09975e-06	0.0023237377244903342
4.10000e-06	0.002283105890072615
4.10025e-06	0.0022424740556550335
4.10050e-06	0.002201842221237452
4.10075e-06	0.0021542871070858514
4.10100e-06	0.002093274429576194
4.10125e-06	0.0020322617520665363
4.10150e-06	0.001971249074556672
4.10175e-06	0.0019102363970470147
4.10200e-06	0.001849223719537357
4.10225e-06	0.0017838520572282953
4.10250e-06	0.001717648230020536
4.10275e-06	0.0016514444028125526
4.10300e-06	0.0015852405756047936
4.10325e-06	0.0015190367483970345
4.10350e-06	0.0014539937161395385
4.10375e-06	0.0013912070525675688
4.10400e-06	0.0013284203889955988
4.10425e-06	0.0012656337254234162
4.10450e-06	0.0012028470618514464
4.10475e-06	0.001148997765053289
4.10500e-06	0.0010968546827199851
4.10525e-06	0.0010447116003868577
4.10550e-06	0.0009925685180537302
4.10575e-06	0.0009443850302887062
4.10600e-06	0.0009038982551828871
4.10625e-06	0.0008654103005173535
4.10650e-06	0.0008308076796454987
4.10675e-06	0.0007981831868974861
4.10700e-06	0.0007694038059425866
4.10725e-06	0.000742860668257866
4.10750e-06	0.0007206643700255639
4.10775e-06	0.0007007668764485375
4.10800e-06	0.0006853378299778656
4.10825e-06	0.0006717472162495515
4.10850e-06	0.0006617301725714275
4.10875e-06	0.0006534319258387978
4.10900e-06	0.0006484746995009328
4.10925e-06	0.0006452912683680317
4.10950e-06	0.0006455557639792225
4.10975e-06	0.0006475265600771431
4.11000e-06	0.0006528140857868795
4.11025e-06	0.0006594128795449131
4.11050e-06	0.0006685605335995995
4.11075e-06	0.0006791053029469432
4.11100e-06	0.0006923658036077302
4.11125e-06	0.0007056263042685622
4.11150e-06	0.0007203678989293394
4.11175e-06	0.0007379884638334033
4.11200e-06	0.000755609028737527
4.11225e-06	0.0007742716800234099
4.11250e-06	0.0007949599526973789
4.11275e-06	0.0008156482253714179
4.11300e-06	0.0008363364980453869
4.11325e-06	0.0008570247707193558
4.11350e-06	0.0008777130433933949
4.11375e-06	0.0008983056332460227
4.11400e-06	0.000918879956486358
4.11425e-06	0.000939454279726763
4.11450e-06	0.0009600286029670983
4.11475e-06	0.0009806029262074336
4.11500e-06	0.000998642581366314
4.11525e-06	0.0010117553149503866
4.11550e-06	0.0010248680485345036
4.11575e-06	0.0010379807821185763
4.11600e-06	0.001051093515702649
4.11625e-06	0.0010642062492867658
4.11650e-06	0.0010773189828708384
4.11675e-06	0.001090431716454911
4.11700e-06	0.001103544450039028
4.11725e-06	0.0011166571836231007
4.11750e-06	0.0011297699172071734
4.11775e-06	0.0011359070507822075
4.11800e-06	0.0011407124867852745
4.11825e-06	0.0011455179227883414
4.11850e-06	0.0011503233587914247
4.11875e-06	0.0011551287947944918
4.11900e-06	0.0011599342307975589
4.11925e-06	0.0011647396668006422
4.11950e-06	0.001169545102803709
4.11975e-06	0.0011743505388067924
4.12000e-06	0.0011791559748098594
4.12025e-06	0.0011822386169211857
4.12050e-06	0.0011819724693211413
4.12075e-06	0.001181706321721098
4.12100e-06	0.0011814401741210546
4.12125e-06	0.0011811740265210101
4.12150e-06	0.0011809078789209667
4.12175e-06	0.0011806417313209234
4.12200e-06	0.001180375583720879
4.12225e-06	0.0011801094361208356
4.12250e-06	0.0011798432885207922
4.12275e-06	0.0011795771409207477
4.12300e-06	0.0011778156918937238
4.12325e-06	0.0011757687779208013
4.12350e-06	0.001173721863947872
4.12375e-06	0.0011716749499749496
4.12400e-06	0.0011696280360020202
4.12425e-06	0.0011675811220290978
4.12450e-06	0.0011655342080561753
4.12475e-06	0.0011634872940832462
4.12500e-06	0.0011614403801103238
4.12525e-06	0.0011593934661374013
4.12550e-06	0.0011592752040855293
4.12575e-06	0.0011629058813236355
4.12600e-06	0.0011665365585617417
4.12625e-06	0.0011701672357998603
4.12650e-06	0.0011737979130379665
4.12675e-06	0.0011774285902760727
4.12700e-06	0.0011810592675141913
4.12725e-06	0.0011846899447522975
4.12750e-06	0.0011883206219904037
4.12775e-06	0.0011919512992285223
4.12800e-06	0.0011955819764666285
4.12825e-06	0.001199212653704747
4.12850e-06	0.0012028433309428533
4.12875e-06	0.0012177544943707227
4.12900e-06	0.0012348191924112682
4.12925e-06	0.0012518838904517558
4.12950e-06	0.0012689485884922434
4.12975e-06	0.001286013286532789
4.13000e-06	0.0013030779845732768
4.13025e-06	0.0013201426826137644
4.13050e-06	0.00133720738065431
4.13075e-06	0.0013542720786947975
4.13100e-06	0.0013713367767352854
4.13125e-06	0.0013884014747758309
4.13150e-06	0.0014054661728163185
4.13175e-06	0.001424539374471509
4.13200e-06	0.001447516732201851
4.13225e-06	0.0014704940899321153
4.13250e-06	0.0014934714476624574
4.13275e-06	0.0015164488053927216
4.13300e-06	0.0015394261631229858
4.13325e-06	0.0015624035208533279
4.13350e-06	0.0015853808785835921
4.13375e-06	0.0016061397681456416
4.13400e-06	0.0016264751344742725
4.13425e-06	0.0016468105008028344
4.13450e-06	0.0016671458671313963
4.13475e-06	0.0016874812334600271
4.13500e-06	0.001707816599788589
4.13525e-06	0.001728151966117151
4.13550e-06	0.0017451370466180943
4.13575e-06	0.0017556097969093213
4.13600e-06	0.001766082547200548
4.13625e-06	0.0017765552974918105
4.13650e-06	0.0017870280477830373
4.13675e-06	0.0017975007980742996
4.13700e-06	0.0018079735483655266
4.13725e-06	0.0018184462986567534
4.13750e-06	0.0018289190489480158
4.13775e-06	0.0018393917992392426
4.13800e-06	0.0018498645495304696
4.13825e-06	0.0018603372998217318
4.13850e-06	0.0018708100501129588
4.13875e-06	0.0018738045702017614
4.13900e-06	0.0018753714366145256
4.13925e-06	0.0018769383030272848
4.13950e-06	0.0018785051694400437
4.13975e-06	0.0018800720358528081
4.14000e-06	0.001881638902265567
4.14025e-06	0.0018832057686783263
4.14050e-06	0.0018847726350910904
4.14075e-06	0.0018863395015038496
4.14100e-06	0.001887906367916614
4.14125e-06	0.001889473234329373
4.14150e-06	0.001891040100742132
4.14175e-06	0.0018912885326053408
4.14200e-06	0.0018889741738330739
4.14225e-06	0.001886659815060807
4.14250e-06	0.0018843454562885323
4.14275e-06	0.0018820310975162656
4.14300e-06	0.0018797167387439987
4.14325e-06	0.001877402379971724
4.14350e-06	0.0018750880211994571
4.14375e-06	0.0018727736624271902
4.14400e-06	0.0018704593036549155
4.14425e-06	0.0018681449448826487
4.14450e-06	0.0018648013729729161
4.14475e-06	0.0018612613160822297
4.14500e-06	0.0018577212591915553
4.14525e-06	0.0018541812023008689
4.14550e-06	0.0018506411454101944
4.14575e-06	0.0018471010885195201
4.14600e-06	0.0018435610316288335
4.14625e-06	0.0018400209747381593
4.14650e-06	0.0018364809178474848
4.14675e-06	0.0018329408609567984
4.14700e-06	0.0018261625269956614
4.14725e-06	0.0018130895869403803
4.14750e-06	0.0018000166468850553
4.14775e-06	0.0017869437068297742
