Time(s)	Current(A)
2.25000e-06	-0.008199375257733876
2.25025e-06	-0.00821738229504838
2.25050e-06	-0.008235389332362885
2.25075e-06	-0.008253396369677358
2.25100e-06	-0.008271403406991864
2.25125e-06	-0.008289410444306368
2.25150e-06	-0.008301373266815652
2.25175e-06	-0.008313126727038678
2.25200e-06	-0.008324880187261706
2.25225e-06	-0.008336633647484732
2.25250e-06	-0.008348387107707737
2.25275e-06	-0.008355459817357053
2.25300e-06	-0.00835717997015237
2.25325e-06	-0.00835890012294768
2.25350e-06	-0.008354849996424081
2.25375e-06	-0.008344201409326353
2.25400e-06	-0.008333552822228644
2.25425e-06	-0.008322904235130917
2.25450e-06	-0.008312255648033189
2.25475e-06	-0.008301607060935462
2.25500e-06	-0.008283228247476815
2.25525e-06	-0.008256009724351953
2.25550e-06	-0.008228791201227091
2.25575e-06	-0.008201572678102276
2.25600e-06	-0.008174354154977415
2.25625e-06	-0.008147135631852553
2.25650e-06	-0.008114157908692679
2.25675e-06	-0.008074594394400506
2.25700e-06	-0.008035030880108266
2.25725e-06	-0.007995467365816026
2.25750e-06	-0.007955903851523853
2.25775e-06	-0.007913244220489982
2.25800e-06	-0.007867044101531032
2.25825e-06	-0.00782084398257216
2.25850e-06	-0.00777464386361321
2.25875e-06	-0.00772844374465426
2.25900e-06	-0.007681364017451778
2.25925e-06	-0.007633278435940601
2.25950e-06	-0.007585409117705813
2.25975e-06	-0.007537787102006069
2.26000e-06	-0.007490864601876707
2.26025e-06	-0.007444742015522094
2.26050e-06	-0.0073993970428270755
2.26075e-06	-0.007355619517016369
2.26100e-06	-0.007313437426785649
2.26125e-06	-0.007273705523356785
2.26150e-06	-0.007235703371360888
2.26175e-06	-0.007200163753137446
2.26200e-06	-0.007167440104663826
2.26225e-06	-0.007137263605277699
2.26250e-06	-0.007109999835397808
2.26275e-06	-0.00708510779261063
2.26300e-06	-0.007062927879834875
2.26325e-06	-0.007043949373204328
2.26350e-06	-0.007028631755599224
2.26375e-06	-0.007013314137994094
2.26400e-06	-0.007003752027329166
2.26425e-06	-0.007000771484649541
2.26450e-06	-0.006997790941969912
2.26475e-06	-0.006994810399290283
2.26500e-06	-0.006991829856610654
2.26525e-06	-0.006988849313931029
2.26550e-06	-0.006992399103926814
2.26575e-06	-0.007003416494764093
2.26600e-06	-0.007014433885601352
2.26625e-06	-0.00702545127643863
2.26650e-06	-0.007036468667275909
2.26675e-06	-0.007047486058113168
2.26700e-06	-0.007063276737547431
2.26725e-06	-0.0070845257934098555
2.26750e-06	-0.00710577484927228
2.26775e-06	-0.007127023905134667
2.26800e-06	-0.007148272960997092
2.26825e-06	-0.007169522016859516
2.26850e-06	-0.0071907710727219035
2.26875e-06	-0.007216311387270462
2.26900e-06	-0.0072420003444068765
2.26925e-06	-0.00726768930154329
2.26950e-06	-0.0072933782586796616
2.26975e-06	-0.007319067215816075
2.27000e-06	-0.00734475617295249
2.27025e-06	-0.007369907470100085
2.27050e-06	-0.007394443939430475
2.27075e-06	-0.007418980408760866
2.27100e-06	-0.007442349280880533
2.27125e-06	-0.0074643829760120736
2.27150e-06	-0.007485079010546101
2.27175e-06	-0.007504245396301044
2.27200e-06	-0.007521528738278576
2.27225e-06	-0.007536658771995135
2.27250e-06	-0.007548940778032716
2.27275e-06	-0.007557965992272663
2.27300e-06	-0.007563163531173963
2.27325e-06	-0.007563984026362199
2.27350e-06	-0.007564804521550436
2.27375e-06	-0.00756109148963797
2.27400e-06	-0.0075521942546418
2.27425e-06	-0.007543297019645631
2.27450e-06	-0.00752943351375498
2.27475e-06	-0.0075098909512901066
2.27500e-06	-0.007490348388825234
2.27525e-06	-0.007465194012180489
2.27550e-06	-0.007433622383861591
2.27575e-06	-0.007402050755542692
2.27600e-06	-0.007370479127223793
2.27625e-06	-0.007338907498904948
2.27650e-06	-0.0072955962054760464
2.27675e-06	-0.007251878268139027
2.27700e-06	-0.007208160330802082
2.27725e-06	-0.007164442393465063
2.27750e-06	-0.00711765148760714
2.27775e-06	-0.007067346564400572
2.27800e-06	-0.007016076005569914
2.27825e-06	-0.0069631665881839866
2.27850e-06	-0.006909188950597993
2.27875e-06	-0.006854356723578716
2.27900e-06	-0.00679896152768124
2.27925e-06	-0.006743323458271332
2.27950e-06	-0.00668776313873518
2.27975e-06	-0.006632600509556543
2.28000e-06	-0.006578145238539893
2.28025e-06	-0.006524674524966082
2.28050e-06	-0.006472443395322809
2.28075e-06	-0.006421739339540503
2.28100e-06	-0.006372898901947286
2.28125e-06	-0.006326275953942021
2.28150e-06	-0.006282224863764192
2.28175e-06	-0.006241099999653521
2.28200e-06	-0.006203204678247472
2.28225e-06	-0.0061686474101229375
2.28250e-06	-0.006137314873847817
2.28275e-06	-0.006109098855719131
2.28300e-06	-0.006084041278142434
2.28325e-06	-0.006062250640197582
2.28350e-06	-0.006043835440964564
2.28375e-06	-0.006028904396764205
2.28400e-06	-0.006018337134289688
2.28425e-06	-0.006010599007847845
2.28450e-06	-0.006005879877641972
2.28475e-06	-0.006004613046109852
2.28500e-06	-0.006007909008849742
2.28525e-06	-0.006016422642425451
2.28550e-06	-0.006024936276001146
2.28575e-06	-0.006033449909576855
2.28600e-06	-0.006041963543152565
2.28625e-06	-0.006061912393469654
2.28650e-06	-0.00608225734207267
2.28675e-06	-0.006102602290675722
2.28700e-06	-0.006122947239278772
2.28725e-06	-0.0061467363003435286
2.28750e-06	-0.00617446379125541
2.28775e-06	-0.006202191282167291
2.28800e-06	-0.0062318708994500115
2.28825e-06	-0.00626378282268964
2.28850e-06	-0.006295694745929268
2.28875e-06	-0.006328593811638216
2.28900e-06	-0.006362621699767313
2.28925e-06	-0.006396649587896468
2.28950e-06	-0.006430852391124995
2.28975e-06	-0.006465255214200588
2.29000e-06	-0.0064993332621900565
2.29025e-06	-0.0065330399216411835
2.29050e-06	-0.006565927148567168
2.29075e-06	-0.006597877333642517
2.29100e-06	-0.006625851337527336
2.29125e-06	-0.006649278477495016
2.29150e-06	-0.006672705617462657
2.29175e-06	-0.006696132757430336
2.29200e-06	-0.006719559897398016
2.29225e-06	-0.006742987037365656
2.29250e-06	-0.0067664141773333365
2.29275e-06	-0.006789841317301017
2.29300e-06	-0.006813268457268697
2.29325e-06	-0.006836695597236337
2.29350e-06	-0.006857212882776363
2.29375e-06	-0.00687440267606507
2.29400e-06	-0.006891592469353749
2.29425e-06	-0.006908782262642457
2.29450e-06	-0.006925972055931165
2.29475e-06	-0.006943161849219872
2.29500e-06	-0.006960351642508551
2.29525e-06	-0.006977541435797259
2.29550e-06	-0.006994731229085966
2.29575e-06	-0.007011921022374645
2.29600e-06	-0.007028610708582254
2.29625e-06	-0.007044728509673755
2.29650e-06	-0.007060846310765229
2.29675e-06	-0.007076964111856729
2.29700e-06	-0.007093081912948229
2.29725e-06	-0.00710919971403973
2.29750e-06	-0.007125317515131204
2.29775e-06	-0.007140875934800459
2.29800e-06	-0.007155794687642938
2.29825e-06	-0.0071707134404853925
2.29850e-06	-0.007185632193327871
2.29875e-06	-0.00720055094617035
2.29900e-06	-0.00721546969901283
2.29925e-06	-0.007230388451855284
2.29950e-06	-0.007245307204697763
2.29975e-06	-0.007260225957540243
2.30000e-06	-0.00727333533539501
2.30025e-06	-0.007284375647115646
2.30050e-06	-0.0072954159588362825
2.30075e-06	-0.0073064562705569
2.30100e-06	-0.007317496582277536
2.30125e-06	-0.007328536893998172
2.30150e-06	-0.007339577205718808
2.30175e-06	-0.007350617517439426
2.30200e-06	-0.0073616578291600615
2.30225e-06	-0.00737069741011676
2.30250e-06	-0.007377449104761621
2.30275e-06	-0.007384200799406494
2.30300e-06	-0.007390952494051367
2.30325e-06	-0.00739770418869624
2.30350e-06	-0.0074044558833411015
2.30375e-06	-0.007411207577985975
2.30400e-06	-0.007417959272630848
2.30425e-06	-0.0074247109672757085
2.30450e-06	-0.0074314626619205815
2.30475e-06	-0.0074382143565654545
2.30500e-06	-0.007444966051210316
2.30525e-06	-0.007451717745855189
2.30550e-06	-0.007458030196191351
2.30575e-06	-0.007463840359533387
2.30600e-06	-0.007469650522875413
2.30625e-06	-0.007475460686217448
2.30650e-06	-0.007481270849559484
2.30675e-06	-0.00748708101290151
2.30700e-06	-0.007492891176243546
2.30725e-06	-0.007498701339585582
2.30750e-06	-0.007504511502927617
2.30775e-06	-0.007510321666269643
2.30800e-06	-0.0075161318296116785
2.30825e-06	-0.007521941992953715
2.30850e-06	-0.007527752156295741
2.30875e-06	-0.007532792049276415
2.30900e-06	-0.007536951118586048
2.30925e-06	-0.007541110187895674
2.30950e-06	-0.007545269257205307
2.30975e-06	-0.00754942832651494
2.31000e-06	-0.007553587395824572
2.31025e-06	-0.007557746465134198
2.31050e-06	-0.007561905534443831
2.31075e-06	-0.007566064603753465
2.31100e-06	-0.0075702236730630906
2.31125e-06	-0.007574382742372723
2.31150e-06	-0.007578541811682356
2.31175e-06	-0.007582700880991989
2.31200e-06	-0.007586859950301615
2.31225e-06	-0.007591019019611248
2.31250e-06	-0.007592809627682766
2.31275e-06	-0.00759189184032957
2.31300e-06	-0.007590974052976372
2.31325e-06	-0.007590056265623174
2.31350e-06	-0.007589138478269978
2.31375e-06	-0.00758822069091678
2.31400e-06	-0.007587302903563582
2.31425e-06	-0.007586385116210384
2.31450e-06	-0.007585467328857188
2.31475e-06	-0.00758454954150399
2.31500e-06	-0.0075836317541507926
2.31525e-06	-0.007582713966797596
2.31550e-06	-0.007581796179444398
2.31575e-06	-0.0075808783920912
2.31600e-06	-0.007579960604738004
2.31625e-06	-0.007577089970498612
2.31650e-06	-0.007571986206374398
2.31675e-06	-0.007566882442250183
2.31700e-06	-0.007561778678125977
2.31725e-06	-0.0075566749140017625
2.31750e-06	-0.007551571149877548
2.31775e-06	-0.007546467385753342
2.31800e-06	-0.007541363621629127
2.31825e-06	-0.007536259857504913
2.31850e-06	-0.007531156093380698
2.31875e-06	-0.007526052329256492
2.31900e-06	-0.007520948565132277
2.31925e-06	-0.007515692533268398
2.31950e-06	-0.007510262379386897
2.31975e-06	-0.007504832225505387
2.32000e-06	-0.007499402071623877
2.32025e-06	-0.007493971917742376
2.32050e-06	-0.007488541763860866
2.32075e-06	-0.007483111609979356
2.32100e-06	-0.007477681456097846
2.32125e-06	-0.007472251302216345
2.32150e-06	-0.007466821148334835
2.32175e-06	-0.007461390994453324
2.32200e-06	-0.007455960840571823
2.32225e-06	-0.007450373492238284
2.32250e-06	-0.007444606388066713
2.32275e-06	-0.007438839283895142
2.32300e-06	-0.007433072179723581
2.32325e-06	-0.00742730507555201
2.32350e-06	-0.007421537971380439
2.32375e-06	-0.007415770867208878
2.32400e-06	-0.007410003763037308
2.32425e-06	-0.007404236658865737
2.32450e-06	-0.0073984695546941755
2.32475e-06	-0.007392702450522605
2.32500e-06	-0.007383922739159419
2.32525e-06	-0.007375038675725385
2.32550e-06	-0.007366154612291367
2.32575e-06	-0.007357270548857333
2.32600e-06	-0.007348386485423299
2.32625e-06	-0.00733950242198928
2.32650e-06	-0.007330618358555246
2.32675e-06	-0.007321734295121212
2.32700e-06	-0.007312850231687178
2.32725e-06	-0.007303966168253159
2.32750e-06	-0.007294251714105276
2.32775e-06	-0.007283587687140161
2.32800e-06	-0.0072729236601750645
2.32825e-06	-0.007262259633209951
2.32850e-06	-0.007251595606244836
2.32875e-06	-0.00724093157927974
2.32900e-06	-0.007230267552314626
2.32925e-06	-0.007219603525349511
2.32950e-06	-0.007208939498384397
2.32975e-06	-0.007199271929729034
2.33000e-06	-0.007189638876854021
2.33025e-06	-0.007180005823979008
2.33050e-06	-0.007170372771104012
2.33075e-06	-0.007160739718228998
2.33100e-06	-0.007151106665353985
2.33125e-06	-0.007141473612478973
2.33150e-06	-0.0071318405596039755
2.33175e-06	-0.0071231368972062715
2.33200e-06	-0.007115496016363267
2.33225e-06	-0.007107855135520277
2.33250e-06	-0.007099273529338611
2.33275e-06	-0.007089616179901136
2.33300e-06	-0.007079958830463677
2.33325e-06	-0.007068306457941182
2.33350e-06	-0.0070543727259817675
2.33375e-06	-0.007040438994022353
2.33400e-06	-0.007026505262062962
2.33425e-06	-0.007012571530103547
2.33450e-06	-0.006998637798144133
2.33475e-06	-0.006984704066184742
2.33500e-06	-0.0069641477051493
2.33525e-06	-0.006943361946447642
2.33550e-06	-0.006922576187745984
2.33575e-06	-0.006901790429044362
2.33600e-06	-0.006881004670342705
2.33625e-06	-0.006860218911641048
2.33650e-06	-0.006836865283935873
2.33675e-06	-0.006810575232974123
2.33700e-06	-0.006784285182012372
2.33725e-06	-0.006757995131050667
2.33750e-06	-0.0067317050800889166
2.33775e-06	-0.006705415029127166
2.33800e-06	-0.00667675195570311
2.33825e-06	-0.006648006684437648
2.33850e-06	-0.006619261413172137
2.33875e-06	-0.006590516141906626
2.33900e-06	-0.006561770870641163
2.33925e-06	-0.006532964120212195
2.33950e-06	-0.00650408706680238
2.33975e-06	-0.006475628853771186
2.34000e-06	-0.006447649595323348
2.34025e-06	-0.006420282956101452
2.34050e-06	-0.006393616862483774
2.34075e-06	-0.00636775173591799
2.34100e-06	-0.006342802535466616
2.34125e-06	-0.006321169756855721
2.34150e-06	-0.006303329390633393
2.34175e-06	-0.006285489024411035
2.34200e-06	-0.006267648658188677
2.34225e-06	-0.006249808291966318
2.34250e-06	-0.006231967925743991
2.34275e-06	-0.006214127559521633
2.34300e-06	-0.006196287193299275
2.34325e-06	-0.006178446827076947
2.34350e-06	-0.006160606460854589
2.34375e-06	-0.006151515200412965
2.34400e-06	-0.006142726995514006
2.34425e-06	-0.0061339387906150615
2.34450e-06	-0.006125150585716103
2.34475e-06	-0.006116362380817144
2.34500e-06	-0.0061075741759181994
2.34525e-06	-0.0060987859710192405
2.34550e-06	-0.006089997766120282
2.34575e-06	-0.006081209561221337
2.34600e-06	-0.006075319918907058
2.34625e-06	-0.0060727448563369394
2.34650e-06	-0.006070169793766821
2.34675e-06	-0.006067594731196706
2.34700e-06	-0.006065019668626588
2.34725e-06	-0.006062444606056469
2.34750e-06	-0.006059869543486355
2.34775e-06	-0.006057294480916235
2.34800e-06	-0.0060547194183461165
2.34825e-06	-0.006052144355775998
2.34850e-06	-0.0060495692932058835
2.34875e-06	-0.006049741638551552
2.34900e-06	-0.006050009149873937
2.34925e-06	-0.006050276661196321
2.34950e-06	-0.0060505441725187065
2.34975e-06	-0.006050811683841091
2.35000e-06	-0.006051079195163476
2.35025e-06	-0.00605134670648586
2.35050e-06	-0.006051614217808245
2.35075e-06	-0.00605188172913063
2.35100e-06	-0.006052149240453015
2.35125e-06	-0.006052567209022414
2.35150e-06	-0.006053157229265273
2.35175e-06	-0.006053747249508132
2.35200e-06	-0.006054337269750991
2.35225e-06	-0.006054927289993851
2.35250e-06	-0.00605551731023671
2.35275e-06	-0.006056107330479569
2.35300e-06	-0.006056697350722428
2.35325e-06	-0.006057287370965288
2.35350e-06	-0.006060331816442613
2.35375e-06	-0.006063461279428046
2.35400e-06	-0.006066590742413478
2.35425e-06	-0.006069720205398905
2.35450e-06	-0.006072849668384337
2.35475e-06	-0.00607597913136977
2.35500e-06	-0.006079108594355202
2.35525e-06	-0.006082238057340629
2.35550e-06	-0.0060868682145093144
2.35575e-06	-0.006093214453493317
2.35600e-06	-0.0060995606924773085
2.35625e-06	-0.00610590693146131
2.35650e-06	-0.006112253170445312
2.35675e-06	-0.006118599409429314
2.35700e-06	-0.006124945648413305
2.35725e-06	-0.006131291887397307
2.35750e-06	-0.006137638126381309
2.35775e-06	-0.006144723080841708
2.35800e-06	-0.006152652775163129
2.35825e-06	-0.006160582469484549
2.35850e-06	-0.006168512163805956
2.35875e-06	-0.006176441858127377
2.35900e-06	-0.006184371552448797
2.35925e-06	-0.006192301246770217
2.35950e-06	-0.006200230941091624
2.35975e-06	-0.006208160635413045
2.36000e-06	-0.006215823861405609
2.36025e-06	-0.006223182374113717
2.36050e-06	-0.006230540886821838
2.36075e-06	-0.0062378993995299585
2.36100e-06	-0.006244168224831155
2.36125e-06	-0.006250399305039649
2.36150e-06	-0.006256630385248154
2.36175e-06	-0.0062622647461927205
2.36200e-06	-0.006267216743542372
2.36225e-06	-0.006272168740892031
2.36250e-06	-0.006277860443370893
2.36275e-06	-0.006284398017403824
2.36300e-06	-0.006290935591436766
2.36325e-06	-0.0062991865958586255
2.36350e-06	-0.0063093969513363
2.36375e-06	-0.006319607306813956
2.36400e-06	-0.006329817662291629
2.36425e-06	-0.0063400280177693035
2.36450e-06	-0.00635023837324696
2.36475e-06	-0.006360448728724633
2.36500e-06	-0.006373468660248082
2.36525e-06	-0.0063897014131545065
2.36550e-06	-0.006405934166060904
2.36575e-06	-0.0064221669189673284
2.36600e-06	-0.006438399671873753
2.36625e-06	-0.00645463242478015
2.36650e-06	-0.006470865177686575
2.36675e-06	-0.006489387684432479
2.36700e-06	-0.006510528582699868
2.36725e-06	-0.006531669480967294
2.36750e-06	-0.00655281037923472
2.36775e-06	-0.006573951277502145
2.36800e-06	-0.0065950921757695355
2.36825e-06	-0.006616233074036961
2.36850e-06	-0.0066373739723043865
2.36875e-06	-0.006659222082928262
2.36900e-06	-0.006681094690298482
2.36925e-06	-0.006702967297668702
2.36950e-06	-0.006724839905038922
2.36975e-06	-0.006746712512409105
2.37000e-06	-0.006768585119779325
2.37025e-06	-0.006790457727149545
2.37050e-06	-0.006810229684472494
2.37075e-06	-0.006827599495250853
2.37100e-06	-0.006844969306029212
2.37125e-06	-0.006862339116807541
2.37150e-06	-0.0068797089275859
2.37175e-06	-0.006897078738364259
2.37200e-06	-0.006914448549142618
2.37225e-06	-0.006925791902483611
2.37250e-06	-0.006936926508624923
2.37275e-06	-0.006948061114766235
2.37300e-06	-0.006959195720907528
2.37325e-06	-0.00697033032704884
2.37350e-06	-0.006981464933190152
2.37375e-06	-0.006990363546347968
2.37400e-06	-0.006996705244884846
2.37425e-06	-0.0070030469434217354
2.37450e-06	-0.007009192347992905
2.37475e-06	-0.007015821018644198
2.37500e-06	-0.013523295476040283
2.37525e-06	-0.023060130834223664
2.37550e-06	-0.02096966577648506
2.37575e-06	-0.018573304274789957
2.37600e-06	-0.013103944111146702
2.37625e-06	-0.005496597429772901
2.37650e-06	-0.005018268872104633
2.37675e-06	-0.005765933706242251
2.37700e-06	-0.009563226498522816
2.37725e-06	-0.015402601194562113
2.37750e-06	-0.015431763740711073
2.37775e-06	-0.013134733161815789
2.37800e-06	-0.010242176480688583
2.37825e-06	-0.006740174939192767
2.37850e-06	-0.004766354021634572
2.37875e-06	-0.005179936425454847
2.37900e-06	-0.007186115856110547
2.37925e-06	-0.009748678170927453
2.37950e-06	-0.01108696537202718
2.37975e-06	-0.010366485794659513
2.38000e-06	-0.008488198376216675
2.38025e-06	-0.006362231340451446
2.38050e-06	-0.0051514430597603
2.38075e-06	-0.005432547331425046
2.38100e-06	-0.006708143021156951
2.38125e-06	-0.008329574941707512
2.38150e-06	-0.00918187432852048
2.38175e-06	-0.008742760575301906
2.38200e-06	-0.007576905655061443
2.38225e-06	-0.006254346910632562
2.38250e-06	-0.005503099291161122
2.38275e-06	-0.005684122346041334
2.38300e-06	-0.006485869815684009
2.38325e-06	-0.007502188841162555
2.38350e-06	-0.008034858180342575
2.38375e-06	-0.0077569469494704205
2.38400e-06	-0.007022374918484396
2.38425e-06	-0.006188377863212189
2.38450e-06	-0.005711102174586916
2.38475e-06	-0.005816731767072604
2.38500e-06	-0.0063101848538464865
2.38525e-06	-0.0069371328664732815
2.38550e-06	-0.007260322960271578
2.38575e-06	-0.007075103098633667
2.38600e-06	-0.0066033003932975285
2.38625e-06	-0.006068796350395658
2.38650e-06	-0.00575740361705492
2.38675e-06	-0.005810864970561867
2.38700e-06	-0.006107040786219178
2.38725e-06	-0.006486689856976198
2.38750e-06	-0.006676006368585402
2.38775e-06	-0.00654690258475064
2.38800e-06	-0.006238435131506175
2.38825e-06	-0.005890934687940868
2.38850e-06	-0.0056835096219895855
2.38875e-06	-0.00570500982681117
2.38900e-06	-0.005878989226539784
2.38925e-06	-0.006105769327895995
2.38950e-06	-0.0062139202915164485
2.38975e-06	-0.006123300955639231
2.39000e-06	-0.005921108162447664
2.39025e-06	-0.0056953288068460756
2.39050e-06	-0.0055582314856683955
2.39075e-06	-0.005565538367484026
2.39100e-06	-0.005669430248903604
2.39125e-06	-0.005807540293905103
2.39150e-06	-0.005872563851644941
2.39175e-06	-0.005814386828349031
2.39200e-06	-0.005687728130412297
2.39225e-06	-0.005547829823497848
2.39250e-06	-0.0054651349380732015
2.39275e-06	-0.005474570513244442
2.39300e-06	-0.005546111761772547
2.39325e-06	-0.005640596393363804
2.39350e-06	-0.005690717914414962
2.39375e-06	-0.005664998359371993
2.39400e-06	-0.005597626400862628
2.39425e-06	-0.005523116214025513
2.39450e-06	-0.005485499323909184
2.39475e-06	-0.005506557164362418
2.39500e-06	-0.0055673863098445004
2.39525e-06	-0.005643360568121837
2.39550e-06	-0.005692227152261807
2.39575e-06	-0.005694179753775071
2.39600e-06	-0.005670545050003379
2.39625e-06	-0.005642851561915165
2.39650e-06	-0.005638588218861461
