Time(s)	Current(A)
1.42500e-05	0.004577955889901027
1.42503e-05	0.004538749589556235
1.42505e-05	0.00449954328921171
1.42508e-05	0.004460336988866919
1.42510e-05	0.004421130688522128
1.42513e-05	0.004381924388177603
1.42515e-05	0.004342718087832811
1.42518e-05	0.00430351178748802
1.42520e-05	0.004251125308927507
1.42523e-05	0.004186725780920795
1.42525e-05	0.004122326252914082
1.42528e-05	0.004057926724907369
1.42530e-05	0.003993527196901093
1.42533e-05	0.003929127668894381
1.42535e-05	0.0038647281408876683
1.42538e-05	0.003800141403296741
1.42540e-05	0.0037276597958993437
1.42543e-05	0.0036551781885019465
1.42545e-05	0.00358269658110504
1.42548e-05	0.0035102149737076425
1.42550e-05	0.0034377333663102453
1.42553e-05	0.003365251758913339
1.42555e-05	0.0032927701515159417
1.42558e-05	0.0032249306012488792
1.42560e-05	0.0031613220455052188
1.42563e-05	0.003097713489761127
1.42565e-05	0.0030341049340170353
1.42568e-05	0.002970496378273375
1.42570e-05	0.002906887822529283
1.42573e-05	0.0028560735651329008
1.42575e-05	0.002816920647681009
1.42578e-05	0.0027777677302288526
1.42580e-05	0.002738614812776696
1.42583e-05	0.002699461895324805
1.42585e-05	0.0026603089778726484
1.42588e-05	0.00263516202856184
1.42590e-05	0.002622780793424286
1.42593e-05	0.002610399558286648
1.42595e-05	0.00260791445205781
1.42598e-05	0.0026144491545127845
1.42600e-05	0.002620983856967803
1.42603e-05	0.0026375087650996765
1.42605e-05	0.002663139228014266
1.42608e-05	0.0026887696909290294
1.42610e-05	0.002723432051415295
1.42613e-05	0.0027663265185055713
1.42615e-05	0.002809220985596138
1.42618e-05	0.002860149535594642
1.42620e-05	0.002918400735838473
1.42623e-05	0.0029766519360819085
1.42625e-05	0.0030442803578831137
1.42628e-05	0.003120455631207548
1.42630e-05	0.0031966309045314664
1.42633e-05	0.003272806177855901
1.42635e-05	0.0033489814511803357
1.42638e-05	0.003425156724504254
1.42640e-05	0.003501564834786566
1.42643e-05	0.0035877919801191225
1.42645e-05	0.0036740191254510945
1.42648e-05	0.0037602462707836512
1.42650e-05	0.0038464734161162075
1.42653e-05	0.0039327005614481795
1.42655e-05	0.004018927706780737
1.42658e-05	0.004098459659549517
1.42660e-05	0.004171889291239204
1.42663e-05	0.004245318922929389
1.42665e-05	0.004318748554619572
1.42668e-05	0.00439217818630926
1.42670e-05	0.004465607817999443
1.42673e-05	0.004539037449689628
1.42675e-05	0.0046115730211822095
1.42678e-05	0.004646404920090062
1.42680e-05	0.004681236818997914
1.42683e-05	0.00471606871790553
1.42685e-05	0.004750900616813381
1.42688e-05	0.004785732515721233
1.42690e-05	0.004820564414628849
1.42693e-05	0.004855396313536701
1.42695e-05	0.004872530427497155
1.42698e-05	0.004873533927571299
1.42700e-05	0.004874537427645449
1.42703e-05	0.004858341231956763
1.42705e-05	0.004826468404862688
1.42708e-05	0.004794595577768829
1.42710e-05	0.004762722750674754
1.42713e-05	0.004730849923580679
1.42715e-05	0.004698977096486819
1.42718e-05	0.004667104269392744
1.42720e-05	0.004635231442298669
1.42723e-05	0.004585018548226367
1.42725e-05	0.004518089633478178
1.42728e-05	0.004451160718729989
1.42730e-05	0.004384231803982254
1.42733e-05	0.004317302889234065
1.42735e-05	0.004250373974485876
1.42738e-05	0.004183445059738141
1.42740e-05	0.004116516144989951
1.42743e-05	0.004043335530573785
1.42745e-05	0.003964456815871296
1.42748e-05	0.0038855781011682728
1.42750e-05	0.0038066993864652493
1.42753e-05	0.0037278206717627606
1.42755e-05	0.003648941957059737
1.42758e-05	0.0035743691323761673
1.42760e-05	0.0035037209033165722
1.42763e-05	0.0034330726742564984
1.42765e-05	0.003362424445196425
1.42768e-05	0.00329177621613683
1.42770e-05	0.003221127987076756
1.42773e-05	0.0031630235201523652
1.42775e-05	0.0031163520424036142
1.42778e-05	0.003069680564654547
1.42780e-05	0.00302300908690548
1.42783e-05	0.002976337609156729
1.42785e-05	0.0029296661314076617
1.42788e-05	0.0028829946536585945
1.42790e-05	0.0028363231759095274
1.42793e-05	0.0027900642937404405
1.42795e-05	0.0027612050998105857
1.42798e-05	0.0027323459058807313
1.42800e-05	0.002703486711951072
1.42803e-05	0.0026746275180212177
1.42805e-05	0.002645768324091363
1.42808e-05	0.002616909130161704
1.42810e-05	0.0025880499362318497
1.42813e-05	0.002559190742301995
1.42815e-05	0.002537136007006353
1.42818e-05	0.0025212831831528605
1.42820e-05	0.002505430359299368
1.42823e-05	0.0024895775354459825
1.42825e-05	0.00247372471159249
1.42828e-05	0.002457871887738997
1.42830e-05	0.0024420190638856118
1.42833e-05	0.0024261662400321187
1.42835e-05	0.002410313416178626
1.42838e-05	0.0023944605923252407
1.42840e-05	0.002378607768471748
1.42843e-05	0.0023627549446182555
1.42845e-05	0.0023470871651648396
1.42848e-05	0.002339222946959626
1.42850e-05	0.0023313587287544122
1.42853e-05	0.002323494510549252
1.42855e-05	0.0023156302923440387
1.42858e-05	0.002307766074138825
1.42860e-05	0.0022999018559336647
1.42863e-05	0.002292037637728451
1.42865e-05	0.0022841734195232378
1.42868e-05	0.0022763092013180775
1.42870e-05	0.002268444983112864
1.42873e-05	0.00226058076490765
1.42875e-05	0.002252716546702437
1.42878e-05	0.002247806733208996
1.42880e-05	0.0022455897065155137
1.42883e-05	0.0022433726798220316
1.42885e-05	0.0022411556531285646
1.42888e-05	0.0022389386264350824
1.42890e-05	0.0022367215997416002
1.42893e-05	0.0022345045730481333
1.42895e-05	0.002232287546354651
1.42898e-05	0.0022300705196611694
1.42900e-05	0.0022278534929677024
1.42903e-05	0.00222563646627422
1.42905e-05	0.002223419439580738
1.42908e-05	0.002221202412887271
1.42910e-05	0.002218985386193789
1.42913e-05	0.0022167683595003067
1.42915e-05	0.0022145513328068397
1.42918e-05	0.0022123343061133576
1.42920e-05	0.0022102073030353525
1.42923e-05	0.0022118767120549486
1.42925e-05	0.0022135461210745565
1.42928e-05	0.0022152155300941643
1.42930e-05	0.002216884939113761
1.42933e-05	0.0022185543481333682
1.42935e-05	0.002220223757152976
1.42938e-05	0.0022218931661725726
1.42940e-05	0.0022235625751921805
1.42943e-05	0.0022252319842117883
1.42945e-05	0.0022269013932313844
1.42948e-05	0.0022285708022509922
1.42950e-05	0.0022302402112706
1.42953e-05	0.0022319096202901966
1.42955e-05	0.002233579029309804
1.42958e-05	0.002235248438329412
1.42960e-05	0.0022369178473490197
1.42963e-05	0.0022385872563686162
1.42965e-05	0.0022401593334329373
1.42968e-05	0.002241642697463656
1.42970e-05	0.0022431260614943645
1.42973e-05	0.0022446094255250833
1.42975e-05	0.002248343140765328
1.42978e-05	0.0022541279345221913
1.42980e-05	0.0022599127282790935
1.42983e-05	0.0022656975220359957
1.42985e-05	0.002278397120653641
1.42988e-05	0.0022973992055843784
1.42990e-05	0.0023164012905151164
1.42993e-05	0.0023410002731960484
1.42995e-05	0.002370700538151609
1.42998e-05	0.0024004008031071693
1.43000e-05	0.0024373556171425463
1.43003e-05	0.0024809225767422
1.43005e-05	0.0025244895363418537
1.43008e-05	0.0025750993418409743
1.43010e-05	0.002632128336426051
1.43013e-05	0.0026891573310111284
1.43015e-05	0.002751873848872989
1.43018e-05	0.002819774249481767
1.43020e-05	0.002887674650090545
1.43023e-05	0.002963419855679898
1.43025e-05	0.003046315194501768
1.43028e-05	0.0031292105333236373
1.43030e-05	0.0032121058721449455
1.43033e-05	0.003295001210966815
1.43035e-05	0.0033778965497886847
1.43038e-05	0.0034609752850182623
1.43040e-05	0.0035517880836077303
1.43043e-05	0.0036426008821971983
1.43045e-05	0.0037334136807866663
1.43048e-05	0.003824226479375519
1.43050e-05	0.0039150392779649865
1.43053e-05	0.0040058520765544545
1.43055e-05	0.00408985510981671
1.43058e-05	0.004167651394857387
1.43060e-05	0.0042454476798980635
1.43063e-05	0.004323243964938213
1.43065e-05	0.004401040249978889
1.43068e-05	0.004478836535019566
1.43070e-05	0.004556632820059715
1.43073e-05	0.004634429105100392
1.43075e-05	0.004694127508930437
1.43078e-05	0.004737330631843981
1.43080e-05	0.004780533754757819
1.43083e-05	0.004823736877671656
1.43085e-05	0.0048669400005852004
1.43088e-05	0.004910143123499038
1.43090e-05	0.004953346246412875
1.43093e-05	0.0049965493693264204
1.43095e-05	0.005018956857185701
1.43098e-05	0.005022410201292379
1.43100e-05	0.005025863545399035
1.43103e-05	0.0050293168895057146
1.43105e-05	0.005032770233612393
1.43108e-05	0.005036223577719049
1.43110e-05	0.0050396769218257285
1.43113e-05	0.005043130265932407
1.43115e-05	0.005046583610039063
1.43118e-05	0.005049326276918565
1.43120e-05	0.005022098767347777
1.43123e-05	0.004994871257777173
1.43125e-05	0.004967643748206386
1.43128e-05	0.004940416238635598
1.43130e-05	0.004913188729064809
1.43133e-05	0.004885961219494206
1.43135e-05	0.004858733709923418
1.43138e-05	0.00483150620035263
1.43140e-05	0.0048042786907820266
1.43143e-05	0.0047712843288492185
1.43145e-05	0.004733033779818063
1.43148e-05	0.004694783230787166
1.43150e-05	0.004656532681756011
1.43153e-05	0.004618282132724855
1.43155e-05	0.0045800315836939595
1.43158e-05	0.004541781034662804
1.43160e-05	0.004506349900069911
1.43163e-05	0.004473488515640032
1.43165e-05	0.00444062713120993
1.43168e-05	0.004407765746779827
1.43170e-05	0.004374904362349948
1.43173e-05	0.004342042977919847
1.43175e-05	0.004309181593489745
1.43178e-05	0.00427710518221297
1.43180e-05	0.004245744233288995
1.43183e-05	0.00421438328436502
1.43185e-05	0.004183022335441257
1.43188e-05	0.004151661386517282
1.43190e-05	0.0041203004375933066
1.43193e-05	0.004088939488669544
1.43195e-05	0.004057578539745569
1.43198e-05	0.00401892704733059
1.43200e-05	0.003973630602307629
1.43203e-05	0.00392833415728436
1.43205e-05	0.0038830377122610923
1.43208e-05	0.0038377412672381305
1.43210e-05	0.003792444822214862
1.43213e-05	0.0037471483771915936
1.43215e-05	0.003701851932168325
1.43218e-05	0.0036523461202175884
1.43220e-05	0.003595328206149398
1.43223e-05	0.003534960280435938
1.43225e-05	0.0034745923547228877
1.43228e-05	0.0034142244290094282
1.43230e-05	0.0033538565032959684
1.43233e-05	0.003293488577582918
1.43235e-05	0.003233120651869458
1.43238e-05	0.003172680568972889
1.43240e-05	0.0031091975244682
1.43243e-05	0.0030457144799630803
1.43245e-05	0.002982231435457961
1.43248e-05	0.002918748390953272
1.43250e-05	0.0028552653464481528
1.43253e-05	0.0027917823019430335
1.43255e-05	0.002728299257438344
1.43258e-05	0.0026721491900186106
1.43260e-05	0.0026226827512310625
1.43263e-05	0.0025732163124438496
1.43265e-05	0.0025237498736563014
1.43268e-05	0.0024742834348687533
1.43270e-05	0.0024248169960815404
1.43273e-05	0.0023753505572939922
1.43275e-05	0.002325884118506444
1.43278e-05	0.002276417679719231
1.43280e-05	0.002227458510028764
1.43283e-05	0.0021998915333795673
1.43285e-05	0.0021723245567305577
1.43288e-05	0.002144757580081361
1.43290e-05	0.0021171906034321646
1.43293e-05	0.002089623626783155
1.43295e-05	0.0020620566501339584
1.43298e-05	0.002034489673484762
1.43300e-05	0.0020069226968355653
1.43303e-05	0.0019793557201865557
1.43305e-05	0.001959107456846349
1.43308e-05	0.0019455298214463516
1.43310e-05	0.0019319521860464465
1.43313e-05	0.0019183745506464493
1.43315e-05	0.001904796915246452
1.43318e-05	0.0018912192798465467
1.43320e-05	0.0018776416444465495
1.43323e-05	0.0018640640090465523
1.43325e-05	0.001850486373646647
1.43328e-05	0.0018369087382466497
1.43330e-05	0.0018276627228787667
1.43333e-05	0.0018223647547147164
1.43335e-05	0.00181706678655063
1.43338e-05	0.0018117688183865437
1.43340e-05	0.0018064708502224932
1.43343e-05	0.001801172882058407
1.43345e-05	0.0017958749138943205
1.43348e-05	0.00179057694573027
1.43350e-05	0.0017852789775661838
1.43353e-05	0.0017799810094020973
1.43355e-05	0.0017762670184110435
1.43358e-05	0.0017739967405349184
1.43360e-05	0.0017717264626587934
1.43363e-05	0.0017694561847826837
1.43365e-05	0.0017671859069065586
1.43368e-05	0.0017649156290304336
1.43370e-05	0.0017627063517790778
1.43373e-05	0.0017630695496731288
1.43375e-05	0.0017634327475671797
1.43378e-05	0.001763795945461228
1.43380e-05	0.001764159143355279
1.43383e-05	0.00176452234124933
1.43385e-05	0.0017648855391433807
1.43388e-05	0.0017687964454254797
1.43390e-05	0.0017759409040689121
1.43393e-05	0.0017830853627123445
1.43395e-05	0.0017905651471866414
1.43398e-05	0.0017992160098753841
1.43400e-05	0.001807866872564127
1.43403e-05	0.0018165177352528115
1.43405e-05	0.0018329877415506199
1.43408e-05	0.0016375734282556087
1.43410e-05	-0.029263903205761804
1.43413e-05	-0.020568394469075674
1.43415e-05	-0.014169909902894613
1.43418e-05	-0.0091407455475332
1.43420e-05	0.011857627638568876
1.43423e-05	0.011595254990265588
1.43425e-05	0.00949405818779642
1.43428e-05	0.0043112280980573455
1.43430e-05	-0.004206823392861984
1.43433e-05	-0.007673601664054868
1.43435e-05	-0.005564420714330907
1.43438e-05	-0.0006574202981739262
1.43440e-05	0.005809272987393403
1.43443e-05	0.008851563798064151
1.43445e-05	0.00817567052104475
1.43448e-05	0.0046719844290144495
1.43450e-05	-0.0007628063257796719
1.43453e-05	-0.0030052754323339746
1.43455e-05	-0.0017351954228079745
1.43458e-05	0.0013011139966426113
1.43460e-05	0.005323741770931145
1.43463e-05	0.007207654353066506
1.43465e-05	0.0067668135024118855
1.43468e-05	0.004557529984739045
1.43470e-05	0.0011404384071229717
1.43473e-05	-0.0002760659582262223
1.43475e-05	0.0005077667401296121
1.43478e-05	0.002397472454898178
1.43480e-05	0.004904243957800128
1.43483e-05	0.00607052078251613
1.43485e-05	0.005779841371635818
1.43488e-05	0.004380758628527083
1.43490e-05	0.0022245297654532635
1.43493e-05	0.0013208790805997236
1.43495e-05	0.0017948379722741872
1.43498e-05	0.0029607803564592845
1.43500e-05	0.004512516262730493
1.43503e-05	0.005223906302422519
1.43505e-05	0.0050221366791983486
1.43508e-05	0.0041256743588723895
1.43510e-05	0.002754662649848207
1.43513e-05	0.002168040208507982
1.43515e-05	0.002444116382197448
1.43518e-05	0.0031534231901689017
1.43520e-05	0.0041041994823527205
1.43523e-05	0.004528473795155943
1.43525e-05	0.004380753541379933
1.43528e-05	0.0037980001807820414
1.43530e-05	0.0029182126586488684
1.43533e-05	0.0025300479208110824
1.43535e-05	0.002682580287137259
1.43538e-05	0.0031068234458081086
1.43540e-05	0.003682707762811539
1.43543e-05	0.003929253768107889
1.43545e-05	0.003818065038560691
1.43548e-05	0.003435032337411418
1.43550e-05	0.0028666880117950654
1.43553e-05	0.0026071090568756555
1.43555e-05	0.002687075291702781
1.43558e-05	0.0029381398239876227
1.43560e-05	0.0032851484856994927
1.43563e-05	0.003426890945535029
1.43565e-05	0.0033456688246984896
1.43568e-05	0.0030953710647488556
1.43570e-05	0.0027302840308925974
1.43573e-05	0.002559963222394489
1.43575e-05	0.002603746150321513
1.43578e-05	0.0027562234324241953
1.43580e-05	0.002970456734021435
1.43583e-05	0.0030578312423274207
1.43585e-05	0.0030072237457958537
1.43588e-05	0.0028523136371479295
1.43590e-05	0.002627022246065871
1.43593e-05	0.002525160745319899
1.43595e-05	0.0025587386371943165
1.43598e-05	0.0026616266616263633
1.43600e-05	0.002804326352179371
1.43603e-05	0.002868599935069219
1.43605e-05	0.00284739607671026
1.43608e-05	0.0027617267990179472
1.43610e-05	0.0026327539825971007
1.43613e-05	0.002581787623478507
1.43615e-05	0.002616251866366752
1.43618e-05	0.0026946261999144347
1.43620e-05	0.0027983385812101005
1.43623e-05	0.0028532346276616276
1.43625e-05	0.0028548109037081124
1.43628e-05	0.002816142640271575
1.43630e-05	0.002750397371242787
1.43633e-05	0.00273347153270214
1.43635e-05	0.0027699197423683426
1.43638e-05	0.0028336389065023665
1.43640e-05	0.002912902573530621
1.43643e-05	0.00296117012105937
1.43645e-05	0.0029755327021088003
1.43648e-05	0.0029640920899396536
1.43650e-05	0.002935007659859631
1.43653e-05	0.0029357295071314278
1.43655e-05	0.0029690166022890655
1.43658e-05	0.0030184249868463564
1.43660e-05	0.003076517020484461
1.43663e-05	0.003114049766714138
1.43665e-05	0.0031291119974668435
1.43668e-05	0.003126689796499902
1.43670e-05	0.0031118046434563964
1.43673e-05	0.0031140882465044615
1.43675e-05	0.0031351933350174184
1.43678e-05	0.003166190993116869
1.43680e-05	0.003199327683152219
1.43683e-05	0.0032189791839819792
1.43685e-05	0.0032242493944882587
1.43688e-05	0.0032151248474417142
1.43690e-05	0.003201882488168534
1.43693e-05	0.003198088342562466
1.43695e-05	0.0032044574057277517
1.43698e-05	0.00321628155292259
1.43700e-05	0.003229226471048502
1.43703e-05	0.0032332112747945874
1.43705e-05	0.003227696258759164
1.43708e-05	0.003214541415412271
1.43710e-05	0.003199370713943355
1.43713e-05	0.0031842000124743365
1.43715e-05	0.0031767285374180738
1.43718e-05	0.003171933962614057
1.43720e-05	0.0031670501070327622
1.43723e-05	0.003162166251451468
1.43725e-05	0.003149603552677218
1.43728e-05	0.0031308440169057223
1.43730e-05	0.003110839130392722
1.43733e-05	0.0030908342438797217
1.43735e-05	0.003075807874375891
1.43738e-05	0.003061443915145471
1.43740e-05	0.0030466179582495237
1.43743e-05	0.003031792001353677
1.43745e-05	0.0030169660444577294
1.43748e-05	0.0029988839104071446
1.43750e-05	0.002979569851816595
1.43753e-05	0.002960255793225915
1.43755e-05	0.0029409417346352345
1.43758e-05	0.002924372834306852
1.43760e-05	0.0029088425223810074
1.43763e-05	0.0028933122104551627
1.43765e-05	0.0028777818985294234
1.43768e-05	0.0028622515866035783
1.43770e-05	0.002847365222595727
1.43773e-05	0.0028346903880165837
1.43775e-05	0.0028220155534373543
1.43778e-05	0.002809340718858125
1.43780e-05	0.0027966658842789815
1.43783e-05	0.002783991049699752
1.43785e-05	0.002769585293104853
1.43788e-05	0.002754524668790276
1.43790e-05	0.0027394640444755973
1.43793e-05	0.002724403420160918
1.43795e-05	0.002709342795846341
1.43798e-05	0.0026942821715316622
1.43800e-05	0.002679221547216983
1.43803e-05	0.002664160922902406
1.43805e-05	0.002649100298587727
1.43808e-05	0.002634039674273048
1.43810e-05	0.002618979049958369
1.43813e-05	0.002603918425643792
1.43815e-05	0.002588857801329113
1.43818e-05	0.0025729793219208827
1.43820e-05	0.0025542920585139204
1.43823e-05	0.002535604795106831
1.43825e-05	0.002516917531699742
1.43828e-05	0.0024982302682927796
1.43830e-05	0.0024795430048856907
1.43833e-05	0.0024608557414786012
1.43835e-05	0.002442168478071639
1.43838e-05	0.00242348121466455
1.43840e-05	0.002404793951257461
1.43843e-05	0.002386106687850498
1.43845e-05	0.002367419424443409
1.43848e-05	0.00234873216103632
1.43850e-05	0.002330044897629358
1.43853e-05	0.002314609868629368
1.43855e-05	0.0023004052724921766
1.43858e-05	0.0022862006763550813
1.43860e-05	0.0022719960802178897
1.43863e-05	0.0022577914840806977
1.43865e-05	0.0022435868879436024
1.43868e-05	0.002229382291806411
1.43870e-05	0.0022151776956692193
1.43873e-05	0.002200973099532124
1.43875e-05	0.0021867685033949325
1.43878e-05	0.0021725639072577405
1.43880e-05	0.002158359311120645
1.43883e-05	0.0021441547149834536
1.43885e-05	0.002129950118846262
1.43888e-05	0.0021182862345150203
1.43890e-05	0.002115347992078536
1.43893e-05	0.0021124097496420515
1.43895e-05	0.0021094715072055674
1.43898e-05	0.0021065332647691028
1.43900e-05	0.0021035950223326186
1.43903e-05	0.002100656779896134
1.43905e-05	0.00209771853745967
1.43908e-05	0.002094780295023185
1.43910e-05	0.002091842052586701
1.43913e-05	0.0020889038101502364
1.43915e-05	0.0020859655677137523
1.43918e-05	0.0020830273252772677
1.43920e-05	0.0020800890828408035
1.43923e-05	0.002077150840404319
1.43925e-05	0.0020791417487240286
1.43928e-05	0.002082997525413625
1.43930e-05	0.002086853302103248
1.43933e-05	0.0020907090787928703
1.43935e-05	0.002094564855482467
1.43938e-05	0.0020984206321720896
1.43940e-05	0.0021022764088617124
1.43943e-05	0.002106132185551309
1.43945e-05	0.0021099879622409317
1.43948e-05	0.0021138437389305546
1.43950e-05	0.002117699515620151
1.43953e-05	0.0021216735367007903
1.43955e-05	0.0021260536479999212
1.43958e-05	0.002130433759299023
1.43960e-05	0.002134813870598154
1.43963e-05	0.0021391939818972854
1.43965e-05	0.002143574093196387
1.43968e-05	0.0021479542044955183
1.43970e-05	0.002152334315794649
1.43973e-05	0.002156714427093751
1.43975e-05	0.002161094538392882
1.43978e-05	0.0021654746496920134
1.43980e-05	0.002169854760991145
1.43983e-05	0.002181244754287154
1.43985e-05	0.00219528682861358
1.43988e-05	0.0022093289029400057
1.43990e-05	0.002223370977266336
1.43993e-05	0.002237413051592762
