Time(s)	Current(A)
1.00000e-06	0.0008508609695552071
1.00025e-06	0.0008457589906249582
1.00050e-06	0.0008405902958549946
1.00075e-06	0.0008340106687843764
1.00100e-06	0.000827255058554929
1.00125e-06	0.0008188328838457146
1.00150e-06	0.0008102028414157012
1.00175e-06	0.0008015727989856878
1.00200e-06	0.0007911295797140001
1.00225e-06	0.0007804602060138129
1.00250e-06	0.0007697908323136165
1.00275e-06	0.0007591214586134293
1.00300e-06	0.000747553777651948
1.00325e-06	0.0007345757458345261
1.00350e-06	0.0007215977140171151
1.00375e-06	0.0007086196821996932
1.00400e-06	0.0006956416503822822
1.00425e-06	0.0006819113018970641
1.00450e-06	0.0006680871182479911
1.00475e-06	0.0006542629345989181
1.00500e-06	0.0006401645740737188
1.00525e-06	0.000626032015938403
1.00550e-06	0.0006120964283615727
1.00575e-06	0.0005981854085836936
1.00600e-06	0.0005848798429739336
1.00625e-06	0.0005716497946210698
1.00650e-06	0.0005592543611386564
1.00675e-06	0.000546963027733345
1.00700e-06	0.0005357279657675974
1.00725e-06	0.0005246246507215402
1.00750e-06	0.0005154534947181019
1.00775e-06	0.0005065233335884186
1.00800e-06	0.0004975931724587279
1.00825e-06	0.0004907269326002443
1.00850e-06	0.00048411812209162063
1.00875e-06	0.0004777464335668623
1.00900e-06	0.0004714043208592673
1.00925e-06	0.0004650622081516669
1.00950e-06	0.0004592069440554835
1.00975e-06	0.0004534124037491329
1.01000e-06	0.00044761786344278714
1.01025e-06	0.0004418233231364414
1.01050e-06	0.0004360016143214166
1.01075e-06	0.0004301372506920451
1.01100e-06	0.00042427288706266866
1.01125e-06	0.0004184085234332972
1.01150e-06	0.0004125441598039257
1.01175e-06	0.0004061897393100183
1.01200e-06	0.00039977419486638755
1.01225e-06	0.00039335865042275137
1.01250e-06	0.00038694310597912066
1.01275e-06	0.0003805275615354899
1.01300e-06	0.0003741120170918537
1.01325e-06	0.00036769647264822295
1.01350e-06	0.0003609699502706141
1.01375e-06	0.0003542046401502444
1.01400e-06	0.00034743933002986894
1.01425e-06	0.00034067401990949925
1.01450e-06	0.00033390870978912955
1.01475e-06	0.0003271433996687541
1.01500e-06	0.0003203780895483844
1.01525e-06	0.00031419709297760966
1.01550e-06	0.00030808897683075575
1.01575e-06	0.00030198086068390184
1.01600e-06	0.0002958727445370427
1.01625e-06	0.0002897646283901888
1.01650e-06	0.0002843928560173865
1.01675e-06	0.00028017715030091163
1.01700e-06	0.00027596144458443683
1.01725e-06	0.00027174573886795846
1.01750e-06	0.00026753003315148366
1.01775e-06	0.0002633143274350053
1.01800e-06	0.0002608843219582594
1.01825e-06	0.0002586770438006731
1.01850e-06	0.0002570784586641153
1.01875e-06	0.0002555557947610031
1.01900e-06	0.00025403313085788955
1.01925e-06	0.00025289788790228287
1.01950e-06	0.00025181096729501995
1.01975e-06	0.0002507240466877579
1.02000e-06	0.0002496371260804959
1.02025e-06	0.000248550205473233
1.02050e-06	0.000247463284865971
1.02075e-06	0.00024643977831994874
1.02100e-06	0.000245515832446976
1.02125e-06	0.0002445918865740033
1.02150e-06	0.00024366794070102975
1.02175e-06	0.00024274399482805703
1.02200e-06	0.00024182004895508352
1.02225e-06	0.0002408961030821108
1.02250e-06	0.00023982498662641346
1.02275e-06	0.0002387355138370961
1.02300e-06	0.00023764604104777872
1.02325e-06	0.00023655656825846043
1.02350e-06	0.00023546709546914306
1.02375e-06	0.00023437762267982477
1.02400e-06	0.0002332881498905074
1.02425e-06	0.00023219867710119003
1.02450e-06	0.00023136088873470698
1.02475e-06	0.00023055449253333763
1.02500e-06	0.00022974809633196757
1.02525e-06	0.00022894170013059822
1.02550e-06	0.00022813530392922887
1.02575e-06	0.00022732890772785884
1.02600e-06	0.00022652251152648948
1.02625e-06	0.00022571611532511945
1.02650e-06	0.00022559893656153368
1.02675e-06	0.0002255677227033688
1.02700e-06	0.00022553650884520396
1.02725e-06	0.00022585190831220475
1.02750e-06	0.0002264361817856246
1.02775e-06	0.0002273073882283415
1.02800e-06	0.0002285027837708505
1.02825e-06	0.0002303858829145188
1.02850e-06	0.00023406280236480824
1.02875e-06	0.0002407335333846597
1.02900e-06	0.000250809848508965
1.02925e-06	0.00026418426912716136
1.02950e-06	0.00028069576510594515
1.02975e-06	0.00030018303166440334
1.03000e-06	0.0003224848756519405
1.03025e-06	0.00034764446536555537
1.03050e-06	0.000376170043689298
1.03075e-06	0.00040862864150814355
1.03100e-06	0.0004450934940246475
1.03125e-06	0.0004853125824771594
1.03150e-06	0.0005290003366850097
1.03175e-06	0.0005758711284286269
1.03200e-06	0.0006256392809631884
1.03225e-06	0.0006781472506325912
1.03250e-06	0.0007335287487124722
1.03275e-06	0.0007919543048467856
1.03300e-06	0.0008532850707058352
1.03325e-06	0.0009171785837061401
1.03350e-06	0.0009832712333876178
1.03375e-06	0.0010511996488006272
1.03400e-06	0.0011206001872099438
1.03425e-06	0.001191189797767726
1.03450e-06	0.0012628674088235614
1.03475e-06	0.0013355553588978665
1.03500e-06	0.0014089821593909948
1.03525e-06	0.0014827488171105952
1.03550e-06	0.0015564431441320622
1.03575e-06	0.0016296528102955831
1.03600e-06	0.001701965783047165
1.03625e-06	0.0017730202686262577
1.03650e-06	0.0018425685871477227
1.03675e-06	0.0019103777530473528
1.03700e-06	0.001976093420476253
1.03725e-06	0.0020392811893889242
1.03750e-06	0.002099498668652278
1.03775e-06	0.002154567489393299
1.03800e-06	0.002209035890169685
1.03825e-06	0.0022582077184710642
1.03850e-06	0.0023037777082031935
1.03875e-06	0.002346810961538581
1.03900e-06	0.002387562047154199
1.03925e-06	0.0024258509522041777
1.03950e-06	0.0024601448953179695
1.03975e-06	0.002493974955010233
1.04000e-06	0.00252227182914458
1.04025e-06	0.002549878558562642
1.04050e-06	0.0025727509562170655
1.04075e-06	0.00259503284881476
1.04100e-06	0.002613767304758859
1.04125e-06	0.00263205929503156
1.04150e-06	0.0026455898006540607
1.04175e-06	0.0026585264144869717
1.04200e-06	0.0026714630283198935
1.04225e-06	0.0026795471418547745
1.04250e-06	0.0026870260113749022
1.04275e-06	0.0026917729623867426
1.04300e-06	0.0026961791659025703
1.04325e-06	0.002697645301780751
1.04350e-06	0.0026987447280800844
1.04375e-06	0.002699844154379418
1.04400e-06	0.0026975342545779205
1.04425e-06	0.002694799115396704
1.04450e-06	0.002692063976215485
1.04475e-06	0.002687329459933967
1.04500e-06	0.0026823455647861224
1.04525e-06	0.0026773616696382824
1.04550e-06	0.002671242666524955
1.04575e-06	0.002664982083347741
1.04600e-06	0.002658721500170532
1.04625e-06	0.00265201570625816
1.04650e-06	0.0026452543819766665
1.04675e-06	0.002638493057695173
1.04700e-06	0.0026326535514872894
1.04725e-06	0.0026269290220619864
1.04750e-06	0.0026212044926366782
1.04775e-06	0.0026185908904741736
1.04800e-06	0.0026163653089176153
1.04825e-06	0.0026141397273610548
1.04850e-06	0.0026119141458044964
1.04875e-06	0.002609688564247936
1.04900e-06	0.0026074629826913776
1.04925e-06	0.002605237401134817
1.04950e-06	0.0026051584921315527
1.04975e-06	0.0026084498792425014
1.05000e-06	0.002611741266353453
1.05025e-06	0.0026150326534644017
1.05050e-06	0.0026183240405753534
1.05075e-06	0.002621615427686302
1.05100e-06	0.0026249068147972507
1.05125e-06	0.0026281982019082024
1.05150e-06	0.0026362306463262953
1.05175e-06	0.0026448544346665266
1.05200e-06	0.0026534782230067506
1.05225e-06	0.002662102011346975
1.05250e-06	0.0026707257996872063
1.05275e-06	0.0026793495880274307
1.05300e-06	0.002687973376367662
1.05325e-06	0.002696597164707886
1.05350e-06	0.002705220953048118
1.05375e-06	0.0027168054755814
1.05400e-06	0.002728759285397376
1.05425e-06	0.002740713095213363
1.05450e-06	0.002752666905029339
1.05475e-06	0.0027646207148453255
1.05500e-06	0.0027765745246613022
1.05525e-06	0.0027885283344772785
1.05550e-06	0.002800482144293265
1.05575e-06	0.002812435954109241
1.05600e-06	0.0028247450860701346
1.05625e-06	0.002837098536750907
1.05650e-06	0.002849451987431679
1.05675e-06	0.0028612975721777427
1.05700e-06	0.002873079811679418
1.05725e-06	0.0028848620511811025
1.05750e-06	0.0028958973275383013
1.05775e-06	0.002906839436467468
1.05800e-06	0.0029169313529806345
1.05825e-06	0.0029269172264563053
1.05850e-06	0.002935289452529342
1.05875e-06	0.002943460411137731
1.05900e-06	0.0029488203041960334
1.05925e-06	0.002953829577884032
1.05950e-06	0.0029588388515720304
1.05975e-06	0.0029594292638061045
1.06000e-06	0.0029594685190526245
1.06025e-06	0.002959507774299145
1.06050e-06	0.002959547029545665
1.06075e-06	0.002959586284792185
1.06100e-06	0.002953735426853708
1.06125e-06	0.002947149905230216
1.06150e-06	0.0029405643836067177
1.06175e-06	0.0029339788619832255
1.06200e-06	0.0029273933403597277
1.06225e-06	0.0029149950565298104
1.06250e-06	0.002901871756869383
1.06275e-06	0.0028887484572089448
1.06300e-06	0.0028756251575485173
1.06325e-06	0.002862501857888079
1.06350e-06	0.002849378558227652
1.06375e-06	0.0028362552585672247
1.06400e-06	0.002819307734332892
1.06425e-06	0.002801883221146165
1.06450e-06	0.002784458707959423
1.06475e-06	0.0027670341947726956
1.06500e-06	0.0027496096815859683
1.06525e-06	0.0027321851683992262
1.06550e-06	0.002714760655212499
1.06575e-06	0.0026971947636632598
1.06600e-06	0.0026796112382340906
1.06625e-06	0.002662027712804906
1.06650e-06	0.002645742005650241
1.06675e-06	0.0026296181731363527
1.06700e-06	0.00261349434062245
1.06725e-06	0.0025996684634561574
1.06750e-06	0.0025861292063072442
1.06775e-06	0.0025725899491583428
1.06800e-06	0.0025625101836721587
1.06825e-06	0.0025528619146297778
1.06850e-06	0.002543213645587405
1.06875e-06	0.002537820961861141
1.06900e-06	0.0025329590699705758
1.06925e-06	0.0025280971780800104
1.06950e-06	0.002529336439751524
1.06975e-06	0.0025313366878111543
1.07000e-06	0.0025333369358707864
1.07025e-06	0.002535337183930417
1.07050e-06	0.002537337431990049
1.07075e-06	0.002546934346981804
1.07100e-06	0.0025574787811716002
1.07125e-06	0.002568023215361406
1.07150e-06	0.0025785676495512022
1.07175e-06	0.0025891120837410074
1.07200e-06	0.002604479657229709
1.07225e-06	0.002620448812585997
1.07250e-06	0.002638862245262006
1.07275e-06	0.002657580548443237
1.07300e-06	0.0026784294044235064
1.07325e-06	0.002699544000589223
1.07350e-06	0.0027220392537597084
1.07375e-06	0.0027455113639936364
1.07400e-06	0.002769801542499514
1.07425e-06	0.002794810344322478
1.07450e-06	0.0028204321146404364
1.07475e-06	0.0028465480292150093
1.07500e-06	0.002873032539339102
1.07525e-06	0.0028997577947193075
1.07550e-06	0.002926596359533352
1.07575e-06	0.002953420254387397
1.07600e-06	0.0029801020434591925
1.07625e-06	0.0030065131263231873
1.07650e-06	0.0030325208144326094
1.07675e-06	0.003057984476278747
1.07700e-06	0.003082758824639933
1.07725e-06	0.0031066976935121386
1.07750e-06	0.0031296548652511094
1.07775e-06	0.00315148391520208
1.07800e-06	0.0031720385999007804
1.07825e-06	0.0031911064583201683
1.07850e-06	0.00320834111159336
1.07875e-06	0.003222404142710263
1.07900e-06	0.003236097494940168
1.07925e-06	0.0032447394787163265
1.07950e-06	0.0032527514139951
1.07975e-06	0.0032607633492738796
1.08000e-06	0.003261605887439428
1.08025e-06	0.0032615541990365367
1.08050e-06	0.0032615025106336455
1.08075e-06	0.0032614508222307543
1.08100e-06	0.003252971526462718
1.08125e-06	0.003243441069726034
1.08150e-06	0.003233910612989342
1.08175e-06	0.003224380156252658
1.08200e-06	0.0032083681295273863
1.08225e-06	0.003191547667727671
1.08250e-06	0.00317472720592797
1.08275e-06	0.00315301874151695
1.08300e-06	0.0031307006049490793
1.08325e-06	0.003108382468381208
1.08350e-06	0.003082308055994901
1.08375e-06	0.0030557651297877164
1.08400e-06	0.003029222203580509
1.08425e-06	0.003000194598490421
1.08450e-06	0.002970857083677649
1.08475e-06	0.002941519568864901
1.08500e-06	0.0029109928128222204
1.08525e-06	0.0028803177247667625
1.08550e-06	0.002849520293463736
1.08575e-06	0.0028187076024978786
1.08600e-06	0.002788510353960304
1.08625e-06	0.0027583898684980556
1.08650e-06	0.0027295565747676707
1.08675e-06	0.002700883830247662
1.08700e-06	0.0026742120499091103
1.08725e-06	0.00264778984639066
1.08750e-06	0.0026246495263652758
1.08775e-06	0.0026019185500221055
1.08800e-06	0.00258106688153251
1.08825e-06	0.002563165744061293
1.08850e-06	0.002545264606590091
1.08875e-06	0.0025306137006956093
1.08900e-06	0.0025163681905942927
1.08925e-06	0.002502122680492976
1.08950e-06	0.0024896037605390844
1.08975e-06	0.002479795603367561
1.09000e-06	0.0024699874461960297
1.09025e-06	0.002460179289024507
1.09050e-06	0.0024542967291751785
1.09075e-06	0.0024489038023265772
1.09100e-06	0.0024435108754779808
1.09125e-06	0.00243811794862938
1.09150e-06	0.0024342742408101025
1.09175e-06	0.0024328628214482727
1.09200e-06	0.0024314514020864417
1.09225e-06	0.002430039982724612
1.09250e-06	0.002428628563362781
1.09275e-06	0.002430781943666476
1.09300e-06	0.0024333799552998595
1.09325e-06	0.0024359779669332407
1.09350e-06	0.002438575978566622
1.09375e-06	0.0024411739902000054
1.09400e-06	0.0024437720018333866
1.09425e-06	0.00244637001346677
1.09450e-06	0.0024489680251001513
1.09475e-06	0.0024542264848423307
1.09500e-06	0.0024598167777002953
1.09525e-06	0.002465407070558255
1.09550e-06	0.00247099736341622
1.09575e-06	0.0024765876562741797
1.09600e-06	0.0024821779491321395
1.09625e-06	0.0024877682419901037
1.09650e-06	0.0024933585348480636
1.09675e-06	0.002499497438989344
1.09700e-06	0.0025057047704721966
1.09725e-06	0.002511912101955054
1.09750e-06	0.0025180223929836174
1.09775e-06	0.002523980329585598
1.09800e-06	0.002529938266187583
1.09825e-06	0.002535896202789563
1.09850e-06	0.002542211962092743
1.09875e-06	0.002548572352005865
1.09900e-06	0.002554932741918987
1.09925e-06	0.00256267908883836
1.09950e-06	0.0025705983037908105
1.09975e-06	0.0025785175187432686
1.10000e-06	0.0025864367336957197
1.10025e-06	0.0025943559486481704
1.10050e-06	0.0026022751636006285
1.10075e-06	0.002611112930755657
1.10100e-06	0.002621392833514172
1.10125e-06	0.002631672736272678
1.10150e-06	0.0026419526390311925
1.10175e-06	0.0026522325417896986
1.10200e-06	0.0026625124445482044
1.10225e-06	0.002672792347306719
1.10250e-06	0.0026850540458640527
1.10275e-06	0.0026975629304020286
1.10300e-06	0.0027100718149399936
1.10325e-06	0.0027225806994779587
1.10350e-06	0.002735089584015934
1.10375e-06	0.002747598468553899
1.10400e-06	0.0027601073530918747
1.10425e-06	0.0027726162376298397
1.10450e-06	0.002785873801774989
1.10475e-06	0.00279922474743957
1.10500e-06	0.00281257569310414
1.10525e-06	0.002825926638768721
1.10550e-06	0.0028392775844332907
1.10575e-06	0.0028526285300978717
1.10600e-06	0.0028659794757624414
1.10625e-06	0.002879330421427011
1.10650e-06	0.002892030689739003
1.10675e-06	0.002904649800184185
1.10700e-06	0.0029172689106293772
1.10725e-06	0.002929201125497444
1.10750e-06	0.0029410476650618745
1.10775e-06	0.0029523353795892697
1.10800e-06	0.002963114530420141
1.10825e-06	0.0029732243283114974
1.10850e-06	0.0029822012984733943
1.10875e-06	0.0029887562731709576
1.10900e-06	0.0029950255874973087
1.10925e-06	0.0029974478518696008
1.10950e-06	0.002999390280319392
1.10975e-06	0.0030013327087691816
1.11000e-06	0.0029988936894752697
1.11025e-06	0.0029959081797419104
1.11050e-06	0.0029929226700085515
1.11075e-06	0.00298316560987812
1.11100e-06	0.0029725639459161133
1.11125e-06	0.002961962281954098
1.11150e-06	0.002951360617992091
1.11175e-06	0.002940758954030085
1.11200e-06	0.002922889687139488
1.11225e-06	0.0029041139446384675
1.11250e-06	0.0028853382021374312
1.11275e-06	0.0028665624596364105
1.11300e-06	0.0028477867171353903
1.11325e-06	0.0028242610894759447
1.11350e-06	0.0028001430168122002
1.11375e-06	0.0027760249441484354
1.11400e-06	0.0027497466471703225
1.11425e-06	0.002723198909129813
1.11450e-06	0.002696651171089326
1.11475e-06	0.002668814861246419
1.11500e-06	0.0026408178300593773
1.11525e-06	0.00261282079887236
1.11550e-06	0.002584715777170657
1.11575e-06	0.0025565972859978663
1.11600e-06	0.002529198467075979
1.11625e-06	0.0025018894116358276
1.11650e-06	0.002475850055534379
1.11675e-06	0.0024499690668470806
1.11700e-06	0.002425930886264953
1.11725e-06	0.002402122555967483
1.11750e-06	0.002380904134926738
1.11775e-06	0.0023600087488120213
1.11800e-06	0.002342475835405892
1.11825e-06	0.0023253623174360454
1.11850e-06	0.002312487444417554
1.11875e-06	0.0023001412502918423
1.11900e-06	0.0022937436084359206
1.11925e-06	0.0022880879192709196
1.11950e-06	0.0022824322301059235
1.11975e-06	0.0022840985738491245
1.12000e-06	0.0022866781821603804
1.12025e-06	0.0022892577904716363
1.12050e-06	0.0022994018410700226
1.12075e-06	0.0023104893915412493
1.12100e-06	0.002321576942012485
1.12125e-06	0.0023387557440406313
1.12150e-06	0.0023566942973962655
1.12175e-06	0.0023780277206149375
1.12200e-06	0.0024019294166397736
1.12225e-06	0.0024281650139570303
1.12250e-06	0.0024566576553341386
1.12275e-06	0.0024873066483528834
1.12300e-06	0.002519963643273407
1.12325e-06	0.0025544554870570745
1.12350e-06	0.002590606832409199
1.12375e-06	0.0026282427718761917
1.12400e-06	0.0026671878286130173
1.12425e-06	0.002707272865642004
1.12450e-06	0.002748336791777815
1.12475e-06	0.0027902045147765227
1.12500e-06	0.0028326696878477643
1.12525e-06	0.0028755115332013306
1.12550e-06	0.0029185073093713886
1.12575e-06	0.0029614344044425703
1.12600e-06	0.00300407064634072
1.12625e-06	0.0030461972268008594
1.12650e-06	0.0030876009259435937
1.12675e-06	0.003128058611852063
1.12700e-06	0.003167329274940121
1.12725e-06	0.0032051613525824045
1.12750e-06	0.0032413028445621972
1.12775e-06	0.003274514077182455
1.12800e-06	0.0033073835940543245
1.12825e-06	0.0033372610836347977
1.12850e-06	0.0033651863061611937
1.12875e-06	0.003391847226669904
1.12900e-06	0.003417416973961572
1.12925e-06	0.003441785388712785
1.12950e-06	0.003464146043127572
1.12975e-06	0.0034862731033472173
1.13000e-06	0.0035055485929480195
1.13025e-06	0.003524468411051349
1.13050e-06	0.00354106174084977
1.13075e-06	0.0035573648917643927
1.13100e-06	0.0035720817206715805
1.13125e-06	0.0035866006903638704
1.13150e-06	0.0035988634863419735
1.13175e-06	0.003610844873654187
1.13200e-06	0.003622826260966411
1.13225e-06	0.003632428751797439
1.13250e-06	0.0036417345269630047
1.13275e-06	0.0036495512750896195
1.13300e-06	0.003657182299435375
1.13325e-06	0.003664813323781137
1.13350e-06	0.0036707832953032466
1.13375e-06	0.0036765460865643283
1.13400e-06	0.0036823088778254053
1.13425e-06	0.0036865130174920753
1.13450e-06	0.0036905227492268714
1.13475e-06	0.0036945324809616637
1.13500e-06	0.0036977555035222136
1.13525e-06	0.003700880401200907
1.13550e-06	0.0037040052988795997
1.13575e-06	0.0037064687977831747
1.13600e-06	0.003708849801555394
1.13625e-06	0.0037112308053276147
1.13650e-06	0.003713356427058444
1.13675e-06	0.00371545019542661
1.13700e-06	0.0037175439637947747
1.13725e-06	0.003720016050882239
1.13750e-06	0.0037225353250127046
1.13775e-06	0.0037250545991431685
1.13800e-06	0.003727573873273634
1.13825e-06	0.0037300931474040975
1.13850e-06	0.00373233751149595
1.13875e-06	0.0037345475865316427
1.13900e-06	0.003736757661567334
1.13925e-06	0.003738967736603027
1.13950e-06	0.0037411778116387185
1.13975e-06	0.003742317224236107
1.14000e-06	0.0037433230949495367
1.14025e-06	0.0037443289656629657
1.14050e-06	0.0037453348363763956
1.14075e-06	0.0037463407070898245
1.14100e-06	0.003746735554025591
1.14125e-06	0.0037461710878796857
1.14150e-06	0.00374560662173378
1.14175e-06	0.003745042155587874
1.14200e-06	0.0037444776894419683
1.14225e-06	0.0037439132232960624
1.14250e-06	0.0037418739147924867
1.14275e-06	0.003739650651738969
1.14300e-06	0.0037374273886854495
1.14325e-06	0.0037352041256319317
1.14350e-06	0.0037329808625784122
1.14375e-06	0.0037307575995248945
1.14400e-06	0.0037285343364713767
1.14425e-06	0.0037263110734178572
1.14450e-06	0.0037240878103643395
1.14475e-06	0.0037217528767454836
1.14500e-06	0.0037192426192880516
1.14525e-06	0.003716732361830618
1.14550e-06	0.003714222104373186
1.14575e-06	0.003711711846915754
1.14600e-06	0.00370920158945832
1.14625e-06	0.003706691332000888
1.14650e-06	0.0037041810745434543
1.14675e-06	0.0037016708170860223
1.14700e-06	0.0036991605596285904
1.14725e-06	0.0036976090661842384
1.14750e-06	0.003696177157725767
1.14775e-06	0.0036953966080297226
1.14800e-06	0.003694697301191508
