Time(s)	Current(A)
3.25000e-06	0.0008934861833885646
3.25025e-06	0.0008779729443870197
3.25050e-06	0.0008624597053855012
3.25075e-06	0.0008469464663839564
3.25100e-06	0.0008348084749348241
3.25125e-06	0.000826587889444882
3.25150e-06	0.000818367303954926
3.25175e-06	0.0008101467184649699
3.25200e-06	0.0008019261329750139
3.25225e-06	0.0007937055474850718
3.25250e-06	0.0007854849619951158
3.25275e-06	0.0007772643765051597
3.25300e-06	0.0007690437910152176
3.25325e-06	0.0007608232055252615
3.25350e-06	0.0007526026200353055
3.25375e-06	0.0007443820345453495
3.25400e-06	0.0007398207526096008
3.25425e-06	0.0007395065599102343
3.25450e-06	0.0007391923672108677
3.25475e-06	0.0007388781745115016
3.25500e-06	0.0007385639818121351
3.25525e-06	0.0007382497891127685
3.25550e-06	0.0007379355964134024
3.25575e-06	0.0007376214037140359
3.25600e-06	0.0007373072110146693
3.25625e-06	0.0007369930183153027
3.25650e-06	0.0007418265193923825
3.25675e-06	0.0007468587554920201
3.25700e-06	0.0007518909915916576
3.25725e-06	0.0007569232276912867
3.25750e-06	0.0007619554637909242
3.25775e-06	0.0007669876998905617
3.25800e-06	0.0007720199359901993
3.25825e-06	0.0007770521720898283
3.25850e-06	0.0007820844081894658
3.25875e-06	0.0007880217169546497
3.25900e-06	0.0007950094781676979
3.25925e-06	0.0008019972393807579
3.25950e-06	0.0008089850005938179
3.25975e-06	0.000815972761806866
3.26000e-06	0.000822960523019926
3.26025e-06	0.000829948284232986
3.26050e-06	0.0008369360454460459
3.26075e-06	0.0008439238066590941
3.26100e-06	0.0008498294836578867
3.26125e-06	0.000855693385049951
3.26150e-06	0.0008615572864420053
3.26175e-06	0.0008674211878340695
3.26200e-06	0.0008732850892261339
3.26225e-06	0.0008791489906181981
3.26250e-06	0.0008850128920102525
3.26275e-06	0.0008908767934023167
3.26300e-06	0.0008999653574451157
3.26325e-06	0.0009127965544322981
3.26350e-06	0.0009256277514195024
3.26375e-06	0.0009384589484067067
3.26400e-06	0.0009512901453938891
3.26425e-06	0.0009641213423810934
3.26450e-06	0.0009769525393682975
3.26475e-06	0.0009897837363555017
3.26500e-06	0.0010026149333426844
3.26525e-06	0.0010154461303298885
3.26550e-06	0.0010282773273170927
3.26575e-06	0.0010524963859647786
3.26600e-06	0.0010771550913830851
3.26625e-06	0.0011018137968013917
3.26650e-06	0.0011264725022196982
3.26675e-06	0.0011511312076379631
3.26700e-06	0.0011757899130562697
3.26725e-06	0.0012004486184745763
3.26750e-06	0.001225107323892841
3.26775e-06	0.0012497660293111477
3.26800e-06	0.0012744247347294543
3.26825e-06	0.0013014148366120729
3.26850e-06	0.0013311108219186594
3.26875e-06	0.001360806807225246
3.26900e-06	0.0013905027925318325
3.26925e-06	0.0014201987778383687
3.26950e-06	0.0014498947631449552
3.26975e-06	0.0014795907484515419
3.27000e-06	0.001507944097675151
3.27025e-06	0.0015347391462078924
3.27050e-06	0.0015615341947406338
3.27075e-06	0.0015883292432733753
3.27100e-06	0.0016151242918060714
3.27125e-06	0.0016419193403388126
3.27150e-06	0.001668714388871554
3.27175e-06	0.0016915365572153648
3.27200e-06	0.0017097476905795388
3.27225e-06	0.0017279588239437129
3.27250e-06	0.0017461699573078561
3.27275e-06	0.0017643810906720304
3.27300e-06	0.0017825922240362045
3.27325e-06	0.0018008033574003785
3.27350e-06	0.0018190144907645218
3.27375e-06	0.0018372256241286958
3.27400e-06	0.001853869815912946
3.27425e-06	0.00186869537182276
3.27450e-06	0.001883520927732599
3.27475e-06	0.001898346483642438
3.27500e-06	0.0019131720395522767
3.27525e-06	0.0019279975954620905
3.27550e-06	0.0019428231513719295
3.27575e-06	0.0019576487072817685
3.27600e-06	0.0019724742631915823
3.27625e-06	0.0019869217378784125
3.27650e-06	0.002000930401007474
3.27675e-06	0.002014939064136512
3.27700e-06	0.0020289477272655734
3.27725e-06	0.002042956390394635
3.27750e-06	0.0020569650535236963
3.27775e-06	0.002070973716652734
3.27800e-06	0.0020849823797817954
3.27825e-06	0.002098991042910857
3.27850e-06	0.0021129997060398945
3.27875e-06	0.002127008369168956
3.27900e-06	0.0021410170322980174
3.27925e-06	0.0021537156761828615
3.27950e-06	0.0021648938753846647
3.27975e-06	0.002176072074586487
3.28000e-06	0.0021872502737883093
3.28025e-06	0.0021984284729901125
3.28050e-06	0.0022096066721919347
3.28075e-06	0.002220784871393757
3.28100e-06	0.0022319630705955606
3.28125e-06	0.002243141269797383
3.28150e-06	0.002254319468999205
3.28175e-06	0.0022654976682010275
3.28200e-06	0.0022766758674028307
3.28225e-06	0.0022894211578520845
3.28250e-06	0.002303985257884136
3.28275e-06	0.002318549357916163
3.28300e-06	0.002333113457948214
3.28325e-06	0.0023476775579802656
3.28350e-06	0.002362241658012317
3.28375e-06	0.002385255773250709
3.28400e-06	0.002418077210594664
3.28425e-06	0.002450898647938619
3.28450e-06	0.0024837200852825185
3.28475e-06	0.0025165415226264735
3.28500e-06	0.0025493629599704286
3.28525e-06	0.0025898822072850667
3.28550e-06	0.0026393357464380065
3.28575e-06	0.0026887892855909467
3.28600e-06	0.0027450916860754433
3.28625e-06	0.0028093430650522073
3.28650e-06	0.00287359444402908
3.28675e-06	0.002937845823005953
3.28700e-06	0.0030020972019827175
3.28725e-06	0.0030663485809595903
3.28750e-06	0.003130599959936463
3.28775e-06	0.0032009885386698133
3.28800e-06	0.0032785001217254506
3.28825e-06	0.0033560117047812194
3.28850e-06	0.003433523287836988
3.28875e-06	0.0035110348708926255
3.28900e-06	0.0035885464539483942
3.28925e-06	0.003666058037004163
3.28950e-06	0.0037427833628545623
3.28975e-06	0.003818596136776887
3.29000e-06	0.003894408910699212
3.29025e-06	0.003970221684621537
3.29050e-06	0.004046034458543734
3.29075e-06	0.004121847232466058
3.29100e-06	0.0041976600063883835
3.29125e-06	0.0042550967312682715
3.29150e-06	0.004311824019129281
3.29175e-06	0.004368551306990291
3.29200e-06	0.0044252785948513005
3.29225e-06	0.004482005882712215
3.29250e-06	0.004538733170573224
3.29275e-06	0.004582721657900753
3.29300e-06	0.004611925139872921
3.29325e-06	0.004641128621845138
3.29350e-06	0.004660476243211947
3.29375e-06	0.004668384879295149
3.29400e-06	0.004676293515378363
3.29425e-06	0.004674062664833494
3.29450e-06	0.0046600636447735825
3.29475e-06	0.004646064624713695
3.29500e-06	0.004621791920100102
3.29525e-06	0.0045855952921355055
3.29550e-06	0.0045493986641709705
3.29575e-06	0.0045040175962715225
3.29600e-06	0.0044479768125483266
3.29625e-06	0.0043919360288251314
3.29650e-06	0.004327716930407043
3.29675e-06	0.00425400585303481
3.29700e-06	0.004180294775662577
3.29725e-06	0.004097528050288821
3.29750e-06	0.004004251088582243
3.29775e-06	0.003910974126875664
3.29800e-06	0.003817697165169243
3.29825e-06	0.0037244202034626642
3.29850e-06	0.0036311432417560855
3.29875e-06	0.003532590642059526
3.29900e-06	0.0034279149905317623
3.29925e-06	0.003323239339003821
3.29950e-06	0.00321856368747588
3.29975e-06	0.003113888035948116
3.30000e-06	0.0030092123844201748
3.30025e-06	0.0029089146169329096
3.30050e-06	0.0028136979431342118
3.30075e-06	0.0027184812693353527
3.30100e-06	0.0026232645955364935
3.30125e-06	0.0025280479217376344
3.30150e-06	0.0024328312479389366
3.30175e-06	0.002350240943016765
3.30200e-06	0.0022823051521501515
3.30225e-06	0.002214369361283653
3.30250e-06	0.0021464335704170397
3.30275e-06	0.0020784977795504263
3.30300e-06	0.002010561988683813
3.30325e-06	0.0019506749482942841
3.30350e-06	0.001900129511032822
3.30375e-06	0.0018495840737713597
3.30400e-06	0.0018048014244642077
3.30425e-06	0.0017667072267538524
3.30450e-06	0.0017286130290434974
3.30475e-06	0.001694512800109131
3.30500e-06	0.0016650480821547339
3.30525e-06	0.0016355833642003367
3.30550e-06	0.0016097750727555866
3.30575e-06	0.0015882105313710453
3.30600e-06	0.0015666459899864676
3.30625e-06	0.001548839403601002
3.30650e-06	0.0015353944040576958
3.30675e-06	0.0015219494045143665
3.30700e-06	0.0015123691379425543
3.30725e-06	0.0015072743876903985
3.30750e-06	0.0015021796374382515
3.30775e-06	0.001497084887186096
3.30800e-06	0.0014919901369339402
3.30825e-06	0.0014868953866817932
3.30850e-06	0.0014818006364296376
3.30875e-06	0.0014803518368127885
3.30900e-06	0.001483134628665736
3.30925e-06	0.0014859174205186887
3.30950e-06	0.001488700212371641
3.30975e-06	0.0014914830042245934
3.31000e-06	0.001494265796077541
3.31025e-06	0.0014970485879304935
3.31050e-06	0.0015005648044177904
3.31075e-06	0.0015049322538856864
3.31100e-06	0.0015092997033535898
3.31125e-06	0.001513667152821493
3.31150e-06	0.0015180346022893962
3.31175e-06	0.0015224020517572922
3.31200e-06	0.0015267695012251955
3.31225e-06	0.001531136950693099
3.31250e-06	0.0015355044001609947
3.31275e-06	0.001539871849628898
3.31300e-06	0.0015454406935093538
3.31325e-06	0.0015510559191593226
3.31350e-06	0.0015566711448093012
3.31375e-06	0.0015622863704592798
3.31400e-06	0.0015679015961092581
3.31425e-06	0.0015735168217592271
3.31450e-06	0.0015791320474092057
3.31475e-06	0.001584747273059184
3.31500e-06	0.001590362498709153
3.31525e-06	0.0015979849438478744
3.31550e-06	0.001607937023618694
3.31575e-06	0.001617889103389514
3.31600e-06	0.0016278411831603167
3.31625e-06	0.0016377932629311363
3.31650e-06	0.001647745342701956
3.31675e-06	0.001657697422472759
3.31700e-06	0.0016676495022435785
3.31725e-06	0.0016776015820143982
3.31750e-06	0.001687553661785201
3.31775e-06	0.0016975057415560208
3.31800e-06	0.0017095217347454603
3.31825e-06	0.0017216174086421884
3.31850e-06	0.001733713082538896
3.31875e-06	0.0017458087564356242
3.31900e-06	0.0017579044303323522
3.31925e-06	0.0017700001042290597
3.31950e-06	0.0017820957781257878
3.31975e-06	0.0017941914520225159
3.32000e-06	0.001806287125919244
3.32025e-06	0.0018183827998159516
3.32050e-06	0.0018301358461701783
3.32075e-06	0.001839076757907794
3.32100e-06	0.0018452153669315497
3.32125e-06	0.0018513539759553157
3.32150e-06	0.0018574925849790818
3.32175e-06	0.0018636311940028374
3.32200e-06	0.0018697698030266034
3.32225e-06	0.0018759084120503694
3.32250e-06	0.0018820470210741355
3.32275e-06	0.001888185630097891
3.32300e-06	0.0018943242391216571
3.32325e-06	0.0019004628481454231
3.32350e-06	0.0019066014571691788
3.32375e-06	0.0019127400661929448
3.32400e-06	0.0019188786752167108
3.32425e-06	0.0019250172842404769
3.32450e-06	0.0019311558932642325
3.32475e-06	0.0019322218112717842
3.32500e-06	0.001927400223335762
3.32525e-06	0.0019225786353997477
3.32550e-06	0.0019177570474637252
3.32575e-06	0.0019129354595277027
3.32600e-06	0.0019081138715916885
3.32625e-06	0.001903292283655666
3.32650e-06	0.0018984706957196438
3.32675e-06	0.0018936491077836213
3.32700e-06	0.001888827519847607
3.32725e-06	0.0018840059319115846
3.32750e-06	0.0018791843439755623
3.32775e-06	0.001874362756039548
3.32800e-06	0.0018695411681035256
3.32825e-06	0.0018647195801675032
3.32850e-06	0.0018598979922314807
3.32875e-06	0.0018537836458679287
3.32900e-06	0.001846168888203629
3.32925e-06	0.001838554130539329
3.32950e-06	0.0018309393728750418
3.32975e-06	0.0018233246152107418
3.33000e-06	0.001815709857546442
3.33025e-06	0.0018080950998821549
3.33050e-06	0.0018004803422178549
3.33075e-06	0.001792865584553555
3.33100e-06	0.0017852508268892551
3.33125e-06	0.001777636069224968
3.33150e-06	0.001770021311560668
3.33175e-06	0.001762406553896368
3.33200e-06	0.001754791796232081
3.33225e-06	0.001747177038567781
3.33250e-06	0.001739562280903481
3.33275e-06	0.001731947523239181
3.33300e-06	0.0017243327655748941
3.33325e-06	0.0017167180079105942
3.33350e-06	0.0017122446038605526
3.33375e-06	0.0017078924768349007
3.33400e-06	0.0017035403498092416
3.33425e-06	0.0016991882227835823
3.33450e-06	0.0016948360957579306
3.33475e-06	0.0016904839687322713
3.33500e-06	0.001686131841706612
3.33525e-06	0.0016817797146809529
3.33550e-06	0.001677427587655301
3.33575e-06	0.0016730754606296418
3.33600e-06	0.0016687233336039825
3.33625e-06	0.0016643712065783306
3.33650e-06	0.0016600190795526715
3.33675e-06	0.0016556669525270122
3.33700e-06	0.0016513148255013531
3.33725e-06	0.0016469626984757012
3.33750e-06	0.0016426105714500419
3.33775e-06	0.0016382584444243828
3.33800e-06	0.001634285283925528
3.33825e-06	0.001630751962492758
3.33850e-06	0.0016272186410599878
3.33875e-06	0.0016236853196272237
3.33900e-06	0.0016201519981944538
3.33925e-06	0.0016166186767616836
3.33950e-06	0.0016130853553289136
3.33975e-06	0.0016095520338961495
3.34000e-06	0.0016063240657263897
3.34025e-06	0.0016034504990262441
3.34050e-06	0.0016005769323261033
3.34075e-06	0.0015977033656259577
3.34100e-06	0.001594829798925812
3.34125e-06	0.0015919562322256665
3.34150e-06	0.0015890826655255257
3.34175e-06	0.00158620909882538
3.34200e-06	0.001584234224490002
3.34225e-06	0.001583302397448993
3.34250e-06	0.0015823705704079824
3.34275e-06	0.0015855557029607048
3.34300e-06	0.0015935190930502696
3.34325e-06	0.0016058072142408147
3.34350e-06	0.0016231147383445005
3.34375e-06	0.0016442683476958898
3.34400e-06	0.001669885830302168
3.34425e-06	0.0016993842856656122
3.34450e-06	0.001733387105695467
3.34475e-06	0.0017725319405122871
3.34500e-06	0.0018176447403653736
3.34525e-06	0.0018677274073720974
3.34550e-06	0.0019235782400951786
3.34575e-06	0.0019845089995124605
3.34600e-06	0.0020513356628029215
3.34625e-06	0.002118162326093382
3.34650e-06	0.0021907425099215215
3.34675e-06	0.0022700003893277353
3.34700e-06	0.002349258268733949
3.34725e-06	0.0024350379122894837
3.34750e-06	0.0025283868962751657
3.34775e-06	0.002621735880260848
3.34800e-06	0.0027150848642465307
3.34825e-06	0.002808433848232055
3.34850e-06	0.002901782832217737
3.34875e-06	0.002998131244008654
3.34900e-06	0.003097960874934736
3.34925e-06	0.0031977905058609875
3.34950e-06	0.003297620136787239
3.34975e-06	0.0033974497677134903
3.35000e-06	0.0034972793986395726
3.35025e-06	0.0035905287837133862
3.35050e-06	0.0036761409528698677
3.35075e-06	0.0037617531220262043
3.35100e-06	0.0038473652911826858
3.35125e-06	0.003932977460339168
3.35150e-06	0.004018589629495504
3.35175e-06	0.004104201798651986
3.35200e-06	0.004189813967808467
3.35225e-06	0.004244058389269792
3.35250e-06	0.0042970918082231154
3.35275e-06	0.004350125227176527
3.35300e-06	0.00440315864612994
3.35325e-06	0.004456192065083264
3.35350e-06	0.004509225484036677
3.35375e-06	0.0045622589029900885
3.35400e-06	0.00459952762897414
3.35425e-06	0.004618499414877092
3.35450e-06	0.004637471200780075
3.35475e-06	0.004656442986683058
3.35500e-06	0.004675414772586009
3.35525e-06	0.004694386558488993
3.35550e-06	0.004713358344391977
3.35575e-06	0.0047323301302949275
3.35600e-06	0.004751301916197911
3.35625e-06	0.004770273702100894
3.35650e-06	0.0047771981709654665
3.35675e-06	0.004770140189399881
3.35700e-06	0.004763082207834285
3.35725e-06	0.004756024226268687
3.35750e-06	0.004748966244703103
3.35775e-06	0.004741908263137505
3.35800e-06	0.004734850281571908
3.35825e-06	0.004727792300006311
3.35850e-06	0.004720734318440726
3.35875e-06	0.004713676336875129
3.35900e-06	0.004702026560227913
3.35925e-06	0.004685047418801005
3.35950e-06	0.0046680682773740665
3.35975e-06	0.004651089135947128
3.36000e-06	0.00463410999452022
3.36025e-06	0.0046171308530932815
3.36050e-06	0.004600151711666343
3.36075e-06	0.004583849953665639
3.36100e-06	0.004568334385664736
3.36125e-06	0.004552818817663806
3.36150e-06	0.004537303249662876
3.36175e-06	0.004521787681661973
3.36200e-06	0.004506272113661043
3.36225e-06	0.004490756545660114
3.36250e-06	0.004469504036866927
3.36275e-06	0.004441593075407894
3.36300e-06	0.004413682113948813
3.36325e-06	0.004385771152489733
3.36350e-06	0.0043578601910307
3.36375e-06	0.00432994922957162
3.36400e-06	0.004302038268112539
3.36425e-06	0.004274127306653506
3.36450e-06	0.004246216345194426
3.36475e-06	0.00420420440020947
3.36500e-06	0.0041458264624852775
3.36525e-06	0.004087448524761184
3.36550e-06	0.00402907058703699
3.36575e-06	0.003970692649312798
3.36600e-06	0.003912314711588704
3.36625e-06	0.0038539367738645103
3.36650e-06	0.0037955588361403177
3.36675e-06	0.0037371808984161246
3.36700e-06	0.00369771945450116
3.36725e-06	0.001785633936722501
3.36750e-06	-0.0044562599556367335
3.36775e-06	-0.00815644611288268
3.36800e-06	-0.007101331792469988
3.36825e-06	-0.004786113722157434
3.36850e-06	-0.0005867403919495801
3.36875e-06	0.0028186347076908855
3.36900e-06	0.003244417384608301
3.36925e-06	0.0018070833443018094
3.36950e-06	-0.0012413620963984272
3.36975e-06	-0.003941648841497336
3.37000e-06	-0.004083755218721602
3.37025e-06	-0.002389793801572335
3.37050e-06	-2.8981048451128064e-05
3.37075e-06	0.002143357844157468
3.37100e-06	0.002711590900377836
3.37125e-06	0.0019944544973062453
3.37150e-06	0.00019404258447367666
3.37175e-06	-0.0010319440330678563
3.37200e-06	-0.0010344869135298007
3.37225e-06	6.77389849347565e-06
3.37250e-06	0.0013242124094231676
3.37275e-06	0.002229733107759584
3.37300e-06	0.002380320443252711
3.37325e-06	0.001727248480467778
3.37350e-06	0.0007556749299271091
3.37375e-06	8.4739534064979e-05
3.37400e-06	8.596264678103718e-05
3.37425e-06	0.0007322490131298484
3.37450e-06	0.0015516480730805445
3.37475e-06	0.00211312354827984
3.37500e-06	0.0022018287915593717
3.37525e-06	0.0017872732263954573
3.37550e-06	0.0011733795252070046
3.37575e-06	0.0007479665724407353
3.37600e-06	0.0007437181947419989
3.37625e-06	0.0011436172845783563
3.37650e-06	0.0016520054634756782
3.37675e-06	0.0019988800686393205
3.37700e-06	0.0020496782508346986
3.37725e-06	0.0017853257951649993
3.37750e-06	0.0013962177531206613
3.37775e-06	0.0011252819826551679
3.37800e-06	0.0011182528829384772
3.37825e-06	0.0013644471666097312
3.37850e-06	0.0016786501112306179
3.37875e-06	0.0018917343238984185
3.37900e-06	0.001919424040586436
3.37925e-06	0.0017497898343904364
3.37950e-06	0.0015021088877247867
3.37975e-06	0.0013285529342107626
3.38000e-06	0.0013204008786198097
3.38025e-06	0.0014709481505042895
3.38050e-06	0.0016641694409357144
3.38075e-06	0.0017941274744138573
3.38100e-06	0.0018080426465518508
3.38125e-06	0.001698456219071122
3.38150e-06	0.0015400942405439002
3.38175e-06	0.0014282798963929939
3.38200e-06	0.0014201865454819037
3.38225e-06	0.0015115889627988403
3.38250e-06	0.0016296523596371596
3.38275e-06	0.0017077459519815289
3.38300e-06	0.0017126558947695419
3.38325e-06	0.0016397107848825786
3.38350e-06	0.0015357513131981316
3.38375e-06	0.0014605174122013032
3.38400e-06	0.0014498476115663284
3.38425e-06	0.0015011188795661815
3.38450e-06	0.0015687337668849862
3.38475e-06	0.0016109846169601767
3.38500e-06	0.0016070994432347363
3.38525e-06	0.0015541858492299353
3.38550e-06	0.001481617594084834
3.38575e-06	0.0014268455088244684
3.38600e-06	0.0014123459180157526
3.38625e-06	0.0014365018220668685
3.38650e-06	0.0014707784388798648
3.38675e-06	0.0014890801542655312
3.38700e-06	0.001478427316551142
3.38725e-06	0.001437040585909431
3.38750e-06	0.0013833513675703092
3.38775e-06	0.0013408486920785904
3.38800e-06	0.0013236397085127785
3.38825e-06	0.0013307390250116573
3.38850e-06	0.0013443010448202738
3.38875e-06	0.0013480095618224868
3.38900e-06	0.0013337649913440922
3.38925e-06	0.0013004843160724752
3.38950e-06	0.0012597441810284278
3.38975e-06	0.0012262877507769154
3.39000e-06	0.0012089805577605887
3.39025e-06	0.0012072338187700926
3.39050e-06	0.001209897871711434
3.39075e-06	0.0012067821855574136
3.39100e-06	0.0011928439418533133
3.39125e-06	0.0011658661867475634
3.39150e-06	0.00113768162987966
3.39175e-06	0.00111332001044142
3.39200e-06	0.001099460250568321
3.39225e-06	0.001097324086382832
3.39250e-06	0.001096263484593327
3.39275e-06	0.0010940916259036427
3.39300e-06	0.0010869584701694664
3.39325e-06	0.0010740189439026825
3.39350e-06	0.001060545092762094
3.39375e-06	0.001051502569591713
3.39400e-06	0.0010504870543841163
3.39425e-06	0.0010586354162919825
3.39450e-06	0.0010676278014111898
3.39475e-06	0.001077449357988682
3.39500e-06	0.0010852202377021269
3.39525e-06	0.0010906312036862468
3.39550e-06	0.0010958266448764002
3.39575e-06	0.001104814662152967
3.39600e-06	0.00112193171753597
3.39625e-06	0.0011398270808072064
3.39650e-06	0.001162274900055728
3.39675e-06	0.0011851800220788037
3.39700e-06	0.001206950190543544
3.39725e-06	0.0012282202222047784
3.39750e-06	0.0012494514665229296
3.39775e-06	0.0012706827108411168
3.39800e-06	0.001298953378936758
3.39825e-06	0.001327931170405006
