Time(s)	Current(A)
1.15000e-05	0.0021275284246903984
1.15003e-05	0.002097852249945435
1.15005e-05	0.002068176075200471
1.15007e-05	0.0020384999004557087
1.15010e-05	0.0020127968711216625
1.15013e-05	0.0019947640136226824
1.15015e-05	0.0019790661377159812
1.15018e-05	0.001963368261809174
1.15020e-05	0.001947670385902366
1.15023e-05	0.0019319725099955585
1.15025e-05	0.001916274634088857
1.15028e-05	0.0019005767581820494
1.15030e-05	0.0018848788822752418
1.15033e-05	0.0018691810063685406
1.15035e-05	0.001853483130461733
1.15038e-05	0.0018377852545549253
1.15040e-05	0.0018309621663322258
1.15043e-05	0.0018275001334092569
1.15045e-05	0.0018240381004862877
1.15048e-05	0.0018205760675633423
1.15050e-05	0.0018171140346403731
1.15053e-05	0.001813652001717404
1.15055e-05	0.0018101899687944585
1.15058e-05	0.0018067279358714894
1.15060e-05	0.0018032659029485203
1.15063e-05	0.0017998038700255748
1.15065e-05	0.0017963418371026057
1.15068e-05	0.0017975575679210593
1.15070e-05	0.0018005448591615976
1.15073e-05	0.001803532150402156
1.15075e-05	0.0018065194416427145
1.15078e-05	0.0018095067328832528
1.15080e-05	0.0018124940241238115
1.15083e-05	0.00181548131536437
1.15085e-05	0.0018184686066049082
1.15088e-05	0.0018214558978454666
1.15090e-05	0.0018244431890860253
1.15092e-05	0.0018274304803265636
1.15095e-05	0.0018304184470653386
1.15098e-05	0.0018334066696284717
1.15100e-05	0.0018363948921915846
1.15103e-05	0.0018393831147547179
1.15105e-05	0.001842371337317851
1.15108e-05	0.001845359559880984
1.15110e-05	0.001848347782444097
1.15113e-05	0.00185133600500723
1.15115e-05	0.0018543242275703632
1.15118e-05	0.0018573124501334761
1.15120e-05	0.0018603006726966092
1.15123e-05	0.0018599785042837502
1.15125e-05	0.001858402626201081
1.15128e-05	0.0018568267481184014
1.15130e-05	0.0018552508700357218
1.15133e-05	0.0018536749919530527
1.15135e-05	0.001852099113870373
1.15138e-05	0.0018505232357876934
1.15140e-05	0.0018489473577050243
1.15143e-05	0.0018473714796223447
1.15145e-05	0.0018457956015396648
1.15148e-05	0.0018442197234569957
1.15150e-05	0.001842643845374316
1.15153e-05	0.0018410679672916364
1.15155e-05	0.0018394920892089673
1.15158e-05	0.0018371046215787485
1.15160e-05	0.0018319266527226678
1.15163e-05	0.0018267486838666224
1.15165e-05	0.0018215707150105419
1.15168e-05	0.0018163927461544614
1.15170e-05	0.0018112147772984157
1.15173e-05	0.0018060368084423352
1.15175e-05	0.0018008588395862547
1.15177e-05	0.0017956808707302093
1.15180e-05	0.0017905029018741288
1.15183e-05	0.0017853249330180483
1.15185e-05	0.0017801469641620027
1.15188e-05	0.0017749689953059221
1.15190e-05	0.0017697910264498416
1.15193e-05	0.001764613057593761
1.15195e-05	0.0017594879645252694
1.15198e-05	0.0017543828965494435
1.15200e-05	0.0017492778285736175
1.15203e-05	0.001744172760597826
1.15205e-05	0.001739067692622
1.15208e-05	0.0017365714831959153
1.15210e-05	0.001735063299418591
1.15213e-05	0.0017335551156412567
1.15215e-05	0.0017320469318639223
1.15218e-05	0.001730538748086598
1.15220e-05	0.0017364462006183765
1.15223e-05	0.0017451620993482768
1.15225e-05	0.0017538779980781178
1.15228e-05	0.0017684354646562421
1.15230e-05	0.0017852052469858413
1.15233e-05	0.0018019750293153266
1.15235e-05	0.0018258529949407316
1.15238e-05	0.0018524229683076873
1.15240e-05	0.0018789929416744634
1.15243e-05	0.0019126314691084527
1.15245e-05	0.0019489469959217214
1.15248e-05	0.001985262522734744
1.15250e-05	0.0020273304234857555
1.15253e-05	0.002071576860513806
1.15255e-05	0.0021158232975415567
1.15258e-05	0.002167934261526983
1.15260e-05	0.0022230236753601426
1.15262e-05	0.002278113089192929
1.15265e-05	0.0023332025030260886
1.15268e-05	0.0023882919168592485
1.15270e-05	0.0024433813306920346
1.15273e-05	0.0024998749893969828
1.15275e-05	0.002561196885539667
1.15278e-05	0.002622518781682352
1.15280e-05	0.002683840677824621
1.15283e-05	0.0027451625739673053
1.15285e-05	0.0028064844701099897
1.15288e-05	0.0028678063662522586
1.15290e-05	0.002924310276932787
1.15293e-05	0.002978989522487762
1.15295e-05	0.0030336687680423665
1.15298e-05	0.0030883480135973414
1.15300e-05	0.0031430272591523164
1.15303e-05	0.003197706504706921
1.15305e-05	0.003252385750261896
1.15308e-05	0.003290829733931818
1.15310e-05	0.0033231251070669787
1.15313e-05	0.003355420480202358
1.15315e-05	0.0033877158533377376
1.15318e-05	0.003420011226472898
1.15320e-05	0.0034523065996082776
1.15323e-05	0.003484601972743657
1.15325e-05	0.0035008501137477875
1.15328e-05	0.0035110208547545424
1.15330e-05	0.0035211915957612974
1.15333e-05	0.0035212370125431653
1.15335e-05	0.003517447771427896
1.15338e-05	0.0035136585303126265
1.15340e-05	0.0034938885550406273
1.15343e-05	0.0034680663638518945
1.15345e-05	0.0034422441726631617
1.15347e-05	0.0034164219814746036
1.15350e-05	0.003390599790285871
1.15353e-05	0.003364777599097138
1.15355e-05	0.0033389554079085804
1.15358e-05	0.0033079289041531134
1.15360e-05	0.003259008329865496
1.15362e-05	0.0032100877555782097
1.15365e-05	0.003161167181290592
1.15368e-05	0.0031122466070029743
1.15370e-05	0.0030633260327153564
1.15373e-05	0.00301440545842807
1.15375e-05	0.0029654848841404527
1.15378e-05	0.002910547016773564
1.15380e-05	0.0028533302830798754
1.15383e-05	0.002796113549385799
1.15385e-05	0.0027388968156917223
1.15388e-05	0.0026816800819980335
1.15390e-05	0.002624463348303957
1.15393e-05	0.0025712911320352957
1.15395e-05	0.0025196506534519722
1.15398e-05	0.0024680101748682983
1.15400e-05	0.002416369696284625
1.15403e-05	0.0023647292177013013
1.15405e-05	0.0023130887391176274
1.15408e-05	0.0022702793020296648
1.15410e-05	0.002230814352710172
1.15413e-05	0.002191349403390412
1.15415e-05	0.0021575177714468303
1.15418e-05	0.002125819586738291
1.15420e-05	0.0020941214020295364
1.15423e-05	0.0020674129537711803
1.15425e-05	0.0020425942160906354
1.15428e-05	0.002017775478409922
1.15430e-05	0.0020028741428493434
1.15432e-05	0.001991728721028192
1.15435e-05	0.001980583299206965
1.15438e-05	0.0019694378773857384
1.15440e-05	0.001958292455564587
1.15443e-05	0.0019471470337433599
1.15445e-05	0.001936001611922133
1.15447e-05	0.0019248561901009816
1.15450e-05	0.0019137107682797548
1.15453e-05	0.0019130475119971421
1.15455e-05	0.0019163540563829976
1.15458e-05	0.0019196606007688304
1.15460e-05	0.0019229671451546858
1.15463e-05	0.0019262736895405412
1.15465e-05	0.0019295802339263743
1.15468e-05	0.0019328867783122297
1.15470e-05	0.0019361933226980852
1.15473e-05	0.001939499867083918
1.15475e-05	0.001947662839235828
1.15478e-05	0.0019576650353650433
1.15480e-05	0.0019676672314941908
1.15483e-05	0.0019776694276234063
1.15485e-05	0.0019876716237526215
1.15488e-05	0.0019976738198817694
1.15490e-05	0.0020076760160109845
1.15493e-05	0.0020176782121402
1.15495e-05	0.0020276804082693476
1.15498e-05	0.002037278847775822
1.15500e-05	0.002045489044474789
1.15503e-05	0.0020536992411737003
1.15505e-05	0.002061909437872667
1.15508e-05	0.002070119634571634
1.15510e-05	0.002078329831270545
1.15513e-05	0.0020865400279695117
1.15515e-05	0.0020947502246684785
1.15517e-05	0.00210296042136739
1.15520e-05	0.0021111706180663567
1.15523e-05	0.002117883183865903
1.15525e-05	0.0021240285676146047
1.15528e-05	0.002130173951363348
1.15530e-05	0.0021363193351120915
1.15532e-05	0.002142464718860793
1.15535e-05	0.0021486101026095363
1.15538e-05	0.0021547554863582796
1.15540e-05	0.0021609008701070228
1.15543e-05	0.0021670462538557244
1.15545e-05	0.0021731916376044676
1.15548e-05	0.002179337021353211
1.15550e-05	0.0021854824051019124
1.15553e-05	0.0021916277888506556
1.15555e-05	0.0021977731725993993
1.15558e-05	0.002203918556348101
1.15560e-05	0.002210063940096844
1.15563e-05	0.0022162093238455873
1.15565e-05	0.002222354707594289
1.15568e-05	0.002227751592409707
1.15570e-05	0.0022328650060705973
1.15573e-05	0.002237978419731453
1.15575e-05	0.0022430918333923434
1.15578e-05	0.0022482052470532343
1.15580e-05	0.00225331866071409
1.15583e-05	0.0022584320743749805
1.15585e-05	0.002263545488035871
1.15588e-05	0.002268658901696727
1.15590e-05	0.0022737723153576175
1.15593e-05	0.002278885729018508
1.15595e-05	0.0022839991426793636
1.15598e-05	0.0022891125563402545
1.15600e-05	0.002294225970001145
1.15602e-05	0.0022993393836620007
1.15605e-05	0.002304452797322891
1.15608e-05	0.002309566210983782
1.15610e-05	0.0023146796246446377
1.15613e-05	0.0023135038345347262
1.15615e-05	0.002309946200209741
1.15617e-05	0.00230638856588478
1.15620e-05	0.0023028309315597946
1.15623e-05	0.002299273297234809
1.15625e-05	0.0022957156629098236
1.15628e-05	0.0022921580285848626
1.15630e-05	0.0022886003942598774
1.15633e-05	0.002285042759934892
1.15635e-05	0.0022814851256099306
1.15638e-05	0.0022779274912849454
1.15640e-05	0.00227436985695996
1.15643e-05	0.0022708122226349986
1.15645e-05	0.002258135778081033
1.15648e-05	0.0022420058621203096
1.15650e-05	0.002225875946159696
1.15653e-05	0.002209746030198973
1.15655e-05	0.00219361611423825
1.15658e-05	0.0021774861982776362
1.15660e-05	0.0021613562823169135
1.15663e-05	0.0021452263663561903
1.15665e-05	0.0021290964503955763
1.15668e-05	0.0021129665344348536
1.15670e-05	0.0020968366184741303
1.15673e-05	0.002080706702513517
1.15675e-05	0.0020645767865527936
1.15678e-05	0.0020456611601152646
1.15680e-05	0.002025690530751148
1.15683e-05	0.002005719901386896
1.15685e-05	0.0019857492720226438
1.15687e-05	0.001965778642658527
1.15690e-05	0.001945808013294275
1.15693e-05	0.0019258373839300229
1.15695e-05	0.0019068081459803462
1.15698e-05	0.0018910157090825915
1.15700e-05	0.0018752232721848368
1.15702e-05	0.0018594308352871893
1.15705e-05	0.0018436383983894346
1.15708e-05	0.00182784596149168
1.15710e-05	0.0018120535245939253
1.15713e-05	0.0017962610876962775
1.15715e-05	0.0017865082240586228
1.15718e-05	0.0017790426646902737
1.15720e-05	0.0017715771053219752
1.15723e-05	0.0017692865659342074
1.15725e-05	0.0017689559076151107
1.15728e-05	0.0017686252492960166
1.15730e-05	0.001773461842728025
1.15733e-05	0.0017802553752485884
1.15735e-05	0.0017870489077691056
1.15738e-05	0.0017995093637005054
1.15740e-05	0.001814115994130131
1.15743e-05	0.0018287226245596575
1.15745e-05	0.0018517039918081145
1.15748e-05	0.0018778570353414794
1.15750e-05	0.001904010078874667
1.15753e-05	0.001930163122408032
1.15755e-05	0.001956316165941397
1.15758e-05	0.0019824692094745845
1.15760e-05	0.0020086222530079495
1.15763e-05	0.002037243751725065
1.15765e-05	0.0020743525791071396
1.15768e-05	0.0021114614064894656
1.15770e-05	0.002148570233871792
1.15772e-05	0.0021856790612538664
1.15775e-05	0.0022227878886361928
1.15778e-05	0.0022598967160185187
1.15780e-05	0.002297005543400593
1.15783e-05	0.0023334663653440863
1.15785e-05	0.002369681774980584
1.15787e-05	0.002405897184616836
1.15790e-05	0.0024421125942533334
1.15793e-05	0.002478328003889831
1.15795e-05	0.0025145434135263284
1.15798e-05	0.0025507588231625804
1.15800e-05	0.002586974232799078
1.15803e-05	0.0026231896424355754
1.15805e-05	0.0026594050520718274
1.15808e-05	0.0026862206338304057
1.15810e-05	0.002709476317312099
1.15813e-05	0.002732732000793635
1.15815e-05	0.002755987684275328
1.15818e-05	0.0027792433677570213
1.15820e-05	0.002802499051238557
1.15823e-05	0.0028257547347202506
1.15825e-05	0.0028490104182019435
1.15828e-05	0.0028722661016834794
1.15830e-05	0.0028955217851651723
1.15833e-05	0.0029121083680414485
1.15835e-05	0.0029261692323550807
1.15838e-05	0.0029402300966688078
1.15840e-05	0.0029542909609825353
1.15843e-05	0.002968351825296167
1.15845e-05	0.0029824126896098946
1.15848e-05	0.0029964735539236217
1.15850e-05	0.003010534418237254
1.15853e-05	0.0030245952825509815
1.15855e-05	0.0030386561468647086
1.15857e-05	0.0030527170111783407
1.15860e-05	0.003066777875492068
1.15863e-05	0.0030808387398057954
1.15865e-05	0.003094899604119427
1.15868e-05	0.0031089604684331547
1.15870e-05	0.003123021332746882
1.15872e-05	0.003137082197060514
1.15875e-05	0.0031511430613742415
1.15878e-05	0.0031652039256879687
1.15880e-05	0.0031792647900016962
1.15883e-05	0.003193325654315328
1.15885e-05	0.00320298704699713
1.15888e-05	0.003210982273905428
1.15890e-05	0.003218977500813672
1.15893e-05	0.0032269727277219693
1.15895e-05	0.0032349679546302672
1.15898e-05	0.003242963181538511
1.15900e-05	0.0032509584084468085
1.15903e-05	0.0032589536353551064
1.15905e-05	0.00326694886226335
1.15908e-05	0.0032749440891716476
1.15910e-05	0.0032829393160799455
1.15913e-05	0.0032909345429881893
1.15915e-05	0.0032989297698964868
1.15918e-05	0.0033069249968047847
1.15920e-05	0.0033149202237130284
1.15923e-05	0.003322915450621326
1.15925e-05	0.003330910677529624
1.15928e-05	0.003338905904437867
1.15930e-05	0.003346901131346165
1.15933e-05	0.003354896358254463
1.15935e-05	0.0033628915851627063
1.15938e-05	0.003372455505827738
1.15940e-05	0.003382613521435498
1.15942e-05	0.003392771537043189
1.15945e-05	0.003402929552650949
1.15948e-05	0.0034130875682587087
1.15950e-05	0.0034232455838663998
1.15953e-05	0.00343340359947416
1.15955e-05	0.00344356161508192
1.15957e-05	0.003453719630689611
1.15960e-05	0.0034638776462973704
1.15963e-05	0.0034740356619051304
1.15965e-05	0.0034841936775128904
1.15968e-05	0.0034943516931205815
1.15970e-05	0.003504509708728341
1.15973e-05	0.003514733685489298
1.15975e-05	0.0035251844575311317
1.15978e-05	0.003535635229573036
1.15980e-05	0.0035460860016149408
1.15983e-05	0.0035565367736567744
1.15985e-05	0.0035669875456986787
1.15988e-05	0.0035774383177405835
1.15990e-05	0.003587889089782417
1.15993e-05	0.003598339861824322
1.15995e-05	0.003608790633866226
1.15998e-05	0.00361924140590806
1.16000e-05	0.0036296921779499646
1.16003e-05	0.003640142949991869
1.16005e-05	0.0036505937220337025
1.16008e-05	0.0036610444940756073
1.16010e-05	0.0036614980819998917
1.16013e-05	0.0036581655411771943
1.16015e-05	0.003654833000354474
1.16018e-05	0.0036515004595317536
1.16020e-05	0.0036481679187090558
1.16023e-05	0.0036448353778863354
1.16025e-05	0.003641502837063615
1.16027e-05	0.0036381702962409172
1.16030e-05	0.003634837755418197
1.16033e-05	0.0036315052145954765
1.16035e-05	0.0036281726737727787
1.16038e-05	0.0036248401329500583
1.16040e-05	0.003621507592127338
1.16042e-05	0.003601838828428805
1.16045e-05	0.0035759832182816593
1.16048e-05	0.003550127608134514
1.16050e-05	0.0035242719979873684
1.16053e-05	0.003498416387840398
1.16055e-05	0.0034725607776932526
1.16058e-05	0.003446705167546107
1.16060e-05	0.003420849557399137
1.16063e-05	0.003394993947251991
1.16065e-05	0.0033691383371048456
1.16068e-05	0.0033432827269578753
1.16070e-05	0.00331742711681073
1.16073e-05	0.0032915715066635844
1.16075e-05	0.003260052444418169
1.16078e-05	0.0032263885223251885
1.16080e-05	0.0031927246002322078
1.16083e-05	0.003159060678139455
1.16085e-05	0.0031253967560464745
1.16088e-05	0.0030917328339534933
1.16090e-05	0.0030580689118607407
1.16093e-05	0.00302440498976776
1.16095e-05	0.0029907410676747793
1.16098e-05	0.0029627411981231907
1.16100e-05	0.0029368864158183607
1.16103e-05	0.0029110316335135304
1.16105e-05	0.0028851768512088757
1.16108e-05	0.0028593220689040457
1.16110e-05	0.002833467286599216
1.16113e-05	0.0028076125042945607
1.16115e-05	0.0027817577219897307
1.16118e-05	0.002755902939684901
1.16120e-05	0.0027303949968467073
1.16123e-05	0.002705018408883832
1.16125e-05	0.0026796418209209575
1.16127e-05	0.0026542652329582545
1.16130e-05	0.0026288886449953794
1.16133e-05	0.0026035120570325043
1.16135e-05	0.002578135469069629
1.16138e-05	0.002552758881106926
1.16140e-05	0.0025273822931440515
1.16143e-05	0.0025020057051811763
1.16145e-05	0.0024766291172184734
1.16148e-05	0.0024512525292555982
1.16150e-05	0.002425875941292723
1.16153e-05	0.0023958352719751475
1.16155e-05	0.0023640282240154436
1.16158e-05	0.00233222117605574
1.16160e-05	0.002300414128096252
1.16163e-05	0.002268607080136548
1.16165e-05	0.0022368000321768447
1.16168e-05	0.0022049929842173563
1.16170e-05	0.002173185936257653
1.16173e-05	0.0021413788882979493
1.16175e-05	0.002109571840338461
1.16178e-05	0.0020777647923787574
1.16180e-05	0.0020459577444190535
1.16183e-05	0.0020141506964595655
1.16185e-05	0.0019836159401107464
1.16188e-05	0.0019535630254274385
1.16190e-05	0.001923510110744334
1.16193e-05	0.0018934571960610262
1.16195e-05	0.0018634042813777184
1.16198e-05	0.0018333513666946141
1.16200e-05	0.001803298452011306
1.16203e-05	0.001780045910554799
1.16205e-05	0.001759368803168648
1.16208e-05	0.001738691695782357
1.16210e-05	0.001718014588396066
1.16212e-05	0.001697337481009915
1.16215e-05	0.001676660373623624
1.16218e-05	0.001655983266237333
1.16220e-05	0.0016429768069875195
1.16223e-05	0.0016328753719024502
1.16225e-05	0.0016227739368173126
1.16228e-05	0.0016177750745262748
1.16230e-05	0.001614708656144253
1.16233e-05	0.0016116422377622105
1.16235e-05	0.0016137052432284244
1.16238e-05	0.0016177108616218273
1.16240e-05	0.0016217164800152576
1.16243e-05	0.0016304825313565
1.16245e-05	0.0016410514515689397
1.16248e-05	0.0016516203717814508
1.16250e-05	0.001669135817301275
1.16253e-05	0.0016892820475368343
1.16255e-05	0.00170942827777253
1.16258e-05	0.001729574508008226
1.16260e-05	0.0017497207382437853
1.16263e-05	0.0017698669684794812
1.16265e-05	0.001790013198715177
1.16268e-05	0.001811956979512999
1.16270e-05	0.0018400813069739236
1.16273e-05	0.0018682056344348486
1.16275e-05	0.0018963299618955827
1.16278e-05	0.0019244542893565074
1.16280e-05	0.0019525786168174324
1.16283e-05	0.0019807029442781665
1.16285e-05	0.0020088272717390912
1.16288e-05	0.002033737788266538
1.16290e-05	0.0020574311718660806
1.16293e-05	0.0020811245554657838
1.16295e-05	0.0021048179390654865
1.16297e-05	0.0021285113226650293
1.16300e-05	0.0021522047062647325
1.16303e-05	0.0021758980898644357
1.16305e-05	0.002199591473464139
1.16308e-05	0.002223284857063681
1.16310e-05	0.0022469782406633844
1.16313e-05	0.0022706716242630876
1.16315e-05	0.0022943650078626303
1.16318e-05	0.002318058391462333
1.16320e-05	0.002332160752615355
1.16323e-05	0.002342630806369458
1.16325e-05	0.0023531008601236315
1.16328e-05	0.002363570913877805
1.16330e-05	0.002374040967631908
1.16333e-05	0.002384511021386082
1.16335e-05	0.0023949810751402556
1.16338e-05	0.0024054511288943586
1.16340e-05	0.0024159211826485323
1.16343e-05	0.002426391236402706
1.16345e-05	0.002436861290156809
1.16348e-05	0.0024473313439109827
1.16350e-05	0.0024578013976651564
1.16353e-05	0.002462861958712075
1.16355e-05	0.002465873839287624
1.16358e-05	0.002468885719863173
1.16360e-05	0.0024718976004387016
1.16363e-05	0.002474909481014251
1.16365e-05	0.0024779213615898
1.16368e-05	0.002480933242165329
1.16370e-05	0.0024839451227408778
1.16373e-05	0.0024869570033164267
1.16375e-05	0.0024899688838919557
1.16378e-05	0.0024929807644675046
1.16380e-05	0.002495992645043054
1.16382e-05	0.0024990045256185825
1.16385e-05	0.002502016406194132
1.16388e-05	0.0025024678228451384
1.16390e-05	0.0025019495418323644
1.16393e-05	0.0025014312608195944
1.16395e-05	0.0025009129798068204
1.16398e-05	0.002500394698794047
1.16400e-05	0.0024998764177812764
1.16403e-05	0.002499358136768503
1.16405e-05	0.002498839855755729
1.16408e-05	0.002498321574742959
1.16410e-05	0.002497803293730185
1.16413e-05	0.002497285012717411
1.16415e-05	0.002496766731704641
1.16418e-05	0.002496248450691867
1.16420e-05	0.0024957301696790935
1.16423e-05	0.002486428124378594
1.16425e-05	0.002473799496098919
1.16428e-05	0.002461170867819244
1.16430e-05	0.0024485422395396543
1.16433e-05	0.002435913611259979
1.16435e-05	0.002423284982980304
1.16438e-05	0.0024106563547007143
1.16440e-05	0.0023980277264210393
1.16443e-05	0.0023853990981413642
1.16445e-05	0.0023727704698617747
1.16448e-05	0.002360141841582099
1.16450e-05	0.0023376798629577387
1.16453e-05	0.002311493802628186
1.16455e-05	0.0022853077422984565
1.16458e-05	0.0022591216819687265
1.16460e-05	0.0022329356216391743
1.16463e-05	0.0022067495613094443
1.16465e-05	0.0021805635009797143
1.16467e-05	0.002154377440650162
1.16470e-05	0.002128191380320432
1.16473e-05	0.0021020053199907024
1.16475e-05	0.0020758192596609724
1.16478e-05	0.002046541696456928
1.16480e-05	0.002016093320773236
1.16483e-05	0.0019856449450895443
1.16485e-05	0.001955196569406059
