Time(s)	Current(A)
7.25000e-06	0.0008226580481264037
7.25025e-06	0.0008657355205576284
7.25050e-06	0.0009082074271935387
7.25075e-06	0.0009506793338295929
7.25100e-06	0.0009931512404655033
7.25125e-06	0.0010356231471014134
7.25150e-06	0.0010775409881735292
7.25175e-06	0.0011159126035957978
7.25200e-06	0.0011542842190180667
7.25225e-06	0.0011919228532861852
7.25250e-06	0.0012248701355930351
7.25275e-06	0.001257817417899885
7.25300e-06	0.0012896922805684498
7.25325e-06	0.0013147032587506066
7.25350e-06	0.0013397142369327634
7.25375e-06	0.0013634154250272193
7.25400e-06	0.0013787334694885293
7.25425e-06	0.0013940515139498392
7.25450e-06	0.001407993362487675
7.25475e-06	0.0014131270453495992
7.25500e-06	0.0014182607282115407
7.25525e-06	0.0014219770628284703
7.25550e-06	0.0014166218416091095
7.25575e-06	0.0014112666203897305
7.25600e-06	0.001404555291746191
7.25625e-06	0.0013891643712934175
7.25650e-06	0.0013737734508405916
7.25675e-06	0.0013571589724515345
7.25700e-06	0.001332713268267062
7.25725e-06	0.0013082675640825065
7.25750e-06	0.0012827504627751078
7.25775e-06	0.0012503760214618608
7.25800e-06	0.0012180015801485043
7.25825e-06	0.0011847834008850324
7.25850e-06	0.0011461649849804905
7.25875e-06	0.001107546569075818
7.25900e-06	0.0010682406870716357
7.25925e-06	0.0010245347663826961
7.25950e-06	0.0009808288456939047
7.25975e-06	0.0009371229250051132
7.26000e-06	0.0008934170043161736
7.26025e-06	0.000848575311707681
7.26050e-06	0.0008030811352602724
7.26075e-06	0.0007575869588127097
7.26100e-06	0.000712092782365301
7.26125e-06	0.0006669307688100885
7.26150e-06	0.0006238947212854806
7.26175e-06	0.0005808586737610184
7.26200e-06	0.0005383451841613088
7.26225e-06	0.0004991762596022683
7.26250e-06	0.0004604425098309302
7.26275e-06	0.0004248383569355236
7.26300e-06	0.00039180729367130064
7.26325e-06	0.00036145274814680846
7.26350e-06	0.00033329358993715855
7.26375e-06	0.00030652206090112344
7.26400e-06	0.00028082613777174873
7.26425e-06	0.0002563413901721097
7.26450e-06	0.0002332473584533627
7.26475e-06	0.00021172348621485747
7.26500e-06	0.00019193944770711213
7.26525e-06	0.00017395103007347918
7.26550e-06	0.00015744785469443
7.26575e-06	0.00014191504557305057
7.26600e-06	0.0001271481772025961
7.26625e-06	0.00011322327643795873
7.26650e-06	0.00010024388684235772
7.26675e-06	8.831349770423055e-05
7.26700e-06	7.752944001338838e-05
7.26725e-06	6.791772034217544e-05
7.26750e-06	5.9274983179204475e-05
7.26775e-06	5.126978325077028e-05
7.26800e-06	4.376518685637814e-05
7.26825e-06	3.6799931059061376e-05
7.26850e-06	3.0429977608828037e-05
7.26875e-06	2.4711254333929847e-05
7.26900e-06	1.9695829310925366e-05
7.26925e-06	1.5391080804858317e-05
7.26950e-06	1.1660729388792057e-05
7.26975e-06	8.288271888807766e-06
7.27000e-06	5.179061865084033e-06
7.27025e-06	2.348495970432111e-06
7.27050e-06	-1.772448454900575e-07
7.27075e-06	-2.3719988245828903e-06
7.27100e-06	-4.212028392088446e-06
7.27125e-06	-5.701588135711063e-06
7.27150e-06	-6.934918229187701e-06
7.27175e-06	-8.056498419740849e-06
7.27200e-06	-9.134469296219254e-06
7.27225e-06	-1.0168037881454778e-05
7.27250e-06	-1.1149655516813195e-05
7.27275e-06	-1.2071787849777732e-05
7.27300e-06	-1.292973464192362e-05
7.27325e-06	-1.3751061300564845e-05
7.27350e-06	-1.4663444931150493e-05
7.27375e-06	-1.5839665063850903e-05
7.27400e-06	-1.7349131139979013e-05
7.27425e-06	-1.9175296171922177e-05
7.27450e-06	-2.129346059415052e-05
7.27475e-06	-2.367893044550842e-05
7.27500e-06	-2.6308795268986338e-05
7.27525e-06	-2.9180351451964216e-05
7.27550e-06	-3.235360180519698e-05
7.27575e-06	-3.591679381393082e-05
7.27600e-06	-3.989341842204918e-05
7.27625e-06	-4.4253128142182376e-05
7.27650e-06	-4.8960459268473856e-05
7.27675e-06	-5.397996697342075e-05
7.27700e-06	-5.929543955530123e-05
7.27725e-06	-6.494683590530501e-05
7.27750e-06	-7.067899919203973e-05
7.27775e-06	-7.692810090815461e-05
7.27800e-06	-8.326358422053927e-05
7.27825e-06	-9.015194187133833e-05
7.27850e-06	-9.704029952216073e-05
7.27875e-06	-0.00010400294975045459
7.27900e-06	-0.00011144110010139034
7.27925e-06	-0.0001188792504523513
7.27950e-06	-0.00012631740080328705
7.27975e-06	-0.00013375555115422282
7.28000e-06	-0.0001412072396121629
7.28025e-06	-0.00014874557698906293
7.28050e-06	-0.00015628391436598848
7.28075e-06	-0.0001638222517428885
7.28100e-06	-0.0001713605891197885
7.28125e-06	-0.00017882231267763335
7.28150e-06	-0.00018579367930353342
7.28175e-06	-0.0001927650459294335
7.28200e-06	-0.00019965024168903784
7.28225e-06	-0.00020598391186048122
7.28250e-06	-0.00021224657520353354
7.28275e-06	-0.0002179986048026257
7.28300e-06	-0.00022331165384774197
7.28325e-06	-0.00022792989872895484
7.28350e-06	-0.00023101494049884903
7.28375e-06	-0.00023148873662604065
7.28400e-06	-0.00022891382931236265
7.28425e-06	-0.0002233726535945714
7.28450e-06	-0.00021499644650974624
7.28475e-06	-0.00020391648757151003
7.28500e-06	-0.00019025353696449266
7.28525e-06	-0.0001740093289806803
7.28550e-06	-0.000154820636839042
7.28575e-06	-0.0001321742156656656
7.28600e-06	-0.00010595809480244789
7.28625e-06	-7.638597724203262e-05
7.28650e-06	-4.3702120519715745e-05
7.28675e-06	-8.150779712515163e-06
7.28700e-06	3.003037058151488e-05
7.28725e-06	7.067825101548406e-05
7.28750e-06	0.00011385835334426133
7.28775e-06	0.00015973016710640802
7.28800e-06	0.00020820177179072934
7.28825e-06	0.0002589772901413512
7.28850e-06	0.0003118363990434828
7.28875e-06	0.00036678610441604723
7.28900e-06	0.00042211251700178425
7.28925e-06	0.0004798499958329463
7.28950e-06	0.0005375874746641083
7.28975e-06	0.0005955849844646648
7.29000e-06	0.0006552467891630724
7.29025e-06	0.0007149085938614801
7.29050e-06	0.0007745703985600899
7.29075e-06	0.0008338895032112615
7.29100e-06	0.0008910152001236694
7.29125e-06	0.0009481408970362708
7.29150e-06	0.0010052665939486788
7.29175e-06	0.0010615848653240231
7.29200e-06	0.0011127353130131934
7.29225e-06	0.0011638857607021902
7.29250e-06	0.0012141032022033242
7.29275e-06	0.0012583490571549155
7.29300e-06	0.0013015244903046915
7.29325e-06	0.0013378488258774348
7.29350e-06	0.001374173161450055
7.29375e-06	0.0014096889545838593
7.29400e-06	0.0014400297754453215
7.29425e-06	0.001470370596306681
7.29450e-06	0.0014998033288995424
7.29475e-06	0.0015234239588932004
7.29500e-06	0.0015470445888867781
7.29525e-06	0.001569804349859419
7.29550e-06	0.0015870542289762907
7.29575e-06	0.0016043041080931039
7.29600e-06	0.001620392192300717
7.29625e-06	0.0016290443570658852
7.29650e-06	0.001637696521831024
7.29675e-06	0.001646348686596163
7.29700e-06	0.001655000851361331
7.29725e-06	0.00166365301612647
7.29750e-06	0.001672305180891638
7.29775e-06	0.001680957345656777
7.29800e-06	0.0016896095104219158
7.29825e-06	0.0016923613344737556
7.29850e-06	0.001691723501773426
7.29875e-06	0.0016910856690730961
7.29900e-06	0.001690447836372764
7.29925e-06	0.0016898100036724345
7.29950e-06	0.0016891721709721046
7.29975e-06	0.0016885343382717726
7.30000e-06	0.001687896505571443
7.30025e-06	0.001686785167503628
7.30050e-06	0.001682643219007313
7.30075e-06	0.001678501270511012
7.30100e-06	0.001674359322014711
7.30125e-06	0.0016702173735183958
7.30150e-06	0.001666075425022095
7.30175e-06	0.0016619334765257798
7.30200e-06	0.0016577915280294787
7.30225e-06	0.0016532298937800103
7.30250e-06	0.0016484271563949582
7.30275e-06	0.0016436244190099227
7.30300e-06	0.001638821681624887
7.30325e-06	0.001634018944239835
7.30350e-06	0.0016292162068547993
7.30375e-06	0.0016244134694697637
7.30400e-06	0.0016188064765664946
7.30425e-06	0.0016080519492789984
7.30450e-06	0.0015972974219915022
7.30475e-06	0.0015850715577462584
7.30500e-06	0.0015720048350451492
7.30525e-06	0.001557542961635448
7.30550e-06	-0.00020392324928487633
7.30575e-06	-0.006540591400639869
7.30600e-06	-0.010486977029660961
7.30625e-06	-0.009280128721222249
7.30650e-06	-0.006900365450747626
7.30675e-06	-0.002449590317086685
7.30700e-06	0.0013566162056761668
7.30725e-06	0.0017568486393121265
7.30750e-06	0.0002584068183094857
7.30775e-06	-0.00275366613530984
7.30800e-06	-0.005641659770307554
7.30825e-06	-0.005757540215909557
7.30850e-06	-0.0038817157869642416
7.30875e-06	-0.0014445046669945877
7.30900e-06	0.0008557701500864419
7.30925e-06	0.0017122405745108
7.30950e-06	0.0007262329076258271
7.30975e-06	-0.0008796704168064208
7.31000e-06	-0.0021662325534264667
7.31025e-06	-0.0024002007192195545
7.31050e-06	-0.0015030665129871787
7.31075e-06	-0.00021885966131757304
7.31100e-06	0.0008180138369988082
7.31125e-06	0.0011543249247418237
7.31150e-06	0.0006386012795640485
7.31175e-06	-0.0002685487200124105
7.31200e-06	-0.0010402374970707247
7.31225e-06	-0.0012012378655138355
7.31250e-06	-0.0006515947706087972
7.31275e-06	0.0001426622810827221
7.31300e-06	0.0007842234190766908
7.31325e-06	0.0009894049417612531
7.31350e-06	0.0006637823547177382
7.31375e-06	9.63334108713609e-05
7.31400e-06	-0.00038279897581115606
7.31425e-06	-0.0004761080220577252
7.31450e-06	-0.00012121654452184379
7.31475e-06	0.00038973315709097897
7.31500e-06	0.0008076709960335125
7.31525e-06	0.0009547232359894951
7.31550e-06	0.000771579965291781
7.31575e-06	0.0004390897296770057
7.31600e-06	0.00016387012991102125
7.31625e-06	0.0001320784772864264
7.31650e-06	0.0003825778046621138
7.31675e-06	0.0007321679005424876
7.31700e-06	0.001024645109935959
7.31725e-06	0.0011484159244577355
7.31750e-06	0.0010661622878316323
7.31775e-06	0.000890998021314445
7.31800e-06	0.0007521681216120147
7.31825e-06	0.0007660903107244859
7.31850e-06	0.0009569112538500511
7.31875e-06	0.00120968198742344
7.31900e-06	0.00142637406153325
7.31925e-06	0.0015369105603173093
7.31950e-06	0.001517745318729634
7.31975e-06	0.0014395603873511773
7.32000e-06	0.0013831354623897445
7.32025e-06	0.001421208481711952
7.32050e-06	0.0015687151017496864
7.32075e-06	0.0017534642762312759
7.32100e-06	0.001913870021111475
7.32125e-06	0.0020058603298269907
7.32150e-06	0.002014512679198293
7.32175e-06	0.0019839276685869483
7.32200e-06	0.0019645265329423303
7.32225e-06	0.0020016891874435868
7.32250e-06	0.002104585773145632
7.32275e-06	0.002227811733470793
7.32300e-06	0.0023326167974529388
7.32325e-06	0.0023913314378257713
7.32350e-06	0.002394834935659094
7.32375e-06	0.0023711742013506256
7.32400e-06	0.002352244196620634
7.32425e-06	0.002366626703579906
7.32450e-06	0.0024201853592262
7.32475e-06	0.0024845999299707862
7.32500e-06	0.0025357204434018014
7.32525e-06	0.0025563400664153618
7.32550e-06	0.002540871628979581
7.32575e-06	0.0025070095495035695
7.32600e-06	0.002474856886415943
7.32625e-06	0.002462439211069748
7.32650e-06	0.0024735510250738692
7.32675e-06	0.002490574376252324
7.32700e-06	0.002498505182754698
7.32725e-06	0.0024866896458145262
7.32750e-06	0.002451753431259522
7.32775e-06	0.0024049052466831385
7.32800e-06	0.0023588612068611886
7.32825e-06	0.0023250352561010107
7.32850e-06	0.002305926544285452
7.32875e-06	0.0022888392811563907
7.32900e-06	0.002267010476991266
7.32925e-06	0.0022350944225569404
7.32950e-06	0.0021871336382705176
7.32975e-06	0.0021376983589210157
7.33000e-06	0.0020859177550949697
7.33025e-06	0.0020413623208792612
7.33050e-06	0.0020082992053271935
7.33075e-06	0.001975253233498965
7.33100e-06	0.0019422345303920627
7.33125e-06	0.0019039877779234375
7.33150e-06	0.0018574253162751434
7.33175e-06	0.0018112209180386923
7.33200e-06	0.001765586053674873
7.33225e-06	0.0017259486840501637
7.33250e-06	0.0016958508995756716
7.33275e-06	0.0016674103941663606
7.33300e-06	0.0016416059485530976
7.33325e-06	0.0016129721234286422
7.33350e-06	0.001579837901398025
7.33375e-06	0.0015467036793672955
7.33400e-06	0.0015131451586738967
7.33425e-06	0.001479532050575367
7.33450e-06	0.0014470408745000521
7.33475e-06	0.0014163342378924052
7.33500e-06	0.0013856276012847583
7.33525e-06	0.001351795976137676
7.33550e-06	0.001312993759842523
7.33575e-06	0.0012723434815735525
7.33600e-06	0.001228753685168267
7.33625e-06	0.0011855836291366037
7.33650e-06	0.0011430812100446986
7.33675e-06	0.001099627033419271
7.33700e-06	0.0010546589960188763
7.33725e-06	0.001007426256970706
7.33750e-06	0.0009565912948038603
7.33775e-06	0.0009043365716644268
7.33800e-06	0.0008498235838195962
7.33825e-06	0.0007955025247941555
7.33850e-06	0.0007412038341527776
7.33875e-06	0.0006864551440863538
7.33900e-06	0.0006317064540201157
7.33925e-06	0.0005755672087266211
7.33950e-06	0.0005172161532402956
7.33975e-06	0.00045886509775416786
7.34000e-06	0.00040051404226784247
7.34025e-06	0.0003426587729395569
7.34050e-06	0.00028603838590175024
7.34075e-06	0.00023043914451200044
7.34100e-06	0.0001756261855945707
7.34125e-06	0.00012146236159481847
7.34150e-06	6.792456122624531e-05
7.34175e-06	1.547951172808779e-05
7.34200e-06	-3.520797623134413e-05
7.34225e-06	-8.339297907063845e-05
7.34250e-06	-0.00012864248648528613
7.34275e-06	-0.00017103096622364333
7.34300e-06	-0.00021059208582130425
7.34325e-06	-0.0002475703763159002
7.34350e-06	-0.0002828050075436047
7.34375e-06	-0.00031693040274107
7.34400e-06	-0.000350373061346124
7.34425e-06	-0.0003827941292672009
7.34450e-06	-0.0004135902601535023
7.34475e-06	-0.0004432859965215747
7.34500e-06	-0.0004712314508704794
7.34525e-06	-0.0004983705004747545
7.34550e-06	-0.0005242268867240186
7.34575e-06	-0.0005500832729733703
7.34600e-06	-0.0005743729158887769
7.34625e-06	-0.000596170504690369
7.34650e-06	-0.0006179680934920348
7.34675e-06	-0.0006397656822936269
7.34700e-06	-0.000661563271095219
7.34725e-06	-0.0006833608598968849
7.34750e-06	-0.0007051584486984769
7.34775e-06	-0.000726956037500069
7.34800e-06	-0.0007487536263017349
7.34825e-06	-0.0007705512151033269
7.34850e-06	-0.0007923488039049928
7.34875e-06	-0.0008141463927065849
7.34900e-06	-0.0008359439815081768
7.34925e-06	-0.0008577415703098428
7.34950e-06	-0.0008795391591114349
7.34975e-06	-0.0008956644870054899
7.35000e-06	-0.0009110600600568654
7.35025e-06	-0.0009264556331081889
7.35050e-06	-0.0009418512061595123
7.35075e-06	-0.0009572467792108878
7.35100e-06	-0.0009726423522622113
7.35125e-06	-0.0009880379253135345
7.35150e-06	-0.0010034334983649103
7.35175e-06	-0.0010188290714162336
7.35200e-06	-0.001034224644467557
7.35225e-06	-0.0010496202175189326
7.35250e-06	-0.001065015790570256
7.35275e-06	-0.0010804113636216316
7.35300e-06	-0.0010958069366729549
7.35325e-06	-0.0011102458420518798
7.35350e-06	-0.0011231630766142609
7.35375e-06	-0.0011360803111765984
7.35400e-06	-0.0011489975457389357
7.35425e-06	-0.0011619147803013168
7.35450e-06	-0.0011748320148636544
7.35475e-06	-0.0011877492494259917
7.35500e-06	-0.0012006664839883728
7.35525e-06	-0.0012135837185507103
7.35550e-06	-0.0012265009531130476
7.35575e-06	-0.001241756452301117
7.35600e-06	-0.0012607311835117364
7.35625e-06	-0.0012797059147223555
7.35650e-06	-0.001298680645933039
7.35675e-06	-0.0013176553771436584
7.35700e-06	-0.0013366301083543417
7.35725e-06	-0.001355604839564961
7.35750e-06	-0.0013745795707755801
7.35775e-06	-0.0013935543019862637
7.35800e-06	-0.0014125290331968828
7.35825e-06	-0.0014331953959483585
7.35850e-06	-0.0014565524593707414
7.35875e-06	-0.001479909522793045
7.35900e-06	-0.0015032665862153485
7.35925e-06	-0.0015266236496377312
7.35950e-06	-0.001549980713060035
7.35975e-06	-0.0015733377764823385
7.36000e-06	-0.0015966948399047211
7.36025e-06	-0.0016200519033270247
7.36050e-06	-0.0016420319158119946
7.36075e-06	-0.0016638347662083905
7.36100e-06	-0.0016856376166047124
7.36125e-06	-0.0017074404670010344
7.36150e-06	-0.00172924331739743
7.36175e-06	-0.001751046167793752
7.36200e-06	-0.001772849018190148
7.36225e-06	-0.0017946518685864699
7.36250e-06	-0.0018120600707664076
7.36275e-06	-0.001822478167466983
7.36300e-06	-0.0018328962641675228
7.36325e-06	-0.0018433143608680628
7.36350e-06	-0.001853732457568638
7.36375e-06	-0.001864150554269178
7.36400e-06	-0.0018745686509697179
7.36425e-06	-0.0018849867476702933
7.36450e-06	-0.001895404844370833
7.36475e-06	-0.0019058229410713731
7.36500e-06	-0.0019162410377719483
7.36525e-06	-0.0019266591344724883
7.36550e-06	-0.0019370772311730284
7.36575e-06	-0.0019414356583987303
7.36600e-06	-0.0019361556056571706
7.36625e-06	-0.001930875552915593
7.36650e-06	-0.0019255955001740333
7.36675e-06	-0.0019203154474324738
7.36700e-06	-0.0019150353946908961
7.36725e-06	-0.0019097553419493364
7.36750e-06	-0.001904475289207777
7.36775e-06	-0.0018991952364661993
7.36800e-06	-0.0018939151837246396
7.36825e-06	-0.0018886351309830801
7.36850e-06	-0.0018833550782415024
7.36875e-06	-0.0018780750254999428
7.36900e-06	-0.0018699831383180586
7.36925e-06	-0.0018574187613353175
7.36950e-06	-0.0018448543843526191
7.36975e-06	-0.0018322900073699207
7.37000e-06	-0.0018197256303871796
7.37025e-06	-0.0018071612534044813
7.37050e-06	-0.0017945968764217404
7.37075e-06	-0.001782032499439042
7.37100e-06	-0.0017694681224563434
7.37125e-06	-0.0017579646013433903
7.37150e-06	-0.0017465975627936469
7.37175e-06	-0.0017352305242439034
7.37200e-06	-0.0017238634856941214
7.37225e-06	-0.0017124964471443777
7.37250e-06	-0.0017011294085946343
7.37275e-06	-0.0016897623700448522
7.37300e-06	-0.0016783953314951088
7.37325e-06	-0.001666757653581647
7.37350e-06	-0.0016546894980495241
7.37375e-06	-0.0016426213425174423
7.37400e-06	-0.0016266538698392293
7.37425e-06	-0.0016044841628066128
7.37450e-06	-0.0015823144557740713
7.37475e-06	-0.0015568031980445797
7.37500e-06	-0.0015259768864860947
7.37525e-06	-0.0014951505749276096
7.37550e-06	-0.001460761918884837
7.37575e-06	-0.0014207070155191654
7.37600e-06	-0.0013772700576302121
7.37625e-06	-0.001328453620728358
7.37650e-06	-0.001276836667783928
7.37675e-06	-0.0012207652280259848
7.37700e-06	-0.0011624073592521916
7.37725e-06	-0.001100412707919694
7.37750e-06	-0.001035886604886633
7.37775e-06	-0.0009673339874370873
7.37800e-06	-0.0008963809116162115
7.37825e-06	-0.0008216096787132078
7.37850e-06	-0.0007451463737472557
7.37875e-06	-0.0006659916674200111
7.37900e-06	-0.000585596617540186
7.37925e-06	-0.000503228683408812
7.37950e-06	-0.000420860749277438
7.37975e-06	-0.0003375345753516735
7.38000e-06	-0.0002526842300014924
7.38025e-06	-0.00016783388465131134
7.38050e-06	-8.309472822104957e-05
7.38075e-06	1.0782203988125822e-06
7.38100e-06	8.404705188438087e-05
7.38125e-06	0.000165366259770586
7.38150e-06	0.0002447524190255084
7.38175e-06	0.00032197639843110286
7.38200e-06	0.00039665451506592895
7.38225e-06	0.0004682659890756011
7.38250e-06	0.0005362633238012515
7.38275e-06	0.0006000990761921958
7.38300e-06	0.0006592304991843791
7.38325e-06	0.0007131944176314988
7.38350e-06	0.0007617585511005377
7.38375e-06	0.0008048969405577416
7.38400e-06	0.0008425771696232287
7.38425e-06	0.000874688904573554
7.38450e-06	0.0009011006767716873
7.38475e-06	0.0009216810757881822
7.38500e-06	0.0009363016478812395
7.38525e-06	0.0009448838151282744
7.38550e-06	0.0009474936734864861
7.38575e-06	0.0009443264867840543
7.38600e-06	0.0009355735049484431
7.38625e-06	0.0009213771498822386
7.38650e-06	0.0009018666293227857
7.38675e-06	0.0008771712000160937
7.38700e-06	0.0008474219478828831
7.38725e-06	0.000812781146027725
7.38750e-06	0.0007735016796021251
7.38775e-06	0.0007299174982006247
7.38800e-06	0.0006823598127073619
7.38825e-06	0.0006311292875385722
7.38850e-06	0.0005765183845230029
7.38875e-06	0.0005188194450024312
7.38900e-06	0.00045832600320260284
7.38925e-06	0.0003953511393440536
7.38950e-06	0.0003302646537325485
7.38975e-06	0.000263487028425217
7.39000e-06	0.00019543710973111687
7.39025e-06	0.00012651454568923733
7.39050e-06	5.711374975094444e-05
7.39075e-06	-1.2370869740006888e-05
7.39100e-06	-8.154421900891633e-05
7.39125e-06	-0.00014999900417935033
7.39150e-06	-0.0002172924257893974
7.39175e-06	-0.00028294995531617486
7.39200e-06	-0.0003464981285758739
7.39225e-06	-0.00040747553650156103
7.39250e-06	-0.00046542408480203674
7.39275e-06	-0.0005198857241231976
7.39300e-06	-0.0005704290459908235
7.39325e-06	-0.0006166129663675965
7.39350e-06	-0.0006599228421315492
7.39375e-06	-0.0007021746715201614
7.39400e-06	-0.0007427435776356668
7.39425e-06	-0.0007817822996701407
7.39450e-06	-0.0008183871185581493
7.39475e-06	-0.0008549919374462819
7.39500e-06	-0.0008892497588188699
