Time(s)	Current(A)
1.07500e-05	0.0016589968305264257
1.07503e-05	0.0016839380251856678
1.07505e-05	0.0017088792198449102
1.07508e-05	0.0017338204145039835
1.07510e-05	0.001755740577666157
1.07513e-05	0.001776404400770724
1.07515e-05	0.001797068223875151
1.07518e-05	0.001817732046979718
1.07520e-05	0.001838395870084285
1.07523e-05	0.0018590596931887119
1.07525e-05	0.001879723516293279
1.07528e-05	0.001900387339397846
1.07530e-05	0.001921051162502273
1.07533e-05	0.0019368676564103708
1.07535e-05	0.001950668317696917
1.07538e-05	0.0019644689789833697
1.07540e-05	0.0019782696402699156
1.07543e-05	0.001992070301556462
1.07545e-05	0.0020058709628429146
1.07548e-05	0.0020196716241294606
1.07550e-05	0.002033472285416007
1.07553e-05	0.002047272946702459
1.07555e-05	0.002059484329298507
1.07558e-05	0.002071034787146202
1.07560e-05	0.002082585244993819
1.07563e-05	0.002094135702841514
1.07565e-05	0.0021056861606892096
1.07567e-05	0.0021172366185368266
1.07570e-05	0.0021287870763845216
1.07573e-05	0.002140337534232217
1.07575e-05	0.002151887992079834
1.07578e-05	0.002163438449927529
1.07580e-05	0.002174988907775224
1.07582e-05	0.002186539365622841
1.07585e-05	0.0021980898234705364
1.07588e-05	0.0022096402813182314
1.07590e-05	0.002221190739165927
1.07593e-05	0.0022321003995542416
1.07595e-05	0.0022405444459756385
1.07598e-05	0.002248988492397036
1.07600e-05	0.0022574325388183755
1.07603e-05	0.002265876585239773
1.07605e-05	0.00227432063166117
1.07608e-05	0.00228276467808251
1.07610e-05	0.002291208724503907
1.07613e-05	0.002299652770925304
1.07615e-05	0.002308096817346644
1.07618e-05	0.002316540863768041
1.07620e-05	0.002324984910189438
1.07623e-05	0.002333428956610778
1.07625e-05	0.002341873003032175
1.07628e-05	0.002350317049453572
1.07630e-05	0.002358761095874912
1.07633e-05	0.0023732338176001514
1.07635e-05	0.0023902136519754337
1.07638e-05	0.0024071934863506006
1.07640e-05	0.002424173320725883
1.07643e-05	0.0024411531551011647
1.07645e-05	0.002458132989476332
1.07648e-05	0.002475112823851614
1.07650e-05	0.002492092658226896
1.07652e-05	0.002509072492602063
1.07655e-05	0.0025260523269773454
1.07658e-05	0.0025430321613526276
1.07660e-05	0.0025600119957277945
1.07663e-05	0.0025896575648112563
1.07665e-05	0.002624570364606725
1.07667e-05	0.002659483164401957
1.07670e-05	0.002694395964197426
1.07673e-05	0.0027293087639928947
1.07675e-05	0.002764221563788363
1.07678e-05	0.002799134363583595
1.07680e-05	0.002834047163379064
1.07683e-05	0.0028689599631745327
1.07685e-05	0.0029038727629697647
1.07688e-05	0.002938785562765233
1.07690e-05	0.002973698362560702
1.07693e-05	0.0030122528464635056
1.07695e-05	0.0030523217778754574
1.07698e-05	0.003092390709287409
1.07700e-05	0.0031324596406990895
1.07703e-05	0.0031725285721110412
1.07705e-05	0.003212597503522993
1.07708e-05	0.0032526664349346733
1.07710e-05	0.003292735366346625
1.07713e-05	0.003325954808568088
1.07715e-05	0.0033563257906988717
1.07718e-05	0.003386696772829861
1.07720e-05	0.0034170677549608505
1.07723e-05	0.003447438737091634
1.07725e-05	0.0034778097192226234
1.07728e-05	0.003508180701353613
1.07730e-05	0.0035385516834843967
1.07733e-05	0.0035514052811092428
1.07735e-05	0.003556974018612052
1.07737e-05	0.0035625427561148237
1.07740e-05	0.003568111493617633
1.07743e-05	0.0035736802311204423
1.07745e-05	0.003579248968623214
1.07748e-05	0.0035848177061260232
1.07750e-05	0.0035903864436288326
1.07752e-05	0.003595955181131604
1.07755e-05	0.0036015239186344135
1.07758e-05	0.003607092656137223
1.07760e-05	0.0035933416433768066
1.07763e-05	0.003571556230377063
1.07765e-05	0.0035497708173773193
1.07768e-05	0.0035279854043775757
1.07770e-05	0.00350619999137798
1.07773e-05	0.0034844145783782363
1.07775e-05	0.003462629165378493
1.07778e-05	0.003440843752378897
1.07780e-05	0.0034190583393791537
1.07783e-05	0.00339727292637941
1.07785e-05	0.0033754875133798143
1.07788e-05	0.003345170431678383
1.07790e-05	0.0033113053309742494
1.07793e-05	0.0032774402302703457
1.07795e-05	0.003243575129566212
1.07798e-05	0.0032097100288620787
1.07800e-05	0.0031758449281581746
1.07803e-05	0.003141979827454041
1.07805e-05	0.0031081147267499076
1.07808e-05	0.0030768747095975845
1.07810e-05	0.003046726371769589
1.07813e-05	0.0030165780339415937
1.07815e-05	0.0029864296961138025
1.07818e-05	0.002956281358285807
1.07820e-05	0.0029261330204578117
1.07822e-05	0.0028959846826300205
1.07825e-05	0.002865836344802025
1.07828e-05	0.0028501883976376776
1.07830e-05	0.0028405706496558206
1.07833e-05	0.002830952901673898
1.07835e-05	0.0028213351536919757
1.07837e-05	0.0028117174057101183
1.07840e-05	0.002802099657728196
1.07843e-05	0.0027924819097462734
1.07845e-05	0.002782864161764416
1.07848e-05	0.0027732464137824936
1.07850e-05	0.002763628665800571
1.07853e-05	0.0027540109178186487
1.07855e-05	0.0027497944119268315
1.07858e-05	0.002766360413453538
1.07860e-05	0.0027829264149802453
1.07863e-05	0.00279949241650684
1.07865e-05	0.0028160584180335468
1.07868e-05	0.002832624419560254
1.07870e-05	0.0028491904210868487
1.07873e-05	0.002865756422613556
1.07875e-05	0.0028823224241402625
1.07878e-05	0.0028988884256668573
1.07880e-05	0.0029154544271935644
1.07883e-05	0.002932020428720271
1.07885e-05	0.0029574975252944207
1.07888e-05	0.0029866804308585054
1.07890e-05	0.00301586333642259
1.07893e-05	0.003045046241986477
1.07895e-05	0.0030742291475505616
1.07898e-05	0.003103412053114646
1.07900e-05	0.003132594958678533
1.07903e-05	0.0031617778642426177
1.07905e-05	0.003189602317281312
1.07907e-05	0.003216861838001818
1.07910e-05	0.0032441213587225083
1.07913e-05	0.0032713808794431988
1.07915e-05	0.0032986404001637045
1.07918e-05	0.003325899920884395
1.07920e-05	0.0033531594416050855
1.07922e-05	0.0033804189623255912
1.07925e-05	0.0033919620865886166
1.07928e-05	0.0033969693179025547
1.07930e-05	0.0034019765492164593
1.07933e-05	0.003406983780530398
1.07935e-05	0.0034119910118443363
1.07938e-05	0.003416998243158275
1.07940e-05	0.003422005474472179
1.07943e-05	0.0034270127057861176
1.07945e-05	0.003432019937100056
1.07948e-05	0.003428379411986224
1.07950e-05	0.0033914646771300927
1.07953e-05	0.0033545499422739616
1.07955e-05	0.0033176352074180807
1.07958e-05	0.003280720472561949
1.07960e-05	0.003243805737705818
1.07963e-05	0.003206891002849937
1.07965e-05	0.003169976267993806
1.07968e-05	0.003133061533137675
1.07970e-05	0.003096146798281794
1.07973e-05	0.003038610177678475
1.07975e-05	0.0029724976447772075
1.07978e-05	0.0029063851118763884
1.07980e-05	0.002840272578975121
1.07983e-05	0.002774160046073854
1.07985e-05	0.0027080475131730348
1.07988e-05	0.002634339222997892
1.07990e-05	0.002557472126250931
1.07992e-05	0.0024806050295044903
1.07995e-05	0.002403737932757529
1.07998e-05	0.002326870836010568
1.08000e-05	0.0022500037392641278
1.08003e-05	0.002174314007779738
1.08005e-05	0.0020991139008311238
1.08007e-05	0.0020239137938830192
1.08010e-05	0.0019487136869344051
1.08013e-05	0.001873513579985791
1.08015e-05	0.001807418926227657
1.08018e-05	0.0017451109081318657
1.08020e-05	0.0016828028900360743
1.08023e-05	0.001620494871940283
1.08025e-05	0.0015581868538449139
1.08028e-05	0.0015062418426480524
1.08030e-05	0.001458606439186298
1.08033e-05	0.0014160142498706567
1.08035e-05	0.0013755193547961401
1.08038e-05	0.0013400724016365787
1.08040e-05	0.001306724708830531
1.08043e-05	0.001279037101268422
1.08045e-05	0.0012537033228013927
1.08048e-05	0.0012341590882316887
1.08050e-05	0.0012170225200281203
1.08053e-05	0.0012045944810243879
1.08055e-05	0.001194124552640596
1.08058e-05	0.001188083105077908
1.08060e-05	0.001183883305927665
1.08063e-05	0.0011842123807490645
1.08065e-05	0.0011864248539403927
1.08068e-05	0.001193834940625822
1.08070e-05	0.0012034065307761747
1.08073e-05	0.0012129781209265923
1.08075e-05	0.0012272362869835615
1.08077e-05	0.0012434434340626611
1.08080e-05	0.0012596505811418707
1.08083e-05	0.0012812288302879514
1.08085e-05	0.0013050407306551294
1.08088e-05	0.001328852631022469
1.08090e-05	0.0013526645313898084
1.08092e-05	0.0013764764317569865
1.08095e-05	0.001400288332124326
1.08098e-05	0.0014268806266855975
1.08100e-05	0.0014546291887705411
1.08103e-05	0.001482377750855673
1.08105e-05	0.0015101263129408049
1.08108e-05	0.0015378748750259365
1.08110e-05	0.0015656234371108804
1.08113e-05	0.0015907374121439065
1.08115e-05	0.0016147557556819524
1.08118e-05	0.0016387740992198354
1.08120e-05	0.0016627924427578813
1.08123e-05	0.0016868107862959272
1.08125e-05	0.0017099575857124005
1.08128e-05	0.0017297509208914368
1.08130e-05	0.0017495442560704732
1.08133e-05	0.0017693375912493754
1.08135e-05	0.0017891309264284117
1.08138e-05	0.0018089242616074481
1.08140e-05	0.0018325971364026082
1.08143e-05	0.0018578833743952783
1.08145e-05	0.0018831696123879486
1.08148e-05	0.0019084558503804474
1.08150e-05	0.0019337420883731176
1.08153e-05	0.001959028326365788
1.08155e-05	0.0019843145643582867
1.08158e-05	0.002009600802350957
1.08160e-05	0.0020348870403436273
1.08162e-05	0.002060173278336126
1.08165e-05	0.002085459516328796
1.08168e-05	0.0021125851204212413
1.08170e-05	0.0021467881039429065
1.08173e-05	0.0021809910874648034
1.08175e-05	0.0022151940709867
1.08177e-05	0.0022493970545083655
1.08180e-05	0.0022836000380302623
1.08183e-05	0.002317803021552159
1.08185e-05	0.0023520060050738244
1.08188e-05	0.0023862089885957212
1.08190e-05	0.002420411972117618
1.08193e-05	0.002454614955639515
1.08195e-05	0.0024888179391611798
1.08198e-05	0.002521642503242765
1.08200e-05	0.002553893831472669
1.08203e-05	0.002586145159702355
1.08205e-05	0.002618396487932259
1.08208e-05	0.002650647816162163
1.08210e-05	0.0026828991443918486
1.08213e-05	0.002715150472621753
1.08215e-05	0.002747401800851657
1.08218e-05	0.002779653129081343
1.08220e-05	0.0028119044573112466
1.08223e-05	0.0028371931711156126
1.08225e-05	0.002859586380043867
1.08228e-05	0.002881979588972273
1.08230e-05	0.0029043727979006792
1.08233e-05	0.002926766006828934
1.08235e-05	0.00294915921575734
1.08238e-05	0.0029715524246857463
1.08240e-05	0.0029939456336140007
1.08243e-05	0.0030163388425424073
1.08245e-05	0.0030387320514708134
1.08247e-05	0.003061224093157267
1.08250e-05	0.003083757235889516
1.08253e-05	0.0031062903786217657
1.08255e-05	0.003128823521353862
1.08258e-05	0.0031513566640861117
1.08260e-05	0.003173889806818361
1.08262e-05	0.0031964229495504578
1.08265e-05	0.003218956092282707
1.08268e-05	0.0032414892350149565
1.08270e-05	0.003264022377747053
1.08273e-05	0.0032865555204793025
1.08275e-05	0.0033090886632115516
1.08278e-05	0.003331621805943801
1.08280e-05	0.0033543727006862855
1.08283e-05	0.0033779614458167182
1.08285e-05	0.0034015501909471515
1.08288e-05	0.0034251389360774242
1.08290e-05	0.0034487276812078574
1.08293e-05	0.0034723164263382902
1.08295e-05	0.0034959051714685634
1.08298e-05	0.0035194939165989966
1.08300e-05	0.0035430826617294294
1.08303e-05	0.0035666714068597026
1.08305e-05	0.0035902601519901354
1.08308e-05	0.0036138488971205686
1.08310e-05	0.003637437642250842
1.08313e-05	0.0036610263873812746
1.08315e-05	0.003676846246285576
1.08318e-05	0.0036894353004112237
1.08320e-05	0.003702024354536957
1.08323e-05	0.00371461340866269
1.08325e-05	0.003727202462788338
1.08328e-05	0.003739791516914071
1.08330e-05	0.0037523805710398045
1.08332e-05	0.0037649696251654523
1.08335e-05	0.0037775586792911857
1.08338e-05	0.0037901477334169186
1.08340e-05	0.0038027367875425665
1.08343e-05	0.0038153258416682998
1.08345e-05	0.003827914895794033
1.08347e-05	0.003840503949919681
1.08350e-05	0.003853093004045414
1.08353e-05	0.003865682058171147
1.08355e-05	0.0038761173194023944
1.08358e-05	0.0038782653725879016
1.08360e-05	0.003880413425773409
1.08363e-05	0.003882561478958916
1.08365e-05	0.0038847095321444085
1.08368e-05	0.0038868575853299157
1.08370e-05	0.003889005638515423
1.08373e-05	0.0038911536917009154
1.08375e-05	0.0038933017448864226
1.08378e-05	0.0038954497980719298
1.08380e-05	0.0038975978512574227
1.08383e-05	0.0038997459044429294
1.08385e-05	0.0039018939576284366
1.08388e-05	0.0039040420108139295
1.08390e-05	0.0039061900639994367
1.08393e-05	0.003908338117184944
1.08395e-05	0.003910486170370437
1.08398e-05	0.00390947823457601
1.08400e-05	0.003907157834680077
1.08403e-05	0.0039048374347841613
1.08405e-05	0.0039025170348882298
1.08408e-05	0.0039001966349922978
1.08410e-05	0.0038978762350963814
1.08413e-05	0.0038955558352004494
1.08415e-05	0.0038932354353045174
1.08418e-05	0.0038909150354086014
1.08420e-05	0.0038885946355126694
1.08423e-05	0.0038862742356167374
1.08425e-05	0.0038839538357208214
1.08428e-05	0.0038816334358248894
1.08430e-05	0.0038793130359289574
1.08432e-05	0.003876992636033041
1.08435e-05	0.003874672236137109
1.08438e-05	0.0038723518362411774
1.08440e-05	0.003870031436345261
1.08443e-05	0.003867711036449329
1.08445e-05	0.003865390636553397
1.08448e-05	0.003863070236657465
1.08450e-05	0.003860749836761549
1.08453e-05	0.003858429436865617
1.08455e-05	0.003856109036969685
1.08458e-05	0.003849567671061611
1.08460e-05	0.0038412709548018187
1.08463e-05	0.0038329742385420263
1.08465e-05	0.00382467752228229
1.08468e-05	0.0038163808060224977
1.08470e-05	0.0038080840897627053
1.08473e-05	0.003799787373502969
1.08475e-05	0.0037914906572431763
1.08478e-05	0.003783193940983384
1.08480e-05	0.003774897224723648
1.08483e-05	0.0037666005084638554
1.08485e-05	0.003758303792204063
1.08488e-05	0.003750007075944327
1.08490e-05	0.0037417103596845344
1.08493e-05	0.003733413643424742
1.08495e-05	0.0037251169271650055
1.08498e-05	0.003716820210905213
1.08500e-05	0.0037085234946454206
1.08503e-05	0.0037002267783856845
1.08505e-05	0.003691930062125892
1.08508e-05	0.0036836333458660996
1.08510e-05	0.003675336629606363
1.08513e-05	0.0036670399133465707
1.08515e-05	0.003658743197086778
1.08517e-05	0.0036499509239281635
1.08520e-05	0.0036409525661968006
1.08523e-05	0.0036319542084654374
1.08525e-05	0.0036229558507341352
1.08528e-05	0.0036139574930027724
1.08530e-05	0.003604959135271409
1.08533e-05	0.0035959607775400463
1.08535e-05	0.003586962419808744
1.08538e-05	0.0035779640620773813
1.08540e-05	0.003568965704346018
1.08543e-05	0.003559967346614716
1.08545e-05	0.003548684082366193
1.08548e-05	0.0035286091205782126
1.08550e-05	0.0035085341587903682
1.08553e-05	0.0034884591970023877
1.08555e-05	0.003468384235214407
1.08558e-05	0.0034483092734265627
1.08560e-05	0.003428234311638582
1.08563e-05	0.0034081593498506016
1.08565e-05	0.003388084388062757
1.08568e-05	0.0033680094262747767
1.08570e-05	0.003347934464486796
1.08573e-05	0.0033278595026989513
1.08575e-05	0.003300865366037698
1.08578e-05	0.0032709937894685515
1.08580e-05	0.003241122212899607
1.08583e-05	0.0032112506363304607
1.08585e-05	0.003181379059761314
1.08588e-05	0.00315150748319237
1.08590e-05	0.0031216359066232233
1.08593e-05	0.003091764330054077
1.08595e-05	0.003061892753485133
1.08598e-05	0.0030323818942833074
1.08600e-05	0.003003021044666051
1.08602e-05	0.0029736601950489942
1.08605e-05	0.002944299345431738
1.08608e-05	0.002914938495814482
1.08610e-05	0.002885577646197425
1.08613e-05	0.002856216796580169
1.08615e-05	0.0028268559469629127
1.08618e-05	0.002797495097345657
1.08620e-05	0.002773370744950906
1.08623e-05	0.0027514240663919203
1.08625e-05	0.002729477387832935
1.08628e-05	0.0027075307092740983
1.08630e-05	0.002685584030715113
1.08633e-05	0.0026636373521561276
1.08635e-05	0.002641690673597291
1.08638e-05	0.0026190903867966977
1.08640e-05	0.0025939751936184413
1.08643e-05	0.002568860000440355
1.08645e-05	0.002543744807262099
1.08648e-05	0.0025186296140838425
1.08650e-05	0.002493514420905756
1.08653e-05	0.0024683992277274996
1.08655e-05	0.0024432840345492432
1.08658e-05	0.0024117351273622253
1.08660e-05	0.0023775106662555323
1.08663e-05	0.0023432862051488393
1.08665e-05	0.0023090617440423783
1.08668e-05	0.002274837282935685
1.08670e-05	0.002240612821828992
1.08673e-05	0.002206388360722531
1.08675e-05	0.002172163899615838
1.08678e-05	0.0021367060385600036
1.08680e-05	0.00209650239065311
1.08683e-05	0.0020562987427459444
1.08685e-05	0.0020160950948387786
1.08687e-05	0.001975891446931885
1.08690e-05	0.0019356877990247192
1.08693e-05	0.0018954841511175532
1.08695e-05	0.0018552805032106597
1.08698e-05	0.001815076855303494
1.08700e-05	0.0017757549102932677
1.08703e-05	0.00173679963430794
1.08705e-05	0.0016978443583228764
1.08708e-05	0.0016588890823375487
1.08710e-05	0.0016199338063522212
1.08713e-05	0.0015825178366764407
1.08715e-05	0.001551024698154531
1.08718e-05	0.0015195315596326212
1.08720e-05	0.001488038421110925
1.08723e-05	0.0014565452825890152
1.08725e-05	0.0014250521440671055
1.08728e-05	0.001412686944595182
1.08730e-05	0.001385104328747015
1.08733e-05	-0.044060468327192154
1.08735e-05	-0.029537329120357215
1.08738e-05	-0.017342384019080573
1.08740e-05	-0.006108249647882334
1.08743e-05	0.007432289746044542
1.08745e-05	0.015999490683500452
1.08748e-05	0.014333160404411054
1.08750e-05	0.006425279717667612
1.08753e-05	-0.004157270589585255
1.08755e-05	-0.011155742628228419
1.08758e-05	-0.008990813747471191
1.08760e-05	-0.0018014336518685356
1.08763e-05	0.006355366661836357
1.08765e-05	0.01147213853136199
1.08768e-05	0.010272231340159966
1.08770e-05	0.00521880769218277
1.08772e-05	-0.001476058601636981
1.08775e-05	-0.005905259144470105
1.08778e-05	-0.004582200816209211
1.08780e-05	-0.00010463429671229681
1.08783e-05	0.004983141114340164
1.08785e-05	0.008169243993089211
1.08788e-05	0.00740044087989122
1.08790e-05	0.004219330926976839
1.08793e-05	1.1332541211207326e-05
1.08795e-05	-0.0027764038660181116
1.08798e-05	-0.001960266595088319
1.08800e-05	0.0008321558814082541
1.08803e-05	0.004006933317804243
1.08805e-05	0.005990604668050716
1.08808e-05	0.0054971462893598855
1.08810e-05	0.0034929808122829958
1.08813e-05	0.0008459928104470364
1.08815e-05	-0.0009109721928053598
1.08818e-05	-0.0004102798912138732
1.08820e-05	0.0013283583272053559
1.08823e-05	0.003306407980979772
1.08825e-05	0.004538261874736308
1.08828e-05	0.004218590179593586
1.08830e-05	0.0029533832692295574
1.08833e-05	0.001287006630516156
1.08835e-05	0.00017991006883241102
1.08838e-05	0.0004886479906645964
1.08840e-05	0.001574289404982675
1.08843e-05	0.0028112265487261513
1.08845e-05	0.0035820064292628475
1.08848e-05	0.0033821532522097675
1.08850e-05	0.002591246195143135
1.08853e-05	0.0015502300174171056
1.08855e-05	0.0008606414552581169
1.08857e-05	0.0010588854860796386
1.08860e-05	0.001744591125970272
1.08863e-05	0.0025257693825897973
1.08865e-05	0.0030155751489260034
1.08868e-05	0.002897965071265554
1.08870e-05	0.002410669556714514
1.08873e-05	0.0017671985035773296
1.08875e-05	0.0013442695702352316
1.08878e-05	0.0014777694839316676
1.08880e-05	0.0019167860628564726
1.08883e-05	0.0024156805367552482
1.08885e-05	0.002732058738413337
1.08888e-05	0.0026678967117720483
1.08890e-05	0.0023720563257130112
1.08893e-05	0.0019782149974270674
1.08895e-05	0.0017222666167089032
1.08898e-05	0.0018145079739681424
1.08900e-05	0.0020976639024216414
1.08903e-05	0.0024177767730271514
1.08905e-05	0.0026229353578003066
1.08908e-05	0.0025890348403550976
1.08910e-05	0.0024092607365829443
1.08913e-05	0.002167278852437495
1.08915e-05	0.0020107730112530428
1.08918e-05	0.0020713802876931482
1.08920e-05	0.0022504897997262722
1.08923e-05	0.0024515779616534
1.08925e-05	0.002579441947718732
1.08928e-05	0.0025566087653612767
1.08930e-05	0.0024425244125070252
1.08933e-05	0.0022910088085248766
1.08935e-05	0.002195211829711735
1.08938e-05	0.002237554860664041
1.08940e-05	0.0023561367551262714
1.08942e-05	0.00249036950146502
1.08945e-05	0.0025804979665107588
1.08948e-05	0.0025778780176039548
1.08950e-05	0.0025196317908362073
1.08953e-05	0.002439354272298058
1.08955e-05	0.002395272498077778
1.08958e-05	0.002438888663462571
1.08960e-05	0.0025313003894826
1.08963e-05	0.0026344316454786154
1.08965e-05	0.0027107315430213103
1.08968e-05	0.002729612534903978
1.08970e-05	0.0027154249491426587
1.08973e-05	0.0026888460506009396
1.08975e-05	0.0026796895865174915
1.08978e-05	0.0027290578729899256
1.08980e-05	0.0028079311181289767
1.08983e-05	0.0028925677346492737
1.08985e-05	0.0029654331720755473
