Time(s)	Current(A)
1.42500e-05	0.00043903236657872534
1.42503e-05	0.00045108257474869227
1.42505e-05	0.0004631327829185775
1.42508e-05	0.00047518299108854445
1.42510e-05	0.0004872331992585114
1.42513e-05	0.0004993034688467963
1.42515e-05	0.000511898520125467
1.42518e-05	0.0005244935714041376
1.42520e-05	0.0005370805065991188
1.42523e-05	0.0005494551351671869
1.42525e-05	0.0005618112600933917
1.42528e-05	0.0005736833528209634
1.42530e-05	0.000585531345913209
1.42533e-05	0.0005967489225976393
1.42535e-05	0.0006079330047647837
1.42538e-05	0.0006182409121243883
1.42540e-05	0.0006285034450007428
1.42543e-05	0.0006375790379712184
1.42545e-05	0.0006465982144981853
1.42548e-05	0.0006541416072104357
1.42550e-05	0.0006616232811094071
1.42553e-05	0.0006674904678102925
1.42555e-05	0.0006732773034618442
1.42558e-05	0.0006769622558512931
1.42560e-05	0.0006806472082407169
1.42563e-05	0.0006842311484131071
1.42565e-05	0.0006851727349386012
1.42568e-05	0.000686114321464089
1.42570e-05	0.0006869562617292714
1.42573e-05	0.0006851915800733538
1.42575e-05	0.0006834268984174481
1.42578e-05	0.0006815220241277335
1.42580e-05	0.00067594988534371
1.42583e-05	0.0006703777465597243
1.42585e-05	0.0006648056077757009
1.42588e-05	0.0006592334689916775
1.42590e-05	0.0006536613302076919
1.42593e-05	0.0006480891914236684
1.42595e-05	0.0006404320655835524
1.42598e-05	0.0006309759713725059
1.42600e-05	0.0006215198771613951
1.42603e-05	0.0006120637829502844
1.42605e-05	0.0006026076887392377
1.42608e-05	0.0005931515945281271
1.42610e-05	0.0005836342147125638
1.42613e-05	0.0005725136799002284
1.42615e-05	0.0005613931450878178
1.42618e-05	0.0005502726102754071
1.42620e-05	0.0005391520754629964
1.42623e-05	0.0005280315406506612
1.42625e-05	0.0005169400286688292
1.42628e-05	0.0005066077177473166
1.42630e-05	0.0004962754068258741
1.42633e-05	0.00048594309590436157
1.42635e-05	0.000475610784982849
1.42638e-05	0.0004652784740614065
1.42640e-05	0.0004550261350146971
1.42643e-05	0.00044686576049931767
1.42645e-05	0.0004387053859839935
1.42648e-05	0.0004305931252136129
1.42650e-05	0.0004237394600216666
1.42653e-05	0.00041688579482976676
1.42655e-05	0.0004100321296378205
1.42658e-05	0.0004031784644458742
1.42660e-05	0.00039632479925397435
1.42663e-05	0.0003894711340620281
1.42665e-05	0.00038263164822386096
1.42668e-05	0.0003761630766011819
1.42670e-05	0.00036969450497845895
1.42673e-05	0.000363225933355736
1.42675e-05	0.00035675736173305695
1.42678e-05	0.00035028879011033407
1.42680e-05	0.00034382021848761114
1.42683e-05	0.0003373457111864149
1.42685e-05	0.00033071593393593215
1.42688e-05	0.00032408615668544935
1.42690e-05	0.00031745637943501155
1.42693e-05	0.0003108266021845288
1.42695e-05	0.00030419682493404605
1.42698e-05	0.0002975670476836082
1.42700e-05	0.00029093727043312545
1.42703e-05	0.0002843074931826427
1.42705e-05	0.0002777337198684267
1.42708e-05	0.00027120826786624535
1.42710e-05	0.0002646828158640198
1.42713e-05	0.0002581573638617942
1.42715e-05	0.0002516319118596129
1.42718e-05	0.00024510645985738734
1.42720e-05	0.0002385810078551618
1.42723e-05	0.00023205555585298045
1.42725e-05	0.0002255686067464546
1.42728e-05	0.000220088845385931
1.42730e-05	0.00021460908402544455
1.42733e-05	0.00020912932266492094
1.42735e-05	0.00020364956130439733
1.42738e-05	0.00019816979994391088
1.42740e-05	0.0001927398150979328
1.42743e-05	0.00018861192181148604
1.42745e-05	0.0001844840285250673
1.42748e-05	0.00018035613523862057
1.42750e-05	0.00017622824195217383
1.42753e-05	0.00017210034866575508
1.42755e-05	0.0001679759186314417
1.42758e-05	0.0001639420829550146
1.42760e-05	0.00015990824727861488
1.42763e-05	0.00015587441160218782
1.42765e-05	0.00015184057592576073
1.42768e-05	0.000147806740249361
1.42770e-05	0.00014377290457293394
1.42773e-05	0.0001394692636838054
1.42775e-05	0.00013493282948173936
1.42778e-05	0.00013039639527964256
1.42780e-05	0.00012585996107754578
1.42783e-05	0.00012132352687547975
1.42785e-05	0.00011678709267338296
1.42788e-05	0.00011223462618855348
1.42790e-05	0.00010726277517588398
1.42793e-05	0.00010229092416324816
1.42795e-05	9.730689433691195e-05
1.42798e-05	9.200428192908047e-05
1.42800e-05	8.670166952128493e-05
1.42803e-05	8.139905711345345e-05
1.42805e-05	7.609402211040504e-05
1.42808e-05	7.072561503689428e-05
1.42810e-05	6.535720796334715e-05
1.42813e-05	5.998880088980002e-05
1.42815e-05	5.4622089898612656e-05
1.42818e-05	4.929974630639111e-05
1.42820e-05	4.397740271416958e-05
1.42823e-05	3.866422165245089e-05
1.42825e-05	3.3590720964437736e-05
1.42828e-05	2.852507172594593e-05
1.42830e-05	2.3669891717357977e-05
1.42833e-05	1.895339660690865e-05
1.42835e-05	1.4391946942411118e-05
1.42838e-05	1.0017885138981122e-05
1.42840e-05	5.8642637516195794e-06
1.42843e-05	1.9641274610568104e-06
1.42845e-05	-1.647333587641511e-06
1.42848e-05	-4.871476439083095e-06
1.42850e-05	-7.419735368746976e-06
1.42853e-05	-8.947058625933438e-06
1.42855e-05	-9.328880259659109e-06
1.42858e-05	-8.595732695998307e-06
1.42860e-05	-6.784899473452683e-06
1.42863e-05	-3.933668644502946e-06
1.42865e-05	-7.798412436399988e-08
1.42868e-05	4.785956355050796e-06
1.42870e-05	1.0780914032068464e-05
1.42873e-05	1.8065016332716383e-05
1.42875e-05	2.6658268239831647e-05
1.42878e-05	3.648352150021965e-05
1.42880e-05	4.7459407060103995e-05
1.42883e-05	5.950455087736607e-05
1.42885e-05	7.253843021957003e-05
1.42888e-05	8.650541975918057e-05
1.42890e-05	0.00010142440999472245
1.42893e-05	0.00011733644196919905
1.42895e-05	0.00013420959388271182
1.42898e-05	0.00015225143673263698
1.42900e-05	0.00017033947438961302
1.42903e-05	0.00018963591061095183
1.42905e-05	0.00020897100244403997
1.42908e-05	0.0002293172768881146
1.42910e-05	0.00024966355133232713
1.42913e-05	0.0002700351281250923
1.42915e-05	0.00029106858281135306
1.42918e-05	0.00031210284871318326
1.42920e-05	0.0003331583349992423
1.42923e-05	0.00035419621083771305
1.42925e-05	0.00037477341932596134
1.42928e-05	0.00039532761104995
1.42930e-05	0.00041526046985692396
1.42933e-05	0.00043466661545349297
1.42935e-05	0.0004534339074816356
1.42938e-05	0.00047142647335650514
1.42940e-05	0.0004885072695704325
1.42943e-05	0.0005045394175938013
1.42945e-05	0.0005193817197629197
1.42948e-05	0.0005327683669449816
1.42950e-05	0.0005440677759150176
1.42953e-05	0.0005525594946883033
1.42955e-05	0.0005579791968233173
1.42958e-05	0.0005603750773443117
1.42960e-05	0.0005598090045651123
1.42963e-05	0.0005563426828927814
1.42965e-05	0.0005500352755350722
1.42968e-05	0.0005408678685475518
1.42970e-05	0.0005285922469463429
1.42973e-05	0.0005129048944436797
1.42975e-05	0.0004937878456180523
1.42978e-05	0.0004714189013998706
1.42980e-05	0.00044598438558301356
1.42983e-05	0.0004176706457075714
1.42985e-05	0.0003866622583189718
1.42988e-05	0.00035309497834913736
1.42990e-05	0.00031696099479760267
1.42993e-05	0.0002782177505190949
1.42995e-05	0.00023700152413565347
1.42998e-05	0.0001935713655083368
1.43000e-05	0.0001481915643786035
1.43003e-05	0.00010112635522625685
1.43005e-05	5.26389506032037e-05
1.43008e-05	2.9618810289376627e-06
1.43010e-05	-4.776221959031915e-05
1.43013e-05	-9.942322174663421e-05
1.43015e-05	-0.00015204302482226673
1.43018e-05	-0.0002046628278982558
1.43020e-05	-0.00025725733956730065
1.43023e-05	-0.00030919045716586483
1.43025e-05	-0.00036112357476478094
1.43028e-05	-0.0004129659157144397
1.43030e-05	-0.0004624336526856691
1.43033e-05	-0.000511783515340814
1.43035e-05	-0.0005580499328255445
1.43038e-05	-0.0006041489763141564
1.43040e-05	-0.0006458697247275105
1.43043e-05	-0.0006873722411888342
1.43045e-05	-0.0007231660818411659
1.43048e-05	-0.0007587627114154749
1.43050e-05	-0.0007890537032652903
1.43053e-05	-0.0008152753967255743
1.43055e-05	-0.0008355302657394618
1.43058e-05	-0.0008555537058161241
1.43060e-05	-0.0008692877898149418
1.43063e-05	-0.0008768624400410771
1.43065e-05	-0.0008841168123443116
1.43068e-05	-0.0008829931134503733
1.43070e-05	-0.0008815456088644305
1.43073e-05	-0.0008716277510405035
1.43075e-05	-0.0008614014641825408
1.43078e-05	-0.0008431070582919742
1.43080e-05	-0.0008245253760505726
1.43083e-05	-0.0007984289026025941
1.43085e-05	-0.0007720657396727279
1.43088e-05	-0.0007387263123543039
1.43090e-05	-0.0007052002111857088
1.43093e-05	-0.0006666769517161921
1.43095e-05	-0.0006250670927623343
1.43098e-05	-0.0005806309172113785
1.43100e-05	-0.0005336296674755507
1.43103e-05	-0.00048432474772964725
1.43105e-05	-0.00043297724821601027
1.43108e-05	-0.0003798442849818099
1.43110e-05	-0.00032517951491792003
1.43113e-05	-0.00026925833283200716
1.43115e-05	-0.00021239605402856285
1.43118e-05	-0.00015492678682756954
1.43120e-05	-9.718530343986567e-05
1.43123e-05	-3.950632608225601e-05
1.43125e-05	1.7775539717025675e-05
1.43128e-05	7.43282047532273e-05
1.43130e-05	0.0001298218526045733
1.43133e-05	0.00018391295765454743
1.43135e-05	0.00023623312196838626
1.43138e-05	0.00028640209328461766
1.43140e-05	0.0003340393379480972
1.43143e-05	0.00037876429855887773
1.43145e-05	0.00042019985186315343
1.43148e-05	0.00045806854172963674
1.43150e-05	0.0004924356815013521
1.43153e-05	0.0005235888797618569
1.43155e-05	0.0005516058747706464
1.43158e-05	0.0005763684402372928
1.43160e-05	0.0005977490410333065
1.43163e-05	0.0006156200923955805
1.43165e-05	0.0006298562588382842
1.43168e-05	0.0006403946377064713
1.43170e-05	0.0006473869569081649
1.43173e-05	0.0006511242358371542
1.43175e-05	0.0006517101786542421
1.43178e-05	0.0006478902426991479
1.43180e-05	0.0006438495307694326
1.43183e-05	0.0006340335945597653
1.43185e-05	0.0006240065580216202
1.43188e-05	0.0006084574000426534
1.43190e-05	0.0005927298357527842
1.43193e-05	0.0005723353847680272
1.43195e-05	0.0005517895740588812
1.43198e-05	0.000527284381644955
1.43200e-05	0.0005026470693507083
1.43203e-05	0.0004745536656797715
1.43205e-05	0.0004463505153854233
1.43208e-05	0.000415276530229962
1.43210e-05	0.0003841184737226643
1.43213e-05	0.0003507612154574472
1.43215e-05	0.00031740395719223006
1.43218e-05	0.00028400887712441497
1.43220e-05	0.00024962442584173866
1.43223e-05	0.00021524302090337343
1.43225e-05	0.00018094130453496046
1.43228e-05	0.00014666261430712463
1.43230e-05	0.00011301569846290907
1.43233e-05	8.017802731852811e-05
1.43235e-05	4.8412202346858544e-05
1.43238e-05	1.7950632180968174e-05
1.43240e-05	-1.0975744887069848e-05
1.43243e-05	-3.8136012527574656e-05
1.43245e-05	-6.33019702665267e-05
1.43248e-05	-8.63260540649725e-05
1.43250e-05	-0.00010732982572309339
1.43253e-05	-0.00012659094614843243
1.43255e-05	-0.00014419312681635552
1.43258e-05	-0.00016005328343552427
1.43260e-05	-0.00017408052527911208
1.43263e-05	-0.00018618397510063945
1.43265e-05	-0.00019627443372380725
1.43268e-05	-0.00020431326005887406
1.43270e-05	-0.00021043039590151158
1.43273e-05	-0.00021485351135302314
1.43275e-05	-0.0002176888054861134
1.43278e-05	-0.00021893797010782485
1.43280e-05	-0.00021859784638093472
1.43283e-05	-0.00021666524850760428
1.43285e-05	-0.00021313807748165882
1.43288e-05	-0.00020804587367901224
1.43290e-05	-0.00020152378359204146
1.43293e-05	-0.0001937681657493774
1.43295e-05	-0.0001848992810927615
1.43298e-05	-0.00017497190371165838
1.43300e-05	-0.00016403777914500138
1.43303e-05	-0.00015214862597121736
1.43305e-05	-0.00013935685359691108
1.43308e-05	-0.0001257346791652521
1.43310e-05	-0.00011142046027785529
1.43313e-05	-9.65853472888525e-05
1.43315e-05	-8.122979526604146e-05
1.43318e-05	-6.585705278126519e-05
1.43320e-05	-5.003462923686326e-05
1.43323e-05	-3.421220569246134e-05
1.43325e-05	-1.838912347045186e-05
1.43328e-05	-2.5558825392734983e-06
1.43330e-05	1.3077867422092383e-05
1.43333e-05	2.8347807073671177e-05
1.43335e-05	4.311950808491856e-05
1.43338e-05	5.7284231433398205e-05
1.43340e-05	7.073445517127219e-05
1.43343e-05	8.336266637893709e-05
1.43345e-05	9.505885450356525e-05
1.43348e-05	0.00010569449645996222
1.43350e-05	0.00011634391983587585
1.43353e-05	0.0001273538479659549
1.43355e-05	0.0001384015212779427
1.43358e-05	0.00015043656150160326
1.43360e-05	0.00016247160172526385
1.43363e-05	0.00017452142644811645
1.43365e-05	0.00018695799524335414
1.43368e-05	0.00019942169662252843
1.43370e-05	0.00021259515257696852
1.43373e-05	0.00022582627769643284
1.43375e-05	0.0002405659562869913
1.43378e-05	0.00025535031923755425
1.43380e-05	0.0002713035693504976
1.43383e-05	0.00028729163796519956
1.43385e-05	0.0003041905151854279
1.43388e-05	0.0003210893924055417
1.43390e-05	0.0003380464585257945
1.43393e-05	0.00035652567373982343
1.43395e-05	0.00037500488895372716
1.43398e-05	0.00039352722360721197
1.43400e-05	0.0004131775090498822
1.43403e-05	0.0004328277944924192
1.43405e-05	0.0004524882778166498
1.43408e-05	0.0004724155250112231
1.43410e-05	0.0004923520320635772
1.43413e-05	0.0005125307654571271
1.43415e-05	0.0005327091570042848
1.43418e-05	0.0005528786062757824
1.43420e-05	0.0005730362923880225
1.43423e-05	0.0005928722649984614
1.43425e-05	0.0006123240487815023
1.43428e-05	0.0006312894564952604
1.43430e-05	0.0006497366888953789
1.43433e-05	0.0006676628723421662
1.43435e-05	0.0006849955887849318
1.43438e-05	0.000701610362722679
1.43440e-05	0.0007173804760774988
1.43443e-05	0.0007321792086285534
1.43445e-05	0.0007458763591966339
1.43448e-05	0.0007582409886754722
1.43450e-05	0.0007687474763446362
1.43453e-05	0.0007768032897724077
1.43455e-05	0.0007821900973554016
1.43458e-05	0.0007849444079179516
1.43460e-05	0.0007851137189113461
1.43463e-05	0.0007827455277869356
1.43465e-05	0.0007778354195671991
1.43468e-05	0.0007692130896522275
1.43470e-05	0.0007603774454453917
1.43473e-05	0.0007459617652474905
1.43475e-05	0.0007313383785387603
1.43478e-05	0.000711281648402485
1.43480e-05	0.0006910401561854239
1.43483e-05	0.0006659655182247814
1.43485e-05	0.000640724315341778
1.43488e-05	0.0006111259817019546
1.43490e-05	0.0005813637836189341
1.43493e-05	0.0005473150959522795
1.43495e-05	0.0005131247488556921
1.43498e-05	0.000475228767633301
1.43500e-05	0.00043722418856343977
1.43503e-05	0.00039637882516284004
1.43505e-05	0.00035545494693279384
1.43508e-05	0.0003124772186339286
1.43510e-05	0.0002694333207331782
1.43513e-05	0.00022465850851382418
1.43515e-05	0.00017988369629447017
1.43518e-05	0.00013509334354913852
1.43520e-05	8.989647000582016e-05
1.43523e-05	4.471982594606688e-05
1.43525e-05	9.846081719545968e-08
1.43528e-05	-4.380645257604236e-05
1.43530e-05	-8.678866563012977e-05
1.43533e-05	-0.00012865221622353093
1.43535e-05	-0.00016914359966985066
1.43538e-05	-0.000207970057663631
1.43540e-05	-0.0002448372329917786
1.43543e-05	-0.0002794507436245675
1.43545e-05	-0.00031152451308746296
1.43548e-05	-0.00034100208597511686
1.43550e-05	-0.00036827997121282555
1.43553e-05	-0.0003955178668524602
1.43555e-05	-0.00042170968444901497
1.43558e-05	-0.0004478217743224663
1.43560e-05	-0.00047184828633559366
1.43563e-05	-0.0004958747983487211
1.43565e-05	-0.0005197880173953086
1.43568e-05	-0.0005407376336474428
1.43570e-05	-0.0005616872498995771
1.43573e-05	-0.0005826029008370982
1.43575e-05	-0.0006026300614816294
1.43578e-05	-0.0006226572221261607
1.43580e-05	-0.0006426843827705562
1.43583e-05	-0.0006627115434150874
1.43585e-05	-0.0006817899528052721
1.43588e-05	-0.0007000497607088819
1.43590e-05	-0.0007183095686126154
1.43593e-05	-0.0007365693765163489
1.43595e-05	-0.000754775588240136
1.43598e-05	-0.0007715797906998886
1.43600e-05	-0.0007883839931596411
1.43603e-05	-0.0008051881956192798
1.43605e-05	-0.0008219923980790323
1.43608e-05	-0.0008387966005387849
1.43610e-05	-0.0008556008029984236
1.43613e-05	-0.0008724050054581762
1.43615e-05	-0.0008892092079179287
1.43618e-05	-0.0009058887334859691
1.43620e-05	-0.0009193068669600277
1.43623e-05	-0.0009327250004340863
1.43625e-05	-0.0009461431339080539
1.43628e-05	-0.0009595612673821125
1.43630e-05	-0.0009729794008561711
1.43633e-05	-0.0009863975343301387
1.43635e-05	-0.0009998156678041974
1.43638e-05	-0.0010132338012782559
1.43640e-05	-0.0010265363397108493
1.43643e-05	-0.0010368150559285061
1.43645e-05	-0.0010470084948670175
1.43648e-05	-0.0010549711864646849
1.43650e-05	-0.0010627474935512584
1.43653e-05	-0.00106564821412523
1.43655e-05	-0.0010683333592925745
1.43658e-05	-0.001065379320501226
1.43660e-05	-0.0010622231786945261
1.43663e-05	-0.0010537802738943209
1.43665e-05	-0.0010451365070133897
1.43668e-05	-0.0010312384384400638
1.43670e-05	-0.0010170984454975624
1.43673e-05	-0.000996630012575785
1.43675e-05	-0.0009759236620673533
1.43678e-05	-0.0009489936840189244
1.43680e-05	-0.0009218565084797458
1.43683e-05	-0.0008892993048125075
1.43685e-05	-0.0008565579595323686
1.43688e-05	-0.0008189996991588518
1.43690e-05	-0.0007812996679071116
1.43693e-05	-0.0007397994723465934
1.43695e-05	-0.0006958212867725292
1.43698e-05	-0.0006496411605566971
1.43700e-05	-0.0006015419743584839
1.43703e-05	-0.0005518063910093438
1.43705e-05	-0.0005007158923649289
1.43708e-05	-0.0004485121894325341
1.43710e-05	-0.0003953183227649776
1.43713e-05	-0.0003412226266669199
1.43715e-05	-0.0002864520072870854
1.43718e-05	-0.00023133055100164822
1.43720e-05	-0.00017618654740998255
1.43723e-05	-0.00012134824433217287
1.43725e-05	-6.714305055295779e-05
1.43728e-05	-1.3873440283146832e-05
1.43730e-05	3.8232445433756004e-05
1.43733e-05	8.896822491614312e-05
1.43735e-05	0.00013804075237959455
1.43738e-05	0.00018509599271010339
1.43740e-05	0.00022977730323991375
1.43743e-05	0.00027172811999734897
1.43745e-05	0.00031060088836579576
1.43748e-05	0.00034631442541912036
1.43750e-05	0.0003796353548180941
1.43753e-05	0.0004117204823051928
1.43755e-05	0.000442933795979615
1.43758e-05	0.00047251962952425745
1.43760e-05	0.0005019936144666696
1.43763e-05	0.0005285417793633366
1.43765e-05	0.000554964627016816
1.43768e-05	0.0005781093317722116
1.43770e-05	0.0006011881769808168
1.43773e-05	0.0006225442185238578
1.43775e-05	0.0006439002600670435
1.43778e-05	0.0006651781956040708
1.43780e-05	0.0006844129753604567
1.43783e-05	0.0007036477551169729
1.43785e-05	0.0007227822327848337
1.43788e-05	0.0007392929328155951
1.43790e-05	0.0007558036328464683
1.43793e-05	0.0007722580912281735
1.43795e-05	0.0007872413381588433
1.43798e-05	0.0008022245850896148
1.43800e-05	0.0008172078320203862
1.43803e-05	0.000832191078951056
1.43805e-05	0.0008459100833977872
1.43808e-05	0.0008585382742380712
1.43810e-05	0.0008711664650783553
1.43813e-05	0.0008837946559185538
1.43815e-05	0.0008963826167611726
1.43818e-05	0.0009079182110010035
1.43820e-05	0.0009194204286023741
1.43823e-05	0.0009300495549387996
1.43825e-05	0.0009406474521608692
1.43828e-05	0.0009504103093100926
1.43830e-05	0.0009596866117126344
1.43833e-05	0.0009686269705892245
1.43835e-05	0.000977263513407841
1.43838e-05	0.0009855367551031237
1.43840e-05	0.0009933827361718584
1.43843e-05	0.001000737777432959
1.43845e-05	0.001007533291691494
1.43848e-05	0.0010135558913097267
1.43850e-05	0.001018157081986838
1.43853e-05	0.0010205561422791996
1.43855e-05	0.0010204720009543851
1.43858e-05	0.0010179762586058469
1.43860e-05	0.0010131558817654137
1.43863e-05	0.0010060979448072967
1.43865e-05	0.0009968863365744346
1.43868e-05	0.0009854627417702172
1.43870e-05	0.0009703545650303307
1.43873e-05	0.0009550402120531458
1.43875e-05	0.0009343325456448752
1.43878e-05	0.0009134404847224187
1.43880e-05	0.0008877248931038017
1.43883e-05	0.0008618506794023861
1.43885e-05	0.0008318271096955587
1.43888e-05	0.0008016509050404316
1.43890e-05	0.0007674819603463298
1.43893e-05	0.0007331629675914461
1.43895e-05	0.0006949189045567924
1.43898e-05	0.0006565351024342508
1.43900e-05	0.0006144958999080391
1.43903e-05	0.0005724566973818274
1.43905e-05	0.0005303108259231428
1.43908e-05	0.00048537462811326773
1.43910e-05	0.00044043843030339277
1.43913e-05	0.0003954455885114736
1.43915e-05	0.0003489710107300398
1.43918e-05	0.0003024964329486059
1.43920e-05	0.0002560374636521299
1.43923e-05	0.00020998679286257516
1.43925e-05	0.00016397539556154732
1.43928e-05	0.00011902761941374985
1.43930e-05	7.507109399622865e-05
1.43933e-05	3.2272981898516296e-05
1.43935e-05	-9.122652652529924e-06
1.43938e-05	-4.881745310305724e-05
1.43940e-05	-8.65107389814656e-05
1.43943e-05	-0.00012190186673181045
