Time(s)	Current(A)
3.75000e-06	-0.0008525912564834919
3.75025e-06	-0.0008215914316904124
3.75050e-06	-0.0007859765954040704
3.75075e-06	-0.0007448163185534907
3.75100e-06	-0.0006976625391710157
3.75125e-06	-0.0006447630086056003
3.75150e-06	-0.0005865206964633105
3.75175e-06	-0.0005233384559350053
3.75200e-06	-0.00045561857811478686
3.75225e-06	-0.000383732218072446
3.75250e-06	-0.0003077111319997766
3.75275e-06	-0.00022724165811115432
3.75300e-06	-0.00014231241132822201
3.75325e-06	-5.334790607630595e-05
3.75350e-06	3.913027385451131e-05
3.75375e-06	0.00013460057428606788
3.75400e-06	0.00023254178046302294
3.75425e-06	0.0003324522829316957
3.75450e-06	0.0004340431358681266
3.75475e-06	0.0005372416535707679
3.75500e-06	0.0006417859320010918
3.75525e-06	0.000747140897946199
3.75550e-06	0.0008527108542041241
3.75575e-06	0.0009579001045882974
3.75600e-06	0.0010621131867525064
3.75625e-06	0.0011647669136720395
3.75650e-06	0.0012654114544380997
3.75675e-06	0.0013637325283543285
3.75700e-06	0.0014592970779612137
3.75725e-06	0.001551501279340415
3.75750e-06	0.001639703216376799
3.75775e-06	0.0017232608666925338
3.75800e-06	0.0018015334207717442
3.75825e-06	0.0018739333552002244
3.75850e-06	0.0019404915033787778
3.75875e-06	0.0020019600260775304
3.75900e-06	0.0020567036326747156
3.75925e-06	0.0021113215632936
3.75950e-06	0.0021587697289887427
3.75975e-06	0.0022010648030888467
3.76000e-06	0.002237948822762777
3.76025e-06	0.002269197536700235
3.76050e-06	0.0022949736106870613
3.76075e-06	0.0023159174197785555
3.76100e-06	0.0023324970390601004
3.76125e-06	0.002344752455013943
3.76150e-06	0.0023506543625846084
3.76175e-06	0.002356404974112881
3.76200e-06	0.0023536323103929267
3.76225e-06	0.0023507192073815037
3.76250e-06	0.002339894445096739
3.76275e-06	0.002328958851364557
3.76300e-06	0.002311779558737878
3.76325e-06	0.002294502937075148
3.76350e-06	0.0022717432759967334
3.76375e-06	0.0022488955751351833
3.76400e-06	0.0022210881457023143
3.76425e-06	0.002193209480389598
3.76450e-06	0.002161317735805807
3.76475e-06	0.0021293833073584914
3.76500e-06	0.0020950442798792004
3.76525e-06	0.0020606851063960994
3.76550e-06	0.0020251828274901766
3.76575e-06	0.0019892155707781456
3.76600e-06	0.001953009524458697
3.76625e-06	0.0019167987103513207
3.76650e-06	0.001880912581722428
3.76675e-06	0.001845797799817943
3.76700e-06	0.0018118586094495667
3.76725e-06	0.0017794033217196086
3.76750e-06	0.00174873680066144
3.76775e-06	0.0017212286750210347
3.76800e-06	0.001693807812521178
3.76825e-06	0.0016713029263745432
3.76850e-06	0.001648882029625956
3.76875e-06	0.0016311926826692758
3.76900e-06	0.001613503335712566
3.76925e-06	0.001595907926960713
3.76950e-06	0.001583604534868347
3.76975e-06	0.00157130114277596
3.77000e-06	0.0015591049320805698
3.77025e-06	0.0015529467943865755
3.77050e-06	0.0015467886566925709
3.77075e-06	0.0015407125852335939
3.77100e-06	0.0015392597220171928
3.77125e-06	0.0015378068588007944
3.77150e-06	0.0015364215742583994
3.77175e-06	0.0015388433399916952
3.77200e-06	0.001541265105724987
3.77225e-06	0.0015445185204177717
3.77250e-06	-0.004106471339021194
3.77275e-06	-0.025178017327276866
3.77300e-06	-0.018829249076940023
3.77325e-06	-0.013862316058117519
3.77350e-06	-0.0066225735815041474
3.77375e-06	0.010308660022390668
3.77400e-06	0.00798653264737366
3.77425e-06	0.005855692944082555
3.77450e-06	-0.0002130373448517536
3.77475e-06	-0.007107142185517565
3.77500e-06	-0.007968451368725683
3.77525e-06	-0.004694713024757915
3.77550e-06	0.0006293846055819793
3.77575e-06	0.006025977441014014
3.77600e-06	0.007363509673078418
3.77625e-06	0.0056582397782806125
3.77650e-06	0.0015811655413447776
3.77675e-06	-0.0028469168892792302
3.77700e-06	-0.0034701725727865253
3.77725e-06	-0.001483996403382537
3.77750e-06	0.0018007618767849243
3.77775e-06	0.005141442398116402
3.77800e-06	0.0059473694825400575
3.77825e-06	0.004853342486895241
3.77850e-06	0.0022788783756573176
3.77875e-06	-0.0005101957230912632
3.77900e-06	-0.0009108737218939175
3.77925e-06	0.0003273134459632474
3.77950e-06	0.002382499546019535
3.77975e-06	0.004475732147720156
3.78000e-06	0.004983867966008256
3.78025e-06	0.0043043249504120615
3.78050e-06	0.002699694101799573
3.78075e-06	0.0009626868054663775
3.78100e-06	0.000723541649102476
3.78125e-06	0.0015124441251469056
3.78150e-06	0.002814331681241779
3.78175e-06	0.004141082283797964
3.78200e-06	0.004475853495240031
3.78225e-06	0.00406752272308077
3.78250e-06	0.0030804982739693534
3.78275e-06	0.002011229887885044
3.78300e-06	0.0018807279128393527
3.78325e-06	0.002394500909486903
3.78350e-06	0.0032297448099166274
3.78375e-06	0.004080560844226211
3.78400e-06	0.004309904843588327
3.78425e-06	0.004073600820182749
3.78450e-06	0.0034745504805453057
3.78475e-06	0.0028236273249828323
3.78500e-06	0.0027602456908514014
3.78525e-06	0.00309977104885624
3.78550e-06	0.0036398516827057534
3.78575e-06	0.004188743664178665
3.78600e-06	0.004347301209091941
3.78625e-06	0.004213043826112671
3.78650e-06	0.003850333264643281
3.78675e-06	0.0034537930846400508
3.78700e-06	0.00342381677577233
3.78725e-06	0.0036446018641599146
3.78750e-06	0.003989259384980552
3.78775e-06	0.00433755611436181
3.78800e-06	0.00443935963892109
3.78825e-06	0.0043556267135667235
3.78850e-06	0.004126439018464678
3.78875e-06	0.0038734248670131426
3.78900e-06	0.0038472593663491303
3.78925e-06	0.0039754736389864724
3.78950e-06	0.004178729189393493
3.78975e-06	0.004381863631443596
3.79000e-06	0.004428356801994529
3.79025e-06	0.004356560155804791
3.79050e-06	0.004191745197887551
3.79075e-06	0.004010260566374752
3.79100e-06	0.0039692779017110845
3.79125e-06	0.004023547566584688
3.79150e-06	0.00412352107645547
3.79175e-06	0.004222270141703212
3.79200e-06	0.004221910764425865
3.79225e-06	0.004146629567740433
3.79250e-06	0.00401241849437051
3.79275e-06	0.0038672601741315447
3.79300e-06	0.0038097594818809403
3.79325e-06	0.0038117206091019336
3.79350e-06	0.0038422580383422845
3.79375e-06	0.003872130309464988
3.79400e-06	0.003840181523441368
3.79425e-06	0.003761722589028305
3.79450e-06	0.0036469302196659686
3.79475e-06	0.0035260186218258934
3.79500e-06	0.0034609068681928667
3.79525e-06	0.0034340847650564843
3.79550e-06	0.0034263588274539092
3.79575e-06	0.0034195669576104143
3.79600e-06	0.0033755585048334184
3.79625e-06	0.003304083193491387
3.79650e-06	0.0032116737679104175
3.79675e-06	0.003117413047826424
3.79700e-06	0.0030602415569503296
3.79725e-06	0.0030293437321273543
3.79750e-06	0.0030128509583327895
3.79775e-06	0.002999541669967212
3.79800e-06	0.0029656750305622386
3.79825e-06	0.0029175451375296584
3.79850e-06	0.0028595250895640414
3.79875e-06	0.002803869052237315
3.79900e-06	0.0027750684976399977
3.79925e-06	0.002766221550095384
3.79950e-06	0.0027696955193304484
3.79975e-06	0.0027782640335078596
3.80000e-06	0.002776859558845711
3.80025e-06	0.0027692286964571236
3.80050e-06	0.002757914721879011
3.80075e-06	0.0027503973502202936
3.80100e-06	0.0027618202045085038
3.80125e-06	0.002787661917589141
3.80150e-06	0.0028229437710419014
3.80175e-06	0.002862941888024187
3.80200e-06	0.0028980216965083746
3.80225e-06	0.0029303336302438643
3.80250e-06	0.0029612745717660397
3.80275e-06	0.002995333034746599
3.80300e-06	0.0030417978024064114
3.80325e-06	0.0030976390449386736
3.80350e-06	0.003159540979425923
3.80375e-06	0.003224347772853458
3.80400e-06	0.003285827564767913
3.80425e-06	0.003345131132510664
3.80450e-06	0.0034029371951601784
3.80475e-06	0.003461860705144832
3.80500e-06	0.003527523333338028
3.80525e-06	0.0035978301129736146
3.80550e-06	0.003670507076716171
3.80575e-06	0.0037433806299976453
3.80600e-06	0.0038123509187639906
3.80625e-06	0.003877942432461658
3.80650e-06	0.003940384158518629
3.80675e-06	0.0040011178473307275
3.80700e-06	0.004063468255817907
3.80725e-06	0.004125926361725707
3.80750e-06	0.004186871074908141
3.80775e-06	0.0042447450033846566
3.80800e-06	0.004296783687350826
3.80825e-06	0.004343235861932961
3.80850e-06	0.004384638737806036
3.80875e-06	0.0044227932888778404
3.80900e-06	0.0044605358487761195
3.80925e-06	0.004497185368706625
3.80950e-06	0.004531792926047481
3.80975e-06	0.004563448620006026
3.81000e-06	0.004590487836111423
3.81025e-06	0.0046131332762997836
3.81050e-06	0.004631788111867575
3.81075e-06	0.004647646398524359
3.81100e-06	0.004662551226848917
3.81125e-06	0.004676142492055026
3.81150e-06	0.004687342805290111
3.81175e-06	0.004696161498749152
3.81200e-06	0.004703381206835175
3.81225e-06	0.004705929572805032
3.81250e-06	0.004705653668492301
3.81275e-06	0.004704713253735649
3.81300e-06	0.004702143994574022
3.81325e-06	0.004698468082354709
3.81350e-06	0.004693595868305604
3.81375e-06	0.004687875042609961
3.81400e-06	0.004679790777747892
3.81425e-06	0.0046697061621370824
3.81450e-06	0.004658090706986498
3.81475e-06	0.004646217586070243
3.81500e-06	0.004633786850767917
3.81525e-06	0.004621186813202713
3.81550e-06	0.004608343874898765
3.81575e-06	0.004595257695253294
3.81600e-06	0.004581508580541247
3.81625e-06	0.00456733940427549
3.81650e-06	0.004552986326416755
3.81675e-06	0.004538890458815591
3.81700e-06	0.004525618040053021
3.81725e-06	0.004513380311444548
3.81750e-06	0.004502034474179295
3.81775e-06	0.0044910844734791944
3.81800e-06	0.004481246266097863
3.81825e-06	0.004472166984617722
3.81850e-06	0.004463023466786564
3.81875e-06	0.00445234964842566
3.81900e-06	0.004439270362765294
3.81925e-06	0.004423239190199822
3.81950e-06	0.004404776185819295
3.81975e-06	0.004384918035953977
3.82000e-06	0.004362176302835085
3.82025e-06	0.004338465628005099
3.82050e-06	0.004311822281615371
3.82075e-06	0.004281067178636653
3.82100e-06	0.00424578650642421
3.82125e-06	0.004210505834211769
3.82150e-06	0.004172438768154529
3.82175e-06	0.004128612590438274
3.82200e-06	0.004084786412722019
3.82225e-06	0.004038661538532353
3.82250e-06	0.0039877855593671175
3.82275e-06	0.003936909580201881
3.82300e-06	0.0038840314656619856
3.82325e-06	0.003827015199152095
3.82350e-06	0.0037688463452366355
3.82375e-06	0.0037082952438945867
3.82400e-06	0.0036470407241226016
3.82425e-06	0.003584332330451983
3.82450e-06	0.0035211038983324425
3.82475e-06	0.003456800614752795
3.82500e-06	0.003392210323091854
3.82525e-06	0.003327026823263873
3.82550e-06	0.0032620620052974283
3.82575e-06	0.0031975491741382737
3.82600e-06	0.0031337688759708274
3.82625e-06	0.0030715026276925076
3.82650e-06	0.0030100120718008173
3.82675e-06	0.0029507331776500293
3.82700e-06	0.0028934349763263117
3.82725e-06	0.0028384933460215062
3.82750e-06	0.0027863396607690767
3.82775e-06	0.002737406242307516
3.82800e-06	0.0026921138349934523
3.82825e-06	0.0026509161696786515
3.82850e-06	0.002614266770919946
3.82875e-06	0.0025834062737095697
3.82900e-06	0.002557773948149715
3.82925e-06	0.002535595512987696
3.82950e-06	0.0025205558175608743
3.82975e-06	0.0025090405024151374
3.83000e-06	0.002504809620373967
3.83025e-06	0.002505098024288517
3.83050e-06	0.00251472720121811
3.83075e-06	0.0025243563781477355
3.83100e-06	0.002537571390997066
3.83125e-06	0.002559905861370941
3.83150e-06	0.0025874215411315366
3.83175e-06	0.002619939095301994
3.83200e-06	0.002657274941650475
3.83225e-06	0.0026992582076369267
3.83250e-06	0.002745718102176765
3.83275e-06	0.002796457550397961
3.83300e-06	0.002851220531355038
3.83325e-06	0.0029096926380688176
3.83350e-06	0.0029715471027691605
3.83375e-06	0.0030364571680689158
3.83400e-06	0.0031040937731967072
3.83425e-06	0.003174135586481643
3.83450e-06	0.0032462610487287
3.83475e-06	0.0033201327890274262
3.83500e-06	0.0033953759915770466
3.83525e-06	0.0034715793309315467
3.83550e-06	0.003548324238282177
3.83575e-06	0.0036251918919138915
3.83600e-06	0.003701761829912545
3.83625e-06	0.0037776187430984057
3.83650e-06	0.0038523472212214733
3.83675e-06	0.003925521721167396
3.83700e-06	0.003996693477677161
3.83725e-06	0.004065391231605736
3.83750e-06	0.0041311384342368074
3.83775e-06	0.004193459058358612
3.83800e-06	0.004251875760538613
3.83825e-06	0.0043061610894742615
3.83850e-06	0.004357065174285431
3.83875e-06	0.004406294482216875
3.83900e-06	0.0044550763441118055
3.83925e-06	0.004503488023278931
3.83950e-06	0.004551164279279474
3.83975e-06	0.0045977400438175055
3.84000e-06	0.004642849762629482
3.84025e-06	0.004686283543855416
3.84050e-06	0.004728444782631262
3.84075e-06	0.004770335450979031
3.84100e-06	0.004812657258453209
3.84125e-06	0.004855391465990778
3.84150e-06	0.004898242368521284
3.84175e-06	0.004940804665809934
3.84200e-06	0.0049828846136989275
3.84225e-06	0.005024635532881605
3.84250e-06	0.005065671774142952
3.84275e-06	0.005106854272053183
3.84300e-06	0.005148486952275575
3.84325e-06	0.005190256968199277
3.84350e-06	0.005232292922403053
3.84375e-06	0.005274100000386998
3.84400e-06	0.005315510560175344
3.84425e-06	0.005356625722941274
3.84450e-06	0.005397020105727609
3.84475e-06	0.005437146338917373
3.84500e-06	0.0054771892515050324
3.84525e-06	0.0055170980169481545
3.84550e-06	0.0055565420002746625
3.84575e-06	0.005595337706938526
3.84600e-06	0.005633075751898056
3.84625e-06	0.0056697414559995045
3.84650e-06	0.005705741131296157
3.84675e-06	0.005740364212160706
3.84700e-06	0.005774506048685596
3.84725e-06	0.005807252824453394
3.84750e-06	0.005838703932531174
3.84775e-06	0.005868651536148852
3.84800e-06	0.005896887940218928
3.84825e-06	0.005923249208894202
3.84850e-06	0.005947748577295594
3.84875e-06	0.005970355028175042
3.84900e-06	0.005991458099223898
3.84925e-06	0.0060118139091848675
3.84950e-06	0.006030090765335209
3.84975e-06	0.006046406373587998
3.85000e-06	0.0060609515367277475
3.85025e-06	0.006074612938176399
3.85050e-06	0.006085913712428455
3.85075e-06	0.00609563961605501
3.85100e-06	0.006103940615064789
3.85125e-06	0.006110628482374233
3.85150e-06	0.006115909314202947
3.85175e-06	0.006120275941213874
3.85200e-06	0.006122753026431716
3.85225e-06	0.006124359483776233
3.85250e-06	0.006124166467172644
3.85275e-06	0.006123280470866603
3.85300e-06	0.006120962176147741
3.85325e-06	0.006118047317614038
3.85350e-06	0.0061138994396973305
3.85375e-06	0.006109210721793748
3.85400e-06	0.0061034041583716645
3.85425e-06	0.006097144288441736
3.85450e-06	0.006089947493246395
3.85475e-06	0.006082469345862449
3.85500e-06	0.006074409680301727
3.85525e-06	0.006066189372206995
3.85550e-06	0.006057637037004272
3.85575e-06	0.006049019336384857
3.85600e-06	0.006040266533997977
3.85625e-06	0.006031563685669375
3.85650e-06	0.006022964085846019
3.85675e-06	0.006014582522581116
3.85700e-06	0.006006651612366307
3.85725e-06	0.005998971307541307
3.85750e-06	0.005992015923808506
3.85775e-06	0.005985725299946897
3.85800e-06	0.005980191333219321
3.85825e-06	0.005975235480588784
3.85850e-06	0.005969627305238455
3.85875e-06	0.005961180158681652
3.85900e-06	0.005948375281799092
3.85925e-06	0.005931039898107467
3.85950e-06	0.005909506034257746
3.85975e-06	0.0058835649982904754
3.86000e-06	0.0058540523172234855
3.86025e-06	0.005822858507482888
3.86050e-06	0.005786678648665717
3.86075e-06	0.005744615277363172
3.86100e-06	0.005696847975341788
3.86125e-06	0.005646482682697919
3.86150e-06	0.005588542416524248
3.86175e-06	0.0055260441525095275
3.86200e-06	0.005460450457687723
3.86225e-06	0.005388458912229089
3.86250e-06	0.005316467366770454
3.86275e-06	0.0052411444879050815
3.86300e-06	0.005158936178582486
3.86325e-06	0.005074454428180201
3.86350e-06	0.004985273772402747
3.86375e-06	0.00489457103620717
3.86400e-06	0.004800722358854781
3.86425e-06	0.004705909446708418
3.86450e-06	0.004609103587351299
3.86475e-06	0.004511491858192929
3.86500e-06	0.004412214501553425
3.86525e-06	0.004312774148921214
3.86550e-06	0.0042129969048894465
3.86575e-06	0.004113614738243231
3.86600e-06	0.004015588922016056
3.86625e-06	0.003919383425608191
3.86650e-06	0.0038254286465007224
3.86675e-06	0.003734008966441595
3.86700e-06	0.0036455109902173563
3.86725e-06	0.0035605289194003283
3.86750e-06	0.0034797343185608417
3.86775e-06	0.0034047737952296263
3.86800e-06	0.0033354085406263
3.86825e-06	0.003270015810388277
3.86850e-06	0.003212833768460105
3.86875e-06	0.003159143613901719
3.86900e-06	0.003112670733843571
3.86925e-06	0.0030697312303542943
3.86950e-06	0.003034094754113242
3.86975e-06	0.003003320789206782
3.87000e-06	0.002982596999276438
3.87025e-06	0.0029618732093460946
3.87050e-06	0.002945023895656239
3.87075e-06	0.002937865644249184
3.87100e-06	0.002935803346292469
3.87125e-06	0.0029386955785165444
3.87150e-06	0.0029465248027050897
3.87175e-06	0.0029592731718931483
3.87200e-06	0.002976922677126629
3.87225e-06	0.0029994080985948656
3.87250e-06	0.0030264679031020525
3.87275e-06	0.0030576205170355915
3.87300e-06	0.0030924199536458284
3.87325e-06	0.003130604923878399
3.87350e-06	0.003171991253617332
3.87375e-06	0.003216395087648867
3.87400e-06	0.003263632332852061
3.87425e-06	0.003313489369071594
3.87450e-06	0.0033656295778837944
3.87475e-06	0.0034195782992930005
3.87500e-06	0.0034748835453327262
3.87525e-06	0.003531208975409412
3.87550e-06	0.0035882665780170523
3.87575e-06	0.0036457683416490595
3.87600e-06	0.0037034264066354693
3.87625e-06	0.0037609343994621657
3.87650e-06	0.003817908693683227
3.87675e-06	0.003873879589357492
3.87700e-06	0.003928391278157101
3.87725e-06	0.003981060580608464
3.87750e-06	0.004031534530532545
3.87775e-06	0.0040794602983561115
3.87800e-06	0.004124485702463245
3.87825e-06	0.004166447708335612
3.87850e-06	0.004205938491765857
3.87875e-06	0.0042442847023779675
3.87900e-06	0.004282437081596894
3.87925e-06	0.00432045909180539
3.87950e-06	0.004358071326078043
3.87975e-06	0.004394806662681066
3.88000e-06	0.0044305617661350594
3.88025e-06	0.004465779749585024
3.88050e-06	0.004499793437888285
3.88075e-06	0.004533855264455901
3.88100e-06	0.004568418740675791
3.88125e-06	0.0046031766429493245
3.88150e-06	0.0046383644881155504
3.88175e-06	0.004673501144918661
3.88200e-06	0.004708412004458766
3.88225e-06	0.0047431360297472865
3.88250e-06	0.004777489532185961
3.88275e-06	0.004812101138821383
3.88300e-06	0.004847179403594275
3.88325e-06	0.00488241527418049
3.88350e-06	0.004917993141826268
3.88375e-06	0.00495343093895132
3.88400e-06	0.004988509824606048
3.88425e-06	0.0050235887102606566
3.88450e-06	0.005058461655628194
3.88475e-06	0.005092908949356901
3.88500e-06	0.005127356243085491
3.88525e-06	0.0051617062099102795
3.88550e-06	0.005195711985200677
3.88575e-06	0.005229086275783116
3.88600e-06	0.005261766384926484
3.88625e-06	0.0052938828786760605
3.88650e-06	0.005324834453120831
3.88675e-06	0.005355260826691041
3.88700e-06	0.005384601678743014
3.88725e-06	0.005413464702765911
3.88750e-06	0.005440945648705654
3.88775e-06	0.005466905466813559
3.88800e-06	0.0054914064682759
3.88825e-06	0.005515152768683804
3.88850e-06	0.005536972668508425
3.88875e-06	0.005557699360620351
3.88900e-06	0.005577732342031041
3.88925e-06	0.00559741739114784
3.88950e-06	0.0056161063607752006
3.88975e-06	0.005633739694949265
3.89000e-06	0.005650374280285116
3.89025e-06	0.005666498924268708
3.89050e-06	0.005681317386502773
3.89075e-06	0.005695374532222105
3.89100e-06	0.005708935520231127
3.89125e-06	0.005722158141617014
3.89150e-06	0.005734681403447225
3.89175e-06	0.005746788938190186
3.89200e-06	0.005758037219415748
3.89225e-06	0.00576895108175535
3.89250e-06	0.005779008090872117
3.89275e-06	0.005788564731244596
3.89300e-06	0.005797794836450966
3.89325e-06	0.005806808954885386
3.89350e-06	0.005815376656910561
3.89375e-06	0.005823687376432018
3.89400e-06	0.005831466946728424
3.89425e-06	0.005839044043660726
3.89450e-06	0.005846106238742862
3.89475e-06	0.005852884733954976
3.89500e-06	0.005859488742331574
3.89525e-06	0.005865982897330667
3.89550e-06	0.005872249999765898
3.89575e-06	0.005878389028498372
3.89600e-06	0.0058842633456377795
3.89625e-06	0.005890020900859655
3.89650e-06	0.005895537124469103
3.89675e-06	0.005901017970280415
3.89700e-06	0.0059064256948099195
3.89725e-06	0.005911823549996592
3.89750e-06	0.005917193262904217
3.89775e-06	0.005922537860561779
3.89800e-06	0.005927853607525859
3.89825e-06	0.005932953380871788
3.89850e-06	0.005936935793713402
3.89875e-06	0.00593826254068145
3.89900e-06	0.005935871606225933
3.89925e-06	0.005929631652639371
