Time(s)	Current(A)
4.25000e-06	-0.001293749105717834
4.25025e-06	-0.0012861956139763868
4.25050e-06	-0.0012789833623236904
4.25075e-06	-0.001272269442361246
4.25100e-06	-0.001265555522398779
4.25125e-06	-0.0012588416024363345
4.25150e-06	-0.0012521276824738901
4.25175e-06	-0.001245413762511423
4.25200e-06	-0.0012386998425489787
4.25225e-06	-0.0012319859225865114
4.25250e-06	-0.0012268194929315242
4.25275e-06	-0.0012218127803806048
4.25300e-06	-0.0012168060678296685
4.25325e-06	-0.001211799355278749
4.25350e-06	-0.0012067926427278297
4.25375e-06	-0.0012017859301768933
4.25400e-06	-0.001196779217625974
4.25425e-06	-0.001192885993811331
4.25450e-06	-0.0011906188589068647
4.25475e-06	-0.0011883517240024062
4.25500e-06	-0.0011860845890979477
4.25525e-06	-0.0011838174541934816
4.25550e-06	-0.0011815503192890231
4.25575e-06	-0.0011792831843845646
4.25600e-06	-0.0011770160494800983
4.25625e-06	-0.0011747489145756398
4.25650e-06	-0.0011724817796711737
4.25675e-06	-0.0011702146447667152
4.25700e-06	-0.0011679475098622567
4.25725e-06	-0.0011656803749577906
4.25750e-06	-0.001163413240053332
4.25775e-06	-0.0011611461051488736
4.25800e-06	-0.0011588789702444073
4.25825e-06	-0.0011566118353399488
4.25850e-06	-0.0011543447004354903
4.25875e-06	-0.0011520775655310242
4.25900e-06	-0.0011515089584814256
4.25925e-06	-0.0011511156571825335
4.25950e-06	-0.00115072235588364
4.25975e-06	-0.0011503290545847476
4.26000e-06	-0.0011499357532858555
4.26025e-06	-0.0011495424519869619
4.26050e-06	-0.0011491491506880698
4.26075e-06	-0.0011487558493891762
4.26100e-06	-0.0011483625480902839
4.26125e-06	-0.0011479692467913918
4.26150e-06	-0.0011475759454924982
4.26175e-06	-0.001147182644193606
4.26200e-06	-0.0011467893428947138
4.26225e-06	-0.0011463960415958202
4.26250e-06	-0.001146002740296928
4.26275e-06	-0.0011456094389980357
4.26300e-06	-0.0011452161376991424
4.26325e-06	-0.00114482283640025
4.26350e-06	-0.0011445734836680278
4.26375e-06	-0.0011445343469534718
4.26400e-06	-0.0011444952102389158
4.26425e-06	-0.0011444560735243596
4.26450e-06	-0.0011444169368098037
4.26475e-06	-0.0011443778000952477
4.26500e-06	-0.0011449833966479261
4.26525e-06	-0.0011456555363833108
4.26550e-06	-0.0011463276761186955
4.26575e-06	-0.0011469998158540823
4.26600e-06	-0.001147671955589467
4.26625e-06	-0.0011487974043347068
4.26650e-06	-0.0011505848451860436
4.26675e-06	-0.0011523722860373744
4.26700e-06	-0.0011541597268887051
4.26725e-06	-0.001155947167740042
4.26750e-06	-0.0011577346085913727
4.26775e-06	-0.0011595220494427035
4.26800e-06	-0.0011613094902940403
4.26825e-06	-0.0011635352236275536
4.26850e-06	-0.0011664010196049672
4.26875e-06	-0.0011692668155823907
4.26900e-06	-0.0011721326115598043
4.26925e-06	-0.0011749984075372277
4.26950e-06	-0.0011778642035146414
4.26975e-06	-0.001180729999492055
4.27000e-06	-0.0011835957954694784
4.27025e-06	-0.0011866200543123638
4.27050e-06	-0.001189875725202576
4.27075e-06	-0.001193131396092799
4.27100e-06	-0.001196387066983011
4.27125e-06	-0.0011996427378732231
4.27150e-06	-0.0012028984087634463
4.27175e-06	-0.0012060326813580918
4.27200e-06	-0.001208989669337603
4.27225e-06	-0.0012119466573171245
4.27250e-06	-0.001214903645296636
4.27275e-06	-0.0012178606332761475
4.27300e-06	-0.0012208176212556688
4.27325e-06	-0.001223594412336795
4.27350e-06	-0.0012260333392560489
4.27375e-06	-0.001228283288886657
4.27400e-06	-0.0012304191547486357
4.27425e-06	-0.0012327530806999262
4.27450e-06	-0.0012356951500436255
4.27475e-06	-0.001239443337535199
4.27500e-06	-0.0012441232788518825
4.27525e-06	-0.0012494549259685734
4.27550e-06	-0.0012552956273516958
4.27575e-06	-0.001261879728708284
4.27600e-06	-0.001269021005183539
4.27625e-06	-0.0012769759551622781
4.27650e-06	-0.0012857370831948253
4.27675e-06	-0.0012956755174268516
4.27700e-06	-0.0013063539339680155
4.27725e-06	-0.001318112987418133
4.27750e-06	-0.0013303349142577625
4.27775e-06	-0.0013434939402038738
4.27800e-06	-0.001357294563298132
4.27825e-06	-0.0013717774876897755
4.27850e-06	-0.0013870218168343875
4.27875e-06	-0.001403023511473545
4.27900e-06	-0.0014196952535645807
4.27925e-06	-0.0014369299192290958
4.27950e-06	-0.0014546204754697415
4.27975e-06	-0.0014726609557858285
4.28000e-06	-0.0014909684390945089
4.28025e-06	-0.0015095181600654646
4.28050e-06	-0.001528309482026401
4.28075e-06	-0.0015472895889309117
4.28100e-06	-0.0015663535283626396
4.28125e-06	-0.0015853840445584741
4.28150e-06	-0.001604263816408172
4.28175e-06	-0.0016228763452119865
4.28200e-06	-0.0016411194211171088
4.28225e-06	-0.0016589273285419763
4.28250e-06	-0.0016762494840495059
4.28275e-06	-0.001693002634446081
4.28300e-06	-0.0017090709075133401
4.28325e-06	-0.0017243306010807113
4.28350e-06	-0.0017386580820764606
4.28375e-06	-0.0017519349222406562
4.28400e-06	-0.001764161771795542
4.28425e-06	-0.0017756486642839684
4.28450e-06	-0.0017868555876648527
4.28475e-06	-0.0017980027403733051
4.28500e-06	-0.001809054857470689
4.28525e-06	-0.0018199151722903956
4.28550e-06	-0.0018304869474517422
4.28575e-06	-0.00184067677200604
4.28600e-06	-0.0018504657112438686
4.28625e-06	-0.0018600287923248122
4.28650e-06	-0.001869634718946784
4.28675e-06	-0.0018794021324907966
4.28700e-06	-0.0018892881715123185
4.28725e-06	-0.0018992152552504667
4.28750e-06	-0.001909072476217365
4.28775e-06	-0.0019188276727328689
4.28800e-06	-0.0019285065714368655
4.28825e-06	-0.0019380740482458903
4.28850e-06	-0.0019477407003807466
4.28875e-06	-0.001957552183704321
4.28900e-06	-0.001967411740563683
4.28925e-06	-0.0019773415018542666
4.28950e-06	-0.0019872071966414136
4.28975e-06	-0.00199697933158621
4.29000e-06	-0.002006651959989934
4.29025e-06	-0.0020161792735129283
4.29050e-06	-0.002025685531205811
4.29075e-06	-0.0020351610399105924
4.29100e-06	-0.0020445860146230286
4.29125e-06	-0.0020538694345758916
4.29150e-06	-0.002062960691525805
4.29175e-06	-0.0020717978164602685
4.29200e-06	-0.002080337125579511
4.29225e-06	-0.0020885828425363543
4.29250e-06	-0.0020965619998758096
4.29275e-06	-0.002104191314783347
4.29300e-06	-0.0021115345604535464
4.29325e-06	-0.0021183295265017254
4.29350e-06	-0.0021243238096302756
4.29375e-06	-0.0021303180927588054
4.29400e-06	-0.002136312375887335
4.29425e-06	-0.0021417542944050863
4.29450e-06	-0.0021463895644691622
4.29475e-06	-0.0021510248345332533
4.29500e-06	-0.002155310562044765
4.29525e-06	-0.002159085833321398
4.29550e-06	-0.0021628611045980436
4.29575e-06	-0.0021662205587166636
4.29600e-06	-0.0021689727721450817
4.29625e-06	-0.0021717249855735085
4.29650e-06	-0.002174156188282115
4.29675e-06	-0.002176118601362152
4.29700e-06	-0.002178081014442195
4.29725e-06	-0.0021800434275222316
4.29750e-06	-0.0021816397530565698
4.29775e-06	-0.002182701460791635
4.29800e-06	-0.0021837631685266965
4.29825e-06	-0.002184824876261758
4.29850e-06	-0.00218549393088065
4.29875e-06	-0.002185589572535049
4.29900e-06	-0.002185685214189448
4.29925e-06	-0.0021857808558438468
4.29950e-06	-0.0021858764974982455
4.29975e-06	-0.0021859721391526443
4.30000e-06	-0.002186067780807043
4.30025e-06	-0.0021861634224614418
4.30050e-06	-0.002186259064115841
4.30075e-06	-0.0021860577055313806
4.30100e-06	-0.002185422621145707
4.30125e-06	-0.002184787536760032
4.30150e-06	-0.002184152452374359
4.30175e-06	-0.0021835173679886854
4.30200e-06	-0.00218288228360301
4.30225e-06	-0.002182247199217337
4.30250e-06	-0.0021816121148316636
4.30275e-06	-0.0021809770304459884
4.30300e-06	-0.0021803106856443217
4.30325e-06	-0.0021796049353103616
4.30350e-06	-0.00217891549812833
4.30375e-06	-0.002178236753237324
4.30400e-06	-0.0021773815104014216
4.30425e-06	-0.0021757047643449668
4.30450e-06	-0.002172382020768348
4.30475e-06	-0.0021670147240030217
4.30500e-06	-0.0021596234973108776
4.30525e-06	-0.002149978172653855
4.30550e-06	-0.0021387343152104842
4.30575e-06	-0.0021264875378215133
4.30600e-06	-0.0021120586342316615
4.30625e-06	-0.0020946548734937964
4.30650e-06	-0.002074436946941898
4.30675e-06	-0.0020542190203899995
4.30700e-06	-0.002031666956490146
4.30725e-06	-0.0020057062233074176
4.30750e-06	-0.001977890305880896
4.30775e-06	-0.0019473651607599773
4.30800e-06	-0.0019168400156390586
4.30825e-06	-0.001884139101402709
4.30850e-06	-0.001848260791733115
4.30875e-06	-0.0018123824820635212
4.30900e-06	-0.0017749162710156963
4.30925e-06	-0.0017351311601583586
4.30950e-06	-0.0016945179637202815
4.30975e-06	-0.001652695468315509
4.31000e-06	-0.0016103146621966324
4.31025e-06	-0.0015671185242021046
4.31050e-06	-0.0015235571976746464
4.31075e-06	-0.0014793214211895527
4.31100e-06	-0.0014348465432550003
4.31125e-06	-0.001390398594663591
4.31150e-06	-0.0013462434680106797
4.31175e-06	-0.0013026458729792155
4.31200e-06	-0.001259842483822933
4.31225e-06	-0.0012179994279501003
4.31250e-06	-0.0011772553617202253
4.31275e-06	-0.001137814389918174
4.31300e-06	-0.0010999450840350404
4.31325e-06	-0.001064904463816261
4.31350e-06	-0.0010324864443675436
4.31375e-06	-0.001000068424918826
4.31400e-06	-0.0009696091733576695
4.31425e-06	-0.0009425995084686455
4.31450e-06	-0.0009169502238811889
4.31475e-06	-0.0008920312623095749
4.31500e-06	-0.0008679277055042777
4.31525e-06	-0.0008450149291737918
4.31550e-06	-0.0008232121026492072
4.31575e-06	-0.0008030301969381375
4.31600e-06	-0.0007837290755287737
4.31625e-06	-0.0007660584392652844
4.31650e-06	-0.0007492813390793289
4.31675e-06	-0.0007330750069073173
4.31700e-06	-0.0007168686747353606
4.31725e-06	-0.0007015184237236326
4.31750e-06	-0.0006874183551643356
4.31775e-06	-0.0006733182866050864
4.31800e-06	-0.0006600329091219735
4.31825e-06	-0.0006479372698726226
4.31850e-06	-0.0006361822658500723
4.31875e-06	-0.0006249247102038713
4.31900e-06	-0.0006136671545576322
4.31925e-06	-0.0006030603561549143
4.31950e-06	-0.000593403894384268
4.31975e-06	-0.0005837474326135891
4.32000e-06	-0.0005740909708429428
4.32025e-06	-0.0005650529767664863
4.32050e-06	-0.0005569181651155247
4.32075e-06	-0.000548783353464563
4.32100e-06	-0.0005406485418135738
4.32125e-06	-0.0005330623620296653
4.32150e-06	-0.0005262773795677717
4.32175e-06	-0.000519492397105855
4.32200e-06	-0.0005127074146439614
4.32225e-06	-0.0005059224321820677
4.32250e-06	-0.0005003363211219335
4.32275e-06	-0.0004948739460663467
4.32300e-06	-0.0004894115710107601
4.32325e-06	-0.0004839491959551549
4.32350e-06	-0.00047894650568488026
4.32375e-06	-0.00047461511841588003
4.32400e-06	-0.00047028373114686516
4.32425e-06	-0.00046664086321497833
4.32450e-06	-0.00046400347797949924
4.32475e-06	-0.00046136609274401126
4.32500e-06	-0.00045872870750853216
4.32525e-06	-0.00045609132227304413
4.32550e-06	-0.0004534539370375651
4.32575e-06	-0.000450816551802086
4.32600e-06	-0.00044817916656659796
4.32625e-06	-0.000447610290011756
4.32650e-06	-0.00044725490507830425
4.32675e-06	-0.00044689952014485135
4.32700e-06	-0.0004465441352113996
4.32725e-06	-0.0004461887502779479
4.32750e-06	-0.0004458333653444949
4.32775e-06	-0.0004454779804110432
4.32800e-06	-0.00044586436023811324
4.32825e-06	-0.00044733397998490384
4.32850e-06	-0.00044880359973168945
4.32875e-06	-0.00045027321947847506
4.32900e-06	-0.00045174283922526566
4.32925e-06	-0.00045321245897205127
4.32950e-06	-0.00045468207871884186
4.32975e-06	-0.0004561516984656275
4.33000e-06	-0.0004580019969753838
4.33025e-06	-0.00046040822164202097
4.33050e-06	-0.00046281444630864995
4.33075e-06	-0.00046522067097527894
4.33100e-06	-0.00046762689564191606
4.33125e-06	-0.00047003312030854504
4.33150e-06	-0.00047243934497517403
4.33175e-06	-0.00047484556964181115
4.33200e-06	-0.0004772695941738471
4.33225e-06	-0.00047971961282935587
4.33250e-06	-0.0004821696314848729
4.33275e-06	-0.00048451091294409614
4.33300e-06	-0.00048669339948876977
4.33325e-06	-0.0004888758860334508
4.33350e-06	-0.0004907360658114692
4.33375e-06	-0.0004921255632727015
4.33400e-06	-0.0004935150607339292
4.33425e-06	-0.0004949045581951568
4.33450e-06	-0.0004962940556563892
4.33475e-06	-0.0004976835531176168
4.33500e-06	-0.0004990730505788444
4.33525e-06	-0.0004991473764166297
4.33550e-06	-0.0004990859628568536
4.33575e-06	-0.0004990245492970776
4.33600e-06	-0.0004989631357373012
4.33625e-06	-0.0004989017221775252
4.33650e-06	-0.0004988403086177492
4.33675e-06	-0.0004981391024665369
4.33700e-06	-0.0004965035719686577
4.33725e-06	-0.0004948680414707785
4.33750e-06	-0.0004932325109728938
4.33775e-06	-0.0004915969804750147
4.33800e-06	-0.00048996144997713
4.33825e-06	-0.0004883259194792508
4.33850e-06	-0.00048669038898137165
4.33875e-06	-0.0004839519202435526
4.33900e-06	-0.00048109961680193935
4.33925e-06	-0.0004782473133603261
4.33950e-06	-0.00047539500991870316
4.33975e-06	-0.0004725427064770899
4.34000e-06	-0.0004696904030354766
4.34025e-06	-0.0004668380995938537
4.34050e-06	-0.0004638062821881284
4.34075e-06	-0.0004605123106570353
4.34100e-06	-0.000457218339125931
4.34125e-06	-0.0004539243675948379
4.34150e-06	-0.0004506303960637448
4.34175e-06	-0.0004474022180873208
4.34200e-06	-0.000444270122061228
4.34225e-06	-0.0004411380260351246
4.34250e-06	-0.00043800593000903185
4.34275e-06	-0.0004348738339829391
4.34300e-06	-0.0004318667953930262
4.34325e-06	-0.00042910392013469973
4.34350e-06	-0.00042650104277124296
4.34375e-06	-0.00042408563853643726
4.34400e-06	-0.00042202907004056583
4.34425e-06	-0.00042086375630262393
4.34450e-06	-0.00042125841161252053
4.34475e-06	-0.00042353677585326197
4.34500e-06	-0.0004276865969427808
4.34525e-06	-0.000433617408346923
4.34550e-06	-0.00044123871442763906
4.34575e-06	-0.000450463929539424
4.34600e-06	-0.00046129660399870997
4.34625e-06	-0.00047396648018013397
4.34650e-06	-0.0004887885885145924
4.34675e-06	-0.0005058618765533058
4.34700e-06	-0.0005250748149886445
4.34725e-06	-0.0005462668389259839
4.34750e-06	-0.0005695962645759263
4.34775e-06	-0.0005944141485442796
4.34800e-06	-0.0006205197503054231
4.34825e-06	-0.0006485058772572964
4.34850e-06	-0.0006775292522559383
4.34875e-06	-0.0007087014184137076
4.34900e-06	-0.0007413505331332637
4.34925e-06	-0.0007752722274413841
4.34950e-06	-0.0008104137508607698
4.34975e-06	-0.0008463388206846309
4.35000e-06	-0.0008827939887764096
4.35025e-06	-0.0009200232885546545
4.35050e-06	-0.0009575894697861941
4.35075e-06	-0.0009957800563578946
4.35100e-06	-0.0010342021876860316
4.35125e-06	-0.0010726239899837495
4.35150e-06	-0.0011108137494442692
4.35175e-06	-0.0011485407241239637
4.35200e-06	-0.0011855963695526668
4.35225e-06	-0.0012218276517701233
4.35250e-06	-0.0012571025590490726
4.35275e-06	-0.0012912360312892647
4.35300e-06	-0.0013239912648314147
4.35325e-06	-0.0013551194110337065
4.35350e-06	-0.0013843716903535097
4.35375e-06	-0.0014115000803117232
4.35400e-06	-0.0014362787198407287
4.35425e-06	-0.0014585563592310325
4.35450e-06	-0.0014782686099462808
4.35475e-06	-0.0014953797993976041
4.35500e-06	-0.0015098431992925227
4.35525e-06	-0.0015210399375270244
4.35550e-06	-0.0015297886071699795
4.35575e-06	-0.001535664338907919
4.35600e-06	-0.0015373445612478472
4.35625e-06	-0.0015390247835877753
4.35650e-06	-0.0015379124113925548
4.35675e-06	-0.0015327218596459182
4.35700e-06	-0.001525436181823627
4.35725e-06	-0.0015150908760417803
4.35750e-06	-0.0015027642639583439
4.35775e-06	-0.0014875442411980122
4.35800e-06	-0.0014704828269444929
4.35825e-06	-0.0014507323273122833
4.35850e-06	-0.0014293655679620033
4.35875e-06	-0.001405638495559088
4.35900e-06	-0.0013805380152321024
4.35925e-06	-0.001353431871697827
4.35950e-06	-0.001325191079158565
4.35975e-06	-0.0012952932962069716
4.36000e-06	-0.0012645158054027917
4.36025e-06	-0.001232453628787792
4.36050e-06	-0.0011999227351984633
4.36075e-06	-0.0011665022788145039
4.36100e-06	-0.0011326563442510267
4.36125e-06	-0.0010985796980930531
4.36150e-06	-0.001064467310470433
4.36175e-06	-0.0010305140388497593
4.36200e-06	-0.0009969181910480353
4.36225e-06	-0.0009638895834243291
4.36250e-06	-0.0009316513476694871
4.36275e-06	-0.0009004310280571313
4.36300e-06	-0.0008704543790663158
4.36325e-06	-0.0008419462568913523
4.36350e-06	-0.0008151314467514505
4.36375e-06	-0.0007902302771024685
4.36400e-06	-0.0007673562664351928
4.36425e-06	-0.0007466111356452906
4.36450e-06	-0.0007272348530650937
4.36475e-06	-0.0007089883340642792
4.36500e-06	-0.0006923916710194574
4.36525e-06	-0.0006770765509680238
4.36550e-06	-0.0006636329387072798
4.36575e-06	-0.0006516035448280931
4.36600e-06	-0.0006416394119137734
4.36625e-06	-0.00063286534742277
4.36650e-06	-0.0006258292053715263
4.36675e-06	-0.0006197889331122946
4.36700e-06	-0.0006152029843395662
4.36725e-06	-0.0006116487830739221
4.36750e-06	-0.0006096012994974604
4.36775e-06	-0.0006086094819048362
4.36800e-06	-0.0006091593114698248
4.36825e-06	-0.0006103874226648981
4.36850e-06	-0.0006129616491574447
4.36875e-06	-0.0006163892787733355
4.36900e-06	-0.0006206315464981598
4.36925e-06	-0.0006256702224428817
4.36950e-06	-0.000631487098500789
4.36975e-06	-0.0006380628091875088
4.37000e-06	-0.0006453517715213176
4.37025e-06	-0.0006532380374938797
4.37050e-06	-0.000661565289717781
4.37075e-06	-0.0006702210487615011
4.37100e-06	-0.000679144662858166
4.37125e-06	-0.0006882883780676198
4.37150e-06	-0.0006976044532167564
4.37175e-06	-0.0007070444591676681
4.37200e-06	-0.0007165434833474902
4.37225e-06	-0.0007259925797457682
4.37250e-06	-0.0007352575153928543
4.37275e-06	-0.000744231526267295
4.37300e-06	-0.0007527446381747294
4.37325e-06	-0.0007608779655303377
4.37350e-06	-0.000768697407237988
4.37375e-06	-0.000775816582646133
4.37400e-06	-0.0007823887401231709
4.37425e-06	-0.0007886253583194426
4.37450e-06	-0.0007948305714237156
4.37475e-06	-0.0008011501967111078
4.37500e-06	-0.0008075639865952948
4.37525e-06	-0.0008139992391479299
4.37550e-06	-0.0008204151785721168
4.37575e-06	-0.0008267585936734369
4.37600e-06	-0.0008329960975130936
4.37625e-06	-0.000839331901323936
4.37650e-06	-0.0008458112579946881
4.37675e-06	-0.0008524898170137445
4.37700e-06	-0.0008594592821894117
4.37725e-06	-0.0008665553149853695
4.37750e-06	-0.0008738361814456233
4.37775e-06	-0.0008811170479059017
4.37800e-06	-0.0008885107562664696
4.37825e-06	-0.000896069253866727
4.37850e-06	-0.00090362775146701
4.37875e-06	-0.000911372959866894
4.37900e-06	-0.0009193908323270805
4.37925e-06	-0.0009274771244062153
4.37950e-06	-0.0009356633334217635
4.37975e-06	-0.0009438406942569948
4.38000e-06	-0.0009520051336073891
4.38025e-06	-0.0009601783974798365
4.38050e-06	-0.0009683645482877516
4.38075e-06	-0.0009765598548330258
4.38100e-06	-0.0009847483751884937
4.38125e-06	-0.000992866010204363
4.38150e-06	-0.001000860420302229
4.38175e-06	-0.0010086797135343967
4.38200e-06	-0.0010162836701149529
4.38225e-06	-0.0010236625980621797
4.38250e-06	-0.0010308210962573507
4.38275e-06	-0.0010377394434187704
4.38300e-06	-0.001044372170039959
4.38325e-06	-0.0010506677296674661
4.38350e-06	-0.0010564792985033138
4.38375e-06	-0.0010619027391012652
4.38400e-06	-0.0010668394824652906
4.38425e-06	-0.0010710654750629444
4.38450e-06	-0.001075291467660584
4.38475e-06	-0.0010787349404395715
4.38500e-06	-0.0010810356564448372
4.38525e-06	-0.001083336372450103
4.38550e-06	-0.0010856370884553765
4.38575e-06	-0.0010879378044606422
4.38600e-06	-0.0010892310108215131
4.38625e-06	-0.0010890528953791173
4.38650e-06	-0.001088874779936722
4.38675e-06	-0.0010886966644943269
4.38700e-06	-0.001088518549051931
4.38725e-06	-0.001087294388078194
4.38750e-06	-0.0010845426292238902
4.38775e-06	-0.0010817908703695768
4.38800e-06	-0.0010790391115152727
4.38825e-06	-0.0010762873526609688
4.38850e-06	-0.0010735355938066553
4.38875e-06	-0.0010707838349523512
4.38900e-06	-0.0010671915665627948
4.38925e-06	-0.001062371855823838
4.38950e-06	-0.001057552145084881
4.38975e-06	-0.0010527324343459078
4.39000e-06	-0.0010479127236069509
4.39025e-06	-0.001043093012867994
4.39050e-06	-0.0010382733021290207
4.39075e-06	-0.00103317502354554
4.39100e-06	-0.0010276699370018805
4.39125e-06	-0.0010221648504582024
4.39150e-06	-0.0010166597165980709
4.39175e-06	-0.0010111545136390896
4.39200e-06	-0.0010056493106800897
4.39225e-06	-0.0010002726350320057
4.39250e-06	-0.0009950836548922137
4.39275e-06	-0.0009898946747524042
4.39300e-06	-0.0009849156614584007
