Time(s)	Current(A)
2.25000e-06	0.005130841090740918
2.25025e-06	0.005130278571905849
2.25050e-06	0.005129716053070782
2.25075e-06	0.005129153534235715
2.25100e-06	0.005128591015400646
2.25125e-06	0.005128028496565578
2.25150e-06	0.0051274659777305115
2.25175e-06	0.005126903458895443
2.25200e-06	0.005126340940060375
2.25225e-06	0.0051257784212253065
2.25250e-06	0.00512521590239024
2.25275e-06	0.005124653383555172
2.25300e-06	0.005111472081966081
2.25325e-06	0.0050951565770575484
2.25350e-06	0.005078841072148988
2.25375e-06	0.005062525567240427
2.25400e-06	0.005046210062331894
2.25425e-06	0.005029894557423333
2.25450e-06	0.005013579052514773
2.25475e-06	0.004997263547606212
2.25500e-06	0.004980948042697679
2.25525e-06	0.004964632537789119
2.25550e-06	0.004948317032880558
2.25575e-06	0.004932001527972026
2.25600e-06	0.004911648494931999
2.25625e-06	0.004881921088132204
2.25650e-06	0.004852193681332408
2.25675e-06	0.004822466274532664
2.25700e-06	0.004792738867732869
2.25725e-06	0.004763011460933073
2.25750e-06	0.004733284054133329
2.25775e-06	0.004703556647333533
2.25800e-06	0.004673829240533738
2.25825e-06	0.004644101833733993
2.25850e-06	0.004614374426934198
2.25875e-06	0.004584647020134403
2.25900e-06	0.004554919613334607
2.25925e-06	0.004528685524002547
2.25950e-06	0.004503319091037738
2.25975e-06	0.004477952658072928
2.26000e-06	0.004452586225108162
2.26025e-06	0.004427219792143352
2.26050e-06	0.004401853359178543
2.26075e-06	0.004376486926213733
2.26100e-06	0.004351120493248966
2.26125e-06	0.004325754060284156
2.26150e-06	0.004300387627319347
2.26175e-06	0.0042750211943545805
2.26200e-06	0.004267765455111604
2.26225e-06	0.004265007978299544
2.26250e-06	0.004262250501487489
2.26275e-06	0.004259493024675429
2.26300e-06	0.004256735547863369
2.26325e-06	0.004253978071051308
2.26350e-06	0.004251220594239253
2.26375e-06	0.004248463117427193
2.26400e-06	0.004245705640615133
2.26425e-06	0.004242948163803078
2.26450e-06	0.0042401906869910175
2.26475e-06	0.0042567462285822534
2.26500e-06	0.0042780986612504625
2.26525e-06	0.004299451093918635
2.26550e-06	0.004320803526586844
2.26575e-06	0.004342155959255053
2.26600e-06	0.004363508391923226
2.26625e-06	0.004384860824591435
2.26650e-06	0.004406213257259644
2.26675e-06	0.004427565689927818
2.26700e-06	0.004448918122596027
2.26725e-06	0.004479007877480641
2.26750e-06	0.0045112677738782326
2.26775e-06	0.004543527670275768
2.26800e-06	0.004575787566673359
2.26825e-06	0.004608047463070949
2.26850e-06	0.004640307359468485
2.26875e-06	0.004672567255866076
2.26900e-06	0.004704827152263667
2.26925e-06	0.004737087048661257
2.26950e-06	0.004769346945058793
2.26975e-06	0.004796262699953564
2.27000e-06	0.004821851098131984
2.27025e-06	0.004847439496310361
2.27050e-06	0.004873027894488782
2.27075e-06	0.004898616292667202
2.27100e-06	0.004924204690845579
2.27125e-06	0.004949793089024
2.27150e-06	0.004975381487202421
2.27175e-06	0.005000969885380841
2.27200e-06	0.005026558283559218
2.27225e-06	0.00505058537696618
2.27250e-06	0.00507098741712134
2.27275e-06	0.005091389457276464
2.27300e-06	0.005111791497431624
2.27325e-06	0.005132193537586783
2.27350e-06	0.005152595577741942
2.27375e-06	0.005172997617897067
2.27400e-06	0.005193399658052227
2.27425e-06	0.005213801698207386
2.27450e-06	0.005234203738362511
2.27475e-06	0.00525460577851767
2.27500e-06	0.0052773727073657725
2.27525e-06	0.0053007270179080785
2.27550e-06	0.005324081328450424
2.27575e-06	0.005347435638992769
2.27600e-06	0.005370789949535114
2.27625e-06	0.005394144260077419
2.27650e-06	0.005417498570619764
2.27675e-06	0.005440852881162109
2.27700e-06	0.005464207191704414
2.27725e-06	0.005487561502246759
2.27750e-06	0.005510915812789104
2.27775e-06	0.005534270123331449
2.27800e-06	0.005557624433873755
2.27825e-06	0.0055809787444161
2.27850e-06	0.005600840821361941
2.27875e-06	0.0056198355111479175
2.27900e-06	0.005638830200933926
2.27925e-06	0.005657824890719934
2.27950e-06	0.00567681958050591
2.27975e-06	0.005695814270291919
2.28000e-06	0.005714808960077927
2.28025e-06	0.005733803649863935
2.28050e-06	0.0057527983396499114
2.28075e-06	0.005771793029435921
2.28100e-06	0.005790787719221929
2.28125e-06	0.005809782409007905
2.28150e-06	0.005828777098793913
2.28175e-06	0.005847771788579922
2.28200e-06	0.005854068914131515
2.28225e-06	0.005857212268930319
2.28250e-06	0.005860355623729128
2.28275e-06	0.005863498978527936
2.28300e-06	0.0058666423333267395
2.28325e-06	0.0058697856881255485
2.28350e-06	0.005872929042924357
2.28375e-06	0.00587607239772316
2.28400e-06	0.005879215752521969
2.28425e-06	0.0058823591073207775
2.28450e-06	0.0058855024621195864
2.28475e-06	0.00588864581691839
2.28500e-06	0.005891789171717198
2.28525e-06	0.005894932526516007
2.28550e-06	0.005898075881314811
2.28575e-06	0.005901219236113619
2.28600e-06	0.005901096768967834
2.28625e-06	0.0058933916833109725
2.28650e-06	0.005885686597654125
2.28675e-06	0.005877981511997264
2.28700e-06	0.005870276426340403
2.28725e-06	0.005862571340683556
2.28750e-06	0.0058548662550266944
2.28775e-06	0.005847161169369834
2.28800e-06	0.005839456083712986
2.28825e-06	0.005831750998056125
2.28850e-06	0.0058240459123992646
2.28875e-06	0.005816340826742403
2.28900e-06	0.005808635741085555
2.28925e-06	0.005800930655428695
2.28950e-06	0.005793225569771834
2.28975e-06	0.0057855204841149865
2.29000e-06	0.005777815398458125
2.29025e-06	0.005773208480594465
2.29050e-06	0.005769371073386058
2.29075e-06	0.005765533666177658
2.29100e-06	0.005761696258969251
2.29125e-06	0.0057578588517608435
2.29150e-06	0.005754021444552443
2.29175e-06	0.005750184037344036
2.29200e-06	0.005746346630135629
2.29225e-06	0.005742509222927229
2.29250e-06	0.005738671815718821
2.29275e-06	0.005734834408510415
2.29300e-06	0.005730997001302008
2.29325e-06	0.005727159594093607
2.29350e-06	0.0057360001169758585
2.29375e-06	0.005747989533960273
2.29400e-06	0.0057599789509446666
2.29425e-06	0.005771968367929081
2.29450e-06	0.0057839577849134955
2.29475e-06	0.005795947201897911
2.29500e-06	0.005807936618882304
2.29525e-06	0.005819926035866719
2.29550e-06	0.005831915452851133
2.29575e-06	0.005843904869835528
2.29600e-06	0.005855894286819942
2.29625e-06	0.005867883703804357
2.29650e-06	0.005879873120788751
2.29675e-06	0.00589850867954812
2.29700e-06	0.005918794980699038
2.29725e-06	0.005940586365229396
2.29750e-06	0.00596275157641304
2.29775e-06	0.005984916787596723
2.29800e-06	0.006007081998780405
2.29825e-06	0.00602924720996405
2.29850e-06	0.006051412421147732
2.29875e-06	0.006073577632331415
2.29900e-06	0.0060957428435150975
2.29925e-06	0.006117908054698742
2.29950e-06	0.006140073265882425
2.29975e-06	0.006160617120570898
2.30000e-06	0.0061773964933055535
2.30025e-06	0.0061941758660402375
2.30050e-06	0.006210955238774922
2.30075e-06	0.006227734611509578
2.30100e-06	0.006244513984244262
2.30125e-06	0.006261293356978947
2.30150e-06	0.006278072729713631
2.30175e-06	0.006294852102448286
2.30200e-06	0.006311631475182971
2.30225e-06	0.006328410847917655
2.30250e-06	0.006343309272746462
2.30275e-06	0.006357740515178374
2.30300e-06	0.006372171757610286
2.30325e-06	0.006386603000042199
2.30350e-06	0.006401034242474087
2.30375e-06	0.0064154654849059994
2.30400e-06	0.006429896727337911
2.30425e-06	0.0064443279697698
2.30450e-06	0.006458759212201712
2.30475e-06	0.006473190454633624
2.30500e-06	0.006487621697065513
2.30525e-06	0.006502052939497425
2.30550e-06	0.006516484181929337
2.30575e-06	0.006530915424361249
2.30600e-06	0.006545346666793138
2.30625e-06	0.0065597779092250496
2.30650e-06	0.006574209151656962
2.30675e-06	0.006588606942421532
2.30700e-06	0.006602927064765686
2.30725e-06	0.0066172471871098395
2.30750e-06	0.006631567309453994
2.30775e-06	0.006645887431798124
2.30800e-06	0.006660207554142278
2.30825e-06	0.0066745276764864315
2.30850e-06	0.006688847798830561
2.30875e-06	0.006703167921174715
2.30900e-06	0.006717488043518869
2.30925e-06	0.006731808165862998
2.30950e-06	0.006746128288207153
2.30975e-06	0.006760448410551307
2.31000e-06	0.006774768532895461
2.31025e-06	0.00678908865523959
2.31050e-06	0.006803408777583744
2.31075e-06	0.006817728899927898
2.31100e-06	0.006832049022272028
2.31125e-06	0.0068348318581019935
2.31150e-06	0.006834749108366568
2.31175e-06	0.006834666358631142
2.31200e-06	0.006834583608895716
2.31225e-06	0.00683450085916029
2.31250e-06	0.006834418109424863
2.31275e-06	0.0068343353596894375
2.31300e-06	0.006834252609954012
2.31325e-06	0.006834169860218586
2.31350e-06	0.00683408711048316
2.31375e-06	0.006834004360747734
2.31400e-06	0.006833921611012307
2.31425e-06	0.0068338388612768815
2.31450e-06	0.006827778594503999
2.31475e-06	0.006807839668050051
2.31500e-06	0.0067879007415961035
2.31525e-06	0.00676796181514219
2.31550e-06	0.006748022888688242
2.31575e-06	0.006728083962234295
2.31600e-06	0.006708145035780382
2.31625e-06	0.0066882061093264345
2.31650e-06	0.0066682671828724865
2.31675e-06	0.006648328256418539
2.31700e-06	0.006628389329964626
2.31725e-06	0.006608450403510679
2.31750e-06	0.006588511477056731
2.31775e-06	0.006568572550602818
2.31800e-06	0.006544296901537866
2.31825e-06	0.006518944114473398
2.31850e-06	0.006493591327408931
2.31875e-06	0.006468238540344506
2.31900e-06	0.006442885753280039
2.31925e-06	0.006417532966215571
2.31950e-06	0.006392180179151147
2.31975e-06	0.006366827392086679
2.32000e-06	0.006341474605022212
2.32025e-06	0.006316121817957787
2.32050e-06	0.006290769030893319
2.32075e-06	0.006268354625636377
2.32100e-06	0.006252762585061307
2.32125e-06	0.006237170544486264
2.32150e-06	0.006221578503911193
2.32175e-06	0.006205986463336123
2.32200e-06	0.00619039442276108
2.32225e-06	0.0061748023821860095
2.32250e-06	0.006159210341610939
2.32275e-06	0.006143618301035869
2.32300e-06	0.006128026260460826
2.32325e-06	0.006112434219885755
2.32350e-06	0.006096842179310685
2.32375e-06	0.00608918109712672
2.32400e-06	0.006083489875001236
2.32425e-06	0.006077798652875751
2.32450e-06	0.006072107430750277
2.32475e-06	0.006066416208624792
2.32500e-06	0.0060607249864993076
2.32525e-06	0.006055033764373823
2.32550e-06	0.006049342542248349
2.32575e-06	0.0060436513201228646
2.32600e-06	0.0060379600979973795
2.32625e-06	0.006032268875871905
2.32650e-06	0.006026577653746421
2.32675e-06	0.0060208864316209365
2.32700e-06	0.0060151952094954515
2.32725e-06	0.006009503987369977
2.32750e-06	0.006005206645440389
2.32775e-06	0.006004145628686592
2.32800e-06	0.0060030846119327975
2.32825e-06	0.006002023595179001
2.32850e-06	0.006000962578425205
2.32875e-06	0.00599990156167141
2.32900e-06	0.005998840544917614
2.32925e-06	0.0059977795281638165
2.32950e-06	0.00599671851141002
2.32975e-06	0.005995657494656225
2.33000e-06	0.005994596477902429
2.33025e-06	0.005993535461148633
2.33050e-06	0.005992474444394838
2.33075e-06	0.005991413427641041
2.33100e-06	0.005990352410887244
2.33125e-06	0.005989291394133448
2.33150e-06	0.005980030905616764
2.33175e-06	0.005968733864752724
2.33200e-06	0.005957436823888684
2.33225e-06	0.005946139783024663
2.33250e-06	0.005934842742160623
2.33275e-06	0.005923545701296583
2.33300e-06	0.005912248660432562
2.33325e-06	0.005900951619568522
2.33350e-06	0.005889654578704482
2.33375e-06	0.005871051126474475
2.33400e-06	0.005835483574231124
2.33425e-06	0.0057999160219877124
2.33450e-06	0.005764348469744301
2.33475e-06	0.0057287809175009495
2.33500e-06	0.005693213365257538
2.33525e-06	0.005657645813014127
2.33550e-06	0.005622078260770715
2.33575e-06	0.005586510708527364
2.33600e-06	0.005550943156283952
2.33625e-06	0.005501132550662074
2.33650e-06	0.005447784311808323
2.33675e-06	0.005394436072954481
2.33700e-06	0.005341087834100639
2.33725e-06	0.005287739595246887
2.33750e-06	0.005234391356393045
2.33775e-06	0.005181043117539203
2.33800e-06	0.005127694878685361
2.33825e-06	0.005074023278897488
2.33850e-06	0.005019600896413018
2.33875e-06	0.00496517851392855
2.33900e-06	0.004910756131444172
2.33925e-06	0.004856333748959702
2.33950e-06	0.004801911366475233
2.33975e-06	0.004747488983990763
2.34000e-06	0.0046930666015063864
2.34025e-06	0.004638644219021917
2.34050e-06	0.0045995018930872714
2.34075e-06	0.004564154767128665
2.34100e-06	0.004528807641169999
2.34125e-06	0.004493460515211332
2.34150e-06	0.004458113389252726
2.34175e-06	0.00442276626329406
2.34200e-06	0.004387419137335394
2.34225e-06	0.004352072011376727
2.34250e-06	0.004347895023921702
2.34275e-06	0.004351459952114349
2.34300e-06	0.0043550248803069964
2.34325e-06	0.0043585898084996366
2.34350e-06	0.004362154736692284
2.34375e-06	0.004365719664884931
2.34400e-06	0.004369284593077578
2.34425e-06	0.004372849521270218
2.34450e-06	0.004409243799248114
2.34475e-06	0.004453792101205662
2.34500e-06	0.004498340403163134
2.34525e-06	0.004542888705120682
2.34550e-06	0.004587437007078229
2.34575e-06	0.0046319853090357015
2.34600e-06	0.004676533610993249
2.34625e-06	0.004721081912950797
2.34650e-06	0.0047871158936218005
2.34675e-06	0.004858486402143475
2.34700e-06	0.0049298569106652704
2.34725e-06	0.005001227419187066
2.34750e-06	0.00507259792770874
2.34775e-06	0.005143968436230536
2.34800e-06	0.005215338944752331
2.34825e-06	0.005286709453274126
2.34850e-06	0.005361419652353294
2.34875e-06	0.00543695935055669
2.34900e-06	0.005512499048760087
2.34925e-06	0.005588038746963355
2.34950e-06	0.005663578445166751
2.34975e-06	0.005739118143370147
2.35000e-06	0.005814657841573416
2.35025e-06	0.005883752785556851
2.35050e-06	0.005937884233825748
2.35075e-06	0.0059920156820946445
2.35100e-06	0.006046147130363449
2.35125e-06	0.006100278578632345
2.35150e-06	0.006154410026901242
2.35175e-06	0.006208541475170046
2.35200e-06	0.006262672923438943
2.35225e-06	0.006281854506372876
2.35250e-06	0.0062923553800658906
2.35275e-06	0.006302856253758887
2.35300e-06	0.006313357127451901
2.35325e-06	0.006323858001144915
2.35350e-06	0.006334358874837911
2.35375e-06	0.006344859748530926
2.35400e-06	0.00635536062222394
2.35425e-06	0.006365861495916936
2.35450e-06	0.006376362369609951
2.35475e-06	0.006386863243302965
2.35500e-06	0.006362066107861081
2.35525e-06	0.006328501792598961
2.35550e-06	0.006294937477336785
2.35575e-06	0.006261373162074609
2.35600e-06	0.0062278088468124895
2.35625e-06	0.006194244531550313
2.35650e-06	0.006160680216288137
2.35675e-06	0.00612711590102596
2.35700e-06	0.006093551585763841
2.35725e-06	0.006059987270501665
2.35750e-06	0.006026422955239488
2.35775e-06	0.005978997319600255
2.35800e-06	0.005928128864060528
2.35825e-06	0.005877260408520803
2.35850e-06	0.005826391952981162
2.35875e-06	0.0057755234974414356
2.35900e-06	0.00572465504190171
2.35925e-06	0.005673786586361983
2.35950e-06	0.005622918130822343
2.35975e-06	0.005575043175895001
2.36000e-06	0.005534118561051796
2.36025e-06	0.005493193946208662
2.36050e-06	0.005452269331365458
2.36075e-06	0.005411344716522253
2.36100e-06	0.005370420101679049
2.36125e-06	0.005329495486835914
2.36150e-06	0.005288570871992709
2.36175e-06	0.005247646257149506
2.36200e-06	0.005234111536944092
2.36225e-06	0.0052273798103762365
2.36250e-06	0.005220648083808381
2.36275e-06	0.0052139163572405365
2.36300e-06	0.005207184630672681
2.36325e-06	0.005200452904104825
2.36350e-06	0.00519372117753697
2.36375e-06	0.005186989450969125
2.36400e-06	0.00518025772440127
2.36425e-06	0.005173525997833414
2.36450e-06	0.00516679427126557
2.36475e-06	0.005190160235084991
2.36500e-06	0.005221001744134589
2.36525e-06	0.005251843253184188
2.36550e-06	0.005282684762233734
2.36575e-06	0.0053135262712833324
2.36600e-06	0.005344367780332931
2.36625e-06	0.005375209289382477
2.36650e-06	0.005406050798432076
2.36675e-06	0.005436892307481674
2.36700e-06	0.00546773381653122
2.36725e-06	0.005498575325580819
2.36750e-06	0.005542438088846821
2.36775e-06	0.005589535019704982
2.36800e-06	0.0056366319505630645
2.36825e-06	0.005683728881421226
2.36850e-06	0.005730825812279387
2.36875e-06	0.0057779227431374695
2.36900e-06	0.005825019673995631
2.36925e-06	0.005872116604853793
2.36950e-06	0.005919213535711954
2.36975e-06	0.005958888241232086
2.37000e-06	0.005996719443795398
2.37025e-06	0.006034550646358711
2.37050e-06	0.006072381848921959
2.37075e-06	0.0061102130514852715
2.37100e-06	0.0061480442540485835
2.37125e-06	0.006185875456611832
2.37150e-06	0.006223706659175144
2.37175e-06	0.006261537861738457
2.37200e-06	0.0062781065548126345
2.37225e-06	0.006289394149923529
2.37250e-06	0.006300681745034442
2.37275e-06	0.006311969340145355
2.37300e-06	0.0063232569352562485
2.37325e-06	0.006334544530367162
2.37350e-06	0.006345832125478075
2.37375e-06	0.006357119720588988
2.37400e-06	0.006368407315699882
2.37425e-06	0.006379694910810795
2.37450e-06	0.006390982505921708
2.37475e-06	0.006402270101032601
2.37500e-06	0.006413557696143515
2.37525e-06	0.006417931798335835
2.37550e-06	0.006406254082546463
2.37575e-06	0.00639457636675707
2.37600e-06	0.006382898650967678
2.37625e-06	0.006371220935178285
2.37650e-06	0.006359543219388913
2.37675e-06	0.00634786550359952
2.37700e-06	0.006336187787810128
2.37725e-06	0.006324510072020755
2.37750e-06	0.006312832356231363
2.37775e-06	0.00630115464044197
2.37800e-06	0.006289476924652578
2.37825e-06	0.006277799208863205
2.37850e-06	0.006266121493073813
2.37875e-06	0.006250249085884305
2.37900e-06	0.006233334817844771
2.37925e-06	0.0062164205498052095
2.37950e-06	0.006199506281765648
2.37975e-06	0.006182592013726115
2.38000e-06	0.006165677745686553
2.38025e-06	0.006148763477646991
2.38050e-06	0.006131849209607429
2.38075e-06	0.006117688410377769
2.38100e-06	0.006107100092278015
2.38125e-06	0.006096511774178261
2.38150e-06	0.006085923456078526
2.38175e-06	0.006075335137978772
2.38200e-06	0.006064746819879018
2.38225e-06	0.006054158501779264
2.38250e-06	0.006043570183679529
2.38275e-06	0.006032777946273703
2.38300e-06	0.0047929308006595065
2.38325e-06	-0.00017601721965675556
2.38350e-06	-0.003946184635342126
2.38375e-06	-0.003952070668512908
2.38400e-06	-0.0020478835098157126
2.38425e-06	0.001778147645514897
2.38450e-06	0.005245975923806068
2.38475e-06	0.006030495468670699
2.38500e-06	0.004938752582462272
2.38525e-06	0.002374010407897074
2.38550e-06	-1.4711103874494986e-05
2.38575e-06	-0.0004235896350813693
2.38600e-06	0.0009236316602008543
2.38625e-06	0.003125321033236578
2.38650e-06	0.005136153972567578
2.38675e-06	0.005930935552077333
2.38700e-06	0.005325368738775435
2.38725e-06	0.003753966426902108
2.38750e-06	0.002663703961427977
2.38775e-06	0.0022934612242383494
2.38800e-06	0.003254893585080438
2.38825e-06	0.004786857270601464
2.38850e-06	0.006018748210269745
2.38875e-06	0.0065762300990153955
2.38900e-06	0.006118343299853363
2.38925e-06	0.005119035502819392
2.38950e-06	0.004263085424839544
2.38975e-06	0.00399599758962219
2.39000e-06	0.004596002487555535
2.39025e-06	0.0055561911621922816
2.39050e-06	0.006327926260418356
2.39075e-06	0.006676740395785041
2.39100e-06	0.006389092755813312
2.39125e-06	0.005761878087626011
2.39150e-06	0.005223850396150711
2.39175e-06	0.005053532583963587
2.39200e-06	0.005424656143174916
2.39225e-06	0.006019541681065709
2.39250e-06	0.0064946194962479985
2.39275e-06	0.006703141050544174
2.39300e-06	0.006511477288442298
2.39325e-06	0.006105733593005497
2.39350e-06	0.005754589744767319
2.39375e-06	0.005632600950665377
2.39400e-06	0.005848667833798973
2.39425e-06	0.006203876260735477
2.39450e-06	0.006483112137281936
2.39475e-06	0.0065945641599891875
2.39500e-06	0.006454647171073335
2.39525e-06	0.0061800554688214325
2.39550e-06	0.005939194005048919
2.39575e-06	0.00584149591226536
2.39600e-06	0.005955260781633227
2.39625e-06	0.0061559746198043865
2.39650e-06	0.006308988670297253
2.39675e-06	0.006356898389891203
2.39700e-06	0.006247458561549396
2.39725e-06	0.006053876441710321
2.39750e-06	0.005881743031385472
2.39775e-06	0.005799701477110683
2.39800e-06	0.0058506234434248195
2.39825e-06	0.005956604466856419
2.39850e-06	0.0060333990619189015
2.39875e-06	0.006045152099960859
2.39900e-06	0.0059592443081745335
2.39925e-06	0.005821638362501739
2.39950e-06	0.005698577160064892
2.39975e-06	0.00563315483609954
2.40000e-06	0.005652318573695934
2.40025e-06	0.005707362690328806
2.40050e-06	0.005745613915493092
