Time(s)	Current(A)
3.55000e-06	-0.005648041263423872
3.55025e-06	-0.005639813128261718
3.55050e-06	-0.00563158499309955
3.55075e-06	-0.005623356857937381
3.55100e-06	-0.005615128722775213
3.55125e-06	-0.005606900587613059
3.55150e-06	-0.005598672452450891
3.55175e-06	-0.005590444317288722
3.55200e-06	-0.005582216182126568
3.55225e-06	-0.0055739880469644005
3.55250e-06	-0.005565759911802232
3.55275e-06	-0.00555661301311133
3.55300e-06	-0.00554739191379427
3.55325e-06	-0.005538170814477194
3.55350e-06	-0.005528949715160119
3.55375e-06	-0.005519728615843059
3.55400e-06	-0.005510507516525983
3.55425e-06	-0.005501286417208907
3.55450e-06	-0.005492065317891847
3.55475e-06	-0.005482844218574772
3.55500e-06	-0.005473623119257695
3.55525e-06	-0.00546440201994062
3.55550e-06	-0.00545518092062356
3.55575e-06	-0.005452371843631134
3.55600e-06	-0.005458228148991931
3.55625e-06	-0.005464084454352716
3.55650e-06	-0.005469940759713512
3.55675e-06	-0.005475797065074309
3.55700e-06	-0.005481653370435105
3.55725e-06	-0.00548750967579589
3.55750e-06	-0.005493365981156686
3.55775e-06	-0.005499222286517483
3.55800e-06	-0.005505078591878269
3.55825e-06	-0.005510934897239065
3.55850e-06	-0.005516791202599861
3.55875e-06	-0.005522647507960647
3.55900e-06	-0.005546466624597022
3.55925e-06	-0.005571736442967777
3.55950e-06	-0.005597006261338532
3.55975e-06	-0.005622276079709244
3.56000e-06	-0.00564754589808
3.56025e-06	-0.005672815716450754
3.56050e-06	-0.005698085534821467
3.56075e-06	-0.005723355353192221
3.56100e-06	-0.005748625171562977
3.56125e-06	-0.005773894989933731
3.56150e-06	-0.005799164808304444
3.56175e-06	-0.005827135441401406
3.56200e-06	-0.00585875602939304
3.56225e-06	-0.00589037661738462
3.56250e-06	-0.005921997205376253
3.56275e-06	-0.0059536177933678875
3.56300e-06	-0.005985238381359468
3.56325e-06	-0.006016858969351102
3.56350e-06	-0.006048479557342735
3.56375e-06	-0.006080100145334369
3.56400e-06	-0.00611172073332595
3.56425e-06	-0.006143341321317584
3.56450e-06	-0.006174961909309218
3.56475e-06	-0.006195197162083904
3.56500e-06	-0.006214512919279967
3.56525e-06	-0.006233828676476032
3.56550e-06	-0.006253144433672095
3.56575e-06	-0.0062724601908681265
3.56600e-06	-0.00629177594806419
3.56625e-06	-0.006311091705260254
3.56650e-06	-0.006330407462456286
3.56675e-06	-0.006349723219652349
3.56700e-06	-0.006369038976848413
3.56725e-06	-0.006388354734044444
3.56750e-06	-0.006387153212804458
3.56775e-06	-0.006384294687493052
3.56800e-06	-0.0063814361621816465
3.56825e-06	-0.006378577636870245
3.56850e-06	-0.00637571911155884
3.56875e-06	-0.006372860586247434
3.56900e-06	-0.006370002060936032
3.56925e-06	-0.006367143535624627
3.56950e-06	-0.006364285010313221
3.56975e-06	-0.006361426485001815
3.57000e-06	-0.006358567959690414
3.57025e-06	-0.006340646072897594
3.57050e-06	-0.006321507647986312
3.57075e-06	-0.006302369223075062
3.57100e-06	-0.00628323079816378
3.57125e-06	-0.006264092373252498
3.57150e-06	-0.006244953948341248
3.57175e-06	-0.006225815523429966
3.57200e-06	-0.0062066770985186835
3.57225e-06	-0.006187538673607401
3.57250e-06	-0.0061684002486961514
3.57275e-06	-0.006149261823784869
3.57300e-06	-0.006129877923844649
3.57325e-06	-0.006110474198998167
3.57350e-06	-0.0060910704741516525
3.57375e-06	-0.006071666749305138
3.57400e-06	-0.006052263024458623
3.57425e-06	-0.0060328592996121404
3.57450e-06	-0.006013455574765626
3.57475e-06	-0.005994051849919111
3.57500e-06	-0.005974648125072629
3.57525e-06	-0.0059552444002261146
3.57550e-06	-0.0059358406753796
3.57575e-06	-0.005923037005164629
3.57600e-06	-0.005919686518712008
3.57625e-06	-0.005917056436369452
3.57650e-06	-0.005914426354026898
3.57675e-06	-0.0059117962716843464
3.57700e-06	-0.005909166189341792
3.57725e-06	-0.005906536106999237
3.57750e-06	-0.005903906024656686
3.57775e-06	-0.005901275942314131
3.57800e-06	-0.005898645859971576
3.57825e-06	-0.005896015777629021
3.57850e-06	-0.00589338569528647
3.57875e-06	-0.005890755612943915
3.57900e-06	-0.00588812553060136
3.57925e-06	-0.0058854954482588095
3.57950e-06	-0.005882865365916255
3.57975e-06	-0.005880235283573699
3.58000e-06	-0.005877605201231149
3.58025e-06	-0.005885483032573324
3.58050e-06	-0.005894209497705632
3.58075e-06	-0.00590293596283794
3.58100e-06	-0.005911662427970234
3.58125e-06	-0.005920388893102542
3.58150e-06	-0.00592911535823485
3.58175e-06	-0.005937841823367144
3.58200e-06	-0.005946568288499452
3.58225e-06	-0.00595529475363176
3.58250e-06	-0.005964021218764069
3.58275e-06	-0.005972747683896363
3.58300e-06	-0.005981474149028671
3.58325e-06	-0.005990200614160979
3.58350e-06	-0.005998927079293273
3.58375e-06	-0.006007653544425581
3.58400e-06	-0.006016380009557889
3.58425e-06	-0.006025106474690183
3.58450e-06	-0.006031394970369459
3.58475e-06	-0.006037486572229525
3.58500e-06	-0.006043578174089592
3.58525e-06	-0.006049669775949647
3.58550e-06	-0.006055761377809714
3.58575e-06	-0.00606185297966978
3.58600e-06	-0.006067944581529836
3.58625e-06	-0.006074036183389902
3.58650e-06	-0.006080127785249969
3.58675e-06	-0.006086219387110035
3.58700e-06	-0.006092310988970091
3.58725e-06	-0.0060984025908301575
3.58750e-06	-0.006104494192690223
3.58775e-06	-0.0060981675620173
3.58800e-06	-0.006090838017534975
3.58825e-06	-0.0060835084730526505
3.58850e-06	-0.006076178928570338
3.58875e-06	-0.006068849384088013
3.58900e-06	-0.006061519839605688
3.58925e-06	-0.006054190295123363
3.58950e-06	-0.006046860750641051
3.58975e-06	-0.006039531206158726
3.59000e-06	-0.006032201661676402
3.59025e-06	-0.006024872117194089
3.59050e-06	-0.006017542572711765
3.59075e-06	-0.00601021302822944
3.59100e-06	-0.005995180606839511
3.59125e-06	-0.005979526090348515
3.59150e-06	-0.005963871573857492
3.59175e-06	-0.005948217057366469
3.59200e-06	-0.005932562540875473
3.59225e-06	-0.0059169080243844496
3.59250e-06	-0.0059012535078934265
3.59275e-06	-0.00588559899140243
3.59300e-06	-0.005869944474911407
3.59325e-06	-0.005854289958420384
3.59350e-06	-0.005838635441929361
3.59375e-06	-0.005826631206098336
3.59400e-06	-0.005814921772033384
3.59425e-06	-0.005803212337968432
3.59450e-06	-0.0057915029039035
3.59475e-06	-0.005779793469838548
3.59500e-06	-0.005768084035773597
3.59525e-06	-0.0057563746017086454
3.59550e-06	-0.0057446651676437135
3.59575e-06	-0.005732955733578762
3.59600e-06	-0.00572124629951381
3.59625e-06	-0.005709536865448878
3.59650e-06	-0.005700333870202906
3.59675e-06	-0.00569133329845785
3.59700e-06	-0.005682332726712808
3.59725e-06	-0.005673332154967752
3.59750e-06	-0.005664331583222695
3.59775e-06	-0.005655331011477638
3.59800e-06	-0.0056463304397325964
3.59825e-06	-0.005637329867987539
3.59850e-06	-0.005628329296242483
3.59875e-06	-0.005619328724497441
3.59900e-06	-0.005610328152752385
3.59925e-06	-0.005601327581007328
3.59950e-06	-0.005592327009262271
3.59975e-06	-0.0055833264375172295
3.60000e-06	-0.0055743258657721725
3.60025e-06	-0.005564767644588828
3.60050e-06	-0.005554455800701392
3.60075e-06	-0.005544143956813939
3.60100e-06	-0.005533832112926487
3.60125e-06	-0.005523520269039052
3.60150e-06	-0.005513208425151599
3.60175e-06	-0.005502896581264146
3.60200e-06	-0.005492584737376694
3.60225e-06	-0.005482272893489258
3.60250e-06	-0.005471961049601805
3.60275e-06	-0.0054616492057143525
3.60300e-06	-0.005451337361826918
3.60325e-06	-0.005441025517939465
3.60350e-06	-0.005430713674052012
3.60375e-06	-0.005420401830164577
3.60400e-06	-0.005410089986277124
3.60425e-06	-0.005406448571911815
3.60450e-06	-0.005403345870754483
3.60475e-06	-0.005400243169597156
3.60500e-06	-0.005397140468439823
3.60525e-06	-0.005394037767282491
3.60550e-06	-0.005390935066125164
3.60575e-06	-0.0053878323649678315
3.60600e-06	-0.005384729663810499
3.60625e-06	-0.005381626962653167
3.60650e-06	-0.00537852426149584
3.60675e-06	-0.005375421560338507
3.60700e-06	-0.005372318859181176
3.60725e-06	-0.005369216158023849
3.60750e-06	-0.005381102058905997
3.60775e-06	-0.005394198460230639
3.60800e-06	-0.005407294861555259
3.60825e-06	-0.005420391262879902
3.60850e-06	-0.0054334876642045445
3.60875e-06	-0.005446584065529187
3.60900e-06	-0.005459680466853807
3.60925e-06	-0.00547277686817845
3.60950e-06	-0.005485873269503091
3.60975e-06	-0.005498969670827712
3.61000e-06	-0.005512066072152354
3.61025e-06	-0.0055251624734769965
3.61050e-06	-0.005538258874801639
3.61075e-06	-0.00556107626747345
3.61100e-06	-0.005584678740988503
3.61125e-06	-0.005608281214503556
3.61150e-06	-0.005631883688018569
3.61175e-06	-0.005655486161533622
3.61200e-06	-0.005679088635048675
3.61225e-06	-0.005702691108563688
3.61250e-06	-0.005726293582078741
3.61275e-06	-0.0057498960555937935
3.61300e-06	-0.005773498529108846
3.61325e-06	-0.005797101002623859
3.61350e-06	-0.005820703476138912
3.61375e-06	-0.005844305949653965
3.61400e-06	-0.005865638138280855
3.61425e-06	-0.005883902201811351
3.61450e-06	-0.005902166265341849
3.61475e-06	-0.005920430328872346
3.61500e-06	-0.005938694392402811
3.61525e-06	-0.0059569584559333085
3.61550e-06	-0.005975222519463806
3.61575e-06	-0.005993486582994271
3.61600e-06	-0.006011750646524768
3.61625e-06	-0.006030014710055266
3.61650e-06	-0.006048278773585731
3.61675e-06	-0.006066542837116228
3.61700e-06	-0.0060848069006467255
3.61725e-06	-0.006103070964177222
3.61750e-06	-0.006111960119049786
3.61775e-06	-0.006120092143200541
3.61800e-06	-0.006128224167351298
3.61825e-06	-0.006136356191502039
3.61850e-06	-0.006144488215652795
3.61875e-06	-0.00615262023980355
3.61900e-06	-0.006160752263954306
3.61925e-06	-0.006168884288105048
3.61950e-06	-0.006177016312255803
3.61975e-06	-0.006185148336406559
3.62000e-06	-0.006193280360557301
3.62025e-06	-0.006201412384708057
3.62050e-06	-0.006209544408858812
3.62075e-06	-0.0062176764330095545
3.62100e-06	-0.00622580845716031
3.62125e-06	-0.006233940481311066
3.62150e-06	-0.006242072505461821
3.62175e-06	-0.0062502045296125635
3.62200e-06	-0.006254678062748736
3.62225e-06	-0.006258856131038891
3.62250e-06	-0.006263034199329038
3.62275e-06	-0.006267212267619192
3.62300e-06	-0.006271390335909346
3.62325e-06	-0.006275568404199501
3.62350e-06	-0.006279746472489647
3.62375e-06	-0.006283924540779802
3.62400e-06	-0.006288102609069955
3.62425e-06	-0.006292280677360103
3.62450e-06	-0.006296458745650257
3.62475e-06	-0.006300636813940411
3.62500e-06	-0.006304814882230558
3.62525e-06	-0.006308992950520712
3.62550e-06	-0.006313171018810866
3.62575e-06	-0.006317349087101021
3.62600e-06	-0.006321527155391167
3.62625e-06	-0.006325705223681322
3.62650e-06	-0.006335738175469681
3.62675e-06	-0.006346243975829899
3.62700e-06	-0.006356749776190136
3.62725e-06	-0.006367255576550372
3.62750e-06	-0.006377761376910609
3.62775e-06	-0.006388267177270827
3.62800e-06	-0.006398772977631063
3.62825e-06	-0.0064092787779913
3.62850e-06	-0.006419784578351518
3.62875e-06	-0.006430290378711755
3.62900e-06	-0.00644079617907199
3.62925e-06	-0.006451301979432209
3.62950e-06	-0.006461807779792445
3.62975e-06	-0.0064723135801526815
3.63000e-06	-0.006485749797662945
3.63025e-06	-0.006503146261065301
3.63050e-06	-0.006520542724467686
3.63075e-06	-0.0065379391878700715
3.63100e-06	-0.006555335651272427
3.63125e-06	-0.006572732114674813
3.63150e-06	-0.006590128578077198
3.63175e-06	-0.006607525041479583
3.63200e-06	-0.006624921504881939
3.63225e-06	-0.006642317968284324
3.63250e-06	-0.00665971443168671
3.63275e-06	-0.006677110895089066
3.63300e-06	-0.0066945073584914515
3.63325e-06	-0.006711903821893837
3.63350e-06	-0.006729300285296193
3.63375e-06	-0.006744965566457417
3.63400e-06	-0.006760491034921971
3.63425e-06	-0.006776016503386526
3.63450e-06	-0.006791541971851054
3.63475e-06	-0.006807067440315609
3.63500e-06	-0.006822592908780163
3.63525e-06	-0.006838118377244691
3.63550e-06	-0.006853643845709246
3.63575e-06	-0.0068691693141738
3.63600e-06	-0.0068846947826383545
3.63625e-06	-0.006900220251102883
3.63650e-06	-0.006915745719567438
3.63675e-06	-0.006931271188031992
3.63700e-06	-0.00694679665649652
3.63725e-06	-0.006964322276532961
3.63750e-06	-0.006984550956113897
3.63775e-06	-0.0070047796356948
3.63800e-06	-0.007025008315275736
3.63825e-06	-0.007045236994856672
3.63850e-06	-0.007065465674437608
3.63875e-06	-0.007085694354018511
3.63900e-06	-0.007105923033599447
3.63925e-06	-0.007126151713180383
3.63950e-06	-0.007146380392761285
3.63975e-06	-0.007166609072342222
3.64000e-06	-0.007186837751923158
3.64025e-06	-0.0072070664315040936
3.64050e-06	-0.007227295111084996
3.64075e-06	-0.0072475237906659325
3.64100e-06	-0.007272639913614568
3.64125e-06	-0.007298150753318535
3.64150e-06	-0.007323661593022545
3.64175e-06	-0.007349172432726555
3.64200e-06	-0.0073746832724305225
3.64225e-06	-0.007400194112134532
3.64250e-06	-0.007425704951838543
3.64275e-06	-0.007451215791542553
3.64300e-06	-0.00747672663124652
3.64325e-06	-0.007499794184257845
3.64350e-06	-0.007522664414021962
3.64375e-06	-0.0075455346437860405
3.64400e-06	-0.0075684048735501575
3.64425e-06	-0.007591275103314274
3.64450e-06	-0.007614145333078391
3.64475e-06	-0.00763701556284247
3.64500e-06	-0.007659885792606587
3.64525e-06	-0.007682756022370704
3.64550e-06	-0.007691920004312081
3.64575e-06	-0.007699977050528064
3.64600e-06	-0.007708034096744047
3.64625e-06	-0.007716091142960016
3.64650e-06	-0.007724148189175999
3.64675e-06	-0.007732205235391982
3.64700e-06	-0.007740262281607965
3.64725e-06	-0.007748319327823934
3.64750e-06	-0.007730825917447173
3.64775e-06	-0.007711269016495154
3.64800e-06	-0.007691712115543168
3.64825e-06	-0.007672155214591148
3.64850e-06	-0.007652598313639128
3.64875e-06	-0.007633041412687109
3.64900e-06	-0.007613484511735122
3.64925e-06	-0.007593927610783102
3.64950e-06	-0.007550681449923505
3.64975e-06	-0.007505522111333609
3.65000e-06	-0.007460362772743636
3.65025e-06	-0.007415203434153665
3.65050e-06	-0.007370044095563769
3.65075e-06	-0.007324884756973796
3.65100e-06	-0.007279725418383824
3.65125e-06	-0.007234566079793852
3.65150e-06	-0.007184313740058459
3.65175e-06	-0.007127178579265177
3.65200e-06	-0.007070043418471895
3.65225e-06	-0.00701290825767871
3.65250e-06	-0.006955773096885428
3.65275e-06	-0.006898637936092146
3.65300e-06	-0.0068415027752988635
3.65325e-06	-0.006784367614505678
3.65350e-06	-0.0067272324537123954
3.65375e-06	-0.006677584342358901
3.65400e-06	-0.006628540895579732
3.65425e-06	-0.006579497448800481
3.65450e-06	-0.00653045400202123
3.65475e-06	-0.006481410555242062
3.65500e-06	-0.006432367108462811
3.65525e-06	-0.00638332366168356
3.65550e-06	-0.006351388843503408
3.65575e-06	-0.006320835742074542
3.65600e-06	-0.0062902826406456246
3.65625e-06	-0.006259729539216707
3.65650e-06	-0.006229176437787841
3.65675e-06	-0.006198623336358924
3.65700e-06	-0.006168070234930006
3.65725e-06	-0.006157224365042315
3.65750e-06	-0.006147970078710539
3.65775e-06	-0.006138715792378746
3.65800e-06	-0.0061294615060469545
3.65825e-06	-0.006120207219715178
3.65850e-06	-0.0061109529333833856
3.65875e-06	-0.006101698647051594
3.65900e-06	-0.0060924443607198175
3.65925e-06	-0.006083190074388026
3.65950e-06	-0.006073935788056233
3.65975e-06	-0.006064681501724441
3.66000e-06	-0.006055427215392665
3.66025e-06	-0.006046172929060872
3.66050e-06	-0.0060369186427290805
3.66075e-06	-0.006041797252862098
3.66100e-06	-0.006047817255461373
3.66125e-06	-0.006053837258060648
3.66150e-06	-0.006059857260659923
3.66175e-06	-0.006065877263259188
3.66200e-06	-0.0060718972658584626
3.66225e-06	-0.006077917268457737
3.66250e-06	-0.006083937271057002
3.66275e-06	-0.006089957273656277
3.66300e-06	-0.006095977276255552
3.66325e-06	-0.0061019972788548165
3.66350e-06	-0.006108017281454091
3.66375e-06	-0.006114037284053366
3.66400e-06	-0.006120057286652641
3.66425e-06	-0.006128962832827628
3.66450e-06	-0.006138101419533757
3.66475e-06	-0.006147240006239886
3.66500e-06	-0.006156378592946
3.66525e-06	-0.006165517179652129
3.66550e-06	-0.006174655766358258
3.66575e-06	-0.006183794353064387
3.66600e-06	-0.006192932939770501
3.66625e-06	-0.00620207152647663
3.66650e-06	-0.006211210113182759
3.66675e-06	-0.006220348699888873
3.66700e-06	-0.006229487286595002
3.66725e-06	-0.006238625873301131
3.66750e-06	-0.006247764460007245
3.66775e-06	-0.006259868044601768
3.66800e-06	-0.006275978608445181
3.66825e-06	-0.006292089172288595
3.66850e-06	-0.006308199736131981
3.66875e-06	-0.006324310299975395
3.66900e-06	-0.006340420863818809
3.66925e-06	-0.006356531427662195
3.66950e-06	-0.0063726419915056095
3.66975e-06	-0.006388752555349023
3.67000e-06	-0.0064048631191924365
3.67025e-06	-0.006420973683035823
3.67050e-06	-0.006437084246879237
3.67075e-06	-0.00645319481072265
3.67100e-06	-0.006469305374566037
3.67125e-06	-0.00648541593840945
3.67150e-06	-0.006504099404752774
3.67175e-06	-0.006522990662297104
3.67200e-06	-0.0065418819198414645
3.67225e-06	-0.006560773177385826
3.67250e-06	-0.006579664434930188
3.67275e-06	-0.006598555692474518
3.67300e-06	-0.006617446950018879
3.67325e-06	-0.00663633820756324
3.67350e-06	-0.00665522946510757
3.67375e-06	-0.006674120722651931
3.67400e-06	-0.006693011980196293
3.67425e-06	-0.006711903237740654
3.67450e-06	-0.006730794495284984
3.67475e-06	-0.006749685752829345
3.67500e-06	-0.006768577010373707
3.67525e-06	-0.006787468267918036
3.67550e-06	-0.006801118407999661
3.67575e-06	-0.006807685558579823
3.67600e-06	-0.006814252709159973
3.67625e-06	-0.006820819859740135
3.67650e-06	-0.006827387010320296
3.67675e-06	-0.006833954160900458
3.67700e-06	-0.006840521311480608
3.67725e-06	-0.006847088462060769
3.67750e-06	-0.006853655612640931
3.67775e-06	-0.006860222763221082
3.67800e-06	-0.006866789913801243
3.67825e-06	-0.006873357064381405
3.67850e-06	-0.006879924214961567
3.67875e-06	-0.0068864913655417165
3.67900e-06	-0.006893058516121878
3.67925e-06	-0.00689962566670204
3.67950e-06	-0.00690619281728219
3.67975e-06	-0.006901238978434957
3.68000e-06	-0.006895354688382999
3.68025e-06	-0.006889470398331051
3.68050e-06	-0.006883586108279094
3.68075e-06	-0.006877701818227136
3.68100e-06	-0.006871817528175178
3.68125e-06	-0.00686593323812323
3.68150e-06	-0.006860048948071272
3.68175e-06	-0.006854164658019315
3.68200e-06	-0.006848280367967367
3.68225e-06	-0.006842396077915409
3.68250e-06	-0.006836511787863451
3.68275e-06	-0.006829555400213454
3.68300e-06	-0.006822512428463352
3.68325e-06	-0.006815469456713251
3.68350e-06	-0.006808426484963149
3.68375e-06	-0.006801383513213059
3.68400e-06	-0.006794340541462958
3.68425e-06	-0.006787297569712857
3.68450e-06	-0.006780254597962767
3.68475e-06	-0.006773211626212665
3.68500e-06	-0.006766168654462564
3.68525e-06	-0.0067591256827124625
3.68550e-06	-0.006752082710962374
3.68575e-06	-0.006756858542558646
3.68600e-06	-0.006762588877227999
3.68625e-06	-0.0067683192118973435
3.68650e-06	-0.006774049546566696
3.68675e-06	-0.00677977988123605
3.68700e-06	-0.006785510215905394
3.68725e-06	-0.006791240550574748
3.68750e-06	-0.006796970885244101
3.68775e-06	-0.006802701219913454
3.68800e-06	-0.006808431554582798
3.68825e-06	-0.006832580640165534
3.68850e-06	-0.006858217249809236
3.68875e-06	-0.006883853859452894
3.68900e-06	-0.0069094904690965965
3.68925e-06	-0.006935127078740298
3.68950e-06	-0.006960763688384
3.68975e-06	-0.006986400298027659
3.69000e-06	-0.007012036907671361
3.69025e-06	-0.0070376735173150635
3.69050e-06	-0.007063310126958722
3.69075e-06	-0.00710097504043652
3.69100e-06	-0.007139611376539602
3.69125e-06	-0.007178247712642618
3.69150e-06	-0.0072168840487457
3.69175e-06	-0.007255520384848782
3.69200e-06	-0.007294156720951864
3.69225e-06	-0.00733279305705488
3.69250e-06	-0.007371429393157962
3.69275e-06	-0.007410065729261043
3.69300e-06	-0.007448702065364059
3.69325e-06	-0.007484529038272743
3.69350e-06	-0.007520129123084192
3.69375e-06	-0.0075557292078956406
3.69400e-06	-0.00759132929270703
3.69425e-06	-0.0076269293775184785
3.69450e-06	-0.007662529462329928
3.69475e-06	-0.007698129547141316
3.69500e-06	-0.007733729631952765
3.69525e-06	-0.007769329716764215
3.69550e-06	-0.007804929801575603
3.69575e-06	-0.00783217329282596
3.69600e-06	-0.007858741893903213
3.69625e-06	-0.007885310494980466
3.69650e-06	-0.007911879096057674
3.69675e-06	-0.007938447697134927
