Time(s)	Current(A)
2.75000e-06	-0.004063767603228239
2.75025e-06	-0.004042120378904791
2.75050e-06	-0.004016981188648195
2.75075e-06	-0.0039918419983916
2.75100e-06	-0.003960482328821952
2.75125e-06	-0.003924488418737784
2.75150e-06	-0.003888494508653616
2.75175e-06	-0.0038459284636498635
2.75200e-06	-0.003798466195641827
2.75225e-06	-0.0037510039276337096
2.75250e-06	-0.0037035416596255923
2.75275e-06	-0.0036552129383601224
2.75300e-06	-0.003595892295229835
2.75325e-06	-0.003536571652099548
2.75350e-06	-0.0034772510089693615
2.75375e-06	-0.0034179303658390743
2.75400e-06	-0.003355159517177895
2.75425e-06	-0.0032898182745888386
2.75450e-06	-0.003223284523658954
2.75475e-06	-0.0031558623571922412
2.75500e-06	-0.003087664710056713
2.75525e-06	-0.0030186131369503767
2.75550e-06	-0.0029493164382359137
2.75575e-06	-0.00288018815516094
2.75600e-06	-0.0028116418943517217
2.75625e-06	-0.0027440850253661942
2.75650e-06	-0.0026778556328769104
2.75675e-06	-0.0026131791455496095
2.75700e-06	-0.002550289420170186
2.75725e-06	-0.002489541616990121
2.75750e-06	-0.0024313647521778253
2.75775e-06	-0.002376199409359922
2.75800e-06	-0.002324486436347797
2.75825e-06	-0.002276634825803394
2.75850e-06	-0.002232674061281653
2.75875e-06	-0.0021919644996810455
2.75900e-06	-0.0021537801900593156
2.75925e-06	-0.0021186717092114347
2.75950e-06	-0.0020851283804568877
2.75975e-06	-0.002054814130791352
2.76000e-06	-0.0020269055364438154
2.76025e-06	-0.002002588276865973
2.76050e-06	-0.0019809465521230603
2.76075e-06	-0.0019626792757376933
2.76100e-06	-0.0019469259543880727
2.76125e-06	-0.0019311726330384785
2.76150e-06	-0.001920560394818789
2.76175e-06	-0.00191377824983337
2.76200e-06	-0.0019069961048479628
2.76225e-06	-0.0019002139598625438
2.76250e-06	-0.001893431814877125
2.76275e-06	-0.001887335349095153
2.76300e-06	-0.0018899374855350483
2.76325e-06	-0.001892539621974948
2.76350e-06	-0.0018951417584148478
2.76375e-06	-0.0018977438948547432
2.76400e-06	-0.0019003460312946431
2.76425e-06	-0.0019060079596636913
2.76450e-06	-0.001913949424867652
2.76475e-06	-0.0019218908900715992
2.76500e-06	-0.0019309825226210189
2.76525e-06	-0.0019409310267783832
2.76550e-06	-0.001950879530935731
2.76575e-06	-0.00196151449737702
2.76600e-06	-0.0019726608763908763
2.76625e-06	-0.0019838072554047136
2.76650e-06	-0.001995100671530925
2.76675e-06	-0.002006503629914088
2.76700e-06	-0.0020179065882972506
2.76725e-06	-0.002028763316705988
2.76750e-06	-0.0020392131052391392
2.76775e-06	-0.002049171146696443
2.76800e-06	-0.0020583714950153176
2.76825e-06	-0.0020669012263869854
2.76850e-06	-0.002075433554600748
2.76875e-06	-0.0020857848085229385
2.76900e-06	-0.002099704516121139
2.76925e-06	-0.0021177472114163754
2.76950e-06	-0.0021397289412817674
2.76975e-06	-0.002166268104643507
2.77000e-06	-0.0021949905585059355
2.77025e-06	-0.002226335930294541
2.77050e-06	-0.0022616124977437348
2.77075e-06	-0.002303971446684795
2.77100e-06	-0.002350509402907687
2.77125e-06	-0.002397047359130579
2.77150e-06	-0.002449077191528018
2.77175e-06	-0.002507542644908426
2.77200e-06	-0.002569847989582152
2.77225e-06	-0.002635578819728311
2.77250e-06	-0.002704594373936875
2.77275e-06	-0.002777202058432121
2.77300e-06	-0.0028536830755923797
2.77325e-06	-0.0029338497854664845
2.77350e-06	-0.003017224609613525
2.77375e-06	-0.0031032842781740736
2.77400e-06	-0.003191505487264183
2.77425e-06	-0.0032813797774779658
2.77450e-06	-0.0033725698021409276
2.77475e-06	-0.0034650189796503867
2.77500e-06	-0.003558654609263692
2.77525e-06	-0.0036531098983639734
2.77550e-06	-0.00374783682159909
2.77575e-06	-0.0038422587228433194
2.77600e-06	-0.003935798914617022
2.77625e-06	-0.00402788971446179
2.77650e-06	-0.0041180711385763215
2.77675e-06	-0.004206058888222624
2.77700e-06	-0.004291558555927013
2.77725e-06	-0.004374091895354666
2.77750e-06	-0.004453066515929139
2.77775e-06	-0.004527872736267666
2.77800e-06	-0.0045963050112891495
2.77825e-06	-0.004661397241504708
2.77850e-06	-0.0047219215810295635
2.77875e-06	-0.004776876792016478
2.77900e-06	-0.004828535237908371
2.77925e-06	-0.00487718844317789
2.77950e-06	-0.004921540234499071
2.77975e-06	-0.0049636595307667
2.78000e-06	-0.005001181182009483
2.78025e-06	-0.005035277599958087
2.78050e-06	-0.005064975980431893
2.78075e-06	-0.0050913978347043335
2.78100e-06	-0.005114816502656739
2.78125e-06	-0.005135997804801862
2.78150e-06	-0.005153345957059572
2.78175e-06	-0.005167838422863593
2.78200e-06	-0.005182330888667614
2.78225e-06	-0.0051926519213790195
2.78250e-06	-0.005199865247550048
2.78275e-06	-0.00520457413942095
2.78300e-06	-0.00520741723441061
2.78325e-06	-0.0052078549427859045
2.78350e-06	-0.005206500644541983
2.78375e-06	-0.005205146346298061
2.78400e-06	-0.005200852817985589
2.78425e-06	-0.005194369571102839
2.78450e-06	-0.00518788632422008
2.78475e-06	-0.005179452278238167
2.78500e-06	-0.005169564892124778
2.78525e-06	-0.005159677506011373
2.78550e-06	-0.005148719319681127
2.78575e-06	-0.005136963390042204
2.78600e-06	-0.005125207460403262
2.78625e-06	-0.005112758775149705
2.78650e-06	-0.0050997939888089115
2.78675e-06	-0.0050868292024681405
2.78700e-06	-0.005074284623821677
2.78725e-06	-0.005062053098787964
2.78750e-06	-0.005049821573754273
2.78775e-06	-0.005038635764566139
2.78800e-06	-0.0050282290108969565
2.78825e-06	-0.005017822257227774
2.78850e-06	-0.005010039177573849
2.78875e-06	-0.005004210728071258
2.78900e-06	-0.004998382278568668
2.78925e-06	-0.004992553829066087
2.78950e-06	-0.004986725379563496
2.78975e-06	-0.004980896930060906
2.79000e-06	-0.004979270601977426
2.79025e-06	-0.00498077484315586
2.79050e-06	-0.004982279084334294
2.79075e-06	-0.004983783325512728
2.79100e-06	-0.004985287566691159
2.79125e-06	-0.004986791807869593
2.79150e-06	-0.004992679396789644
2.79175e-06	-0.005001832568099032
2.79200e-06	-0.005010985739408435
2.79225e-06	-0.005020138910717838
2.79250e-06	-0.005029292082027241
2.79275e-06	-0.0050384452533366285
2.79300e-06	-0.005047598424646031
2.79325e-06	-0.005060098682143355
2.79350e-06	-0.005075092509933351
2.79375e-06	-0.005090086337723373
2.79400e-06	-0.005105080165513395
2.79425e-06	-0.005120073993303391
2.79450e-06	-0.005135067821093413
2.79475e-06	-0.005150061648883435
2.79500e-06	-0.005166233463653963
2.79525e-06	-0.0051832828755865624
2.79550e-06	-0.005200332287519189
2.79575e-06	-0.005217428710409999
2.79600e-06	-0.005234560156339377
2.79625e-06	-0.005251447029649071
2.79650e-06	-0.005268151697008661
2.79675e-06	-0.005284387633537341
2.79700e-06	-0.005300274366845749
2.79725e-06	-0.0053150576356130064
2.79750e-06	-0.005329018826236906
2.79775e-06	-0.0053429800168607825
2.79800e-06	-0.00535670905434978
2.79825e-06	-0.005367492971487332
2.79850e-06	-0.005378276888624867
2.79875e-06	-0.005389060805762419
2.79900e-06	-0.005398761156000469
2.79925e-06	-0.005407654251785187
2.79950e-06	-0.005416547347569891
2.79975e-06	-0.00542544044335461
2.80000e-06	-0.005434185775082332
2.80025e-06	-0.005441056555636402
2.80050e-06	-0.005447927336190483
2.80075e-06	-0.005454798116744565
2.80100e-06	-0.005461668897298646
2.80125e-06	-0.005467463859279144
2.80150e-06	-0.005472457339288481
2.80175e-06	-0.005477450819297819
2.80200e-06	-0.005482444299307147
2.80225e-06	-0.005487437779316485
2.80250e-06	-0.005492431259325822
2.80275e-06	-0.005497424739335151
2.80300e-06	-0.005502418219344488
2.80325e-06	-0.005507411699353825
2.80350e-06	-0.005512405179363163
2.80375e-06	-0.005517398659372491
2.80400e-06	-0.005522392139381828
2.80425e-06	-0.0055262735011231525
2.80450e-06	-0.005529326337717629
2.80475e-06	-0.005532379174312111
2.80500e-06	-0.005535432010906594
2.80525e-06	-0.005538484847501076
2.80550e-06	-0.005541537684095553
2.80575e-06	-0.005544590520690036
2.80600e-06	-0.005547643357284518
2.80625e-06	-0.005550696193878994
2.80650e-06	-0.005553749030473477
2.80675e-06	-0.005556801867067959
2.80700e-06	-0.005559854703662436
2.80725e-06	-0.0055621820370846285
2.80750e-06	-0.005563968872576286
2.80775e-06	-0.005565755708067943
2.80800e-06	-0.0055675425435595975
2.80825e-06	-0.005569329379051254
2.80850e-06	-0.005571145782078388
2.80875e-06	-0.005572984212840675
2.80900e-06	-0.005574822643602966
2.80925e-06	-0.005576661074365257
2.80950e-06	-0.005578499505127548
2.80975e-06	-0.005580337935889836
2.81000e-06	-0.005582176366652127
2.81025e-06	-0.005584014797414418
2.81050e-06	-0.005586752062575302
2.81075e-06	-0.005590158956968567
2.81100e-06	-0.005593565851361833
2.81125e-06	-0.005596972745755092
2.81150e-06	-0.005600379640148357
2.81175e-06	-0.005603786534541622
2.81200e-06	-0.0056071934289348875
2.81225e-06	-0.005610600323328147
2.81250e-06	-0.005614973593123873
2.81275e-06	-0.0056200668100199296
2.81300e-06	-0.005625160026915978
2.81325e-06	-0.005630253243812035
2.81350e-06	-0.005635346460708093
2.81375e-06	-0.00564043967760415
2.81400e-06	-0.005645532894500198
2.81425e-06	-0.005650626111396255
2.81450e-06	-0.005655719328292312
2.81475e-06	-0.005660812545188361
2.81500e-06	-0.005665996492788944
2.81525e-06	-0.005671248034522685
2.81550e-06	-0.005676499576256418
2.81575e-06	-0.00568175111799016
2.81600e-06	-0.005687002659723901
2.81625e-06	-0.005692254201457643
2.81650e-06	-0.005697505743191376
2.81675e-06	-0.0057027572849251175
2.81700e-06	-0.00570800882665886
2.81725e-06	-0.005713260368392593
2.81750e-06	-0.005717971368611377
2.81775e-06	-0.005722102741967726
2.81800e-06	-0.005725901364939394
2.81825e-06	-0.005729265018777508
2.81850e-06	-0.005731394894572791
2.81875e-06	-0.005730364111622791
2.81900e-06	-0.005724352009906456
2.81925e-06	-0.005712769474405004
2.81950e-06	-0.005694345464010165
2.81975e-06	-0.005672595822263901
2.82000e-06	-0.005645413813011683
2.82025e-06	-0.005614184704439677
2.82050e-06	-0.00557702007323415
2.82075e-06	-0.0055354334934792715
2.82100e-06	-0.0054845926042419784
2.82125e-06	-0.00542685727909427
2.82150e-06	-0.00536912195394666
2.82175e-06	-0.005301959174888833
2.82200e-06	-0.005227772967783117
2.82225e-06	-0.005153586760677401
2.82250e-06	-0.005071229808871052
2.82275e-06	-0.004982785674029689
2.82300e-06	-0.004894341539188326
2.82325e-06	-0.004799298969384775
2.82350e-06	-0.004699340583112583
2.82375e-06	-0.004595591788231398
2.82400e-06	-0.004489019149034467
2.82425e-06	-0.004379949814332876
2.82450e-06	-0.004269020448131713
2.82475e-06	-0.004156560668429248
2.82500e-06	-0.004042108399833075
2.82525e-06	-0.003926526127947863
2.82550e-06	-0.003810476734351971
2.82575e-06	-0.0036946521576941655
2.82600e-06	-0.003579744271243855
2.82625e-06	-0.0034664355743212025
2.82650e-06	-0.0033553013045659534
2.82675e-06	-0.003246743178079716
2.82700e-06	-0.003141179049951006
2.82725e-06	-0.0030392164268862164
2.82750e-06	-0.002941578550283969
2.82775e-06	-0.002849006752913324
2.82800e-06	-0.0027622423675438454
2.82825e-06	-0.002681967218277092
2.82850e-06	-0.0026081467210641155
2.82875e-06	-0.002540433664325921
2.82900e-06	-0.0024752903277839703
2.82925e-06	-0.002414144679482626
2.82950e-06	-0.0023559772982705107
2.82975e-06	-0.002302669346850591
2.83000e-06	-0.002252981657680434
2.83025e-06	-0.002208805124958604
2.83050e-06	-0.002168734389109164
2.83075e-06	-0.0021334457618118014
2.83100e-06	-0.0021017197926462916
2.83125e-06	-0.002069993823480728
2.83150e-06	-0.0020432486586625465
2.83175e-06	-0.0020202141798144066
2.83200e-06	-0.0019971797009662273
2.83225e-06	-0.001978857058849929
2.83250e-06	-0.0019640447225466604
2.83275e-06	-0.001951980259029039
2.83300e-06	-0.0019419629534164749
2.83325e-06	-0.0019345420581316176
2.83350e-06	-0.001929055481624135
2.83375e-06	-0.001923568905116643
2.83400e-06	-0.001921409743769953
2.83425e-06	-0.0019217294978539042
2.83450e-06	-0.0019220492519378559
2.83475e-06	-0.0019243694067962837
2.83500e-06	-0.0019281798549026653
2.83525e-06	-0.0019328740267424507
2.83550e-06	-0.0019382265704094095
2.83575e-06	-0.0019444183397363131
2.83600e-06	-0.0019512353299441824
2.83625e-06	-0.001958795144438452
2.83650e-06	-0.0019669083610472145
2.83675e-06	-0.001975141262129427
2.83700e-06	-0.001983463327825547
2.83725e-06	-0.0019914273408075775
2.83750e-06	-0.0019991246054714526
2.83775e-06	-0.0020063093083685273
2.83800e-06	-0.002013112154114806
2.83825e-06	-0.002018903441457353
2.83850e-06	-0.0020239411204838686
2.83875e-06	-0.002028978799510393
2.83900e-06	-0.0020318600676503197
2.83925e-06	-0.0020331348154243264
2.83950e-06	-0.0020344095631983305
2.83975e-06	-0.0020334214249354255
2.84000e-06	-0.0020307474426032738
2.84025e-06	-0.002028073460271127
2.84050e-06	-0.0020221756381040225
2.84075e-06	-0.0020138760638480795
2.84100e-06	-0.00200557648959215
2.84125e-06	-0.001997276915336207
2.84150e-06	-0.0019889773410802637
2.84175e-06	-0.001976856056122424
2.84200e-06	-0.001961887606872586
2.84225e-06	-0.0019469191576227222
2.84250e-06	-0.0019319507083728586
2.84275e-06	-0.0019169822591230204
2.84300e-06	-0.0018990730083255556
2.84325e-06	-0.0018789728682092784
2.84350e-06	-0.0018588727280930012
2.84375e-06	-0.001838772587976758
2.84400e-06	-0.001818456642625323
2.84425e-06	-0.001795402968184074
2.84450e-06	-0.0017723492937428637
2.84475e-06	-0.0017492956193016144
2.84500e-06	-0.0017262419448603652
2.84525e-06	-0.0017026397202887815
2.84550e-06	-0.001678578458447574
2.84575e-06	-0.0016545099599661543
2.84600e-06	-0.001630574970968611
2.84625e-06	-0.0016069127698764996
2.84650e-06	-0.001583648999491124
2.84675e-06	-0.0015608882170984445
2.84700e-06	-0.001538739708686533
2.84725e-06	-0.0015173395451122708
2.84750e-06	-0.0014968396080140129
2.84775e-06	-0.0014773943308222877
2.84800e-06	-0.0014591579298140797
2.84825e-06	-0.0014422854898802529
2.84850e-06	-0.0014269350926905933
2.84875e-06	-0.0014132519164684453
2.84900e-06	-0.0014013331449345499
2.84925e-06	-0.0013912242610848668
2.84950e-06	-0.0013829497198042753
2.84975e-06	-0.0013765316400038885
2.85000e-06	-0.0013725395269408843
2.85025e-06	-0.001369761275285482
2.85050e-06	-0.0013691977534559896
2.85075e-06	-0.0013702841994469403
2.85100e-06	-0.0013740783009491813
2.85125e-06	-0.0013798895985943462
2.85150e-06	-0.0013857008962395209
2.85175e-06	-0.0013944965669258037
2.85200e-06	-0.0014055155875775625
2.85225e-06	-0.00141653460822934
2.85250e-06	-0.0014302167974378915
2.85275e-06	-0.0014458830401267858
2.85300e-06	-0.0014615492828156536
2.85325e-06	-0.0014791026240878816
2.85350e-06	-0.0014980618487776334
2.85375e-06	-0.0015182332623652046
2.85400e-06	-0.0015393077534525518
2.85425e-06	-0.0015613368849930528
2.85450e-06	-0.0015840772211280826
2.85475e-06	-0.0016075050424910497
2.85500e-06	-0.001631445038517506
2.85525e-06	-0.0016557589984882049
2.85550e-06	-0.0016803515606011205
2.85575e-06	-0.0017049858855236568
2.85600e-06	-0.0017296513236280777
2.85625e-06	-0.0017540263901211276
2.85650e-06	-0.0017781851305372967
2.85675e-06	-0.0018017154273971831
2.85700e-06	-0.0018247775354817426
2.85725e-06	-0.0018468441409392115
2.85750e-06	-0.0018681690995914694
2.85775e-06	-0.0018877780470808125
2.85800e-06	-0.0018982560183031364
2.85825e-06	-0.004703829857691397
2.85850e-06	-0.022557692867599104
2.85875e-06	-0.019906802515774924
2.85900e-06	-0.016611961785442452
2.85925e-06	-0.011942451573475489
2.85950e-06	0.001195212973250294
2.85975e-06	0.0016999737248288328
2.86000e-06	0.0008663117872595872
2.86025e-06	-0.0006448717192475291
2.86050e-06	-0.011300254079368653
2.86075e-06	-0.01109678660937831
2.86100e-06	-0.008791961969316649
2.86125e-06	-0.004501504469676007
2.86150e-06	0.00037017537826393183
2.86175e-06	0.0017460495072927455
2.86200e-06	0.0003701592815740604
2.86225e-06	-0.0028328366517258036
2.86250e-06	-0.006901634377123761
2.86275e-06	-0.00769612880891646
2.86300e-06	-0.0060251496621499725
2.86325e-06	-0.003425898822411075
2.86350e-06	-0.0004537664997586755
2.86375e-06	0.0003359525014427219
2.86400e-06	-0.0005917136899584198
2.86425e-06	-0.002658388927000012
2.86450e-06	-0.005262586455712367
2.86475e-06	-0.005811598379351176
2.86500e-06	-0.0048126784333508464
2.86525e-06	-0.0032291525855288345
2.86550e-06	-0.001409188224394241
2.86575e-06	-0.0009535262789420378
2.86600e-06	-0.0015708606944608197
2.86625e-06	-0.0028988643796431803
2.86650e-06	-0.004560726660609839
2.86675e-06	-0.004932397275371037
2.86700e-06	-0.004331671414998948
2.86725e-06	-0.003361961756444902
2.86750e-06	-0.002241291803000114
2.86775e-06	-0.00197222540920965
2.86800e-06	-0.0023721009839296732
2.86825e-06	-0.0032137856214757275
2.86850e-06	-0.004261155099358594
2.86875e-06	-0.00449705228989119
2.86900e-06	-0.004120866156483377
2.86925e-06	-0.0035108319695789734
2.86950e-06	-0.0028036975196701194
2.86975e-06	-0.0026276057536981636
2.87000e-06	-0.002868250847121922
2.87025e-06	-0.0033834794224078175
2.87050e-06	-0.004025518018413403
2.87075e-06	-0.004157390340873523
2.87100e-06	-0.0039041842544281836
2.87125e-06	-0.003503000349515776
2.87150e-06	-0.0030396555215025747
2.87175e-06	-0.002907754083158149
2.87200e-06	-0.0030358158167460296
2.87225e-06	-0.0033349243928782143
2.87250e-06	-0.0037126506943106793
2.87275e-06	-0.0037701515873549657
2.87300e-06	-0.0035859546585196656
2.87325e-06	-0.00330874136120055
2.87350e-06	-0.00299242053296843
2.87375e-06	-0.0028836837290719874
2.87400e-06	-0.0029378855412081056
2.87425e-06	-0.003099463271142741
2.87450e-06	-0.0033106581230690443
2.87475e-06	-0.0033217890204044575
2.87500e-06	-0.0031822076276806933
2.87525e-06	-0.002985203498743527
2.87550e-06	-0.00276469485370488
2.87575e-06	-0.0026753505574959795
2.87600e-06	-0.0026893403805849704
2.87625e-06	-0.002771997573829089
2.87650e-06	-0.0028872842356121122
2.87675e-06	-0.002878950617517125
2.87700e-06	-0.0027780664189315926
2.87725e-06	-0.0026432203640227706
2.87750e-06	-0.002495807002121569
2.87775e-06	-0.002432853161736994
2.87800e-06	-0.0024370655424196972
2.87825e-06	-0.0024868770531421367
2.87850e-06	-0.0025599236668760665
2.87875e-06	-0.0025586318058276733
2.87900e-06	-0.002502665241449894
2.87925e-06	-0.002428670706975452
2.87950e-06	-0.0023498722578257124
2.87975e-06	-0.0023268645699005635
2.88000e-06	-0.0023486294437458756
2.88025e-06	-0.002401472812972472
2.88050e-06	-0.002471203169558149
2.88075e-06	-0.0024965206833181494
2.88100e-06	-0.002489565163339288
2.88125e-06	-0.0024731130902101357
2.88150e-06	-0.002455267875843428
2.88175e-06	-0.0024738032915688248
2.88200e-06	-0.002521633186458696
2.88225e-06	-0.00258999664034189
2.88250e-06	-0.002669821746324466
2.88275e-06	-0.0027225298366803092
2.88300e-06	-0.002755546708820933
2.88325e-06	-0.002782959413372176
2.88350e-06	-0.002809662976854939
2.88375e-06	-0.002859137037393375
2.88400e-06	-0.002926759952978323
2.88425e-06	-0.0030068611515433126
2.88450e-06	-0.0030935762310592956
2.88475e-06	-0.0031625591191785708
2.88500e-06	-0.0032182813183192615
2.88525e-06	-0.0032693865845757285
2.88550e-06	-0.0033187605671337345
2.88575e-06	-0.003380928815770272
2.88600e-06	-0.003452814568254936
2.88625e-06	-0.00353068387147829
2.88650e-06	-0.003610681478155804
2.88675e-06	-0.0036773763395517964
2.88700e-06	-0.003733389174603267
2.88725e-06	-0.0037839543689139523
2.88750e-06	-0.003830698271559449
2.88775e-06	-0.00388253861078923
2.88800e-06	-0.003937366378531871
2.88825e-06	-0.0039926740039101325
2.88850e-06	-0.004046011898082133
2.88875e-06	-0.004088000163056724
2.88900e-06	-0.004120729549931159
2.88925e-06	-0.004147750859726476
2.88950e-06	-0.004170213222170882
2.88975e-06	-0.004193828545454498
2.89000e-06	-0.004217270479098652
2.89025e-06	-0.0042386142970330274
2.89050e-06	-0.0042586783581034715
2.89075e-06	-0.004269225185882212
2.89100e-06	-0.004272265825830564
2.89125e-06	-0.004269056255407798
2.89150e-06	-0.004265518128721262
2.89175e-06	-0.00425968297030425
2.89200e-06	-0.004252793095046711
2.89225e-06	-0.004243609323138428
2.89250e-06	-0.00423350988171679
2.89275e-06	-0.004216634718226393
2.89300e-06	-0.004194650206838575
2.89325e-06	-0.004168429983903495
2.89350e-06	-0.004141988891229407
2.89375e-06	-0.004114020324128043
2.89400e-06	-0.004085520521245348
2.89425e-06	-0.004055922158501493
2.89450e-06	-0.004025833891917517
2.89475e-06	-0.0039921367669002
2.89500e-06	-0.0039559061789083225
2.89525e-06	-0.00391801904525039
