Time(s)	Current(A)
3.50000e-06	-0.002782492942014591
3.50025e-06	-0.00280600189090939
3.50050e-06	-0.0028295108398042283
3.50075e-06	-0.002853019788699067
3.50100e-06	-0.002880452918433985
3.50125e-06	-0.002910731030241987
3.50150e-06	-0.002941009142049989
3.50175e-06	-0.002971287253857991
3.50200e-06	-0.003001565365665942
3.50225e-06	-0.003031843477473944
3.50250e-06	-0.003063960289814887
3.50275e-06	-0.003097410137066007
3.50300e-06	-0.003130859984317184
3.50325e-06	-0.0031648571562636115
3.50350e-06	-0.003199251131774805
3.50375e-06	-0.00323364510728594
3.50400e-06	-0.003267954453306647
3.50425e-06	-0.0033022024440042693
3.50450e-06	-0.0033358117992405355
3.50475e-06	-0.0033689581517477095
3.50500e-06	-0.0034011475971212316
3.50525e-06	-0.003432643296780168
3.50550e-06	-0.0034625131743933374
3.50575e-06	-0.0034912043513393018
3.50600e-06	-0.003519895528285266
3.50625e-06	-0.0035456434346258802
3.50650e-06	-0.0035692575065563283
3.50675e-06	-0.0035928715784867764
3.50700e-06	-0.0036107966615738494
3.50725e-06	-0.003624597298838193
3.50750e-06	-0.0036383979361025364
3.50775e-06	-0.00365219857336688
3.50800e-06	-0.0036659992106312
3.50825e-06	-0.003679799847895544
3.50850e-06	-0.003693600485159887
3.50875e-06	-0.0036995161181736643
3.50900e-06	-0.0036997152216355087
3.50925e-06	-0.0036999143250973534
3.50950e-06	-0.0037001134285591978
3.50975e-06	-0.0037003125320210425
3.51000e-06	-0.003700511635482887
3.51025e-06	-0.0037007107389447316
3.51050e-06	-0.0036942514547903056
3.51075e-06	-0.0036829649228161433
3.51100e-06	-0.003671678390841981
3.51125e-06	-0.0036603918588678373
3.51150e-06	-0.003649105326893675
3.51175e-06	-0.0036378187949195127
3.51200e-06	-0.0036265322629453504
3.51225e-06	-0.0036111413260168875
3.51250e-06	-0.003592774746784416
3.51275e-06	-0.003574408167551945
3.51300e-06	-0.0035560415883195045
3.51325e-06	-0.0035376750090870333
3.51350e-06	-0.0035193084298545617
3.51375e-06	-0.003500941850622122
3.51400e-06	-0.0034814946401444486
3.51425e-06	-0.003461263985517364
3.51450e-06	-0.003441033330890279
3.51475e-06	-0.0034210649332010435
3.51500e-06	-0.0034012866685145782
3.51525e-06	-0.003381508403828113
3.51550e-06	-0.0033625262232483337
3.51575e-06	-0.003344121193698139
3.51600e-06	-0.0033267251042458125
3.51625e-06	-0.0033100604837569304
3.51650e-06	-0.0032947261119817242
3.51675e-06	-0.003280356153901373
3.51700e-06	-0.003267942797246929
3.51725e-06	-0.0032569479521770027
3.51750e-06	-0.003249113890350092
3.51775e-06	-0.0032435713568779085
3.51800e-06	-0.0032380288234057342
3.51825e-06	-0.003236263887636864
3.51850e-06	-0.00323723766299884
3.51875e-06	-0.003238211438360816
3.51900e-06	-0.003245167317420102
3.51925e-06	-0.00325646014690882
3.51950e-06	-0.0032677529763975375
3.51975e-06	-0.003279045805886236
3.52000e-06	-0.003290338635374954
3.52025e-06	-0.0033016314648636716
3.52050e-06	-0.0033199787990174875
3.52075e-06	-0.003343440560901839
3.52100e-06	-0.00336690232278623
3.52125e-06	-0.0033903640846706215
3.52150e-06	-0.0034138258465549734
3.52175e-06	-0.0034372876084393647
3.52200e-06	-0.003464748439939283
3.52225e-06	-0.003495108546938907
3.52250e-06	-0.0035254686539385825
3.52275e-06	-0.003557226272325084
3.52300e-06	-0.0035899970690040444
3.52325e-06	-0.0036235358749346935
3.52350e-06	-0.0036576314779760443
3.52375e-06	-0.0036920770043891256
3.52400e-06	-0.00372677622087409
3.52425e-06	-0.0037613420817983545
3.52450e-06	-0.003795811261607448
3.52475e-06	-0.0038296809487818116
3.52500e-06	-0.0038631160112870596
3.52525e-06	-0.0038955359248323764
3.52550e-06	-0.00392721986806676
3.52575e-06	-0.003957392830709074
3.52600e-06	-0.003986470351303075
3.52625e-06	-0.0040140794760008276
3.52650e-06	-0.0040387932275425895
3.52675e-06	-0.004062179668713759
3.52700e-06	-0.0040821704021950945
3.52725e-06	-0.00409969929003322
3.52750e-06	-0.004111801182442933
3.52775e-06	-0.004119968570981457
3.52800e-06	-0.0041281359595199815
3.52825e-06	-0.00412980068976013
3.52850e-06	-0.0041267510739895485
3.52875e-06	-0.004123701458218967
3.52900e-06	-0.004113798698381351
3.52925e-06	-0.004098927494730312
3.52950e-06	-0.004084056291079273
3.52975e-06	-0.004060813531631021
3.53000e-06	-0.004031501498838762
3.53025e-06	-0.004002189466046454
3.53050e-06	-0.003972877433254145
3.53075e-06	-0.003942397988352772
3.53100e-06	-0.0038984410115549353
3.53125e-06	-0.003854484034757098
3.53150e-06	-0.003810527057959261
3.53175e-06	-0.0037665700811614976
3.53200e-06	-0.003717112742380718
3.53225e-06	-0.003663667709893405
3.53250e-06	-0.0036102226774061825
3.53275e-06	-0.00355590778482649
3.53300e-06	-0.0035009622545493645
3.53325e-06	-0.0034651176817668806
3.53350e-06	-0.005405203760690408
3.53375e-06	-0.013554670454531535
3.53400e-06	-0.017075907644286712
3.53425e-06	-0.01515353972580163
3.53450e-06	-0.01217582223280691
3.53475e-06	-0.005451520078706401
3.53500e-06	-0.0017918941674099423
3.53525e-06	-0.0019136970107010277
3.53550e-06	-0.0031849757030028305
3.53575e-06	-0.008397067908979084
3.53600e-06	-0.010818899622858586
3.53625e-06	-0.009747440280707337
3.53650e-06	-0.008728603047001432
3.53675e-06	-0.004702698470315003
3.53700e-06	-0.001568763708518158
3.53725e-06	-0.0007044255745156721
3.53750e-06	-0.0017061829127978838
3.53775e-06	-0.004282842806861051
3.53800e-06	-0.0062325404160141545
3.53825e-06	-0.006373504537510482
3.53850e-06	-0.005193065345638588
3.53875e-06	-0.003070589707778357
3.53900e-06	-0.001358995886476483
3.53925e-06	-0.0008588621783142195
3.53950e-06	-0.0015270550862836478
3.53975e-06	-0.0031812270938751546
3.54000e-06	-0.004442216051257699
3.54025e-06	-0.004569905511068777
3.54050e-06	-0.0038696887378278067
3.54075e-06	-0.002579278000176893
3.54100e-06	-0.0015461442521772372
3.54125e-06	-0.0012716910076181716
3.54150e-06	-0.001728782299746574
3.54175e-06	-0.0028030699988950284
3.54200e-06	-0.003630554031947797
3.54225e-06	-0.003747581310729
3.54250e-06	-0.00334540729461401
3.54275e-06	-0.0025728688648212795
3.54300e-06	-0.0019607153855367835
3.54325e-06	-0.0018228760311546162
3.54350e-06	-0.0021421840997270843
3.54375e-06	-0.0028468432502547
3.54400e-06	-0.003395499741893521
3.54425e-06	-0.003497611981286009
3.54450e-06	-0.0032728760471470004
3.54475e-06	-0.002814404905751551
3.54500e-06	-0.002454520244683204
3.54525e-06	-0.0023897009920243535
3.54550e-06	-0.0026090183571135205
3.54575e-06	-0.003067324593669574
3.54600e-06	-0.003425358035801508
3.54625e-06	-0.0035009884178068026
3.54650e-06	-0.003369064179892676
3.54675e-06	-0.0030878576532902403
3.54700e-06	-0.0028661855039963055
3.54725e-06	-0.0028285892396663188
3.54750e-06	-0.0029692722252484317
3.54775e-06	-0.0032601534464056013
3.54800e-06	-0.003488687610551054
3.54825e-06	-0.003540769502338851
3.54850e-06	-0.0034632692741293474
3.54875e-06	-0.0032926686168242114
3.54900e-06	-0.003159743103710508
3.54925e-06	-0.0031424677665804726
3.54950e-06	-0.003237171545812533
3.54975e-06	-0.003426224685847981
3.55000e-06	-0.003576455500968446
3.55025e-06	-0.0036163655452890768
3.55050e-06	-0.003575291653985166
3.55075e-06	-0.0034760624449052934
3.55100e-06	-0.003400565596690158
3.55125e-06	-0.003397609542229482
3.55150e-06	-0.003464857262091443
3.55175e-06	-0.003591228933205731
3.55200e-06	-0.003693273241837306
3.55225e-06	-0.0037261767051882957
3.55250e-06	-0.003708290705995828
3.55275e-06	-0.0036538875829172424
3.55300e-06	-0.0036142320359805143
3.55325e-06	-0.0036198633866328755
3.55350e-06	-0.0036692827296801404
3.55375e-06	-0.003755514856875529
3.55400e-06	-0.003826253655370608
3.55425e-06	-0.003853399926939403
3.55450e-06	-0.0038484210370880495
3.55475e-06	-0.003820228161465922
3.55500e-06	-0.00380090343084455
3.55525e-06	-0.0038095437875365597
3.55550e-06	-0.00384517624157858
3.55575e-06	-0.0039033983410694385
3.55600e-06	-0.003951413832752231
3.55625e-06	-0.003971591657152389
3.55650e-06	-0.003971240649741525
3.55675e-06	-0.003957307132702691
3.55700e-06	-0.003944852452352598
3.55725e-06	-0.003951367481727527
3.55750e-06	-0.003974282786872404
3.55775e-06	-0.004008912619825647
3.55800e-06	-0.004041932169531242
3.55825e-06	-0.004054667926455844
3.55850e-06	-0.004054326542009589
3.55875e-06	-0.00404521075664926
3.55900e-06	-0.004037001043166285
3.55925e-06	-0.004040419443766367
3.55950e-06	-0.0040539492472549685
3.55975e-06	-0.004074621814443691
3.56000e-06	-0.004094271492331958
3.56025e-06	-0.004101037517935973
3.56050e-06	-0.004099506222131959
3.56075e-06	-0.004092360882508859
3.56100e-06	-0.00408577534994918
3.56125e-06	-0.00408637707498659
3.56150e-06	-0.00409326261503575
3.56175e-06	-0.004104577252994763
3.56200e-06	-0.004115249467014341
3.56225e-06	-0.00411783150932122
3.56250e-06	-0.004115222390721948
3.56275e-06	-0.004109128048624303
3.56300e-06	-0.00410338899324011
3.56325e-06	-0.004102211808864574
3.56350e-06	-0.00410503329138573
3.56375e-06	-0.004110733451203669
3.56400e-06	-0.004116041967131695
3.56425e-06	-0.004116420233244087
3.56450e-06	-0.004113665449031327
3.56475e-06	-0.00410890732199762
3.56500e-06	-0.004104388868372306
3.56525e-06	-0.0041029453951751576
3.56550e-06	-0.0041041800613672635
3.56575e-06	-0.004107471355345952
3.56600e-06	-0.004110540660276908
3.56625e-06	-0.004110817502653285
3.56650e-06	-0.0041093519307743775
3.56675e-06	-0.004106854822121188
3.56700e-06	-0.004104478646458789
3.56725e-06	-0.004103625642256585
3.56750e-06	-0.004103722243583505
3.56775e-06	-0.004104110837927763
3.56800e-06	-0.004104216392641762
3.56825e-06	-0.004100938137179121
3.56850e-06	-0.004097474501451945
3.56875e-06	-0.004091794597900009
3.56900e-06	-0.0040861393697822265
3.56925e-06	-0.004080779142704027
3.56950e-06	-0.004075395713888407
3.56975e-06	-0.00406973490244925
3.57000e-06	-0.004063846692417085
3.57025e-06	-0.004055239874843776
3.57050e-06	-0.004046479469316943
3.57075e-06	-0.004035882881062987
3.57100e-06	-0.004025277055246631
3.57125e-06	-0.004014560792041818
3.57150e-06	-0.004003844528837023
3.57175e-06	-0.003992962217153562
3.57200e-06	-0.003980094754021814
3.57225e-06	-0.003967227290890066
3.57250e-06	-0.0039543598277583395
3.57275e-06	-0.003941492364626591
3.57300e-06	-0.003928145168936603
3.57325e-06	-0.0039144465521471815
3.57350e-06	-0.0039007479353577366
3.57375e-06	-0.0038870493185682925
3.57400e-06	-0.003873337224842292
3.57425e-06	-0.0038594945571986806
3.57450e-06	-0.003846017077780559
3.57475e-06	-0.003832539598362438
3.57500e-06	-0.0038190621189443394
3.57525e-06	-0.003805584639526218
3.57550e-06	-0.0037935282901659264
3.57575e-06	-0.0037825129689343967
3.57600e-06	-0.0037714976477028483
3.57625e-06	-0.0037604823264712995
3.57650e-06	-0.0037496436112177977
3.57675e-06	-0.003740916264981305
3.57700e-06	-0.003732188918744798
3.57725e-06	-0.003723420743920326
3.57750e-06	-0.0037141644530275823
3.57775e-06	-0.0037049081621348236
3.57800e-06	-0.0036956518712420645
3.57825e-06	-0.003686395580349306
3.57850e-06	-0.0036771392894565623
3.57875e-06	-0.0036678829985638036
3.57900e-06	-0.0036586267076710445
3.57925e-06	-0.0036479799927100626
3.57950e-06	-0.0036363147428458012
3.57975e-06	-0.0036246494929815395
3.58000e-06	-0.0036129842431172976
3.58025e-06	-0.003601318993253036
3.58050e-06	-0.003589653743388774
3.58075e-06	-0.0035779884935245123
3.58100e-06	-0.0035661178223185125
3.58125e-06	-0.003551791287153204
3.58150e-06	-0.0035374647519878957
3.58175e-06	-0.0035231382168226114
3.58200e-06	-0.003508811681657303
3.58225e-06	-0.003494485146491994
3.58250e-06	-0.003480158611326686
3.58275e-06	-0.0034658320761614017
3.58300e-06	-0.003451505540996093
3.58325e-06	-0.0034370337253267044
3.58350e-06	-0.003422455486539708
3.58375e-06	-0.0034078772477526866
3.58400e-06	-0.003393299008965665
3.58425e-06	-0.0033787207701786682
3.58450e-06	-0.003364142531391647
3.58475e-06	-0.0033495642926046256
3.58500e-06	-0.003334986053817604
3.58525e-06	-0.003320721008356285
3.58550e-06	-0.003310200268108459
3.58575e-06	-0.0032996795278606335
3.58600e-06	-0.0032891587876128256
3.58625e-06	-0.003278638047365
3.58650e-06	-0.003268117307117174
3.58675e-06	-0.003257596566869349
3.58700e-06	-0.003247075826621541
3.58725e-06	-0.0032365550863737154
3.58750e-06	-0.003229768350732577
3.58775e-06	-0.003225716905790124
3.58800e-06	-0.003221665460847664
3.58825e-06	-0.003217614015905204
3.58850e-06	-0.003213562570962751
3.58875e-06	-0.003209511126020291
3.58900e-06	-0.003205459681077831
3.58925e-06	-0.003201408236135371
3.58950e-06	-0.003197849019064511
3.58975e-06	-0.003200174510366904
3.59000e-06	-0.003202500001669297
3.59025e-06	-0.003204825492971686
3.59050e-06	-0.003207150984274079
3.59075e-06	-0.0032094764755764725
3.59100e-06	-0.0032118019668788654
3.59125e-06	-0.0032141274581812544
3.59150e-06	-0.003216452949483648
3.59175e-06	-0.0032187784407860407
3.59200e-06	-0.0032211039320884298
3.59225e-06	-0.0032237216613718424
3.59250e-06	-0.0032298331694378484
3.59275e-06	-0.003235944677503844
3.59300e-06	-0.0032420561855698495
3.59325e-06	-0.0032481676936358555
3.59350e-06	-0.0032542792017018615
3.59375e-06	-0.0032603907097678566
3.59400e-06	-0.0032665022178338626
3.59425e-06	-0.0032726137258998686
3.59450e-06	-0.003278725233965864
3.59475e-06	-0.0032848367420318697
3.59500e-06	-0.003290949310207237
3.59525e-06	-0.003297074552257444
3.59550e-06	-0.0033031997943076398
3.59575e-06	-0.003309325036357846
3.59600e-06	-0.0033148780191733125
3.59625e-06	-0.003320011801819791
3.59650e-06	-0.0033251455844662777
3.59675e-06	-0.003330104286037201
3.59700e-06	-0.0033329698491839682
3.59725e-06	-0.003335471975355748
3.59750e-06	-0.003333629120811226
3.59775e-06	-0.0033313205301776206
3.59800e-06	-0.0033234439471130335
3.59825e-06	-0.003315567364048433
3.59850e-06	-0.0033071625984938367
3.59875e-06	-0.003292443278032708
3.59900e-06	-0.003277723957571554
3.59925e-06	-0.0032621991060955667
3.59950e-06	-0.0032370439281347784
3.59975e-06	-0.0032118887501740327
3.60000e-06	-0.003186733572213244
3.60025e-06	-0.0031615783942524557
3.60050e-06	-0.0031303141219958036
3.60075e-06	-0.003094574721675214
3.60100e-06	-0.0030588353213546245
3.60125e-06	-0.0030230959210340953
3.60150e-06	-0.002986766548795848
3.60175e-06	-0.0029433839134557532
3.60200e-06	-0.0029000012781156587
3.60225e-06	-0.002856354275961363
3.60250e-06	-0.00280954670185312
3.60275e-06	-0.0027626334349349006
3.60300e-06	-0.0027143929991894607
3.60325e-06	-0.0026653376508070196
3.60350e-06	-0.002615593372599882
3.60375e-06	-0.0025654258168152626
3.60400e-06	-0.0025151368038548107
3.60425e-06	-0.0024650290494991835
3.60450e-06	-0.00241540542966775
3.60475e-06	-0.0023665607270110297
3.60500e-06	-0.0023187254948444577
3.60525e-06	-0.0022720623337122705
3.60550e-06	-0.0022267865290587292
3.60575e-06	-0.0021832006062110524
3.60600e-06	-0.002141630295239789
3.60625e-06	-0.0021024013441873217
3.60650e-06	-0.002065839841758202
3.60675e-06	-0.002032275087999498
3.60700e-06	-0.002002054476161491
3.60725e-06	-0.0019754867557959265
3.60750e-06	-0.0019527414068417675
3.60775e-06	-0.0019338829353277452
3.60800e-06	-0.0019189551224008396
3.60825e-06	-0.0019080018386654154
3.60850e-06	-0.0019010668476986776
3.60875e-06	-0.0018981962535869652
3.60900e-06	-0.0018996058850302526
3.60925e-06	-0.0019067491291775594
3.60950e-06	-0.0019146533998966892
3.60975e-06	-0.0019316559352597084
3.61000e-06	-0.0019486584706227563
3.61025e-06	-0.0019663627581990597
3.61050e-06	-0.001992456670509958
3.61075e-06	-0.0020190651815411072
3.61100e-06	-0.0020518258500870686
3.61125e-06	-0.0020850495289821305
3.61150e-06	-0.0021238086134004806
3.61175e-06	-0.0021628702369725895
3.61200e-06	-0.0022057254203898704
3.61225e-06	-0.002250850082725664
3.61250e-06	-0.0022980009159575075
3.61275e-06	-0.0023469350793323992
3.61300e-06	-0.002397414689407562
3.61325e-06	-0.0024491917008135447
3.61350e-06	-0.002501984363261971
3.61375e-06	-0.0025554851238359924
3.61400e-06	-0.00260938109409427
3.61425e-06	-0.002663359779369381
3.61450e-06	-0.0027171083271638075
3.61475e-06	-0.0027703149600779887
3.61500e-06	-0.002822670155522663
3.61525e-06	-0.002873858834091993
3.61550e-06	-0.002923544389737597
3.61575e-06	-0.002971374047286237
3.61600e-06	-0.003016991826655837
3.61625e-06	-0.0030599167613032234
3.61650e-06	-0.003098672469677241
3.61675e-06	-0.003136785379697664
3.61700e-06	-0.003167213473245286
3.61725e-06	-0.003197641566792909
3.61750e-06	-0.003227304667967062
3.61775e-06	-0.003247822092336914
3.61800e-06	-0.003268339516706766
3.61825e-06	-0.0032880328570590598
3.61850e-06	-0.0032978740650948125
3.61875e-06	-0.003307715273130565
3.61900e-06	-0.0033164450845607684
3.61925e-06	-0.003311887869206115
3.61950e-06	-0.0033073306538514533
3.61975e-06	-0.003302773438496792
3.62000e-06	-0.003298216223142138
3.62025e-06	-0.003293659007787477
3.62050e-06	-0.003279824479751928
3.62075e-06	-0.0032591939914104486
3.62100e-06	-0.003238563503068934
3.62125e-06	-0.00321793301472742
3.62150e-06	-0.0031973025263859053
3.62175e-06	-0.0031759415506513802
3.62200e-06	-0.0031458474138569724
3.62225e-06	-0.003115753277062564
3.62250e-06	-0.003085294586039559
3.62275e-06	-0.0030504775572488467
3.62300e-06	-0.0030156605284581343
3.62325e-06	-0.0029806568074535727
3.62350e-06	-0.002943421133936647
3.62375e-06	-0.002906119539449271
3.62400e-06	-0.0028680298431313597
3.62425e-06	-0.002829932185256839
3.62450e-06	-0.0027917562924760775
3.62475e-06	-0.0027538186857237815
3.62500e-06	-0.002716365281362367
3.62525e-06	-0.0026796815836765612
3.62550e-06	-0.002644051890420621
3.62575e-06	-0.002609807345094594
3.62600e-06	-0.0025778252622210653
3.62625e-06	-0.002546246055681473
3.62650e-06	-0.002519483337346679
3.62675e-06	-0.00249272061901193
3.62700e-06	-0.0024664507695593973
3.62725e-06	-0.002446073291928424
3.62750e-06	-0.0024256958142974514
3.62775e-06	-0.0024053183366665133
3.62800e-06	-0.00238494085903554
3.62825e-06	-0.0023651246729472406
3.62850e-06	-0.00235201886884663
3.62875e-06	-0.0023389130647459974
3.62900e-06	-0.0023258072606453647
3.62925e-06	-0.002312701456544754
3.62950e-06	-0.002300158090145408
3.62975e-06	-0.0022943388083494125
3.63000e-06	-0.0022885195265534165
3.63025e-06	-0.0022827002447574304
3.63050e-06	-0.0022768809629614343
3.63075e-06	-0.0022710616811654387
3.63100e-06	-0.0022652423993694526
3.63125e-06	-0.0022594231175734566
3.63150e-06	-0.0022540966817455026
3.63175e-06	-0.0022546623437942597
3.63200e-06	-0.0022552280058430164
3.63225e-06	-0.0022557936678917734
3.63250e-06	-0.002256359329940531
3.63275e-06	-0.002256924991989287
3.63300e-06	-0.0022574906540380447
3.63325e-06	-0.0022580563160868017
3.63350e-06	-0.002258822226562008
3.63375e-06	-0.00226198215749155
3.63400e-06	-0.002265142088421091
3.63425e-06	-0.002268302019350633
3.63450e-06	-0.002271461950280169
3.63475e-06	-0.002274657084589419
3.63500e-06	-0.0022782730841837497
3.63525e-06	-0.0022818890837780744
3.63550e-06	-0.002285505083372405
3.63575e-06	-0.0022891210829667358
3.63600e-06	-0.0022926938223735574
3.63625e-06	-0.002295749375325544
3.63650e-06	-0.0022987839460711806
3.63675e-06	-0.0023015676692467063
3.63700e-06	-0.0023045051960384833
3.63725e-06	-0.0023092814838623988
3.63750e-06	-0.002314318211637818
3.63775e-06	-0.00232246856473423
3.63800e-06	-0.0023308985098488815
3.63825e-06	-0.0023426710480737374
3.63850e-06	-0.0023544435862985933
3.63875e-06	-0.002366576425399635
3.63900e-06	-0.0023830167523684635
3.63925e-06	-0.002399457079337292
3.63950e-06	-0.0024165115958275332
3.63975e-06	-0.002440908902987755
3.64000e-06	-0.002465306210147977
3.64025e-06	-0.002489703517308199
3.64050e-06	-0.00251410082446838
3.64075e-06	-0.002538498131628602
3.64100e-06	-0.00256762264409857
3.64125e-06	-0.002600210001979914
3.64150e-06	-0.0026327973598613136
3.64175e-06	-0.0026653847177427127
3.64200e-06	-0.002697972075624057
3.64225e-06	-0.0027308708842762133
3.64250e-06	-0.002767493165462496
3.64275e-06	-0.0028042003010276123
3.64300e-06	-0.0028419218920978425
3.64325e-06	-0.002879711983107757
3.64350e-06	-0.0029183210081763383
3.64375e-06	-0.0029569370512761857
3.64400e-06	-0.0029956369967111137
3.64425e-06	-0.003034271021175683
3.64450e-06	-0.0030721169438096886
3.64475e-06	-0.0031098374404752217
3.64500e-06	-0.003146058438047167
