Time(s)	Current(A)
1.20500e-05	-0.00019261266093599297
1.20503e-05	-0.00020079530473225482
1.20505e-05	-0.00021033996564609323
1.20508e-05	-0.0002203287349528945
1.20510e-05	-0.00023150300871692292
1.20513e-05	-0.00024306383597775988
1.20515e-05	-0.0002555040917070115
1.20518e-05	-0.0002682310997528867
1.20520e-05	-0.0002809581077988482
1.20523e-05	-0.0002941857965386081
1.20525e-05	-0.0003075767405674115
1.20528e-05	-0.00032096768459630555
1.20530e-05	-0.0003342846509640225
1.20533e-05	-0.0003475774956816337
1.20535e-05	-0.000360870340399335
1.20538e-05	-0.0003732440609613882
1.20540e-05	-0.00038531808576586376
1.20543e-05	-0.0003973921105704211
1.20545e-05	-0.000407886516244661
1.20548e-05	-0.00041786586076096507
1.20550e-05	-0.00042784520527733674
1.20553e-05	-0.0004361732209091687
1.20555e-05	-0.000443962793221923
1.20558e-05	-0.00045175236553473
1.20560e-05	-0.0004581696493064179
1.20562e-05	-0.0004641394755160468
1.20565e-05	-0.0004701093017257161
1.20568e-05	-0.0004744927489792675
1.20570e-05	-0.0004783589309209443
1.20573e-05	-0.00048222511286264726
1.20575e-05	-0.00048476060406601155
1.20578e-05	-0.00048686220136457385
1.20580e-05	-0.000488963798663122
1.20583e-05	-0.0004889619333090839
1.20585e-05	-0.0004882741988814537
1.20588e-05	-0.00048758646445382813
1.20590e-05	-0.00048689873002619795
1.20593e-05	-0.0004862109955985677
1.20595e-05	-0.0004855232611709422
1.20598e-05	-0.000484835526743312
1.20600e-05	-0.0004841477923156818
1.20603e-05	-0.00048138041283072664
1.20605e-05	-0.00047793493039625164
1.20608e-05	-0.00047448944796177664
1.20610e-05	-0.000471043965527325
1.20613e-05	-0.00046759848309285
1.20615e-05	-0.000464153000658375
1.20618e-05	-0.0004607075182239234
1.20620e-05	-0.0004572620357894484
1.20623e-05	-0.00045319490561433913
1.20625e-05	-0.00044892507682729456
1.20628e-05	-0.0004446552480402211
1.20630e-05	-0.00044038541925314756
1.20633e-05	-0.00043611559046610304
1.20635e-05	-0.0004321404198538153
1.20638e-05	-0.00042826132745292175
1.20640e-05	-0.0004243822350520545
1.20643e-05	-0.00042050314265116087
1.20645e-05	-0.0004166240502502673
1.20647e-05	-0.0004133585459242757
1.20650e-05	-0.00041029311222183366
1.20653e-05	-0.00040837244844160395
1.20655e-05	-0.00040682505598388553
1.20658e-05	-0.00040727366671235735
1.20660e-05	-0.0004083731075636099
1.20663e-05	-0.00041140275303654675
1.20665e-05	-0.00041506177391304627
1.20668e-05	-0.00042050927351715024
1.20670e-05	-0.00042653993643375094
1.20673e-05	-0.0004346059873010328
1.20675e-05	-0.0004433357103503605
1.20678e-05	-0.0004544184014800962
1.20680e-05	-0.0004662683170887796
1.20683e-05	-0.00048021437129088434
1.20685e-05	-0.0004948439064350792
1.20688e-05	-0.000511690466928149
1.20690e-05	-0.0005292599255059309
1.20693e-05	-0.0005468293840837128
1.20695e-05	-0.0005669988297022951
1.20698e-05	-0.0005880160444513035
1.20700e-05	-0.000609033259200312
1.20703e-05	-0.0006320561084239598
1.20705e-05	-0.0006557329282128727
1.20708e-05	-0.0006794097480017857
1.20710e-05	-0.0007042839494957527
1.20713e-05	-0.0007295485772616169
1.20715e-05	-0.000754813205027481
1.20718e-05	-0.0007807133881072687
1.20720e-05	-0.0008068208045954989
1.20723e-05	-0.0008329282210837292
1.20725e-05	-0.0008586838778898059
1.20728e-05	-0.0008843248375860293
1.20730e-05	-0.0009099657972822526
1.20732e-05	-0.0009343468688315662
1.20735e-05	-0.0009583171328416976
1.20738e-05	-0.000982287396851829
1.20740e-05	-0.0010040852986479918
1.20743e-05	-0.0010251748655195157
1.20745e-05	-0.0010462644323910395
1.20748e-05	-0.0010613136166484703
1.20750e-05	-0.001074393233428744
1.20753e-05	-0.0010874728502091066
1.20755e-05	-0.001100552466989469
1.20758e-05	-0.001113632083769743
1.20760e-05	-0.0011267117005501054
1.20763e-05	-0.001139791317330468
1.20765e-05	-0.0011528709341107417
1.20768e-05	-0.0011659505508911042
1.20770e-05	-0.0011764384885863703
1.20773e-05	-0.0011793190570553941
1.20775e-05	-0.0011821996255244375
1.20778e-05	-0.0011850801939934808
1.20780e-05	-0.0011879607624625046
1.20783e-05	-0.001190841330931548
1.20785e-05	-0.0011937218994005913
1.20788e-05	-0.0011966024678696152
1.20790e-05	-0.0011994830363386585
1.20793e-05	-0.0012023636048077017
1.20795e-05	-0.0012000693261153934
1.20798e-05	-0.0011960877022133042
1.20800e-05	-0.0011921060783112152
1.20803e-05	-0.0011881244544091531
1.20805e-05	-0.001184142830507064
1.20808e-05	-0.001180161206604975
1.20810e-05	-0.001176179582702913
1.20813e-05	-0.0011721979588008237
1.20815e-05	-0.0011682163348987347
1.20817e-05	-0.00116229510919315
1.20820e-05	-0.0011557414439757189
1.20823e-05	-0.001149187778758288
1.20825e-05	-0.0011426341135409013
1.20828e-05	-0.0011360804483234704
1.20830e-05	-0.0011295267831060393
1.20833e-05	-0.0011229731178886081
1.20835e-05	-0.0011164194526712217
1.20838e-05	-0.0011098657874537906
1.20840e-05	-0.0011038387058413192
1.20843e-05	-0.0010979833255943222
1.20845e-05	-0.0010921279453472855
1.20848e-05	-0.0010869365936200927
1.20850e-05	-0.001081961759464835
1.20853e-05	-0.0010768023908430651
1.20855e-05	-0.0010715828516812936
1.20858e-05	-0.0010649157002051094
1.20860e-05	-0.0010577765305940727
1.20863e-05	-0.0010506373609830359
1.20865e-05	-0.0010418413317213407
1.20868e-05	-0.0010325050557414641
1.20870e-05	-0.0010231687797615876
1.20873e-05	-0.0010138325037817744
1.20875e-05	-0.0010019303361816967
1.20878e-05	-0.0009891915168312082
1.20880e-05	-0.0009764526974808059
1.20883e-05	-0.0009637138781303174
1.20885e-05	-0.0009484007807811991
1.20888e-05	-0.0009322482971632147
1.20890e-05	-0.0009160958135451208
1.20893e-05	-0.0008999433299270269
1.20895e-05	-0.0008830052985896278
1.20898e-05	-0.0008637614449055269
1.20900e-05	-0.0008445175912214261
1.20902e-05	-0.0008252737375374557
1.20905e-05	-0.0008060298838533549
1.20908e-05	-0.000785715097688413
1.20910e-05	-0.000765051116129798
1.20913e-05	-0.0007440413519212856
1.20915e-05	-0.0007229188395136847
1.20918e-05	-0.0007015374126078809
1.20920e-05	-0.0006800715623125275
1.20923e-05	-0.000658708974940995
1.20925e-05	-0.000637380058167795
1.20928e-05	-0.0006165397363391229
1.20930e-05	-0.0005958587290395506
1.20933e-05	-0.0005759243093881271
1.20935e-05	-0.000556233327089335
1.20938e-05	-0.0005375067612420266
1.20940e-05	-0.0005190946594610309
1.20943e-05	-0.0005020372662841271
1.20945e-05	-0.00048542159843807333
1.20948e-05	-0.00047057779507181667
1.20950e-05	-0.00045631173766629257
1.20953e-05	-0.0004443730465974057
1.20955e-05	-0.00043319323213299307
1.20958e-05	-0.0004247524969045408
1.20960e-05	-0.00041720488413687424
1.20963e-05	-0.00041244552394857593
1.20965e-05	-0.0004085953200098068
1.20968e-05	-0.0004075557221653949
1.20970e-05	-0.00040743256930681686
1.20973e-05	-0.0004102290247343039
1.20975e-05	-0.00041397746712990686
1.20978e-05	-0.0004206643707025004
1.20980e-05	-0.00042830940854259497
1.20983e-05	-0.000438684713702803
1.20985e-05	-0.0004499502680517412
1.20987e-05	-0.0004637210621416199
1.20990e-05	-0.00047830873142570287
1.20993e-05	-0.0004952309658220695
1.20995e-05	-0.0005129144241036305
1.20998e-05	-0.000533155664408976
1.21000e-05	-0.0005542309121959151
1.21003e-05	-0.0005753061599828543
1.21005e-05	-0.0005987033786825584
1.21008e-05	-0.0006228577147190518
1.21010e-05	-0.0006470120507555451
1.21013e-05	-0.0006726796806173656
1.21015e-05	-0.0006988407451664044
1.21018e-05	-0.0007250018097154432
1.21020e-05	-0.0007517578706231799
1.21023e-05	-0.0007787079400159008
1.21025e-05	-0.0008056580094086217
1.21028e-05	-0.0008321388269082467
1.21030e-05	-0.000858466637003249
1.21033e-05	-0.0008847944470982513
1.21035e-05	-0.000909611099589644
1.21038e-05	-0.0009339350139449319
1.21040e-05	-0.0009582589283002198
1.21043e-05	-0.0009804686120180365
1.21045e-05	-0.00100198891558032
1.21048e-05	-0.001021166544434207
1.21050e-05	-0.001039580305133414
1.21053e-05	-0.0010546436503345094
1.21055e-05	-0.001068614536691638
1.21058e-05	-0.001078352499118569
1.21060e-05	-0.0010867102461108577
1.21063e-05	-0.0010908043865868508
1.21065e-05	-0.0010935083070592547
1.21068e-05	-0.0010919845271032862
1.21070e-05	-0.00108908223492247
1.21072e-05	-0.0010817088446880626
1.21075e-05	-0.0010728775783742414
1.21078e-05	-0.001059410432278208
1.21080e-05	-0.0010444316802724642
1.21083e-05	-0.0010251857662575258
1.21085e-05	-0.0010045484729112996
1.21088e-05	-0.0009800543916584463
1.21090e-05	-0.0009543027403938935
1.21093e-05	-0.0009258235432976559
1.21095e-05	-0.000894667493309082
1.21098e-05	-0.0008612465466781367
1.21100e-05	-0.0008257554747120677
1.21103e-05	-0.0007884093385326096
1.21105e-05	-0.0007494238843567501
1.21108e-05	-0.0007090148736702834
1.21110e-05	-0.000667386142839819
1.21113e-05	-0.0006247019046728746
1.21115e-05	-0.0005811098052111536
1.21118e-05	-0.0005368088248135939
1.21120e-05	-0.0004920494430197224
1.21123e-05	-0.00044709479569381963
1.21125e-05	-0.00040220852727995053
1.21128e-05	-0.0003576541796410914
1.21130e-05	-0.00031368790644961534
1.21133e-05	-0.000270540945882437
1.21135e-05	-0.00022843420884938038
1.21138e-05	-0.0001876206420163162
1.21140e-05	-0.0001483855185967828
1.21143e-05	-0.00011102204275916858
1.21145e-05	-7.582362977812509e-05
1.21148e-05	-4.3083665349356306e-05
1.21150e-05	-1.3042585962796044e-05
1.21153e-05	1.4277039342028027e-05
1.21155e-05	3.905501743622148e-05
1.21158e-05	6.1394300247613e-05
1.21160e-05	8.124198382312506e-05
1.21163e-05	9.850186787332764e-05
1.21165e-05	0.00011307602272058189
1.21168e-05	0.0001248665504750101
1.21170e-05	0.00013380873951546256
1.21173e-05	0.0001399743406972135
1.21175e-05	0.00014356188782772093
1.21178e-05	0.00014472173824138987
1.21180e-05	0.00014350663889372414
1.21183e-05	0.00013994219346956374
1.21185e-05	0.00013405291478970472
1.21188e-05	0.00012586337769999914
1.21190e-05	0.00011541892079891682
1.21193e-05	0.00010285036736597424
1.21195e-05	8.836792517077134e-05
1.21198e-05	7.215162524668225e-05
1.21200e-05	5.4320351988131264e-05
1.21203e-05	3.497597300331368e-05
1.21205e-05	1.4219678345233863e-05
1.21208e-05	-7.847330214754806e-06
1.21210e-05	-3.1110836984796716e-05
1.21213e-05	-5.5403087134654084e-05
1.21215e-05	-8.050661267611709e-05
1.21218e-05	-0.00010637948829347065
1.21220e-05	-0.00013244268151114526
1.21223e-05	-0.00015891413089896427
1.21225e-05	-0.00018551869901905642
1.21228e-05	-0.0002121232671389683
1.21230e-05	-0.00023824274825471982
1.21233e-05	-0.00026420405866341883
1.21235e-05	-0.00029016536907194195
1.21238e-05	-0.0003147137259057578
1.21240e-05	-0.00033880136566412117
1.21243e-05	-0.00036110210691470785
1.21245e-05	-0.00038282020010877533
1.21248e-05	-0.00040286056159303407
1.21250e-05	-0.0004212728033333026
1.21253e-05	-0.00043907510102242505
1.21255e-05	-0.0004583241493208741
1.21258e-05	-0.0004780723060947319
1.21260e-05	-0.0005004997937296205
1.21263e-05	-0.0005238009218724442
1.21265e-05	-0.000547102050015268
1.21268e-05	-0.0005721238684145873
1.21270e-05	-0.0005977067465664958
1.21273e-05	-0.0006253542906149885
1.21275e-05	-0.0006536750534092614
1.21278e-05	-0.0006853498969315742
1.21280e-05	-0.0007181183944079284
1.21283e-05	-0.0007536254773007608
1.21285e-05	-0.0007900255216376758
1.21288e-05	-0.0008288632001407153
1.21290e-05	-0.000868495709913423
1.21293e-05	-0.0009081282196863993
1.21295e-05	-0.0009512634605131566
1.21298e-05	-0.0009955408252114058
1.21300e-05	-0.0010398181899099548
1.21303e-05	-0.0010867283750877628
1.21305e-05	-0.0011344970352875781
1.21308e-05	-0.001182265695487717
1.21310e-05	-0.00123111961499977
1.21313e-05	-0.001280327401408
1.21315e-05	-0.0013295351878165635
1.21318e-05	-0.0013793448913579146
1.21320e-05	-0.001429350860017692
1.21323e-05	-0.0014793568286778083
1.21325e-05	-0.0015281458823704127
1.21328e-05	-0.0015765381406441432
1.21330e-05	-0.0016249303989182018
1.21333e-05	-0.001670611089131575
1.21335e-05	-0.0017154076273600614
1.21338e-05	-0.0017602041655888515
1.21340e-05	-0.00180092804043492
1.21343e-05	-0.0018403239554688365
1.21345e-05	-0.0018797198705024862
1.21348e-05	-0.0019131686897543698
1.21350e-05	-0.0019446783592519789
1.21353e-05	-0.0019761880287493747
1.21355e-05	-0.002002520081341271
1.21358e-05	-0.002027163885598386
1.21360e-05	-0.0020518076898553336
1.21363e-05	-0.002067513646536502
1.21365e-05	-0.002080305268966611
1.21368e-05	-0.0020930968913966336
1.21370e-05	-0.0021058885138267426
1.21373e-05	-0.002118680136256852
1.21375e-05	-0.002131471758686875
1.21378e-05	-0.002144263381116984
1.21380e-05	-0.0021533419850127563
1.21383e-05	-0.002151521746084765
1.21385e-05	-0.0021497015071567614
1.21388e-05	-0.002147881268228758
1.21390e-05	-0.002146061029300767
1.21393e-05	-0.0021442407903727637
1.21395e-05	-0.0021424205514447604
1.21398e-05	-0.0021406003125167693
1.21400e-05	-0.0021331485007253033
1.21403e-05	-0.002123860420688663
1.21405e-05	-0.0021145723406520863
1.21408e-05	-0.0021028445194908817
1.21410e-05	-0.0020903211800504563
1.21413e-05	-0.002077797840610116
1.21415e-05	-0.0020639420838967134
1.21418e-05	-0.0020496518703118135
1.21420e-05	-0.0020347864570011602
1.21423e-05	-0.0020197334902276503
1.21425e-05	-0.0020043403374135926
1.21427e-05	-0.001988836261268108
1.21430e-05	-0.0019732820570633833
1.21433e-05	-0.001957711507769031
1.21435e-05	-0.0019426103713156568
1.21438e-05	-0.0019276622947472142
1.21440e-05	-0.0019138802735040436
1.21443e-05	-0.0019004784640451124
1.21445e-05	-0.0018870766545862718
1.21448e-05	-0.0018752400228102867
1.21450e-05	-0.0018639137433191005
1.21453e-05	-0.0018528626853085276
1.21455e-05	-0.001841901367851269
1.21458e-05	-0.0018297521646354331
1.21460e-05	-0.0018172156314586192
1.21463e-05	-0.0018034133867360744
1.21465e-05	-0.0017891984356567356
1.21468e-05	-0.001774983484577493
1.21470e-05	-0.0017607685334981543
1.21473e-05	-0.0017442885798659973
1.21475e-05	-0.0017270700843798098
1.21478e-05	-0.0017098515888935057
1.21480e-05	-0.0016926330934072015
1.21483e-05	-0.0016724792508499042
1.21485e-05	-0.0016513682894292358
1.21488e-05	-0.0016302573280085673
1.21490e-05	-0.0016091463665880417
1.21493e-05	-0.0015871757899813693
1.21495e-05	-0.0015626819803989107
1.21498e-05	-0.001538188170816618
1.21500e-05	-0.0015136943612341594
1.21503e-05	-0.0014892005516517009
1.21505e-05	-0.0014632780241030986
1.21508e-05	-0.001436889639235639
1.21510e-05	-0.0014101942968222031
1.21512e-05	-0.0013833988657821574
1.21515e-05	-0.0013562684283082293
1.21518e-05	-0.0013290287563999103
1.21520e-05	-0.0013017420729755412
1.21523e-05	-0.0012744400606625689
1.21525e-05	-0.0012475906933106656
1.21528e-05	-0.001220888918396848
1.21530e-05	-0.0011950721539282
1.21533e-05	-0.0011695439618737197
1.21535e-05	-0.0011450830760869656
1.21538e-05	-0.0011209702033077597
1.21540e-05	-0.0010987734338883891
1.21543e-05	-0.0010772014419232145
1.21545e-05	-0.001055629449958186
1.21548e-05	-0.0010372108435876882
1.21550e-05	-0.00101982045117743
1.21553e-05	-0.0010024300587672891
1.21555e-05	-0.0009873559748171947
1.21558e-05	-0.0009730371618682327
1.21560e-05	-0.0009587183489193677
1.21563e-05	-0.0009487817775050594
1.21565e-05	-0.0009402741090232076
1.21568e-05	-0.0009317664405414137
1.21570e-05	-0.0009232587720595619
1.21573e-05	-0.0009147511035777103
1.21575e-05	-0.0009062434350959163
1.21578e-05	-0.0008977357666140646
1.21580e-05	-0.0008892280981322129
1.21583e-05	-0.000880720429650419
1.21585e-05	-0.0008738861952219347
1.21588e-05	-0.0008719640005720267
1.21590e-05	-0.0008700418059221319
1.21593e-05	-0.000868119611272224
1.21595e-05	-0.000866197416622316
1.21597e-05	-0.0008642752219724212
1.21600e-05	-0.0008623530273225132
1.21603e-05	-0.0008604308326726054
1.21605e-05	-0.0008585086380226974
1.21608e-05	-0.0008565864433728026
1.21610e-05	-0.0008571782653777853
1.21613e-05	-0.0008585898244380026
1.21615e-05	-0.0008600013834982102
1.21618e-05	-0.0008614129425584275
1.21620e-05	-0.0008628245016186446
1.21623e-05	-0.0008642360606788523
1.21625e-05	-0.0008656476197390695
1.21628e-05	-0.0008672338799416786
1.21630e-05	-0.0008693329413264634
1.21633e-05	-0.0008714320027112624
1.21635e-05	-0.0008735310640960613
1.21638e-05	-0.0008756301254808462
1.21640e-05	-0.0008777291868656452
1.21643e-05	-0.0008798282482504441
1.21645e-05	-0.0008819273096352289
1.21648e-05	-0.0008834900944300009
1.21650e-05	-0.0008848780172993784
1.21653e-05	-0.0008862659401687465
1.21655e-05	-0.0008860816621598083
1.21658e-05	-0.0008853847418356882
1.21660e-05	-0.0008846878215115728
1.21663e-05	-0.0008811159633540048
1.21665e-05	-0.0008766066837719761
1.21668e-05	-0.0008720974041899781
1.21670e-05	-0.0008675881246079496
1.21673e-05	-0.000863078845025921
1.21675e-05	-0.0008585695654439229
1.21678e-05	-0.0008499608831260084
1.21680e-05	-0.0008400155221823222
1.21682e-05	-0.0008300701612387033
1.21685e-05	-0.000820124800295017
1.21688e-05	-0.0008101794393513308
1.21690e-05	-0.0008002340784076445
1.21693e-05	-0.0007867086232099323
1.21695e-05	-0.0007720158185770806
1.21698e-05	-0.0007573230139442289
1.21700e-05	-0.0007426302093114768
1.21703e-05	-0.000727937404678625
1.21705e-05	-0.0007132446000457733
1.21708e-05	-0.0006978793900747104
1.21710e-05	-0.0006805404651767324
1.21713e-05	-0.0006632015402787544
1.21715e-05	-0.000645862615380894
1.21718e-05	-0.000628523690482916
1.21720e-05	-0.0006111847655849382
1.21723e-05	-0.0005938458406870777
1.21725e-05	-0.0005763963646114276
1.21728e-05	-0.0005589108414806829
1.21730e-05	-0.0005418804872721788
1.21733e-05	-0.0005249985484812763
1.21735e-05	-0.0005087857446581957
1.21738e-05	-0.0004927911234503664
1.21740e-05	-0.00047807107325646545
1.21743e-05	-0.00046376661819719537
1.21745e-05	-0.0004494621631380222
1.21748e-05	-0.00043721821126780627
1.21750e-05	-0.00042564612082458255
1.21753e-05	-0.00041407403038143723
1.21755e-05	-0.0004036145531336621
1.21758e-05	-0.00039351786197288887
1.21760e-05	-0.00038342117081218406
1.21763e-05	-0.0003741908786276896
1.21765e-05	-0.00036524309027802633
1.21767e-05	-0.00035629530192842374
1.21770e-05	-0.00034877271293589707
1.21773e-05	-0.00034171483396130476
1.21775e-05	-0.00033465695498671245
1.21778e-05	-0.00032759907601216795
1.21780e-05	-0.00032054119703757563
1.21783e-05	-0.0003134833180629833
1.21785e-05	-0.0003064254390884388
1.21788e-05	-0.0002993675601138465
1.21790e-05	-0.0002934264158897279
1.21793e-05	-0.0002878494016544517
1.21795e-05	-0.0002822723874191377
1.21798e-05	-0.0002766953731838237
1.21800e-05	-0.0002711183589485475
1.21803e-05	-0.00026554134471323354
1.21805e-05	-0.00025996433047791956
1.21808e-05	-0.0002543873162426434
1.21810e-05	-0.0002498002493943807
1.21813e-05	-0.00024553597140072365
1.21815e-05	-0.0002412716934070955
1.21818e-05	-0.00023700741541343845
1.21820e-05	-0.0002327431374197814
1.21823e-05	-0.00022847885942615324
1.21825e-05	-0.0002242145814324962
1.21828e-05	-0.00021995030343883917
1.21830e-05	-0.000215686025445211
1.21833e-05	-0.00021142174745155393
1.21835e-05	-0.00020754370704028383
1.21838e-05	-0.00020479939183711186
1.21840e-05	-0.0002020550766339213
1.21843e-05	-0.00019931076143073074
1.21845e-05	-0.00019656644622755877
1.21848e-05	-0.0001938221310243682
1.21850e-05	-0.00019107781582117765
1.21852e-05	-0.00018833350061800568
1.21855e-05	-0.00018558918541481512
1.21858e-05	-0.00018284487021162456
1.21860e-05	-0.000180100555008434
1.21863e-05	-0.00017797888965948784
1.21865e-05	-0.00017606024967929137
1.21868e-05	-0.0001741416096990949
1.21870e-05	-0.0001722229697189114
1.21873e-05	-0.00017030432973871493
1.21875e-05	-0.00016838568975851846
1.21878e-05	-0.000166467049778335
1.21880e-05	-0.00016454840979813852
1.21883e-05	-0.00016262976981794205
1.21885e-05	-0.0001607111298377586
1.21888e-05	-0.0001587924898575621
1.21890e-05	-0.00015687384987736564
1.21893e-05	-0.00015495520989718218
1.21895e-05	-0.0001530365699169857
1.21898e-05	-0.00015111792993678923
1.21900e-05	-0.00014927340813308576
1.21903e-05	-0.00014764644580289344
1.21905e-05	-0.0001460194834727011
1.21908e-05	-0.0001443925211425198
1.21910e-05	-0.00014276555881232749
1.21913e-05	-0.00014113859648213516
1.21915e-05	-0.00013951163415195386
1.21918e-05	-0.00013788467182176154
1.21920e-05	-0.0001362577094915692
1.21923e-05	-0.0001346307471613879
