Time(s)	Current(A)
1.45000e-05	-0.004388251462516786
1.45003e-05	-0.004375404883588213
1.45005e-05	-0.00436255830465964
1.45008e-05	-0.004346522890012482
1.45010e-05	-0.004328844804298023
1.45013e-05	-0.0043111667185834444
1.45015e-05	-0.004293488632868866
1.45018e-05	-0.004275810547154407
1.45020e-05	-0.004256561583063062
1.45023e-05	-0.004236503409376796
1.45025e-05	-0.004216445235690666
1.45028e-05	-0.0041963870620044
1.45030e-05	-0.004176328888318134
1.45033e-05	-0.004156095253983766
1.45035e-05	-0.004135771234268576
1.45038e-05	-0.004115672034073769
1.45040e-05	-0.004095932981227704
1.45043e-05	-0.004076634817402504
1.45045e-05	-0.004057893250226266
1.45048e-05	-0.004039834259779297
1.45050e-05	-0.00402258652689751
1.45053e-05	-0.004006278881436753
1.45055e-05	-0.003991039696892861
1.45058e-05	-0.0039770001035238775
1.45060e-05	-0.003964288512030853
1.45063e-05	-0.0039530077587504745
1.45065e-05	-0.003943716727099815
1.45068e-05	-0.003935194659880796
1.45070e-05	-0.003928704420206833
1.45073e-05	-0.003923260839758186
1.45075e-05	-0.003919899337013952
1.45078e-05	-0.003917610378956197
1.45080e-05	-0.003917969004983548
1.45083e-05	-0.0039196914860853025
1.45085e-05	-0.003921413967187046
1.45088e-05	-0.00392729484804966
1.45090e-05	-0.003935317853367218
1.45093e-05	-0.003943340858684776
1.45095e-05	-0.00395136386400228
1.45098e-05	-0.003959386869319837
1.45100e-05	-0.003968475499972886
1.45103e-05	-0.003983158308355749
1.45105e-05	-0.003997841116738712
1.45108e-05	-0.004012523925121674
1.45110e-05	-0.004027206733504538
1.45113e-05	-0.0040418895418875
1.45115e-05	-0.004059349655297924
1.45118e-05	-0.004078240447180867
1.45120e-05	-0.004097131239063938
1.45123e-05	-0.00411602203094701
1.45125e-05	-0.004134912822829953
1.45128e-05	-0.004153803614713025
1.45130e-05	-0.0041730951785093635
1.45133e-05	-0.004192593192710952
1.45135e-05	-0.004212091206912672
1.45138e-05	-0.004231589221114392
1.45140e-05	-0.004251087235315981
1.45143e-05	-0.004270585249517702
1.45145e-05	-0.004288567768087305
1.45148e-05	-0.004305769606481194
1.45150e-05	-0.0043229714448752
1.45153e-05	-0.004336230246490126
1.45155e-05	-0.004347457863996007
1.45158e-05	-0.0043586854815019635
1.45160e-05	-0.00436991309900792
1.45163e-05	-0.004381140716513801
1.45165e-05	-0.004392368334019758
1.45168e-05	-0.004403595951525715
1.45170e-05	-0.004414823569031596
1.45173e-05	-0.004420198464420572
1.45175e-05	-0.004422558435824649
1.45178e-05	-0.004424918407228726
1.45180e-05	-0.004427278378632788
1.45183e-05	-0.004429638350036866
1.45185e-05	-0.004431998321440944
1.45188e-05	-0.004434358292845005
1.45190e-05	-0.004436718264249083
1.45193e-05	-0.004434374609988591
1.45195e-05	-0.004429607968005655
1.45198e-05	-0.004424841326022687
1.45200e-05	-0.004420074684039718
1.45203e-05	-0.004415308042056781
1.45205e-05	-0.004410541400073813
1.45208e-05	-0.004405774758090844
1.45210e-05	-0.004398160870511765
1.45213e-05	-0.004389080275840141
1.45215e-05	-0.004379999681168517
1.45218e-05	-0.004370919086496955
1.45220e-05	-0.00436183849182533
1.45223e-05	-0.004352757897153706
1.45225e-05	-0.004343677302482144
1.45228e-05	-0.004333675432935924
1.45230e-05	-0.004323198985294074
1.45233e-05	-0.004312722537652296
1.45235e-05	-0.004302217097563758
1.45238e-05	-0.004291696722540472
1.45240e-05	-0.004281176347517258
1.45243e-05	-0.004271081638981559
1.45245e-05	-0.004261206204841195
1.45248e-05	-0.004251330770700897
1.45250e-05	-0.004242319270493091
1.45253e-05	-0.004233752810231349
1.45255e-05	-0.004225186349969665
1.45258e-05	-0.004217832962362413
1.45260e-05	-0.004211104467201674
1.45263e-05	-0.004204375972040936
1.45265e-05	-0.004200067803210496
1.45268e-05	-0.0041970064217313864
1.45270e-05	-0.0041939450402522765
1.45273e-05	-0.004190883658773187
1.45275e-05	-0.004187822277294077
1.45278e-05	-0.004184760895814968
1.45280e-05	-0.004181699514335879
1.45283e-05	-0.004179466413381686
1.45285e-05	-0.004181581509036813
1.45288e-05	-0.0041836966046919265
1.45290e-05	-0.004185811700347053
1.45293e-05	-0.004187926796002181
1.45295e-05	-0.004190041891657293
1.45298e-05	-0.004192156987312421
1.45300e-05	-0.0041942720829675475
1.45303e-05	-0.004199037295704582
1.45305e-05	-0.004205167668344328
1.45308e-05	-0.004211298040984073
1.45310e-05	-0.004217428413623777
1.45313e-05	-0.004223558786263523
1.45315e-05	-0.004229689158903268
1.45318e-05	-0.004235819531542972
1.45320e-05	-0.0042419499041827175
1.45323e-05	-0.004249127731405796
1.45325e-05	-0.004256845135920295
1.45328e-05	-0.004264562540434847
1.45330e-05	-0.004272279944949398
1.45333e-05	-0.004279997349463896
1.45335e-05	-0.004287714753978447
1.45338e-05	-0.004295432158492998
1.45340e-05	-0.004303149563007497
1.45343e-05	-0.0043103150609552525
1.45345e-05	-0.004317196254213121
1.45348e-05	-0.004324077447470989
1.45350e-05	-0.0043309586407288105
1.45353e-05	-0.0043367902664379725
1.45355e-05	-0.004342081226399685
1.45358e-05	-0.004347372186361362
1.45360e-05	-0.004352663146323074
1.45363e-05	-0.004358291019185408
1.45365e-05	-0.004364092446637372
1.45368e-05	-0.004369893874089375
1.45370e-05	-0.004375695301541378
1.45373e-05	-0.004381496728993343
1.45375e-05	-0.004387298156445346
1.45378e-05	-0.004393099583897349
1.45380e-05	-0.004398901011349313
1.45383e-05	-0.0044050695704047375
1.45385e-05	-0.004413165447978509
1.45388e-05	-0.004421261325552224
1.45390e-05	-0.004429357203125994
1.45393e-05	-0.0044374530806997655
1.45395e-05	-0.004445548958273481
1.45398e-05	-0.004453644835847252
1.45400e-05	-0.004461740713421022
1.45403e-05	-0.004469836590994738
1.45405e-05	-0.004479338759920346
1.45408e-05	-0.004489565354411484
1.45410e-05	-0.0044997919489025515
1.45413e-05	-0.004510018543393689
1.45415e-05	-0.004520245137884826
1.45418e-05	-0.004530471732375895
1.45420e-05	-0.004540698326867032
1.45423e-05	-0.004550924921358169
1.45425e-05	-0.004561151515849238
1.45428e-05	-0.004571051714809888
1.45430e-05	-0.004580783777013904
1.45433e-05	-0.004590515839217922
1.45435e-05	-0.004600247901421872
1.45438e-05	-0.0046099799636258884
1.45440e-05	-0.004619712025829905
1.45443e-05	-0.004629444088033855
1.45445e-05	-0.0046391761502378726
1.45448e-05	-0.004648908212441889
1.45450e-05	-0.004655738321967143
1.45453e-05	-0.004661073543034221
1.45455e-05	-0.004666408764101299
1.45458e-05	-0.004671743985168341
1.45460e-05	-0.004677079206235419
1.45463e-05	-0.004682414427302497
1.45465e-05	-0.004687749648369539
1.45468e-05	-0.0046930848694366175
1.45470e-05	-0.004698420090503696
1.45473e-05	-0.0047037553115707375
1.45475e-05	-0.004705148031144586
1.45478e-05	-0.00470450984235033
1.45480e-05	-0.004703871653556078
1.45483e-05	-0.004703233464761823
1.45485e-05	-0.004702595275967567
1.45488e-05	-0.004701957087173316
1.45490e-05	-0.00470131889837906
1.45493e-05	-0.004700680709584805
1.45495e-05	-0.004700042520790553
1.45498e-05	-0.0046994043319962975
1.45500e-05	-0.004695751580016331
1.45503e-05	-0.004690545930311206
1.45505e-05	-0.004685340280606045
1.45508e-05	-0.004680134630900885
1.45510e-05	-0.00467492898119576
1.45513e-05	-0.0046697233314906
1.45515e-05	-0.00466451768178544
1.45518e-05	-0.00465931203208028
1.45520e-05	-0.004654106382375155
1.45523e-05	-0.004648900732669994
1.45525e-05	-0.004643497149506966
1.45528e-05	-0.004637054481679289
1.45530e-05	-0.00463061181385157
1.45533e-05	-0.00462416914602385
1.45535e-05	-0.004617726478196174
1.45538e-05	-0.0046112838103684545
1.45540e-05	-0.004604841142540735
1.45543e-05	-0.004598398474713058
1.45545e-05	-0.004591955806885339
1.45548e-05	-0.004585513139057619
1.45550e-05	-0.004579070471229942
1.45553e-05	-0.0045733666570994995
1.45555e-05	-0.004568043450093641
1.45558e-05	-0.004562863617395681
1.45560e-05	-0.0045577576413803516
1.45563e-05	-0.004550897878458055
1.45565e-05	-0.0045431346839169716
1.45568e-05	-0.004535371489375835
1.45570e-05	-0.004525261750696391
1.45573e-05	-0.004513943232226737
1.45575e-05	-0.004502624713757006
1.45578e-05	-0.004489104920722801
1.45580e-05	-0.004474451180893042
1.45583e-05	-0.004459797441063184
1.45585e-05	-0.00444136696550583
1.45588e-05	-0.0044209909728171
1.45590e-05	-0.004400614980128233
1.45593e-05	-0.0043802389874393645
1.45595e-05	-0.004358983646879219
1.45598e-05	-0.004333112023157831
1.45600e-05	-0.0043072403994364435
1.45603e-05	-0.004281368775715055
1.45605e-05	-0.004255497151993843
1.45608e-05	-0.004226946612540047
1.45610e-05	-0.0041970160780779135
1.45613e-05	-0.004167085543615982
1.45615e-05	-0.004136128287243668
1.45618e-05	-0.004104642133641068
1.45620e-05	-0.004072761662274538
1.45623e-05	-0.00404040699098625
1.45625e-05	-0.004007709221335864
1.45628e-05	-0.003974829808168238
1.45630e-05	-0.003941961833294995
1.45633e-05	-0.003909299472822513
1.45635e-05	-0.0038770369866682483
1.45638e-05	-0.003845353649577999
1.45640e-05	-0.003814372651619562
1.45643e-05	-0.0037841739605695267
1.45645e-05	-0.0037548786816122746
1.45648e-05	-0.003726670690895484
1.45650e-05	-0.0036997541669418657
1.45653e-05	-0.0036743338470472536
1.45655e-05	-0.003650614389347608
1.45658e-05	-0.0036287913854363323
1.45660e-05	-0.00360901134574964
1.45663e-05	-0.003591345194476733
1.45665e-05	-0.003575826407874512
1.45668e-05	-0.0035624920713229423
1.45670e-05	-0.0035513844761882016
1.45673e-05	-0.0035425463841483444
1.45675e-05	-0.0035360204823714405
1.45678e-05	-0.0035326198044735076
1.45680e-05	-0.003530421533951457
1.45683e-05	-0.0035312483383886997
1.45685e-05	-0.003533633455502298
1.45688e-05	-0.003540567279190417
1.45690e-05	-0.003549844286836462
1.45693e-05	-0.0035591212944825067
1.45695e-05	-0.0035683983021285517
1.45698e-05	-0.0035790038936696434
1.45700e-05	-0.003596584107729659
1.45703e-05	-0.003614164321789674
1.45705e-05	-0.0036317445358495697
1.45708e-05	-0.003649324749909585
1.45710e-05	-0.0036703790206023003
1.45713e-05	-0.003693222888763387
1.45715e-05	-0.003716066756924628
1.45718e-05	-0.0037408077350769837
1.45720e-05	-0.003766525975144172
1.45723e-05	-0.003792244215211535
1.45725e-05	-0.0038189499912849004
1.45728e-05	-0.0038461644786784133
1.45730e-05	-0.0038733789660721106
1.45733e-05	-0.0039007002030397734
1.45735e-05	-0.00392807643012041
1.45738e-05	-0.003955032215501086
1.45740e-05	-0.003981771417940871
1.45743e-05	-0.004007615184054919
1.45745e-05	-0.004032997682334133
1.45748e-05	-0.004055742772913042
1.45750e-05	-0.004077129250595222
1.45753e-05	-0.004098515728277548
1.45755e-05	-0.004119902205959873
1.45758e-05	-0.004140388274340006
1.45760e-05	-0.004156147494065932
1.45763e-05	-0.004171906713791859
1.45765e-05	-0.004187665933517679
1.45768e-05	-0.0042034251532436055
1.45770e-05	-0.004217710163402075
1.45773e-05	-0.004227133500143165
1.45775e-05	-0.004234443631287306
1.45778e-05	-0.004241753762431449
1.45780e-05	-0.004249063893575591
1.45783e-05	-0.004256374024719684
1.45785e-05	-0.004263684155863826
1.45788e-05	-0.004270994287007969
1.45790e-05	-0.004278304418152061
1.45793e-05	-0.004285614549296203
1.45795e-05	-0.004292924680440346
1.45798e-05	-0.0043002348115844385
1.45800e-05	-0.004307544942728581
1.45803e-05	-0.004314855073872723
1.45805e-05	-0.004322165205016816
1.45808e-05	-0.004329475336160958
1.45810e-05	-0.004335799904807826
1.45813e-05	-0.004336950598912753
1.45815e-05	-0.004338101293017686
1.45818e-05	-0.0043392519871226195
1.45820e-05	-0.004340402681227545
1.45823e-05	-0.004341553375332478
1.45825e-05	-0.004342704069437412
1.45828e-05	-0.004343854763542337
1.45830e-05	-0.0043450054576472715
1.45833e-05	-0.004346156151752205
1.45835e-05	-0.00434730684585713
1.45838e-05	-0.004348457539962064
1.45840e-05	-0.004349608234066997
1.45843e-05	-0.004350758928171923
1.45845e-05	-0.004351909622276856
1.45848e-05	-0.004353060316381789
1.45850e-05	-0.004353544791917536
1.45853e-05	-0.0043536860770014485
1.45855e-05	-0.00435382736208536
1.45858e-05	-0.004353968647169271
1.45860e-05	-0.004354109932253184
1.45863e-05	-0.004354251217337095
1.45865e-05	-0.004354392502421008
1.45868e-05	-0.004354533787504919
1.45870e-05	-0.004354675072588831
1.45873e-05	-0.004354816357672743
1.45875e-05	-0.004354957642756654
1.45878e-05	-0.0043550989278405665
1.45880e-05	-0.004355240212924478
1.45883e-05	-0.004355569980156532
1.45885e-05	-0.004356889215830191
1.45888e-05	-0.004358208451503848
1.45890e-05	-0.004359527687177497
1.45893e-05	-0.004360846922851155
1.45895e-05	-0.004362166158524813
1.45898e-05	-0.0043634853941984615
1.45900e-05	-0.00436480462987212
1.45903e-05	-0.004366123865545777
1.45905e-05	-0.0043674431012194264
1.45908e-05	-0.004368762336893084
1.45910e-05	-0.004370081572566742
1.45913e-05	-0.0043714008082403905
1.45915e-05	-0.004372720043914049
1.45918e-05	-0.004374432725415561
1.45920e-05	-0.004376348083422503
1.45923e-05	-0.004378263441429457
1.45925e-05	-0.004380178799436411
1.45928e-05	-0.004382094157443352
1.45930e-05	-0.004384009515450307
1.45933e-05	-0.004385924873457261
1.45935e-05	-0.004387786932134651
1.45938e-05	-0.004389369187100751
1.45940e-05	-0.004390951442066852
1.45943e-05	-0.004392533697032941
1.45945e-05	-0.004394115951999041
1.45948e-05	-0.004395698206965141
1.45950e-05	-0.004397280461931241
1.45953e-05	-0.0043988627168973305
1.45955e-05	-0.004399868544653526
1.45958e-05	-0.004400577436353241
1.45960e-05	-0.004401286328052951
1.45963e-05	-0.004400189492314791
1.45965e-05	-0.004398162468731136
1.45968e-05	-0.004396135445147495
1.45970e-05	-0.00439191093753216
1.45973e-05	-0.004386554435744247
1.45975e-05	-0.0043811979339563704
1.45978e-05	-0.00437258258989253
1.45980e-05	-0.004362288512143928
1.45983e-05	-0.004351994434395395
1.45985e-05	-0.004341700356646793
1.45988e-05	-0.0043314062788981905
1.45990e-05	-0.004320080240691808
1.45993e-05	-0.004303336754113994
1.45995e-05	-0.00428659326753618
1.45998e-05	-0.004269849780958479
1.46000e-05	-0.004253106294380664
1.46003e-05	-0.00423636280780285
1.46005e-05	-0.0042164061273843225
1.46008e-05	-0.004194794228246826
1.46010e-05	-0.0041731823291093284
1.46013e-05	-0.004151570429971978
1.46015e-05	-0.004129958530834481
1.46018e-05	-0.004106752395449639
1.46020e-05	-0.004082725018082782
1.46023e-05	-0.004058697640715763
1.46025e-05	-0.004034670263348744
1.46028e-05	-0.004010642885981887
1.46030e-05	-0.003986357926605523
1.46033e-05	-0.00396194027851361
1.46035e-05	-0.0039379068059516836
1.46038e-05	-0.003914071234469067
1.46040e-05	-0.003890714345696646
1.46043e-05	-0.0038679934419860395
1.46045e-05	-0.003845942132296412
1.46048e-05	-0.003826225408531384
1.46050e-05	-0.0038075868498456044
1.46053e-05	-0.003788948291159951
1.46055e-05	-0.0037703097324741715
1.46058e-05	-0.003751671173788392
1.46060e-05	-0.0037354949753562274
1.46063e-05	-0.003720587217294143
1.46065e-05	-0.0037056794592320585
1.46068e-05	-0.00369162781633371
1.46070e-05	-0.003678017185685029
1.46073e-05	-0.0036644065550363483
1.46075e-05	-0.00365079592438776
1.46078e-05	-0.0036371852937390793
1.46080e-05	-0.0036235746630903986
1.46083e-05	-0.0036124510731670094
1.46085e-05	-0.003601954452547707
1.46088e-05	-0.003591457831928405
1.46090e-05	-0.003580961211309174
1.46093e-05	-0.0035704645906898713
1.46095e-05	-0.0035599679700705693
1.46098e-05	-0.0035461910729903436
1.46100e-05	-0.02401540064047617
1.46103e-05	-0.03336422078585426
1.46105e-05	-0.024321759747451474
1.46108e-05	-0.01801850604714508
1.46110e-05	-0.009645304324005831
1.46113e-05	0.006481782160902292
1.46115e-05	0.007040501247325857
1.46118e-05	0.002373324483050737
1.46120e-05	-0.005971582093249286
1.46123e-05	-0.012509310996830277
1.46125e-05	-0.013265193557355318
1.46128e-05	-0.009311365876217857
1.46130e-05	-0.0026791772018507033
1.46133e-05	0.0024848171615247275
1.46135e-05	0.0037888395303624454
1.46138e-05	0.0012792244056385143
1.46140e-05	-0.004077459187791941
1.46143e-05	-0.008265691130366537
1.46145e-05	-0.008806858672221545
1.46148e-05	-0.006380456191213486
1.46150e-05	-0.0022644449713828414
1.46153e-05	0.0009400289612223824
1.46155e-05	0.0017323127326943396
1.46158e-05	0.00013976735533001482
1.46160e-05	-0.003233521237455725
1.46163e-05	-0.0058735276193412535
1.46165e-05	-0.006228680789831987
1.46168e-05	-0.004725241854890167
1.46170e-05	-0.002164078853277456
1.46173e-05	-0.00017469802833415234
1.46175e-05	0.00030292204679942914
1.46178e-05	-0.0007139652932549709
1.46180e-05	-0.0028468346783046107
1.46183e-05	-0.004520844959175699
1.46185e-05	-0.004764136437206338
1.46188e-05	-0.003843783252709655
1.46190e-05	-0.0022614698120115182
1.46193e-05	-0.0010378636447860975
1.46195e-05	-0.0007616361511214244
1.46198e-05	-0.001421821026025108
1.46200e-05	-0.0027811611429613275
1.46203e-05	-0.0038530832055473714
1.46205e-05	-0.004028793228835825
1.46208e-05	-0.00347558253828058
1.46210e-05	-0.002507679828308468
1.46213e-05	-0.0017643605853032884
1.46215e-05	-0.0016142516990762068
1.46218e-05	-0.0020503511225343682
1.46220e-05	-0.0029239155303488413
1.46223e-05	-0.003616866093983832
1.46225e-05	-0.003747809452458853
1.46228e-05	-0.003421504100957227
1.46230e-05	-0.0028347357730724313
1.46233e-05	-0.002387871711762139
1.46235e-05	-0.0023117164911817248
1.46238e-05	-0.0026017705789400268
1.46240e-05	-0.0031647525554267474
1.46243e-05	-0.003613411636896993
1.46245e-05	-0.0037087848891610943
1.46248e-05	-0.0035164423820350727
1.46250e-05	-0.0031595911591705203
1.46253e-05	-0.002888944142362122
1.46255e-05	-0.0028489824670170265
1.46258e-05	-0.003036864830541081
1.46260e-05	-0.003394435262258646
1.46263e-05	-0.003679667081138174
1.46265e-05	-0.0037432866457482138
1.46268e-05	-0.0036264950337103704
1.46270e-05	-0.0034064922145864217
1.46273e-05	-0.003240334108159281
1.46275e-05	-0.0032185215172995025
1.46278e-05	-0.0033392683982719986
1.46280e-05	-0.003566141921172784
1.46283e-05	-0.003747541057333191
1.46285e-05	-0.0037899766042130316
1.46288e-05	-0.0037192752055139984
1.46290e-05	-0.0035838098431431797
1.46293e-05	-0.003481968514946875
1.46295e-05	-0.0034704420145159932
1.46298e-05	-0.0035481100986633055
1.46300e-05	-0.003692150981088396
1.46303e-05	-0.0038076071089477
1.46305e-05	-0.0038359288221785437
1.46308e-05	-0.003793307984961146
1.46310e-05	-0.003710057099585989
1.46313e-05	-0.0036478137069187845
1.46315e-05	-0.0036420918001470516
1.46318e-05	-0.003692191247693888
1.46320e-05	-0.0037838185276131034
1.46323e-05	-0.003857497774112105
1.46325e-05	-0.0038765634194783322
1.46328e-05	-0.003851168992087054
1.46330e-05	-0.0038003117097525703
1.46333e-05	-0.003762608186824869
1.46335e-05	-0.0037603087015912777
1.46338e-05	-0.003792977712084393
1.46340e-05	-0.003851665304973248
1.46343e-05	-0.0038991215104434694
1.46345e-05	-0.003912387409092662
1.46348e-05	-0.0038978323857664266
1.46350e-05	-0.003867364272705154
1.46353e-05	-0.003845179191189936
1.46355e-05	-0.003845219444436877
1.46358e-05	-0.0038671875727724803
1.46360e-05	-0.003905349660123142
1.46363e-05	-0.003936166077020996
1.46365e-05	-0.003945125577135113
1.46368e-05	-0.003936204728317333
1.46370e-05	-0.003916886852626509
1.46373e-05	-0.0039023529738393373
1.46375e-05	-0.003901360423881508
1.46378e-05	-0.003913746224908934
1.46380e-05	-0.003935941728262358
1.46383e-05	-0.003953225854788444
1.46385e-05	-0.003956534281634719
1.46388e-05	-0.003948383357916275
1.46390e-05	-0.003933485708965289
1.46393e-05	-0.003921375423341454
1.46395e-05	-0.003917561861064029
1.46398e-05	-0.003921966307285845
1.46400e-05	-0.003932377255313054
1.46403e-05	-0.003939597599287503
1.46405e-05	-0.003937973925303974
1.46408e-05	-0.003929107891773044
1.46410e-05	-0.003917438932201397
1.46413e-05	-0.003905418468146117
1.46415e-05	-0.0038983792502723285
1.46418e-05	-0.0038973638557318955
1.46420e-05	-0.0038986308081371676
1.46423e-05	-0.003900165976986094
1.46425e-05	-0.0038965017924688277
1.46428e-05	-0.0038869468647843926
1.46430e-05	-0.0038757239620990265
1.46433e-05	-0.0038658548892510094
1.46435e-05	-0.0038591041789457483
1.46438e-05	-0.0038565329091935084
1.46440e-05	-0.003855594485284258
1.46443e-05	-0.0038536194984884363
1.46445e-05	-0.003848946570667055
1.46448e-05	-0.003841573822961802
1.46450e-05	-0.0038333425612166786
1.46453e-05	-0.0038263127348509133
1.46455e-05	-0.0038216956846314916
1.46458e-05	-0.0038204023534560774
