Time(s)	Current(A)
1.38000e-05	-0.00019749501139882788
1.38003e-05	-0.00022864445024347736
1.38005e-05	-0.0002583471248993201
1.38008e-05	-0.0002863710491443881
1.38010e-05	-0.00031248429455360267
1.38013e-05	-0.0003365246334153599
1.38015e-05	-0.00035829388485589665
1.38018e-05	-0.00037865694735950633
1.38020e-05	-0.0003978670208207014
1.38023e-05	-0.00041556485639462795
1.38025e-05	-0.00043195851684188556
1.38028e-05	-0.0004466416466898666
1.38030e-05	-0.0004598469036085784
1.38033e-05	-0.0004711138112855565
1.38035e-05	-0.0004810858796523127
1.38038e-05	-0.0004893596620937052
1.38040e-05	-0.000496630099246832
1.38043e-05	-0.0005025845683352969
1.38045e-05	-0.0005072223872629817
1.38048e-05	-0.0005101333135801438
1.38050e-05	-0.0005130442398973256
1.38053e-05	-0.0005144273742625108
1.38055e-05	-0.0005138066865716382
1.38058e-05	-0.0005131859988807614
1.38060e-05	-0.0005114971376915826
1.38063e-05	-0.0005084072810247733
1.38065e-05	-0.0005053174243579431
1.38068e-05	-0.0005012615698646277
1.38070e-05	-0.0004959387315073246
1.38073e-05	-0.0004906158931499852
1.38075e-05	-0.0004845969415848831
1.38078e-05	-0.00047766498154546837
1.38080e-05	-0.00047073302150600675
1.38083e-05	-0.0004634617111565641
1.38085e-05	-0.0004557453155748544
1.38088e-05	-0.0004480289199930924
1.38090e-05	-0.0004401486261729713
1.38093e-05	-0.00043205336662760035
1.38095e-05	-0.0004239581070822843
1.38098e-05	-0.00041606237673943774
1.38100e-05	-0.0004084283449978683
1.38103e-05	-0.0004007943132563506
1.38105e-05	-0.0003936483040162216
1.38108e-05	-0.00038714237554826245
1.38110e-05	-0.00038063644708034736
1.38113e-05	-0.0003747674189492569
1.38115e-05	-0.00036973373684878204
1.38118e-05	-0.0003647000547483413
1.38120e-05	-0.0003602665802262205
1.38123e-05	-0.00035662032623000225
1.38125e-05	-0.0003529740722338087
1.38128e-05	-0.0003499805153882342
1.38130e-05	-0.0003478430233654467
1.38133e-05	-0.00034570553134267366
1.38135e-05	-0.00034420656382434805
1.38138e-05	-0.0003435450725631708
1.38140e-05	-0.000342883581301998
1.38143e-05	-0.00034321730557256675
1.38145e-05	-0.00034485633507846356
1.38148e-05	-0.0003464953645843493
1.38150e-05	-0.00034813439409024617
1.38153e-05	-0.00034977342359614297
1.38155e-05	-0.0003514124531020287
1.38158e-05	-0.0003530514826079256
1.38160e-05	-0.0003546905121138224
1.38163e-05	-0.0003573476586493695
1.38165e-05	-0.00036134014757727926
1.38168e-05	-0.00036533263650518906
1.38170e-05	-0.00036932512543307174
1.38173e-05	-0.0003733176143609815
1.38175e-05	-0.0003773101032888913
1.38178e-05	-0.000381302592216801
1.38180e-05	-0.00038529508114468376
1.38183e-05	-0.000389558908363252
1.38185e-05	-0.00039417861757931025
1.38188e-05	-0.00039879832679533717
1.38190e-05	-0.0004034180360113954
1.38193e-05	-0.0004080377452274537
1.38195e-05	-0.00041265745444348065
1.38198e-05	-0.0004172771636595389
1.38200e-05	-0.00042189687287559716
1.38203e-05	-0.0004253826900176491
1.38205e-05	-0.0004287865653735683
1.38208e-05	-0.0004321904407294875
1.38210e-05	-0.00043559431608538365
1.38213e-05	-0.0004389981914413028
1.38215e-05	-0.00044240206679722205
1.38218e-05	-0.0004458059421531182
1.38220e-05	-0.0004479359138990598
1.38223e-05	-0.00044839505857414855
1.38225e-05	-0.00044885420324923417
1.38228e-05	-0.00044931334792432294
1.38230e-05	-0.0004497724925994117
1.38233e-05	-0.0004502316372744974
1.38235e-05	-0.00045069078194958615
1.38238e-05	-0.0004511499266246749
1.38240e-05	-0.00045160907129976053
1.38243e-05	-0.0004520682159748493
1.38245e-05	-0.00045252736064993807
1.38248e-05	-0.0004516424614048007
1.38250e-05	-0.00044899474042899603
1.38253e-05	-0.00044634701945319143
1.38255e-05	-0.0004436992984774048
1.38258e-05	-0.0004410515775016002
1.38260e-05	-0.00043840385652579557
1.38263e-05	-0.00043575613554999097
1.38265e-05	-0.00043310841457420426
1.38268e-05	-0.00043046069359839966
1.38270e-05	-0.00042781297262259506
1.38273e-05	-0.0004251652516468084
1.38275e-05	-0.0004219798207788522
1.38278e-05	-0.0004180891401281733
1.38280e-05	-0.00041419845947752065
1.38283e-05	-0.0004103077788268417
1.38285e-05	-0.00040641709817616274
1.38288e-05	-0.00040252641752551015
1.38290e-05	-0.00039863573687483117
1.38293e-05	-0.00039496212830760386
1.38295e-05	-0.0003913042066604055
1.38298e-05	-0.0003876462850131824
1.38300e-05	-0.0003839883633659592
1.38303e-05	-0.00038033044171876087
1.38305e-05	-0.00037667252007153774
1.38308e-05	-0.0003733124094607894
1.38310e-05	-0.00037034290198356326
1.38313e-05	-0.0003673459536277377
1.38315e-05	-0.000364313014352011
1.38318e-05	-0.00036042705342682646
1.38320e-05	-0.0003554222859819104
1.38323e-05	-0.00034940944553642656
1.38325e-05	-0.00034207443625029613
1.38328e-05	-0.00033388685227550867
1.38330e-05	-0.00032458104800612035
1.38333e-05	-0.0003144240791782313
1.38335e-05	-0.00030315073955464595
1.38338e-05	-0.0002909674002150776
1.38340e-05	-0.00027692949940513956
1.38343e-05	-0.0002614196293667229
1.38345e-05	-0.00024456765860089523
1.38348e-05	-0.00022650384089004794
1.38350e-05	-0.00020735839740075628
1.38353e-05	-0.0001872306853697724
1.38355e-05	-0.00016610972416355378
1.38358e-05	-0.00014388742034387097
1.38360e-05	-0.00012052351778387639
1.38363e-05	-9.611813516399079e-05
1.38365e-05	-7.082647817259938e-05
1.38368e-05	-4.480398220226204e-05
1.38370e-05	-1.8206064017143313e-05
1.38373e-05	8.831209982549273e-06
1.38375e-05	3.624088711952969e-05
1.38378e-05	6.401685194691521e-05
1.38380e-05	9.211049339281427e-05
1.38383e-05	0.00012038527894344889
1.38385e-05	0.0001486701779311718
1.38388e-05	0.00017679402030530806
1.38390e-05	0.0002045856633635252
1.38393e-05	0.0002318861114008755
1.38395e-05	0.0002585796557333678
1.38398e-05	0.00028458870916605233
1.38400e-05	0.0003098090588264173
1.38403e-05	0.0003340814160680982
1.38405e-05	0.0003572249336119031
1.38408e-05	0.0003790586807895892
1.38410e-05	0.0003994017364220944
1.38413e-05	0.0004180548963588905
1.38415e-05	0.0004347639247716553
1.38418e-05	0.00044925824039059964
1.38420e-05	0.00046136700559534826
1.38423e-05	0.0004710399430211469
1.38425e-05	0.00047826804389261373
1.38428e-05	0.0004830424819033136
1.38430e-05	0.0004853544716193209
1.38433e-05	0.0004851837246830712
1.38435e-05	0.0004824755575278467
1.38438e-05	0.0004771650140520515
1.38440e-05	0.00046924962323852023
1.38443e-05	0.0004588024686627577
1.38445e-05	0.0004459224546297185
1.38448e-05	0.00043070861280696476
1.38450e-05	0.0004132599505028998
1.38453e-05	0.0003936683189072656
1.38455e-05	0.00037200400287741277
1.38458e-05	0.00034833086156561095
1.38460e-05	0.00032275187178109575
1.38463e-05	0.000295417336908595
1.38465e-05	0.0002664937347814601
1.38468e-05	0.000236147573157912
1.38470e-05	0.00020454541088755997
1.38473e-05	0.00017184925815667067
1.38475e-05	0.00013820761502487326
1.38478e-05	0.0001037649521209771
1.38480e-05	6.869023837843825e-05
1.38483e-05	3.3182062814726275e-05
1.38485e-05	-2.5287065722848662e-06
1.38488e-05	-3.827073876818259e-05
1.38490e-05	-7.385602081246783e-05
1.38493e-05	-0.00010901366048009566
1.38495e-05	-0.0001435753184519238
1.38498e-05	-0.00017734612452403363
1.38500e-05	-0.00021011588903700783
1.38503e-05	-0.0002416558940818503
1.38505e-05	-0.00027173107194332683
1.38508e-05	-0.0003001063659453537
1.38510e-05	-0.00032654674573261996
1.38513e-05	-0.0003508444357553175
1.38515e-05	-0.00037290170734324775
1.38518e-05	-0.00039275639807526835
1.38520e-05	-0.0004104585333785282
1.38523e-05	-0.0004259793368730905
1.38525e-05	-0.00043925175643475824
1.38528e-05	-0.000450208616499835
1.38530e-05	-0.00045878274935071063
1.38533e-05	-0.0004649240394789566
1.38535e-05	-0.00046816819370838595
1.38538e-05	-0.0004694347050983759
1.38540e-05	-0.0004688290296554173
1.38543e-05	-0.0004657678305603275
1.38545e-05	-0.000460909382970991
1.38548e-05	-0.000453693699389659
1.38550e-05	-0.0004447518026144138
1.38553e-05	-0.0004335458383583358
1.38555e-05	-0.00042078258063635434
1.38558e-05	-0.000405976807246929
1.38560e-05	-0.00038985574136742463
1.38563e-05	-0.0003720095635696601
1.38565e-05	-0.0003530334939048443
1.38568e-05	-0.0003325754801542316
1.38570e-05	-0.00031117050113645714
1.38573e-05	-0.00028852350098585556
1.38575e-05	-0.00026531100092186876
1.38578e-05	-0.00024108229271689444
1.38580e-05	-0.0002162889421519066
1.38583e-05	-0.00019108537169056363
1.38585e-05	-0.00016561656598738938
1.38588e-05	-0.00014002747037492389
1.38590e-05	-0.0001144630156332705
1.38593e-05	-8.90723106098872e-05
1.38595e-05	-6.40213948469546e-05
1.38598e-05	-3.9497168490985275e-05
1.38600e-05	-1.5688368935555093e-05
1.38603e-05	7.2284148051545915e-06
1.38605e-05	2.9082508872804362e-05
1.38608e-05	4.970328425969337e-05
1.38610e-05	6.892012990238346e-05
1.38613e-05	8.653759657014203e-05
1.38615e-05	0.00010228151501476793
1.38618e-05	0.00011583901337220493
1.38620e-05	0.0001270086798749604
1.38623e-05	0.00013573767625446977
1.38625e-05	0.00014202565490797005
1.38628e-05	0.0001458725183057663
1.38630e-05	0.00014727818739310224
1.38633e-05	0.00014622701306634376
1.38635e-05	0.00014265405949010184
1.38638e-05	0.00013647015283699789
1.38640e-05	0.00012765594201457375
1.38643e-05	0.00011628516462257938
1.38645e-05	0.00010246441761462806
1.38648e-05	8.630045600774269e-05
1.38650e-05	6.790003618744597e-05
1.38653e-05	4.736016137914832e-05
1.38655e-05	2.474695821775114e-05
1.38658e-05	1.1137314358283997e-07
1.38660e-05	-2.6451912916831968e-05
1.38663e-05	-5.478992501394579e-05
1.38665e-05	-8.472910019334924e-05
1.38668e-05	-0.00011609579566281517
1.38670e-05	-0.0001487163801365176
1.38673e-05	-0.00018260991576219096
1.38675e-05	-0.00021731321405943604
1.38678e-05	-0.00025270892712009584
1.38680e-05	-0.0002890127978490206
1.38683e-05	-0.0003253166685781913
1.38685e-05	-0.00036174165310930975
1.38688e-05	-0.00039832548813555904
1.38690e-05	-0.0004349093231615604
1.38693e-05	-0.0004709840068188418
1.38695e-05	-0.000506390897493336
1.38698e-05	-0.0005409849552244438
1.38700e-05	-0.0005745129171565665
1.38703e-05	-0.000606828771604855
1.38705e-05	-0.0006375548495710389
1.38708e-05	-0.000666650880175715
1.38710e-05	-0.0006936089725243651
1.38713e-05	-0.0007185094879096855
1.38715e-05	-0.0007407113255710511
1.38718e-05	-0.0007629131632324169
1.38720e-05	-0.0007835628338383785
1.38723e-05	-0.0008021767124759307
1.38725e-05	-0.000820790591113483
1.38728e-05	-0.0008375604561414011
1.38730e-05	-0.0008519117489651529
1.38733e-05	-0.0008662630417889047
1.38735e-05	-0.0008789991565684864
1.38738e-05	-0.0008896168353982656
1.38740e-05	-0.0009002345142280449
1.38743e-05	-0.0009085778404491633
1.38745e-05	-0.0009139381702467728
1.38748e-05	-0.0009192985000443825
1.38750e-05	-0.0009246588298419556
1.38753e-05	-0.0009300191596395652
1.38755e-05	-0.0009353794894371748
1.38758e-05	-0.000940739819234748
1.38760e-05	-0.0009461001490323575
1.38763e-05	-0.0009514604788299671
1.38765e-05	-0.0009516228802728504
1.38768e-05	-0.0009514096484910239
1.38770e-05	-0.0009511964167091972
1.38773e-05	-0.0009509831849273706
1.38775e-05	-0.0009507699531455453
1.38778e-05	-0.0009505567213637187
1.38780e-05	-0.000950343489581892
1.38783e-05	-0.0009501302578000669
1.38785e-05	-0.0009490331476943739
1.38788e-05	-0.0009467767600566528
1.38790e-05	-0.0009445203724189468
1.38793e-05	-0.0009422639847812257
1.38795e-05	-0.0009400075971435045
1.38798e-05	-0.0009375188950143282
1.38800e-05	-0.0009350134044579689
1.38803e-05	-0.0009325079139016096
1.38805e-05	-0.0009300024233452672
1.38808e-05	-0.0009276662365255351
1.38810e-05	-0.0009255521051773275
1.38813e-05	-0.0009232639486750014
1.38815e-05	-0.0009207475441822208
1.38818e-05	-0.0009169627277282225
1.38820e-05	-0.0009115142869399457
1.38823e-05	-0.0009042608755175366
1.38825e-05	-0.0008946400998936686
1.38828e-05	-0.0008850193242698659
1.38830e-05	-0.0008734952843946343
1.38833e-05	-0.0008594749603308365
1.38835e-05	-0.0008454546362671337
1.38838e-05	-0.0008293185086214582
1.38840e-05	-0.0008104073343557904
1.38843e-05	-0.0007893868783597905
1.38845e-05	-0.0007655999296764293
1.38848e-05	-0.0007418129809930681
1.38850e-05	-0.0007163396972582095
1.38853e-05	-0.0006886546494324111
1.38855e-05	-0.0006596459805367681
1.38858e-05	-0.0006289012761188838
1.38860e-05	-0.000597112068244002
1.38863e-05	-0.0005633613353233621
1.38865e-05	-0.0005283356192462494
1.38868e-05	-0.000492248729341894
1.38870e-05	-0.00045531449145217004
1.38873e-05	-0.0004177215001645233
1.38875e-05	-0.0003795685246925713
1.38878e-05	-0.00034087598413207534
1.38880e-05	-0.00030172092280279273
1.38883e-05	-0.00026229571649836146
1.38885e-05	-0.00022283783915531032
1.38888e-05	-0.00018358493810150054
1.38890e-05	-0.00014477464177911736
1.38893e-05	-0.0001066287591441138
1.38895e-05	-6.931283870849259e-05
1.38898e-05	-3.2943343483934125e-05
1.38900e-05	2.327814175401265e-06
1.38903e-05	3.627649432699367e-05
1.38905e-05	6.865031692892553e-05
1.38908e-05	9.919681397897361e-05
1.38910e-05	0.00012766354770129526
1.38913e-05	0.00015380376224953892
1.38915e-05	0.00017740500050568618
1.38918e-05	0.00019832791109137345
1.38920e-05	0.00021650049775824375
1.38923e-05	0.00023187497558133305
1.38925e-05	0.0002444049385028468
1.38928e-05	0.00025404398676031443
1.38930e-05	0.0002607457477337499
1.38933e-05	0.00026446741778380695
1.38935e-05	0.0002651876878064357
1.38938e-05	0.00026293105141617437
1.38940e-05	0.0002577641765222618
1.38943e-05	0.00024976893010535725
1.38945e-05	0.0002390280291746248
1.38948e-05	0.00022562415771230798
1.38950e-05	0.00020964003747210238
1.38953e-05	0.00019116063678090842
1.38955e-05	0.000170284368935476
1.38958e-05	0.00014713834609855292
1.38960e-05	0.00012187608075331413
1.38963e-05	9.466058833730508e-05
1.38965e-05	6.565540936384186e-05
1.38968e-05	3.502407157358829e-05
1.38970e-05	2.930111453636072e-06
1.38973e-05	-3.0461545082932992e-05
1.38975e-05	-6.497756248777464e-05
1.38978e-05	-0.00010055729843494366
1.38980e-05	-0.00013677230425579359
1.38983e-05	-0.00017333191532359124
1.38985e-05	-0.00021034350389797837
1.38988e-05	-0.0002473550924723655
1.38990e-05	-0.0002841706729725087
1.38993e-05	-0.0003207291731143454
1.38995e-05	-0.00035668448384117065
1.38998e-05	-0.00039184866312133267
1.39000e-05	-0.0004259934505906692
1.39003e-05	-0.0004588012236862248
1.39005e-05	-0.000490164664804456
1.39008e-05	-0.0005196337483334217
1.39010e-05	-0.0005472381992988343
1.39013e-05	-0.0005723970346408178
1.39015e-05	-0.0005953864101147699
1.39018e-05	-0.0006155303644309241
1.39020e-05	-0.0006333995649731533
1.39023e-05	-0.000648285242929198
1.39025e-05	-0.0006608130198015652
1.39028e-05	-0.0006702482197011962
1.39030e-05	-0.0006772432399479818
1.39033e-05	-0.0006810377682591131
1.39035e-05	-0.0006823821830549908
1.39038e-05	-0.0006805130768554048
1.39040e-05	-0.0006763089212328023
1.39043e-05	-0.0006690421604290186
1.39045e-05	-0.0006595692763763478
1.39048e-05	-0.000647202884192299
1.39050e-05	-0.0006327598489130063
1.39053e-05	-0.000615593129141201
1.39055e-05	-0.0005965245216740458
1.39058e-05	-0.0005749614354809909
1.39060e-05	-0.0005521289300916065
1.39063e-05	-0.0005268726782558258
1.39065e-05	-0.0004999276656416888
1.39068e-05	-0.000471444690963802
1.39070e-05	-0.00044157447903677517
1.39073e-05	-0.00041047004139251937
1.39075e-05	-0.00037829585660063234
1.39078e-05	-0.000345236732122668
1.39080e-05	-0.0003114914109121164
1.39083e-05	-0.0002772601513115312
1.39085e-05	-0.00024274190081022577
1.39088e-05	-0.00020813556716540115
1.39090e-05	-0.00017364001685080116
1.39093e-05	-0.00013945554535516657
1.39095e-05	-0.00010578961986744146
1.39098e-05	-7.286239525265974e-05
1.39100e-05	-4.090276152309198e-05
1.39103e-05	-1.0140553192365139e-05
1.39105e-05	1.9195262170264964e-05
1.39108e-05	4.687574442345321e-05
1.39110e-05	7.267197972936022e-05
1.39113e-05	9.63720764713355e-05
1.39115e-05	0.00011783747203792236
1.39118e-05	0.00013703241425213253
1.39120e-05	0.00015395488611174435
1.39123e-05	0.0001685700633097715
1.39125e-05	0.0001808229620046365
1.39128e-05	0.00019065851971047788
1.39130e-05	0.0001980216763138034
1.39133e-05	0.00020286806057962805
1.39135e-05	0.00020519923636734593
1.39138e-05	0.0002050811630807573
1.39140e-05	0.00020260094122715998
1.39143e-05	0.00019782511250664636
1.39145e-05	0.00019080758505916206
1.39148e-05	0.0001816022135613887
1.39150e-05	0.0001702628629083738
1.39153e-05	0.00015685008785607958
1.39155e-05	0.000141453221909717
1.39158e-05	0.00012420192312848378
1.39160e-05	0.00010523908175474147
1.39163e-05	8.469469553103062e-05
1.39165e-05	6.269085716996334e-05
1.39168e-05	3.934960641146979e-05
1.39170e-05	1.4792993509695008e-05
1.39173e-05	-1.0852756460815676e-05
1.39175e-05	-3.744340460654111e-05
1.39178e-05	-6.480945000270956e-05
1.39180e-05	-9.284546907822334e-05
1.39183e-05	-0.00012125962606443128
1.39185e-05	-0.00014979804236594916
1.39188e-05	-0.00017849943475640396
1.39190e-05	-0.00020720082714666428
1.39193e-05	-0.00023560178839681254
1.39195e-05	-0.0002636087100355472
1.39198e-05	-0.000290993109628561
1.39200e-05	-0.00031756102147401284
1.39203e-05	-0.0003431695601681983
1.39205e-05	-0.00036751980378877275
1.39208e-05	-0.00039057965882405743
1.39210e-05	-0.0004119470654130365
1.39213e-05	-0.00043166953643835037
1.39215e-05	-0.0004492345421299534
1.39218e-05	-0.0004653412845157508
1.39220e-05	-0.00047799274647767893
1.39223e-05	-0.0004886208978357122
1.39225e-05	-0.0004976886584796854
1.39228e-05	-0.0005031274612327774
1.39230e-05	-0.0005064908453994984
1.39233e-05	-0.000507700230767169
1.39235e-05	-0.0005060844734116971
1.39238e-05	-0.0005022826242085731
1.39240e-05	-0.0004956135396670508
1.39243e-05	-0.0004868693039987794
1.39245e-05	-0.00047540334067339385
1.39248e-05	-0.0004620122350981839
1.39250e-05	-0.0004460961505767338
1.39253e-05	-0.00042839573536135225
1.39255e-05	-0.0004083550268837434
1.39258e-05	-0.00038668197958442496
1.39260e-05	-0.0003628679885920924
1.39263e-05	-0.00033797768437944335
1.39265e-05	-0.0003110468285633641
1.39268e-05	-0.00028272878084981156
1.39270e-05	-0.0002531772967747027
1.39273e-05	-0.00022254382782278595
1.39275e-05	-0.0001909743420972819
1.39278e-05	-0.0001586181893187431
1.39280e-05	-0.00012564491214116976
1.39283e-05	-9.224391683886235e-05
1.39285e-05	-5.8610847229408553e-05
1.39288e-05	-2.4941355876769497e-05
1.39290e-05	8.568916161416877e-06
1.39293e-05	4.172577867108831e-05
1.39295e-05	7.433848143931129e-05
1.39298e-05	0.00010621418979371773
1.39300e-05	0.0001371474266337169
1.39303e-05	0.00016692026818465938
1.39305e-05	0.00019531091415442173
1.39308e-05	0.000222097576841365
1.39310e-05	0.00024705848505777176
1.39313e-05	0.00026997545589267885
1.39315e-05	0.00029065543445406876
1.39318e-05	0.00030896527602403427
1.39320e-05	0.0003248342438096596
1.39323e-05	0.00033821932820546005
1.39325e-05	0.00034908126814432884
1.39328e-05	0.00035738081514934854
1.39330e-05	0.0003630787372570033
1.39333e-05	0.0003661380561938577
1.39335e-05	0.00036653754147589234
1.39338e-05	0.0003642934892731996
1.39340e-05	0.00035946130778438705
1.39343e-05	0.00035211377301832154
1.39345e-05	0.0003423259854480908
1.39348e-05	0.0003301730494695799
1.39350e-05	0.0003157300907367331
1.39353e-05	0.00029907366939287583
1.39355e-05	0.00028029016957728775
1.39358e-05	0.0002594894964635319
1.39360e-05	0.00023680603324669885
1.39363e-05	0.00021238501872171758
1.39365e-05	0.0001863731818114527
1.39368e-05	0.00015891722863001331
1.39370e-05	0.0001301638696254627
1.39373e-05	0.00010026069420425424
1.39375e-05	6.9361444954632e-05
1.39378e-05	3.763458309556964e-05
1.39380e-05	5.2638988590109215e-06
1.39383e-05	-2.7598648111737356e-05
1.39385e-05	-6.070737179122567e-05
1.39388e-05	-9.381609547093834e-05
1.39390e-05	-0.0001267450393585132
1.39393e-05	-0.00015943818337961458
1.39395e-05	-0.00019159022305264108
1.39398e-05	-0.00022303256083848857
1.39400e-05	-0.0002535639514784814
1.39403e-05	-0.00028290056164716567
1.39405e-05	-0.0003113168070160934
1.39408e-05	-0.0003377858156752008
1.39410e-05	-0.0003620442297926648
1.39413e-05	-0.00038467643064563257
1.39415e-05	-0.00040632755871245266
1.39418e-05	-0.00042669193088857086
1.39420e-05	-0.0004468544593187807
1.39423e-05	-0.00046675225343679696
