Time(s)	Current(A)
6.75000e-06	-0.003022152569006716
6.75025e-06	-0.002964418108154202
6.75050e-06	-0.0029031495800824108
6.75075e-06	-0.002838714857208728
6.75100e-06	-0.0027714824540301594
6.75125e-06	-0.00270182069272584
6.75150e-06	-0.0026300721558546085
6.75175e-06	-0.0025565159200926658
6.75200e-06	-0.002481419993530966
6.75225e-06	-0.0024051390148056837
6.75250e-06	-0.002328105393052854
6.75275e-06	-0.002250770281749031
6.75300e-06	-0.0021735850672021982
6.75325e-06	-0.0020970012080301402
6.75350e-06	-0.0020214537898047137
6.75375e-06	-0.0019473382578871342
6.75400e-06	-0.001875043067652895
6.75425e-06	-0.001805010717153382
6.75450e-06	-0.0017377326831998973
6.75475e-06	-0.0016737119884483692
6.75500e-06	-0.0016134517076089477
6.75525e-06	-0.0015574549877029843
6.75550e-06	-0.0015061430302613383
6.75575e-06	-0.0014596661642769357
6.75600e-06	-0.0014179348102550723
6.75625e-06	-0.0013809068224296178
6.75650e-06	-0.0013503960153937726
6.75675e-06	-0.0013221627387136608
6.75700e-06	-0.0013009884921115155
6.75725e-06	-0.0012829941758167262
6.75750e-06	-0.0012722642348844122
6.75775e-06	-0.0012648067275758145
6.75800e-06	-0.0012641421080888924
6.75825e-06	-0.0012665375279584644
6.75850e-06	-0.001275328709025813
6.75875e-06	-0.0012870010330611296
6.75900e-06	-0.0013048202319440208
6.75925e-06	-0.0013254084562321668
6.75950e-06	-0.001351784471997717
6.75975e-06	-0.001380767754388797
6.76000e-06	-0.0014147557712835008
6.76025e-06	-0.001450998305689984
6.76050e-06	-0.0014915093092235092
6.76075e-06	-0.0015339431596907143
6.76100e-06	-0.0015800021148916793
6.76125e-06	-0.001627694096200003
6.76150e-06	-0.001678298794223766
6.76175e-06	-0.0017302156039763494
6.76200e-06	-0.0017840674027703798
6.76225e-06	-0.001838790869516889
6.76250e-06	-0.0018945008925409417
6.76275e-06	-0.0019506553364235376
6.76300e-06	-0.002006906333120936
6.76325e-06	-0.0020632008246355
6.76350e-06	-0.0021186588461270957
6.76375e-06	-0.002173740057157579
6.76400e-06	-0.0022268853160266004
6.76425e-06	-0.002279158473079296
6.76450e-06	-0.0023284152174587514
6.76475e-06	-0.0023763131374713877
6.76500e-06	-0.002418956272859341
6.76525e-06	-0.002459232248921162
6.76550e-06	-0.002499508224983119
6.76575e-06	-0.0025331130409337083
6.76600e-06	-0.002563712653055489
6.76625e-06	-0.002594312265177373
6.76650e-06	-0.002618072752056542
6.76675e-06	-0.0026387523706876423
6.76700e-06	-0.002659431989318813
6.76725e-06	-0.0026779330103929677
6.76750e-06	-0.002687111726550127
6.76775e-06	-0.002696290442707318
6.76800e-06	-0.0027054691588644774
6.76825e-06	-0.0027082137036666828
6.76850e-06	-0.0027080598026112276
6.76875e-06	-0.0027079059015557723
6.76900e-06	-0.002703049324615761
6.76925e-06	-0.0026960743006085
6.76950e-06	-0.002685506115358844
6.76975e-06	-0.002673319293808672
6.77000e-06	-0.0026581945538936337
6.77025e-06	-0.002641746349488028
6.77050e-06	-0.002623383863128487
6.77075e-06	-0.002602973756772353
6.77100e-06	-0.002580912810488265
6.77125e-06	-0.0025572998890902223
6.77150e-06	-0.0025322621248215905
6.77175e-06	-0.002506012967085779
6.77200e-06	-0.002478827074544506
6.77225e-06	-0.002450937825472674
6.77250e-06	-0.0024225185058151222
6.77275e-06	-0.0023937259552163927
6.77300e-06	-0.0023647173502597436
6.77325e-06	-0.0023356492818598965
6.77350e-06	-0.0023066962786655733
6.77375e-06	-0.0022780873425087018
6.77400e-06	-0.002250089155275938
6.77425e-06	-0.0022229426032935955
6.77450e-06	-0.0021973022813613426
6.77475e-06	-0.002172211519878542
6.77500e-06	-0.0021486066925744843
6.77525e-06	-0.0021268396698636317
6.77550e-06	-0.002106659712448824
6.77575e-06	-0.0020873359291599877
6.77600e-06	-0.0020677828869761963
6.77625e-06	-0.0020474476806962593
6.77650e-06	-0.00202637605028168
6.77675e-06	-0.002004674622278012
6.77700e-06	-0.001982783885161675
6.77725e-06	-0.00196072030807268
6.77750e-06	-0.001938578870560714
6.77775e-06	-0.0019155422528142985
6.77800e-06	-0.0018921023770104106
6.77825e-06	-0.0018668974226465514
6.77850e-06	-0.0018408973410850456
6.77875e-06	-0.0018133860701890232
6.77900e-06	-0.0017851940433378497
6.77925e-06	-0.001757002016486772
6.77950e-06	-0.0017278283827264949
6.77975e-06	-0.0016982125576842661
6.78000e-06	-0.0016672868087072392
6.78025e-06	-0.0016357709691975733
6.78050e-06	-0.001603348271619025
6.78075e-06	-0.001570105481958823
6.78100e-06	-0.001536410182580554
6.78125e-06	-0.0015024724828839385
6.78150e-06	-0.001468443192413814
6.78175e-06	-0.0014343051160966263
6.78200e-06	-0.0013999539455107329
6.78225e-06	-0.0013654164376847339
6.78250e-06	-0.0013308663131290398
6.78275e-06	-0.0012965154715779417
6.78300e-06	-0.0012625759776429544
6.78325e-06	-0.0012292597433649838
6.78350e-06	-0.0011967416447565672
6.78375e-06	-0.0011650914436878855
6.78400e-06	-0.0011343242910511909
6.78425e-06	-0.0011045372922373123
6.78450e-06	-0.0010759197173588774
6.78475e-06	-0.0010486847749242411
6.78500e-06	-0.0010230456134384116
6.78525e-06	-0.0009992153532001871
6.78550e-06	-0.000977522283675742
6.78575e-06	-0.0009585951244085411
6.78600e-06	-0.0009431492859744934
6.78625e-06	-0.0009315512564800752
6.78650e-06	-0.0009251530184054854
6.78675e-06	-0.000920549520022976
6.78700e-06	-0.0009211485770518659
6.78725e-06	-0.0009240912653493463
6.78750e-06	-0.0009323270022410582
6.78775e-06	-0.0009429471354938726
6.78800e-06	-0.0009594246055405155
6.78825e-06	-0.0009785406707726635
6.78850e-06	-0.0010032648854732492
6.78875e-06	-0.001030515442214159
6.78900e-06	-0.0010627922431476907
6.78925e-06	-0.0010973332512103514
6.78950e-06	-0.0011364572273249482
6.78975e-06	-0.0011776457248869096
6.79000e-06	-0.0012242519215567031
6.79025e-06	-0.0012732986667702388
6.79050e-06	-0.0013223454119836084
6.79075e-06	-0.0013757577142066502
6.79100e-06	-0.0014311365992152325
6.79125e-06	-0.0014890136177594941
6.79150e-06	-0.0015480159878674131
6.79175e-06	-0.0016088700772370066
6.79200e-06	-0.0016705583234424557
6.79225e-06	-0.001733381767499553
6.79250e-06	-0.0017967165920171368
6.79275e-06	-0.001860168114616824
6.79300e-06	-0.0019236722070121296
6.79325e-06	-0.001986260933775709
6.79350e-06	-0.0020484373094255787
6.79375e-06	-0.00210879443099593
6.79400e-06	-0.0021683320205459484
6.79425e-06	-0.002225102324552446
6.79450e-06	-0.002280626030221382
6.79475e-06	-0.0023322455670343138
6.79500e-06	-0.0023821063657881118
6.79525e-06	-0.0024256228500213325
6.79550e-06	-0.002466281366830677
6.79575e-06	-0.002506939883640021
6.79600e-06	-0.0025399822052474762
6.79625e-06	-0.0025695936065073754
6.79650e-06	-0.0025992050077672745
6.79675e-06	-0.0026209304866207242
6.79700e-06	-0.002639103539239625
6.79725e-06	-0.0026572765918585262
6.79750e-06	-0.0026671702874082165
6.79775e-06	-0.0026733343234785238
6.79800e-06	-0.002679498359548852
6.79825e-06	-0.0026782967187212073
6.79850e-06	-0.0026737770102665983
6.79875e-06	-0.0026692573018119743
6.79900e-06	-0.0026589047760019685
6.79925e-06	-0.002645924700448909
6.79950e-06	-0.0026285414794388886
6.79975e-06	-0.0026091747429150816
6.80000e-06	-0.0025869352591693967
6.80025e-06	-0.00256170930605757
6.80050e-06	-0.0025341348837483206
6.80075e-06	-0.0025043656445674924
6.80100e-06	-0.0024725548633890856
6.80125e-06	-0.0024388560638169544
6.80150e-06	-0.0024034460289641905
6.80175e-06	-0.0023665763232115114
6.80200e-06	-0.0023285557590150144
6.80225e-06	-0.0022896660665188942
6.80250e-06	-0.0022501434333926595
6.80275e-06	-0.0022102108072844405
6.80300e-06	-0.0021700907742894346
6.80325e-06	-0.0021300059205032473
6.80350e-06	-0.002090193920906549
6.80375e-06	-0.002050938896129424
6.80400e-06	-0.0020125608057634803
6.80425e-06	-0.001975362667056409
6.80450e-06	-0.0019396190411583593
6.80475e-06	-0.0019063092202656236
6.80500e-06	-0.0018738806846328344
6.80525e-06	-0.0018446065687940931
6.80550e-06	-0.0018167534463474071
6.80575e-06	-0.0017916296063206748
6.80600e-06	-0.0017677352451002935
6.80625e-06	-0.0017463532635712852
6.80650e-06	-0.001726103051170065
6.80675e-06	-0.0017058528387689134
6.80700e-06	-0.0016892290687698316
6.80725e-06	-0.00167423892746495
6.80750e-06	-0.0016592487861601195
6.80775e-06	-0.001647560141152842
6.80800e-06	-0.0016373587441113277
6.80825e-06	-0.0016271573470698479
6.80850e-06	-0.0016220091928035804
6.80875e-06	-0.0016191374079046008
6.80900e-06	-0.0016162656230056308
6.80925e-06	-0.001613393838106661
6.80950e-06	-0.0016105220532076814
6.80975e-06	-0.0016076502683087116
6.81000e-06	-0.0016047784834097418
6.81025e-06	-0.001601906698510762
6.81050e-06	-0.0015990349136117922
6.81075e-06	-0.0016013005107519793
6.81100e-06	-0.0016058803800579012
6.81125e-06	-0.0016104602493638232
6.81150e-06	-0.0016150401186697607
6.81175e-06	-0.0016196199879756825
6.81200e-06	-0.0016241998572816044
6.81225e-06	-0.001628779726587542
6.81250e-06	-0.001633359595893464
6.81275e-06	-0.0016379394651993859
6.81300e-06	-0.001643943486297518
6.81325e-06	-0.0016505890549440086
6.81350e-06	-0.0016572346235904992
6.81375e-06	-0.0016638712566204373
6.81400e-06	-0.0016705038643610977
6.81425e-06	-0.0016771364721017584
6.81450e-06	-0.0016831886393118692
6.81475e-06	-0.0016889793314450775
6.81500e-06	-0.001694770023578305
6.81525e-06	-0.001699890892261845
6.81550e-06	-0.0017047100209241928
6.81575e-06	-0.0017099000044277658
6.81600e-06	-0.0017152570494871687
6.81625e-06	-0.0017206140945465714
6.81650e-06	-0.0017276091495154063
6.81675e-06	-0.001735342090183818
6.81700e-06	-0.00174307503085223
6.81725e-06	-0.0017508079715206682
6.81750e-06	-0.00175854091218908
6.81775e-06	-0.0017669576887764853
6.81800e-06	-0.0017783006262419385
6.81825e-06	-0.0017896435637073536
6.81850e-06	-0.0018009865011727685
6.81875e-06	-0.001812329438638222
6.81900e-06	-0.0018236723761036369
6.81925e-06	-0.0018379058511564567
6.81950e-06	-0.0018534414467504306
6.81975e-06	-0.0018689770423444046
6.82000e-06	-0.0018845126379384313
6.82025e-06	-0.0019000482335324053
6.82050e-06	-0.0019155838291263793
6.82075e-06	-0.0019311194247204058
6.82100e-06	-0.0019466550203143798
6.82125e-06	-0.001963921393338821
6.82150e-06	-0.0019819674416923084
6.82175e-06	-0.0020000134900457346
6.82200e-06	-0.0020180595383991608
6.82225e-06	-0.002036105586752648
6.82250e-06	-0.0020541516351060742
6.82275e-06	-0.0020721976834595004
6.82300e-06	-0.0020902437318129877
6.82325e-06	-0.002107760568943562
6.82350e-06	-0.002125039008619389
6.82375e-06	-0.0021423174482951574
6.82400e-06	-0.002158546889390303
6.82425e-06	-0.0021743037808098467
6.82450e-06	-0.002190060672229337
6.82475e-06	-0.0022041551644189613
6.82500e-06	-0.002217500784082603
6.82525e-06	-0.002230846403746199
6.82550e-06	-0.0022427247095573753
6.82575e-06	-0.0022539420243073696
6.82600e-06	-0.002265571768593646
6.82625e-06	-0.0022773873028773635
6.82650e-06	-0.002289202837161121
6.82675e-06	-0.002301597492143872
6.82700e-06	-0.0023142530276497545
6.82725e-06	-0.0023269085631556796
6.82750e-06	-0.002339564098661562
6.82775e-06	-0.002352582978787181
6.82800e-06	-0.0023671566248756166
6.82825e-06	-0.0023817302709640527
6.82850e-06	-0.0023963039170525374
6.82875e-06	-0.002410877563140973
6.82900e-06	-0.002427022968133103
6.82925e-06	-0.002443876414274045
6.82950e-06	-0.0024607298604149303
6.82975e-06	-0.0024775833065558157
6.83000e-06	-0.0024944367526967583
6.83025e-06	-0.0025127098382328136
6.83050e-06	-0.0025316224385861738
6.83075e-06	-0.0025505350389395977
6.83100e-06	-0.002569447639292958
6.83125e-06	-0.002588360239646318
6.83150e-06	-0.0026076798730045965
6.83175e-06	-0.002627182865347222
6.83200e-06	-0.002646685857689913
6.83225e-06	-0.0026661888500325386
6.83250e-06	-0.002685691842375164
6.83275e-06	-0.0027051948347178553
6.83300e-06	-0.0027246978270604807
6.83325e-06	-0.0027425806445922755
6.83350e-06	-0.0027597336107255195
6.83375e-06	-0.0027768865768587054
6.83400e-06	-0.002794039542991891
6.83425e-06	-0.002811192509125135
6.83450e-06	-0.002828345475258321
6.83475e-06	-0.002845498441391507
6.83500e-06	-0.0028601739524113413
6.83525e-06	-0.0028737334270211336
6.83550e-06	-0.0028852391277455662
6.83575e-06	-0.0028958196506851646
6.83600e-06	-0.002902815439683731
6.83625e-06	-0.0029081963886892336
6.83650e-06	-0.0029087032531390903
6.83675e-06	-0.002907014454870454
6.83700e-06	-0.0029053256566018127
6.83725e-06	-0.002897977242119093
6.83750e-06	-0.002888079301016509
6.83775e-06	-0.0028781813599138913
6.83800e-06	-0.0028618594595864505
6.83825e-06	-0.002842643713735053
6.83850e-06	-0.0028234279678835904
6.83875e-06	-0.0027991508640751897
6.83900e-06	-0.002772593735198742
6.83925e-06	-0.0027425398373730463
6.83950e-06	-0.0027109107257552428
6.83975e-06	-0.0026767709199061788
6.84000e-06	-0.0026397985915732904
6.84025e-06	-0.0026004633990559523
6.84050e-06	-0.002558986067450256
6.84075e-06	-0.0025156183748917442
6.84100e-06	-0.0024706127256968894
6.84125e-06	-0.0024242209385136057
6.84150e-06	-0.0023766667004672735
6.84175e-06	-0.0023280985861288107
6.84200e-06	-0.0022786376110210498
6.84225e-06	-0.0022284840557783357
6.84250e-06	-0.002177915994617847
6.84275e-06	-0.0021272314825610647
6.84300e-06	-0.002076728526933322
6.84325e-06	-0.002026704918127681
6.84350e-06	-0.0019774409498508577
6.84375e-06	-0.0019291693052418423
6.84400e-06	-0.0018821059744696736
6.84425e-06	-0.00183651628813051
6.84450e-06	-0.0017927145266087208
6.84475e-06	-0.0017510270382063823
6.84500e-06	-0.001711780536371008
6.84525e-06	-0.0016753014337659664
6.84550e-06	-0.001641608931511469
6.84575e-06	-0.001609841852504145
6.84600e-06	-0.0015786638714529028
6.84625e-06	-0.0015473954640294382
6.84650e-06	-0.0015161096704977923
6.84675e-06	-0.0014852839087596964
6.84700e-06	-0.0014546562599478052
6.84725e-06	-0.0014248406419807896
6.84750e-06	-0.001395988120324408
6.84775e-06	-0.0013675305943418568
6.84800e-06	-0.0013384258754281055
6.84825e-06	-0.0013090040565198015
6.84850e-06	-0.0012788204896748716
6.84875e-06	-0.0012482937729471082
6.84900e-06	-0.0012177177631846803
6.84925e-06	-0.0011871195480467613
6.84950e-06	-0.0011565213329088426
6.84975e-06	-0.001125629387466841
6.85000e-06	-0.0010946051232951003
6.85025e-06	-0.0010633564277614871
6.85050e-06	-0.0010311473815763832
6.85075e-06	-0.0009989383353913883
6.85100e-06	-0.0009666827263504747
6.85125e-06	-0.0009344061418163909
6.85150e-06	-0.00090248713577723
6.85175e-06	-0.0008707292106058249
6.85200e-06	-0.000838994199672631
6.85225e-06	-0.0008072695110756075
6.85250e-06	-0.0007758146366315373
6.85275e-06	-0.0007444813072425594
6.85300e-06	-0.0007136928029964836
6.85325e-06	-0.0006836955382440557
6.85350e-06	-0.0006545797267304066
6.85375e-06	-0.0006266436836239266
6.85400e-06	-0.0005991101212355623
6.85425e-06	-0.000572868624926382
6.85450e-06	-0.0005472091745965419
6.85475e-06	-0.0005233321791237523
6.85500e-06	-0.0005002581384687056
6.85525e-06	-0.0004794271850430335
6.85550e-06	-0.00045960669069850836
6.85575e-06	-0.00044145237449398075
6.85600e-06	-0.0004240486331268195
6.85625e-06	-0.00040749456455808957
6.85650e-06	-0.00039132325399544914
6.85675e-06	-0.0003762439914867981
6.85700e-06	-0.0003616566714486312
6.85725e-06	-0.0003484530142478864
6.85750e-06	-0.0003358726652541922
6.85775e-06	-0.00032431763813281386
6.85800e-06	-0.0003132244948755014
6.85825e-06	-0.000302648376693375
6.85850e-06	-0.0002923051663873564
6.85875e-06	-0.0002828458664706051
6.85900e-06	-0.0002737847478051127
6.85925e-06	-0.00026472362913965093
6.85950e-06	-0.00025680680780717125
6.85975e-06	-0.0002494054660407167
6.86000e-06	-0.00024200412427428727
6.86025e-06	-0.00023516196750756127
6.86050e-06	-0.00022857171069083138
6.86075e-06	-0.00022198145387412383
6.86100e-06	-0.00021611458404424406
6.86125e-06	-0.0002105735833737823
6.86150e-06	-0.00020503258270333934
6.86175e-06	-0.00020008798762110442
6.86200e-06	-0.00019541205950588056
6.86225e-06	-0.0001907361313906567
6.86250e-06	-0.00018642521251129024
6.86275e-06	-0.00018227872187718167
6.86300e-06	-0.0001781322312430731
6.86325e-06	-0.0001745694918659206
6.86350e-06	-0.00017126971897128853
6.86375e-06	-0.00016796994607665643
6.86400e-06	-0.0001646701731820132
6.86425e-06	-0.00016149802714338714
6.86450e-06	-0.00015887200145631278
6.86475e-06	-0.00015624597576922956
6.86500e-06	-0.00015361995008215522
6.86525e-06	-0.0001509939243950809
6.86550e-06	-0.00014857477757221883
6.86575e-06	-0.00014624882490796832
6.86600e-06	-0.00014392287224370993
6.86625e-06	-0.00014159691957945942
6.86650e-06	-0.0001388515581004055
6.86675e-06	-0.00013591726262002316
6.86700e-06	-0.00013298296713965078
6.86725e-06	-0.0001300486716592784
6.86750e-06	-0.0001267693976725761
6.86775e-06	-0.00012333471882250148
6.86800e-06	-0.00011990003997242687
6.86825e-06	-0.00011593235928502935
6.86850e-06	-0.00011172457355865969
6.86875e-06	-0.00010751678783229001
6.86900e-06	-0.00010291649544961416
6.86925e-06	-9.813938786780748e-05
6.86950e-06	-9.33622802860008e-05
6.86975e-06	-8.828779006722124e-05
6.87000e-06	-8.307933582687492e-05
6.87025e-06	-7.753725485805678e-05
6.87050e-06	-7.184488274008913e-05
6.87075e-06	-6.615251062212148e-05
6.87100e-06	-6.024396313187553e-05
6.87125e-06	-5.4238033620524636e-05
6.87150e-06	-4.823210410917375e-05
6.87175e-06	-4.2125379371359726e-05
6.87200e-06	-3.597324870796063e-05
6.87225e-06	-2.9812111857375788e-05
6.87250e-06	-2.3612437176529936e-05
6.87275e-06	-1.7412762495705087e-05
6.87300e-06	-1.1276933664815046e-05
6.87325e-06	-5.245872791923106e-06
6.87350e-06	6.542646443000334e-07
6.87375e-06	6.4064840827756595e-06
6.87400e-06	1.2001551925644323e-05
6.87425e-06	1.741774672590305e-05
6.87450e-06	2.2619565941980486e-05
6.87475e-06	2.756795726756338e-05
6.87500e-06	3.222385548726978e-05
6.87525e-06	3.654820338485111e-05
6.87550e-06	4.019455328933593e-05
6.87575e-06	4.196737720428308e-05
6.87600e-06	4.029549501081518e-05
6.87625e-06	3.437687259160513e-05
6.87650e-06	2.421665512653276e-05
6.87675e-06	1.0025388415991986e-05
6.87700e-06	-7.985056890810397e-06
6.87725e-06	-2.960281992888173e-05
6.87750e-06	-5.480857542969972e-05
6.87775e-06	-8.4114843122809e-05
6.87800e-06	-0.00011826936727329534
6.87825e-06	-0.0001575380562064248
6.87850e-06	-0.00020168117542462683
6.87875e-06	-0.00025033034630042984
6.87900e-06	-0.00030311642235476783
6.87925e-06	-0.0003596702195110908
6.87950e-06	-0.00041974321759527007
6.87975e-06	-0.0004834200080351737
6.88000e-06	-0.0005509325803186549
6.88025e-06	-0.0006222109880899792
6.88050e-06	-0.0006978223587907194
6.88075e-06	-0.0007748679105247646
6.88100e-06	-0.0008550836531506158
6.88125e-06	-0.0009367274936815031
6.88150e-06	-0.0010204905200221666
6.88175e-06	-0.0011052081907108593
6.88200e-06	-0.0011915987813819473
6.88225e-06	-0.001278742983934683
6.88250e-06	-0.0013664214373717814
6.88275e-06	-0.0014543405585142582
6.88300e-06	-0.0015413351242511825
6.88325e-06	-0.001627913199093874
6.88350e-06	-0.0017122569952449495
6.88375e-06	-0.001795594300358905
6.88400e-06	-0.0018757666314828658
6.88425e-06	-0.001954513214795616
6.88450e-06	-0.0020287308851834316
6.88475e-06	-0.002100908384716131
6.88500e-06	-0.002165206329133122
6.88525e-06	-0.002225954715640561
6.88550e-06	-0.002286703102147794
6.88575e-06	-0.0023376876955881237
6.88600e-06	-0.002384273925364624
6.88625e-06	-0.002430860155140967
6.88650e-06	-0.002468538163761167
6.88675e-06	-0.002502203224137409
6.88700e-06	-0.002535868284513536
6.88725e-06	-0.0025595691692832678
6.88750e-06	-0.0025787814226750105
6.88775e-06	-0.002597993676066753
6.88800e-06	-0.002608505153724317
6.88825e-06	-0.00261509713251766
6.88850e-06	-0.0026216891113110025
6.88875e-06	-0.002621636710083827
6.88900e-06	-0.0026185911688495125
6.88925e-06	-0.0026102286414635607
6.88950e-06	-0.002599470934404141
6.88975e-06	-0.002584046026389161
6.89000e-06	-0.0025665186519502193
6.89025e-06	-0.0025461381137346483
6.89050e-06	-0.002522714917421618
6.89075e-06	-0.0024968264826923064
6.89100e-06	-0.002468594347142604
6.89125e-06	-0.002438140208888744
6.89150e-06	-0.0024056325496941266
6.89175e-06	-0.0023713824073870516
6.89200e-06	-0.0023357977756839317
6.89225e-06	-0.0022992135274716285
6.89250e-06	-0.0022618628343395227
6.89275e-06	-0.0022239511093268935
6.89300e-06	-0.002185683636750728
6.89325e-06	-0.0021472657732389882
