Time(s)	Current(A)
0.00000e+00	-2.944618385640295e-21
2.50000e-10	-2.0599383017858553e-15
5.00000e-10	-8.85381290160913e-16
7.50000e-10	-1.3667819105353164e-06
1.00000e-09	-9.106818496672905e-06
1.25000e-09	-2.6826099575680516e-05
1.50000e-09	-5.078586152093892e-05
1.75000e-09	-7.585066585495727e-05
2.00000e-09	-0.0001005263264697289
2.25000e-09	-0.00012468521466235072
2.50000e-09	-0.0001481997128906568
2.75000e-09	-0.0001717983030491683
3.00000e-09	-0.00019848919463541864
3.25000e-09	-0.00023040310854695822
3.50000e-09	-0.000265070003054385
3.75000e-09	-0.00029914526478383256
4.00000e-09	-0.00033156532602150377
4.25000e-09	-0.00036212268747378947
4.50000e-09	-0.00039060982781198594
4.75000e-09	-0.00041735553013955953
5.00000e-09	-0.00044411647430294917
5.25000e-09	-0.0004716485788170551
5.50000e-09	-0.0004994264533100953
5.75000e-09	-0.0005244983314434774
6.00000e-09	-0.0005461214325476554
6.25000e-09	-0.000563889447270972
6.50000e-09	-0.0005803725762731259
6.75000e-09	-0.0005945287456025459
7.00000e-09	-0.0006072022345924468
7.25000e-09	-0.0006196802108624668
7.50000e-09	-0.0006299302670809839
7.75000e-09	-0.0006391760010443095
8.00000e-09	-0.0006446092010771283
8.25000e-09	-0.0006483237520621518
8.50000e-09	-0.0006489391673362774
8.75000e-09	-0.0006481575257617009
9.00000e-09	-0.000645904934171579
9.25000e-09	-0.0006429892542287626
9.50000e-09	-0.0006381027319630378
9.75000e-09	-0.00063232777530083
1.00000e-08	-0.0006237627980833949
1.02500e-08	-0.000613940109785095
1.05000e-08	-0.0006019476172511126
1.07500e-08	-0.0005889770004429515
1.10000e-08	-0.0005747970383766409
1.12500e-08	-0.0005600719165519491
1.15000e-08	-0.0005453467947272576
1.17500e-08	-0.0005286272325225837
1.20000e-08	-0.0005110085981726067
1.22500e-08	-0.0004933899638226299
1.25000e-08	-0.00047454490397078877
1.27500e-08	-0.0004551469847714925
1.30000e-08	-0.00043574906557219614
1.32500e-08	-0.0004163785171085034
1.35000e-08	-0.0003971252023696764
1.37500e-08	-0.0003778718876308493
1.40000e-08	-0.0003586185728920222
1.42500e-08	-0.000339883804035447
1.45000e-08	-0.000321382790052406
1.47500e-08	-0.00030288177606936493
1.50000e-08	-0.00028589732007814386
1.52500e-08	-0.0002695965120218862
1.55000e-08	-0.00025449399912762753
1.57500e-08	-0.00024069090162176323
1.60000e-08	-0.0002282583106257013
1.62500e-08	-0.0002177473450793356
1.65000e-08	-0.00020960551452169074
1.67500e-08	-0.0002040013449278235
1.70000e-08	-0.00020103572511325618
1.72500e-08	-0.0002007540952215708
1.75000e-08	-0.00020302778311101765
1.77500e-08	-0.00020770368597804967
1.80000e-08	-0.0002148240129462449
1.82500e-08	-0.00022461146288814792
1.85000e-08	-0.00023722380650082977
1.87500e-08	-0.0002526440489592108
1.90000e-08	-0.00027081281635880634
1.92500e-08	-0.0002916360237862681
1.95000e-08	-0.0003149105236148861
1.97500e-08	-0.0003404178756909445
2.00000e-08	-0.00036806198708621586
2.02500e-08	-0.0003978598190961009
2.05000e-08	-0.0004304578119970424
2.07500e-08	-0.000464014441202165
2.10000e-08	-0.000500024091449237
2.12500e-08	-0.000537139537042609
2.15000e-08	-0.0005764165686761001
2.17500e-08	-0.0006166680199101235
2.20000e-08	-0.0006569194711441462
2.22500e-08	-0.0006989820102903274
2.25000e-08	-0.0007418609682730205
2.27500e-08	-0.0007847399262557129
2.30000e-08	-0.0008276188842384054
2.32500e-08	-0.0008703433125496583
2.35000e-08	-0.0009124058628154143
2.37500e-08	-0.0009544684130811703
2.40000e-08	-0.0009965309633469268
2.42500e-08	-0.0010385935136126827
2.45000e-08	-0.0010777256875986528
2.47500e-08	-0.0011155368796616468
2.50000e-08	-0.001153348071724641
2.52500e-08	-0.0011878229171170753
2.55000e-08	-0.0012207937735265952
2.57500e-08	-0.001250013080499945
2.60000e-08	-0.001277541229575751
2.62500e-08	-0.001299511645027188
2.65000e-08	-0.0013189766942902782
2.67500e-08	-0.0013320312300427273
2.70000e-08	-0.0013421959756603852
2.72500e-08	-0.0013460318948927115
2.75000e-08	-0.0013470148476625572
2.77500e-08	-0.0013416554130213569
2.80000e-08	-0.0013334368987540015
2.82500e-08	-0.0013183301858512842
2.85000e-08	-0.0013001183475276612
2.87500e-08	-0.0012750700270247285
2.90000e-08	-0.0012469398943197553
2.92500e-08	-0.001212610326673027
2.95000e-08	-0.001175486120826687
2.97500e-08	-0.001132739626059012
3.00000e-08	-0.0010874586642735462
3.02500e-08	-0.001036799331483404
3.05000e-08	-0.000983715487233336
3.07500e-08	-0.0009258713618651098
3.10000e-08	-0.0008658813532706416
3.12500e-08	-0.0008021156822919108
3.15000e-08	-0.0007366479835595198
3.17500e-08	-0.0006683516474457168
3.20000e-08	-0.0005987801922036045
3.22500e-08	-0.0005275433186274915
3.25000e-08	-0.000454705680973492
3.27500e-08	-0.00038092162336358617
3.30000e-08	-0.00030662421657904964
3.32500e-08	-0.00023225266435527588
3.35000e-08	-0.00015824207381898143
3.37500e-08	-8.502404832170843e-05
3.40000e-08	-1.2999407284670767e-05
3.42500e-08	5.747202102463919e-05
3.45000e-08	0.0001260041084296262
3.47500e-08	0.0001921457319185658
3.50000e-08	0.0002554135764290903
3.52500e-08	0.0003153205065080842
3.55000e-08	0.0003713820545784319
3.57500e-08	0.00042316584238328236
3.60000e-08	0.00047093275216430195
3.62500e-08	0.0005160164690081685
3.65000e-08	0.0005596569738809171
3.67500e-08	0.0006016031888322668
3.70000e-08	0.0006429424733398246
3.72500e-08	0.0006817342710212768
3.75000e-08	0.0007193776892029654
3.77500e-08	0.0007533551234736499
3.80000e-08	0.0007856799718597984
3.82500e-08	0.0008180048202459471
3.85000e-08	0.0008486032056216909
3.87500e-08	0.000878423320151072
3.90000e-08	0.000908243434680454
3.92500e-08	0.0009360311339457138
3.95000e-08	0.0009629026423987551
3.97500e-08	0.0009897741508517965
4.00000e-08	0.0010136804286925236
4.02500e-08	0.0010362500126542638
4.05000e-08	0.0010588195966160046
4.07500e-08	0.0010813891805777447
4.10000e-08	0.0011039587645394848
4.12500e-08	0.001126528348501225
4.15000e-08	0.001149097932462965
4.17500e-08	0.0011716675164247052
4.20000e-08	0.0011910936104923295
4.22500e-08	0.00120910265332533
4.25000e-08	0.0012271116961583303
4.27500e-08	0.0012451207389913308
4.30000e-08	0.0012631297818243312
4.32500e-08	0.0012811388246573316
4.35000e-08	0.0012991478674903325
4.37500e-08	0.0013171569103233329
4.40000e-08	0.0013327576941982746
4.42500e-08	0.0013472728609900514
4.45000e-08	0.0013617880277818281
4.47500e-08	0.0013753651300118098
4.50000e-08	0.0013885193628863227
4.52500e-08	0.0014006562781039872
4.55000e-08	0.001412334597528378
4.57500e-08	0.0014226604654267122
4.60000e-08	0.001432376662809371
4.62500e-08	0.00144004165474928
4.65000e-08	0.0014467819854677379
4.67500e-08	0.0014511336097129438
4.70000e-08	0.0014544084309235964
4.72500e-08	0.0014547448292892367
4.75000e-08	0.001453756618427355
4.77500e-08	0.0014527684075654735
4.80000e-08	0.0014481038213557237
4.82500e-08	0.0014417819649141265
4.85000e-08	0.0014354601084725293
4.87500e-08	0.0014236752851010492
4.90000e-08	0.0014094278153418136
4.92500e-08	0.0013951803455825777
4.95000e-08	0.0013809328758233419
4.97500e-08	0.0013666854060641058
5.00000e-08	0.00135243793630487
5.02500e-08	0.0013323868423701913
5.05000e-08	0.0013097195374470543
5.07500e-08	0.0012870522325239173
5.10000e-08	0.0012643849276007802
5.12500e-08	0.0012417176226776426
5.15000e-08	0.0012190503177545056
5.17500e-08	0.0011931316031177223
5.20000e-08	0.001165747188159265
5.22500e-08	0.001138362773200808
5.25000e-08	0.0011109783582423508
5.27500e-08	0.001083593943283893
5.30000e-08	0.0010562095283254357
5.32500e-08	0.0010289410641489748
5.35000e-08	0.0010017248693305575
5.37500e-08	0.0009745086745121402
5.40000e-08	0.000947292479693723
5.42500e-08	0.000920076284875305
5.45000e-08	0.0008928600900568878
5.47500e-08	0.0008681398194071394
5.50000e-08	0.0008445446843690417
5.52500e-08	0.000820949549330944
5.55000e-08	0.000800334202278426
5.57500e-08	0.0007810621114112637
5.60000e-08	0.0007617900205441019
5.62500e-08	0.000744008211509716
5.65000e-08	0.0007268982054020777
5.67500e-08	0.0007097881992944395
5.70000e-08	0.0006938042264038396
5.72500e-08	0.0006783278571048447
5.75000e-08	0.0006628514878058503
5.77500e-08	0.0006473751185068559
5.80000e-08	0.0006318987492078614
5.82500e-08	0.000616422379908867
5.85000e-08	0.0006009460106098726
5.87500e-08	0.0005861294602961769
5.90000e-08	0.000571610349242425
5.92500e-08	0.000557091238188673
5.95000e-08	0.0005425721271349209
5.97500e-08	0.000528053016081169
6.00000e-08	0.0005135339050274166
6.02500e-08	0.000499014793973665
6.05000e-08	0.000484517480291338
6.07500e-08	0.000470029992628223
6.10000e-08	0.00045554250496510724
6.12500e-08	0.0004410550173019915
6.15000e-08	0.00042656752963887647
6.17500e-08	0.00041208004197576065
6.20000e-08	0.0003975925543126457
6.22500e-08	0.00038375646874291787
6.25000e-08	0.00037021402818932295
6.27500e-08	0.0003566715876357288
6.30000e-08	0.00034312914708213387
6.32500e-08	0.00032958670652853965
6.35000e-08	0.0003160442659749448
6.37500e-08	0.00030250182542135057
6.40000e-08	0.00029009420562181414
6.42500e-08	0.0002781981507404997
6.45000e-08	0.0002663020958591859
6.47500e-08	0.00025513277621216874
6.50000e-08	0.0002442910609461726
6.52500e-08	0.00023403415488376523
6.55000e-08	0.00022450594143462997
6.57500e-08	0.00021572224325409287
6.60000e-08	0.00020794947674181722
6.62500e-08	0.00020169179996797524
6.65000e-08	0.00019736401916829814
6.67500e-08	0.00019508536667050232
6.70000e-08	0.0001948272949727372
6.72500e-08	0.00019653979465113672
6.75000e-08	0.00020017285529463154
6.77500e-08	0.0002056848272778646
6.80000e-08	0.0002131413049989793
6.82500e-08	0.00022275676668124736
6.85000e-08	0.00023468974022452165
6.87500e-08	0.0002489135544688024
6.90000e-08	0.0002653090178326436
6.92500e-08	0.0002837434585305014
6.95000e-08	0.0003040842077384437
6.97500e-08	0.0003262038660977452
7.00000e-08	0.0003506525560689365
7.02500e-08	0.00037590741949968236
7.05000e-08	0.00040351754823523606
7.07500e-08	0.0004321894050884157
7.10000e-08	0.0004631650481751689
7.12500e-08	0.0004951792131711918
7.15000e-08	0.0005271933781672132
7.17500e-08	0.0005610338615962201
7.20000e-08	0.0005956976296157473
7.22500e-08	0.0006303613976352727
7.25000e-08	0.0006659950999644024
7.27500e-08	0.0007020660381865107
7.30000e-08	0.0007383158375110908
7.32500e-08	0.0007746462654855533
7.35000e-08	0.0008105590700379394
7.37500e-08	0.0008462836144699536
7.40000e-08	0.0008810638019707452
7.42500e-08	0.0009154182835840087
7.45000e-08	0.0009487882467668186
7.47500e-08	0.0009808614593209749
7.50000e-08	0.001011533901082531
7.52500e-08	0.0010405688092707966
7.55000e-08	0.0010677292708082327
7.57500e-08	0.001092758444138938
7.60000e-08	0.0011151481397181947
7.62500e-08	0.0011340566924195874
7.65000e-08	0.001148812029781959
7.67500e-08	0.001159209053016461
7.70000e-08	0.0011652707086471524
7.72500e-08	0.0011656028973305182
7.75000e-08	0.0011639571339258508
7.77500e-08	0.0011564880734968093
7.80000e-08	0.001146393933771839
7.82500e-08	0.0011298526095968775
7.85000e-08	0.0011104049644244003
7.87500e-08	0.0010844930832163448
7.90000e-08	0.001055667194340473
7.92500e-08	0.001021013354360396
7.95000e-08	0.0009837323370755575
7.97500e-08	0.0009412190909048775
8.00000e-08	0.0008963472125603142
8.02500e-08	0.0008464150454946991
8.05000e-08	0.0007942017550212556
8.07500e-08	0.0007374802259253318
8.10000e-08	0.0006787264316333438
8.12500e-08	0.0006164256066288001
8.15000e-08	0.0005525258185546047
8.17500e-08	0.0004860146904814582
8.20000e-08	0.00041832639858904887
8.22500e-08	0.0003486968639202487
8.25000e-08	0.00027819223801028696
8.27500e-08	0.0002066384748473933
8.30000e-08	0.00013461177196157065
8.32500e-08	6.258506907574421e-05
8.35000e-08	-9.114902026082606e-06
8.37500e-08	-8.001857617410263e-05
8.40000e-08	-0.00014972785883024588
8.42500e-08	-0.00021791051210031596
8.45000e-08	-0.0002842082243896306
8.47500e-08	-0.0003481907989841516
8.50000e-08	-0.0004093929860917735
8.52500e-08	-0.0004673445661413478
8.55000e-08	-0.0005215753777693997
8.57500e-08	-0.0005716140941180811
8.60000e-08	-0.0006169936292281592
8.62500e-08	-0.0006573155907132623
8.65000e-08	-0.0006923345543105845
8.67500e-08	-0.0007219321468743763
8.70000e-08	-0.0007460313467055393
8.72500e-08	-0.0007645592597263264
8.75000e-08	-0.0007774430500666529
8.77500e-08	-0.0007846091376365358
8.80000e-08	-0.0007859866880527101
8.82500e-08	-0.0007815479055659177
8.85000e-08	-0.0007713607609128168
8.87500e-08	-0.0007555728683504543
8.90000e-08	-0.0007343576756444279
8.92500e-08	-0.0007078912649178107
8.95000e-08	-0.0006763497324311512
8.97500e-08	-0.0006399087551449312
9.00000e-08	-0.0005987455944974316
9.02500e-08	-0.0005530645471045052
9.05000e-08	-0.0005031299639072984
9.07500e-08	-0.00044925590015957
9.10000e-08	-0.0003917726883604341
9.12500e-08	-0.0003310122557218499
9.15000e-08	-0.0002673065424477175
9.17500e-08	-0.0002009871758268621
9.20000e-08	-0.00013238678742588772
9.22500e-08	-6.882923754778528e-05
9.25000e-08	-3.65748735084191e-05
9.27500e-08	4.9395825606644015e-05
9.30000e-08	-0.015223384917312656
9.32500e-08	-0.022657035722884862
9.35000e-08	-0.017272989209813717
9.37500e-08	-0.012996472086887282
9.40000e-08	-0.0004508549007901808
9.42500e-08	0.00755909013677718
9.45000e-08	0.005923765795639717
9.47500e-08	0.0035396738618320303
9.50000e-08	-0.002238997394261142
9.52500e-08	-0.007478757634192926
9.55000e-08	-0.007388852187871489
9.57500e-08	-0.00408855629779944
9.60000e-08	0.0008004484923950792
9.62500e-08	0.00507190960546246
9.65000e-08	0.005743013634505416
9.67500e-08	0.003899640889772211
9.70000e-08	0.0001309701451460408
9.72500e-08	-0.003271750634181428
9.75000e-08	-0.00331709046237345
9.77500e-08	-0.0013376923311722547
9.80000e-08	0.0016467891950599184
9.82500e-08	0.004251546073518259
9.85000e-08	0.0046061821959057165
9.87500e-08	0.003389517161011758
9.90000e-08	0.0009696014028603313
9.92500e-08	-0.0012191061250918659
9.95000e-08	-0.001303461253664387
9.97500e-08	-0.00011877522936415278
1.00000e-07	0.0016959065558892167
1.00250e-07	0.0032729856158180493
1.00500e-07	0.0034408695497474733
1.00750e-07	0.002624889585979249
1.01000e-07	0.0010557315665345713
1.01250e-07	-0.00036793520845659563
1.01500e-07	-0.0004727154239148948
1.01750e-07	0.00021820641856752936
1.02000e-07	0.0013046457687557538
1.02250e-07	0.0022433092334827468
1.02500e-07	0.0023005504116556477
1.02750e-07	0.0017430631130939296
1.03000e-07	0.0007156024166368362
1.03250e-07	-0.00021868022053203582
1.03500e-07	-0.00032460101436256267
1.03750e-07	7.027252686696051e-05
1.04000e-07	0.0007154483776527186
1.04250e-07	0.0012708199166128558
1.04500e-07	0.0012770814528092066
1.04750e-07	0.0009015534500706099
1.05000e-07	0.00023516306364928022
1.05250e-07	-0.0003690994050872479
1.05500e-07	-0.00045051953916968115
1.05750e-07	-0.00021412762254398977
1.06000e-07	0.00018316140869369249
1.06250e-07	0.0005279688064749471
1.06500e-07	0.000532125954459517
1.06750e-07	0.0003001589577249302
1.07000e-07	-0.00011113219426623882
1.07250e-07	-0.00048079318660615276
1.07500e-07	-0.0005204145551207855
1.07750e-07	-0.00035861574783680025
1.08000e-07	-9.38663497575819e-05
1.08250e-07	0.0001400057797110066
1.08500e-07	0.00016233899043473484
1.08750e-07	3.846032159531125e-05
1.09000e-07	-0.00019620336895946364
1.09250e-07	-0.0004034070349973989
1.09500e-07	-0.0004026664168197822
1.09750e-07	-0.00027472808866654976
1.10000e-07	-8.144631077034752e-05
1.10250e-07	9.318296238288466e-05
1.10500e-07	0.0001358361734702837
1.10750e-07	8.728010078777154e-05
1.11000e-07	-3.0450781073065338e-05
1.11250e-07	-0.00013092178556149553
1.11500e-07	-0.00010124871349647584
1.11750e-07	7.815122227187863e-06
1.12000e-07	0.00015735466159716422
1.12250e-07	0.0002945895182726394
1.12500e-07	0.000348374207142891
1.12750e-07	0.0003440872811393795
1.13000e-07	0.0002953716451021465
1.13250e-07	0.0002562073297573503
1.13500e-07	0.00029713663374852245
1.13750e-07	0.00038619777961783656
1.14000e-07	0.000498847008171697
1.14250e-07	0.0006018580339450857
1.14500e-07	0.0006505042028693143
1.14750e-07	0.0006605227319969847
1.15000e-07	0.0006402986293344808
1.15250e-07	0.0006234820447575503
1.15500e-07	0.0006540941141341116
1.15750e-07	0.0007119547092288378
1.16000e-07	0.0007815948250349585
1.16250e-07	0.0008422523522038342
1.16500e-07	0.0008660787288820857
1.16750e-07	0.0008631061872479423
1.17000e-07	0.0008387380940201287
1.17250e-07	0.0008141999226646859
1.17500e-07	0.0008172112237817327
1.17750e-07	0.0008352753640969027
1.18000e-07	0.000858847766359589
1.18250e-07	0.0008750692883662032
1.18500e-07	0.000866643237098688
1.18750e-07	0.000840001925550225
1.19000e-07	0.0007986776681751631
1.19250e-07	0.0007561130038556839
1.19500e-07	0.0007298169426250491
1.19750e-07	0.0007121067076899509
1.20000e-07	0.0006971492792166706
1.20250e-07	0.0006770360956279349
1.20500e-07	0.000641079784901011
1.20750e-07	0.0005934570794952431
1.21000e-07	0.000536527824890591
1.21250e-07	0.0004788591970092511
1.21500e-07	0.0004315646946743818
1.21750e-07	0.00038997748598183026
1.22000e-07	0.000350589775090963
1.22250e-07	0.000308593997586169
1.22500e-07	0.0002574425242735644
1.22750e-07	0.00019989874483285168
1.23000e-07	0.00013758783127818428
1.23250e-07	7.6022834623518e-05
1.23500e-07	2.2311307226980964e-05
1.23750e-07	-2.6324218406455506e-05
1.24000e-07	-7.193492821271922e-05
1.24250e-07	-0.00011738592082449424
1.24500e-07	-0.0001666319813012849
1.24750e-07	-0.00021779535533309805
1.25000e-07	-0.0002697114023877782
1.25250e-07	-0.0003187803078876342
1.25500e-07	-0.0003604038597863544
1.25750e-07	-0.00039617600028963337
1.26000e-07	-0.00042724938378046155
1.26250e-07	-0.0004553492971071609
1.26500e-07	-0.0004829923514298629
1.26750e-07	-0.0005091259313786739
1.27000e-07	-0.0005331697318387935
1.27250e-07	-0.0005530190509612342
1.27500e-07	-0.00056594398632033
1.27750e-07	-0.0005730935496470136
1.28000e-07	-0.0005753401535956757
1.28250e-07	-0.0005739148192346964
1.28500e-07	-0.0005705441428598048
1.28750e-07	-0.0005647189490035516
1.29000e-07	-0.0005562258787810885
1.29250e-07	-0.0005438968025682925
1.29500e-07	-0.0005261721165392681
1.29750e-07	-0.0005039219113767509
1.30000e-07	-0.0004778429846242613
1.30250e-07	-0.00044885675249205985
1.30500e-07	-0.0004181949244554398
1.30750e-07	-0.000385688646602489
1.31000e-07	-0.00035135442141601315
1.31250e-07	-0.0003146106768937003
1.31500e-07	-0.00027463069615065296
1.31750e-07	-0.00023210974963662614
1.32000e-07	-0.0001876345233618693
1.32250e-07	-0.00014193228914708558
1.32500e-07	-9.592463702670027e-05
1.32750e-07	-4.9655808612347495e-05
1.33000e-07	-3.286142867374566e-06
1.33250e-07	4.3398635492769214e-05
1.33500e-07	9.076634042255956e-05
1.33750e-07	0.00013823141873920512
1.34000e-07	0.00018527640034169302
1.34250e-07	0.00023129577902643832
1.34500e-07	0.0002755623681606535
1.34750e-07	0.0003178986224049705
1.35000e-07	0.0003580542933645534
1.35250e-07	0.00039601375082814414
1.35500e-07	0.000431857593049705
1.35750e-07	0.00046513171438641903
1.36000e-07	0.0004958061282664298
1.36250e-07	0.0005242020633775301
1.36500e-07	0.000551184864878238
1.36750e-07	0.0005771572657858729
1.37000e-07	0.0006015323058699965
1.37250e-07	0.0006248692727303561
1.37500e-07	0.0006465651305979546
1.37750e-07	0.0006667919408944899
1.38000e-07	0.0006846963069506162
1.38250e-07	0.0007026006730067406
1.38500e-07	0.0007194433302099482
1.38750e-07	0.0007346075124209118
1.39000e-07	0.0007497716946318738
1.39250e-07	0.0007639314979224558
1.39500e-07	0.0007765034601622974
1.39750e-07	0.0007890754224021404
1.40000e-07	0.0008000651682151038
1.40250e-07	0.0008085535590685254
1.40500e-07	0.0008170419499219478
1.40750e-07	0.0008255303407753694
1.41000e-07	0.0008340187316287909
1.41250e-07	0.0008425071224822125
1.41500e-07	0.0008509955133356349
1.41750e-07	0.0008594839041890565
1.42000e-07	0.000867972295042478
1.42250e-07	0.0008749429111398456
1.42500e-07	0.0008795140492966304
1.42750e-07	0.0008840851874534154
1.43000e-07	0.0008886563256102003
1.43250e-07	0.0008932274637669857
1.43500e-07	0.0008977986019237706
1.43750e-07	0.0009023697400805555
1.44000e-07	0.0009069408782373409
1.44250e-07	0.0009115120163941258
1.44500e-07	0.0009154338914360937
1.44750e-07	0.000918329334515466
