Time(s)	Current(A)
4.25000e-06	0.001779229991359024
4.25025e-06	0.0017925021529545924
4.25050e-06	0.0018057743145501158
4.25075e-06	0.0018177068598649719
4.25100e-06	0.001812070898619494
4.25125e-06	0.0018064349373740352
4.25150e-06	0.0018007989761285763
4.25175e-06	0.0017951630148830982
4.25200e-06	0.0017895270536376394
4.25225e-06	0.0017838910923921615
4.25250e-06	0.0017782551311467025
4.25275e-06	0.0017726191699012437
4.25300e-06	0.0017669832086557658
4.25325e-06	0.001761347247410307
4.25350e-06	0.001755711286164848
4.25375e-06	0.00175007532491937
4.25400e-06	0.0017437635309355338
4.25425e-06	0.0017285884735932578
4.25450e-06	0.0017134134162509304
4.25475e-06	0.0016982383589086545
4.25500e-06	0.0016830633015663785
4.25525e-06	0.0016678882442240509
4.25550e-06	0.001652713186881775
4.25575e-06	0.001637538129539499
4.25600e-06	0.0016223526592531934
4.25625e-06	0.0016070306275671109
4.25650e-06	0.0015917085958809763
4.25675e-06	0.0015763865641948939
4.25700e-06	0.0015610645325088114
4.25725e-06	0.001545742500822677
4.25750e-06	0.0015304204691365946
4.25775e-06	0.001515098437450512
4.25800e-06	0.0015006200854147211
4.25825e-06	0.0014972062386984367
4.25850e-06	0.0014937923919821525
4.25875e-06	0.0014903785452658567
4.25900e-06	0.0014869646985495723
4.25925e-06	0.001483550851833288
4.25950e-06	0.0014801370051169922
4.25975e-06	0.0014767231584007078
4.26000e-06	0.0014733093116844236
4.26025e-06	0.0014698954649681277
4.26050e-06	0.0014664816182518435
4.26075e-06	0.0014630677715355477
4.26100e-06	0.0014596539248192633
4.26125e-06	0.001468932144723466
4.26150e-06	0.0014877519760352349
4.26175e-06	0.0015065718073469403
4.26200e-06	0.0015253916386586456
4.26225e-06	0.0015442114699704146
4.26250e-06	0.0015630313012821198
4.26275e-06	0.0015818511325938252
4.26300e-06	0.0016006709639055942
4.26325e-06	0.0016194907952172995
4.26350e-06	0.0016383106265290047
4.26375e-06	0.0016571304578407737
4.26400e-06	0.0016759502891524791
4.26425e-06	0.0016955287320476458
4.26450e-06	0.0017250560481837653
4.26475e-06	0.001754583364319785
4.26500e-06	0.0017841106804559045
4.26525e-06	0.001813637996591924
4.26550e-06	0.0018431653127279437
4.26575e-06	0.0018726926288640633
4.26600e-06	0.0019021397697499011
4.26625e-06	0.0019305354458039616
4.26650e-06	0.0019589311218581183
4.26675e-06	0.001987326797912179
4.26700e-06	0.0020157224739662393
4.26725e-06	0.002044118150020396
4.26750e-06	0.0020725138260744565
4.26775e-06	0.002100228322975541
4.26800e-06	0.0021190094405383443
4.26825e-06	0.002137790558101084
4.26850e-06	0.002156571675663824
4.26875e-06	0.0021753527932266274
4.26900e-06	0.0021941339107893676
4.26925e-06	0.0022129150283521706
4.26950e-06	0.0022316961459149104
4.26975e-06	0.0022504772634776506
4.27000e-06	0.002269258381040454
4.27025e-06	0.002288039498603194
4.27050e-06	0.002303484155787335
4.27075e-06	0.002316420536789644
4.27100e-06	0.002329356917791909
4.27125e-06	0.002342293298794174
4.27150e-06	0.002355229679796483
4.27175e-06	0.002368166060798748
4.27200e-06	0.0023811024418010133
4.27225e-06	0.0023940388228033222
4.27250e-06	0.0024069752038055874
4.27275e-06	0.0024199115848078526
4.27300e-06	0.002432670587825638
4.27325e-06	0.002443103352856728
4.27350e-06	0.0024535361178878536
4.27375e-06	0.0024639688829189437
4.27400e-06	0.0024744016479500337
4.27425e-06	0.0024848344129811593
4.27450e-06	0.0024952671780122493
4.27475e-06	0.0025056999430433397
4.27500e-06	0.0025161327080744653
4.27525e-06	0.0025265654731055553
4.27550e-06	0.0025369982381366453
4.27575e-06	0.002547431003167771
4.27600e-06	0.002557863768198861
4.27625e-06	0.002568085980171554
4.27650e-06	0.002575546876957022
4.27675e-06	0.0025830077737424646
4.27700e-06	0.002590468670527907
4.27725e-06	0.0025979295673133752
4.27750e-06	0.0026053904640988175
4.27775e-06	0.002612851360884286
4.27800e-06	0.002620312257669728
4.27825e-06	0.002627773154455171
4.27850e-06	0.0026352340512406387
4.27875e-06	0.0026426949480260814
4.27900e-06	0.002650155844811524
4.27925e-06	0.002657616741596992
4.27950e-06	0.0026658127184205466
4.27975e-06	0.0026836489621108483
4.28000e-06	0.0027014852058012107
4.28025e-06	0.002719321449491513
4.28050e-06	0.002737157693181815
4.28075e-06	0.0027549939368721773
4.28100e-06	0.002772830180562479
4.28125e-06	0.002790666424252781
4.28150e-06	0.0028085026679431436
4.28175e-06	0.0028263389116334457
4.28200e-06	0.002844175155323808
4.28225e-06	0.0028620113990141098
4.28250e-06	0.0028808752085137663
4.28275e-06	0.0029132151132816473
4.28300e-06	0.002945555018049419
4.28325e-06	0.0029778949228171907
4.28350e-06	0.0030102348275850717
4.28375e-06	0.0030425747323528434
4.28400e-06	0.0030749146371206147
4.28425e-06	0.003107254541888496
4.28450e-06	0.0031395944466562674
4.28475e-06	0.003171934351424039
4.28500e-06	0.00320427425619192
4.28525e-06	0.003236614160959692
4.28550e-06	0.0032690874696302105
4.28575e-06	0.003303310314618442
4.28600e-06	0.0033375331596065573
4.28625e-06	0.0033717560045947886
4.28650e-06	0.003405978849582904
4.28675e-06	0.003440201694571019
4.28700e-06	0.003474424539559251
4.28725e-06	0.003508647384547366
4.28750e-06	0.003536428384174345
4.28775e-06	0.0035593665487463383
4.28800e-06	0.0035823047133182544
4.28825e-06	0.00360524287789017
4.28850e-06	0.0036281810424621634
4.28875e-06	0.0036511192070340795
4.28900e-06	0.003674057371605995
4.28925e-06	0.0036954953354314418
4.28950e-06	0.003697258794726476
4.28975e-06	0.0036990222540215106
4.29000e-06	0.0036997318051639606
4.29025e-06	0.003686619792246164
4.29050e-06	0.0036735077793283227
4.29075e-06	0.0036592384023944337
4.29100e-06	0.0036297906810770233
4.29125e-06	0.003600342959759513
4.29150e-06	0.003569736384309612
4.29175e-06	0.0035239319222244445
4.29200e-06	0.0034781274601391214
4.29225e-06	0.0034313425069986848
4.29250e-06	0.003371698824285375
4.29275e-06	0.003312055141571863
4.29300e-06	0.0032511647923347976
4.29325e-06	0.003173924933727346
4.29350e-06	0.0030966850751196337
4.29375e-06	0.0030194452165121823
4.29400e-06	0.0029422053579047313
4.29425e-06	0.0028649654992970184
4.29450e-06	0.0027868514812572193
4.29475e-06	0.0026972732283503153
4.29500e-06	0.0026076949754437148
4.29525e-06	0.002518116722537114
4.29550e-06	0.0024285384696302098
4.29575e-06	0.0023389602167236093
4.29600e-06	0.002249495381282376
4.29625e-06	0.0021615179684009883
4.29650e-06	0.0020735405555198988
4.29675e-06	0.0019855631426388093
4.29700e-06	0.0018975857297574216
4.29725e-06	0.0018166946480391885
4.29750e-06	0.0017411309113653016
4.29775e-06	0.0016655671746911588
4.29800e-06	0.001590003438017272
4.29825e-06	0.0015155366405007896
4.29850e-06	0.0014554557406436016
4.29875e-06	0.0013962018965968546
4.29900e-06	0.0013477945431359017
4.29925e-06	0.0013002306463876963
4.29950e-06	0.0012637283311905563
4.29975e-06	0.0012278816850550631
4.30000e-06	0.0012010842146237541
4.30025e-06	0.0011806531180550651
4.30050e-06	0.0011667215576368127
4.30075e-06	0.0011593291867453056
4.30100e-06	0.0011583266663440794
4.30125e-06	0.0011636873651928758
4.30150e-06	0.0011773261186368322
4.30175e-06	0.0011917730526259428
4.30200e-06	0.001216818936002179
4.30225e-06	0.00124263093162972
4.30250e-06	0.001278490168589088
4.30275e-06	0.0013150424292428906
4.30300e-06	0.0013606834054111058
4.30325e-06	0.0014069181709483749
4.30350e-06	0.0014609402353808767
4.30375e-06	0.0015155720488231987
4.30400e-06	0.0015782004651679342
4.30425e-06	0.0016408288815124576
4.30450e-06	0.0017040902431945453
4.30475e-06	0.001775652417902439
4.30500e-06	0.00184721459261009
4.30525e-06	0.001918776767317741
4.30550e-06	0.001990338942025635
4.30575e-06	0.0020620299452642236
4.30600e-06	0.0021354104807326827
4.30625e-06	0.0022087910162013904
4.30650e-06	0.0022821715516698495
4.30675e-06	0.0023555520871383086
4.30700e-06	0.0024278785890854957
4.30725e-06	0.002486381882828245
4.30750e-06	0.0025448851765711928
4.30775e-06	0.002603388470313942
4.30800e-06	0.002661891764056691
4.30825e-06	0.002720395057799639
4.30850e-06	0.002778898351542388
4.30875e-06	0.0028374016452851376
4.30900e-06	0.0028768203086944363
4.30925e-06	0.0029018915744912508
4.30950e-06	0.0029269628402880657
4.30975e-06	0.002952034106084965
4.31000e-06	0.00297710537188178
4.31025e-06	0.0030021766376785945
4.31050e-06	0.0030272479034754943
4.31075e-06	0.003050481488513376
4.31100e-06	0.0030496146600270525
4.31125e-06	0.003048747831540726
4.31150e-06	0.0030472518178977347
4.31175e-06	0.0030375043044310874
4.31200e-06	0.0030272216715836065
4.31225e-06	-0.006286668697165513
4.31250e-06	-0.018329218188117696
4.31275e-06	-0.013470020473239986
4.31300e-06	-0.01049876324745102
4.31325e-06	-0.002059062463709286
4.31350e-06	0.007516902367384169
4.31375e-06	0.006007230457629402
4.31400e-06	0.005399399983248471
4.31425e-06	0.0004866192896002576
4.31450e-06	-0.009262953521016365
4.31475e-06	-0.005897175032609094
4.31500e-06	-0.002388114916287572
4.31525e-06	0.002640475844012349
4.31550e-06	0.006599525771294798
4.31575e-06	0.006459423844852674
4.31600e-06	0.003995570805027383
4.31625e-06	-8.182582273771216e-05
4.31650e-06	-0.0033388162638308444
4.31675e-06	-0.002713839974925831
4.31700e-06	-0.00028854918402654
4.31725e-06	0.0027925609128998784
4.31750e-06	0.005214208413960676
4.31775e-06	0.0050774461503915415
4.31800e-06	0.0034934942863732448
4.31825e-06	0.000906493950625099
4.31850e-06	-0.0011596804550811884
4.31875e-06	-0.0007885738774097519
4.31900e-06	0.0007139012918255944
4.31925e-06	0.0026291207171339364
4.31950e-06	0.004132419998419306
4.31975e-06	0.004034101693761568
4.32000e-06	0.0030301232134519007
4.32025e-06	0.0013985849928281663
4.32050e-06	9.391128618079221e-05
4.32075e-06	0.0003163699337749206
4.32100e-06	0.0012477493125006844
4.32125e-06	0.0024377920368847685
4.32150e-06	0.003369877955611335
4.32175e-06	0.0032988014447279316
4.32200e-06	0.0026605539690334403
4.32225e-06	0.0016293630223175783
4.32250e-06	0.0008030759069710597
4.32275e-06	0.0009334808401927372
4.32300e-06	0.0015079867867398736
4.32325e-06	0.0022445291633873673
4.32350e-06	0.0028195046993431537
4.32375e-06	0.0027661633064331977
4.32400e-06	0.0023576660869938904
4.32425e-06	0.0017031897016915969
4.32450e-06	0.0011772455697445995
4.32475e-06	0.0012507356248801975
4.32500e-06	0.0016025504875414542
4.32525e-06	0.0020560057832515943
4.32550e-06	0.0024084154186799762
4.32575e-06	0.002367449506197365
4.32600e-06	0.0021042635124488562
4.32625e-06	0.001687282508417602
4.32650e-06	0.0013511233884595244
4.32675e-06	0.0013907581003682638
4.32700e-06	0.0016050395778978638
4.32725e-06	0.00188330295880763
4.32750e-06	0.00209860669269902
4.32775e-06	0.002067870814874938
4.32800e-06	0.001898345730977504
4.32825e-06	0.00163292452236279
4.32850e-06	0.0014186451237268736
4.32875e-06	0.001440573597123721
4.32900e-06	0.0015733038052971348
4.32925e-06	0.0017480142749903113
4.32950e-06	0.0018852851933238502
4.32975e-06	0.0018703385766839918
4.33000e-06	0.0017702551060705383
4.33025e-06	0.001611798351321931
4.33050e-06	0.0014869622796256897
4.33075e-06	0.0015115523360095693
4.33100e-06	0.0016068928692388113
4.33125e-06	0.0017297583287736098
4.33150e-06	0.0018302885503194582
4.33175e-06	0.0018364807378794632
4.33200e-06	0.0017902496420242934
4.33225e-06	0.001708252512389442
4.33250e-06	0.0016480034506550702
4.33275e-06	0.0016819262901515471
4.33300e-06	0.001760620927993262
4.33325e-06	0.0018568968341851693
4.33350e-06	0.0019394100672059454
4.33375e-06	0.0019629501916618853
4.33400e-06	0.0019536653955499485
4.33425e-06	0.0019218810046012656
4.33450e-06	0.0019035128674831131
4.33475e-06	0.0019438124818880321
4.33500e-06	0.0020117203671818676
4.33525e-06	0.002090091328421894
4.33550e-06	0.002159180358485699
4.33575e-06	0.0021905582347309313
4.33600e-06	0.002200495631188464
4.33625e-06	0.00219535071779846
4.33650e-06	0.002197510072299264
4.33675e-06	0.002235205856891108
4.33700e-06	0.0022888688426836662
4.33725e-06	0.0023476470434544154
4.33750e-06	0.0023990607404449004
4.33775e-06	0.0024251922551633146
4.33800e-06	0.00243420998786416
4.33825e-06	0.002432436167605483
4.33850e-06	0.002437932242347336
4.33875e-06	0.002460400772125235
4.33900e-06	0.002491369212228617
4.33925e-06	0.0025237416356762854
4.33950e-06	0.002549022026640384
4.33975e-06	0.002557634039080225
4.34000e-06	0.0025539129519282695
4.34025e-06	0.0025421995914919693
4.34050e-06	0.0025343889780507912
4.34075e-06	0.00253569884436982
4.34100e-06	0.0025411386489525654
4.34125e-06	0.0025465603433206894
4.34150e-06	0.002547083286276498
4.34175e-06	0.0025361197725143696
4.34200e-06	0.0025166577290788275
4.34225e-06	0.002491630181115779
4.34250e-06	0.002468787526097948
4.34275e-06	0.002451080950932197
4.34300e-06	0.0024345632067058207
4.34325e-06	0.0024160139773769895
4.34350e-06	0.0023974647480481583
4.34375e-06	0.002374910644858493
4.34400e-06	0.002344007071522088
4.34425e-06	0.0023105915279857427
4.34450e-06	0.0022771759844492845
4.34475e-06	0.0022457544754514195
4.34500e-06	0.0022173938039999896
4.34525e-06	0.002188397851741384
4.34550e-06	0.0021594018994828767
4.34575e-06	0.0021280937487689147
4.34600e-06	0.002092808148307729
4.34625e-06	0.0020582796618476844
4.34650e-06	0.002025053564844946
4.34675e-06	0.0019918274678423207
4.34700e-06	0.001960494063116378
4.34725e-06	0.0019324164725265608
4.34750e-06	0.0019043388819368389
4.34775e-06	0.0018768104104842174
4.34800e-06	0.00185022653518749
4.34825e-06	0.0018236426598908526
4.34850e-06	0.0017970587845942152
4.34875e-06	0.0017724941795428941
4.34900e-06	0.001751403128376017
4.34925e-06	0.0017303120772091398
4.34950e-06	0.0017092210260421913
4.34975e-06	0.0016876776098518327
4.35000e-06	0.0016653560341813296
4.35025e-06	0.0016430344585107509
4.35050e-06	0.0016207128828402478
4.35075e-06	0.001598391307169669
4.35100e-06	0.001576069731499166
4.35125e-06	0.0015537481558286629
4.35150e-06	0.0015314265801580841
4.35175e-06	0.0015085961212526987
4.35200e-06	0.001484890280094182
4.35225e-06	0.001461184438935585
4.35250e-06	0.0014374785977770684
4.35275e-06	0.0014137727566185517
4.35300e-06	0.0013900669154599545
4.35325e-06	0.0013663610743014378
4.35350e-06	0.001342655233142921
4.35375e-06	0.0013183275602124474
4.35400e-06	0.0012929302106643205
4.35425e-06	0.0012675328611161936
4.35450e-06	0.0012421355115679806
4.35475e-06	0.0012167381620198535
4.35500e-06	0.0011913408124716405
4.35525e-06	0.0011659434629235136
4.35550e-06	0.0011412026860217475
4.35575e-06	0.0011175913470794887
4.35600e-06	0.00109398000813731
4.35625e-06	0.0010703686691951315
4.35650e-06	0.0010467573302528727
4.35675e-06	0.0010231459913106942
4.35700e-06	0.0009995346523685154
4.35725e-06	0.0009771225526089256
4.35750e-06	0.0009567733871842211
4.35775e-06	0.0009364242217595165
4.35800e-06	0.0009171774672740165
4.35825e-06	0.0008998270829293592
4.35850e-06	0.0008824766985847019
4.35875e-06	0.0008667811289526834
4.35900e-06	0.0008539321758571082
4.35925e-06	0.0008410832227614895
4.35950e-06	0.0008298116725283971
4.35975e-06	0.0008212535747672727
4.36000e-06	0.0008126954770061194
4.36025e-06	0.000805883657346234
4.36050e-06	0.0008020757897794895
4.36075e-06	0.0007982679222127321
4.36100e-06	0.0007962132871887774
4.36125e-06	0.0007971745673062096
4.36150e-06	0.0007981358474236452
4.36175e-06	0.0008006210846288144
4.36200e-06	0.0008057278367462892
4.36225e-06	0.0008108345888637814
4.36250e-06	0.0008174131647221582
4.36275e-06	0.0008265235755751369
4.36300e-06	0.0008356339864281464
4.36325e-06	0.0008464536563551826
4.36350e-06	0.000860213598149211
4.36375e-06	0.0008739735399431928
4.36400e-06	0.0008877334817371746
4.36425e-06	0.000901493423531203
4.36450e-06	0.0009152533653251848
4.36475e-06	0.0009290133071191667
4.36500e-06	0.0009455584481652315
4.36525e-06	0.0009625285514136077
4.36550e-06	0.000979498654661984
4.36575e-06	0.0009964687579104177
4.36600e-06	0.001013438861158794
4.36625e-06	0.0010304089644071705
4.36650e-06	0.0010469640621987115
4.36675e-06	0.0010628052665331055
4.36700e-06	0.0010786464708674995
4.36725e-06	0.0010944876752019472
4.36750e-06	0.0011103288795363412
4.36775e-06	0.0011261700838707887
4.36800e-06	0.001139229705328109
4.36825e-06	0.0011518649163650687
4.36850e-06	0.0011645001274020717
4.36875e-06	0.0011771353384390317
4.36900e-06	0.0011897705494759916
4.36925e-06	0.0012043279837157758
4.36950e-06	0.0012221920312654407
4.36975e-06	0.0012400560788151057
4.37000e-06	0.0012597937313748597
4.37025e-06	0.0012827543641038934
4.37050e-06	0.001305714996832927
4.37075e-06	0.0013310129210698726
4.37100e-06	0.0013603314601851625
4.37125e-06	0.0013896499993004522
4.37150e-06	0.0014218953097865383
4.37175e-06	0.0014591752599309286
4.37200e-06	0.0014964552100754452
4.37225e-06	0.0015358716502527254
4.37250e-06	0.0015789632860933598
4.37275e-06	0.0016220549219341403
4.37300e-06	0.0016683600584381758
4.37325e-06	0.0017201930670690797
4.37350e-06	0.0017720260757001596
4.37375e-06	0.0018238590843310636
4.37400e-06	0.0018756920929619678
4.37425e-06	0.0019275251015930476
4.37450e-06	0.0019793581102239516
4.37475e-06	0.002035610752924125
4.37500e-06	0.002092537737837407
4.37525e-06	0.0021494647227504955
4.37550e-06	0.0022063917076635847
4.37575e-06	0.0022633186925768664
4.37600e-06	0.002320245677489955
4.37625e-06	0.002375295394446173
4.37650e-06	0.002427115830222347
4.37675e-06	0.002478936265998521
4.37700e-06	0.0025307567017748703
4.37725e-06	0.0025825771375510443
4.37750e-06	0.002634397573327218
4.37775e-06	0.0026862180091035675
4.37800e-06	0.002722732513368212
4.37825e-06	0.0027569116578355017
4.37850e-06	0.0027910908023029072
4.37875e-06	0.0028252699467701974
4.37900e-06	0.002859449091237487
4.37925e-06	0.0028936282357048928
4.37950e-06	0.002920321550169572
4.37975e-06	0.0029341377205639924
4.38000e-06	0.00294795389095846
4.38025e-06	0.0029566150441170365
4.38050e-06	0.0029564085233361147
4.38075e-06	0.0029562020025551937
4.38100e-06	0.0029507616903308646
4.38125e-06	0.0029363181965721768
4.38150e-06	0.0029218747028135384
4.38175e-06	0.002902587237241037
4.38200e-06	0.002874967158866001
4.38225e-06	0.002847347080491059
4.38250e-06	0.0028153955904753575
4.38275e-06	0.0027759931949883922
4.38300e-06	0.0027365907995015606
4.38325e-06	0.002692128780318296
4.38350e-06	0.002638963183408295
4.38375e-06	0.002585797586498474
4.38400e-06	0.002532631989588653
4.38425e-06	0.0024794663926786514
4.38450e-06	0.0024263007957688303
4.38475e-06	0.002369602627868536
4.38500e-06	0.0023068277222440467
4.38525e-06	0.002244052816619558
4.38550e-06	0.002181277910994856
4.38575e-06	0.0021185030053703672
4.38600e-06	0.0020557280997458784
4.38625e-06	0.0019936020299643306
4.38650e-06	0.0019325920892730385
4.38675e-06	0.0018715821485817462
4.38700e-06	0.0018105722078902472
4.38725e-06	0.0017495622671989549
4.38750e-06	0.0016929039409796858
4.38775e-06	0.00164373127319304
4.38800e-06	0.001594558605406561
4.38825e-06	0.001545385937620082
4.38850e-06	0.0014962132698334366
4.38875e-06	0.0014519018422745604
4.38900e-06	0.0014159527326866202
4.38925e-06	0.0013829631124428205
4.38950e-06	0.0013550644133976393
4.38975e-06	0.0013302620243092998
4.39000e-06	0.0013107859155906364
4.39025e-06	0.001294556632342058
4.39050e-06	0.0012839125466367416
4.39075e-06	0.0012764915557072227
4.39100e-06	0.0012746149407193725
4.39125e-06	0.0012757373591001124
4.39150e-06	0.0012820187224122674
4.39175e-06	0.0012911602656433684
4.39200e-06	0.0013052218977439088
4.39225e-06	0.0013220134156263841
4.39250e-06	0.0013435008900679125
4.39275e-06	0.0013680234682482732
4.39300e-06	0.0013977670397035532
4.39325e-06	0.001427510611158934
4.39350e-06	0.0014602081868655321
4.39375e-06	0.0014979872482997019
4.39400e-06	0.0015357663097339993
4.39425e-06	0.0015764769214892985
4.39450e-06	0.0016222303936635058
4.39475e-06	0.0016679838658378683
4.39500e-06	0.0017137373380120757
4.39525e-06	0.001759490810186283
4.39550e-06	0.0018052442823606454
4.39575e-06	0.001851782786161161
4.39600e-06	0.0018996717033887471
4.39625e-06	0.0019475606206164956
4.39650e-06	0.0019954495378440816
4.39675e-06	0.002043338455071668
4.39700e-06	0.0020912273722994163
4.39725e-06	0.0021354512620753658
4.39750e-06	0.0021733705621823597
4.39775e-06	0.002211289862289225
4.39800e-06	0.0022492091623960903
