Time(s)	Current(A)
3.00000e-07	-0.0034760575951782906
3.00250e-07	-0.003477755473842029
3.00500e-07	-0.0034692339038347457
3.00750e-07	-0.00345390309249314
3.01000e-07	-0.0034385722811515374
3.01250e-07	-0.003413813492433986
3.01500e-07	-0.003382772821462917
3.01750e-07	-0.003351732150491841
3.02000e-07	-0.0033093936924571115
3.02250e-07	-0.003259527493823396
3.02500e-07	-0.0032096612951896704
3.02750e-07	-0.0031597950965559446
3.03000e-07	-0.0031099288979222293
3.03250e-07	-0.0030600626992885035
3.03500e-07	-0.0030088383209674555
3.03750e-07	-0.002945408125436449
3.04000e-07	-0.0028819779299054295
3.04250e-07	-0.0028185477343744096
3.04500e-07	-0.002755117538843403
3.04750e-07	-0.0026916873433123836
3.05000e-07	-0.0026282571477813637
3.05250e-07	-0.002566518495169551
3.05500e-07	-0.0025059069213596236
3.05750e-07	-0.002445295347549709
3.06000e-07	-0.002384683773739782
3.06250e-07	-0.002324072199929855
3.06500e-07	-0.0022652211942999377
3.06750e-07	-0.0022221922287075533
3.07000e-07	-0.002179163263115169
3.07250e-07	-0.0021361342975227938
3.07500e-07	-0.0020931053319304094
3.07750e-07	-0.002050076366338025
3.08000e-07	-0.0020182732936866086
3.08250e-07	-0.001993950058420698
3.08500e-07	-0.0019762393555330755
3.08750e-07	-0.001962934597647442
3.09000e-07	-0.001956425556781037
3.09250e-07	-0.0019544445172495085
3.09500e-07	-0.0019594045128352882
3.09750e-07	-0.0019689893355272665
3.10000e-07	-0.001985369945102944
3.10250e-07	-0.002006278602564351
3.10500e-07	-0.002035105419623699
3.10750e-07	-0.002069208123999674
3.11000e-07	-0.0021033108283756564
3.11250e-07	-0.002146072022852444
3.11500e-07	-0.0021946023885032863
3.11750e-07	-0.0022431327541541386
3.12000e-07	-0.002299037361214034
3.12250e-07	-0.002359855441693921
3.12500e-07	-0.002420673522173821
3.12750e-07	-0.002489064981091072
3.13000e-07	-0.002562502598872318
3.13250e-07	-0.00263594021665358
3.13500e-07	-0.0027093778344348257
3.13750e-07	-0.0027828154522160876
3.14000e-07	-0.002856253069997349
3.14250e-07	-0.00293302622718076
3.14500e-07	-0.0030120218616720047
3.14750e-07	-0.0030910174961632495
3.15000e-07	-0.003170013130654478
3.15250e-07	-0.003249008765145723
3.15500e-07	-0.003328004399636968
3.15750e-07	-0.003399229623911919
3.16000e-07	-0.0034652774066111875
3.16250e-07	-0.0035313251893104563
3.16500e-07	-0.0035973729720097116
3.16750e-07	-0.0036634207547089803
3.17000e-07	-0.0037294685374082495
3.17250e-07	-0.0037955163201075044
3.17500e-07	-0.0038581444892021996
3.17750e-07	-0.0038900409524870827
3.18000e-07	-0.003921937415771973
3.18250e-07	-0.003953833879056862
3.18500e-07	-0.003985730342341745
3.18750e-07	-0.0040176268056266356
3.19000e-07	-0.004049523268911525
3.19250e-07	-0.004081419732196408
3.19500e-07	-0.004096061869736657
3.19750e-07	-0.00409920741173242
3.20000e-07	-0.004102352953728184
3.20250e-07	-0.004089830875935578
3.20500e-07	-0.00406686942829929
3.20750e-07	-0.004043907980663008
3.21000e-07	-0.004020946533026721
3.21250e-07	-0.0039979850853904386
3.21500e-07	-0.003975023637754152
3.21750e-07	-0.003952062190117864
3.22000e-07	-0.0039263549452997
3.22250e-07	-0.0038759715116000906
3.22500e-07	-0.003825588077900481
3.22750e-07	-0.0037752046442008826
3.23000e-07	-0.0037248212105012732
3.23250e-07	-0.0036744377768016642
3.23500e-07	-0.0036240543431020657
3.23750e-07	-0.0035736709094024563
3.24000e-07	-0.003517324058775123
3.24250e-07	-0.0034570037702113675
3.24500e-07	-0.003396683481647599
3.24750e-07	-0.0033363631930838312
3.25000e-07	-0.003276042904520076
3.25250e-07	-0.003215722615956308
3.25500e-07	-0.003159252767940292
3.25750e-07	-0.003105348477008372
3.26000e-07	-0.0030514441860764515
3.26250e-07	-0.0029975398951445427
3.26500e-07	-0.0029436356042126226
3.26750e-07	-0.0028897313132807026
3.27000e-07	-0.0028444294578562606
3.27250e-07	-0.002804859424305998
3.27500e-07	-0.0027652893907557357
3.27750e-07	-0.0027322529893086785
3.28000e-07	-0.0027035699614352416
3.28250e-07	-0.002674886933561805
3.28500e-07	-0.0026525487174166966
3.28750e-07	-0.002634438063410295
3.29000e-07	-0.0026163274094038974
3.29250e-07	-0.0026051423737549857
3.29500e-07	-0.0025985718929910726
3.29750e-07	-0.002592001412227161
3.30000e-07	-0.002591356928980704
3.30250e-07	-0.0025946609510345818
3.30500e-07	-0.0025979649730884587
3.30750e-07	-0.0026108826024155794
3.31000e-07	-0.0026302057996090236
3.31250e-07	-0.002649528996802464
3.31500e-07	-0.002668852193995908
3.31750e-07	-0.0026881753911893523
3.32000e-07	-0.0027074985883827926
3.32250e-07	-0.002726821785576237
3.32500e-07	-0.0027461449827696814
3.32750e-07	-0.002774474548549283
3.33000e-07	-0.0028088050777100807
3.33250e-07	-0.002843135606870871
3.33500e-07	-0.0028774661360316685
3.33750e-07	-0.002911796665192466
3.34000e-07	-0.002946127194353257
3.34250e-07	-0.0029804577235140544
3.34500e-07	-0.003014788252674852
3.34750e-07	-0.0030506059309218293
3.35000e-07	-0.0030874144999060993
3.35250e-07	-0.0031242230688903693
3.35500e-07	-0.003161031637874632
3.35750e-07	-0.003197840206858902
3.36000e-07	-0.003234648775843172
3.36250e-07	-0.003271457344827434
3.36500e-07	-0.00330714422723276
3.36750e-07	-0.003332750630980949
3.37000e-07	-0.0033583570347291434
3.37250e-07	-0.003383963438477338
3.37500e-07	-0.0034095698422255266
3.37750e-07	-0.0034351762459737213
3.38000e-07	-0.0034607826497219155
3.38250e-07	-0.0034863890534701045
3.38500e-07	-0.003496125929111078
3.38750e-07	-0.0034952889029471424
3.39000e-07	-0.0034944518767832068
3.39250e-07	-0.003493614850619271
3.39500e-07	-0.0034927778244553355
3.39750e-07	-0.0034919407982914
3.40000e-07	-0.003491103772127464
3.40250e-07	-0.0034902667459635285
3.40500e-07	-0.0034894297197995932
3.40750e-07	-0.0034885926936356576
3.41000e-07	-0.0034710312590762672
3.41250e-07	-0.00344232631407824
3.41500e-07	-0.003413621369080213
3.41750e-07	-0.003384916424082192
3.42000e-07	-0.0033562114790841647
3.42250e-07	-0.0033275065340861378
3.42500e-07	-0.0032988015890881165
3.42750e-07	-0.0032700966440900895
3.43000e-07	-0.0032413916990920626
3.43250e-07	-0.0032126867540940413
3.43500e-07	-0.0031769171458045286
3.43750e-07	-0.0031364403366817956
3.44000e-07	-0.0030959635275590717
3.44250e-07	-0.003055486718436339
3.44500e-07	-0.003015009909313606
3.44750e-07	-0.002974533100190882
3.45000e-07	-0.0029340562910681496
3.45250e-07	-0.002895931000245659
3.45500e-07	-0.0028593725312864977
3.45750e-07	-0.0028228140623273363
3.46000e-07	-0.0027862555933681828
3.46250e-07	-0.002749697124409022
3.46500e-07	-0.0027131386554498605
3.46750e-07	-0.002676580186490707
3.47000e-07	-0.0026552104148641256
3.47250e-07	-0.0026439609059860786
3.47500e-07	-0.0026327113971080338
3.47750e-07	-0.0026214618882299864
3.48000e-07	-0.002610212379351939
3.48250e-07	-0.002598962870473894
3.48500e-07	-0.002587713361595847
3.48750e-07	-0.002576463852717802
3.49000e-07	-0.002565214343839755
3.49250e-07	-0.0025539648349617076
3.49500e-07	-0.0025427153260836628
3.49750e-07	-0.0025553297418673612
3.50000e-07	-0.0025838447436262956
3.50250e-07	-0.0026123597453852235
3.50500e-07	-0.002640874747144158
3.50750e-07	-0.0026693897489030918
3.51000e-07	-0.00269790475066202
3.51250e-07	-0.0027264197524209544
3.51500e-07	-0.0027549347541798884
3.51750e-07	-0.0027834497559388167
3.52000e-07	-0.0028119647576977506
3.52250e-07	-0.002840479759456685
3.52500e-07	-0.002883113951461974
3.52750e-07	-0.0029351557912701996
3.53000e-07	-0.0029871976310784144
3.53250e-07	-0.00303923947088664
3.53500e-07	-0.0030912813106948656
3.53750e-07	-0.00314332315050308
3.54000e-07	-0.0031953649903113056
3.54250e-07	-0.003247755953112757
3.54500e-07	-0.0033032844473317303
3.54750e-07	-0.0033588129415507155
3.55000e-07	-0.0034143414357697007
3.55250e-07	-0.003469869929988674
3.55500e-07	-0.00352539842420766
3.55750e-07	-0.003580926918426645
3.56000e-07	-0.0036364554126456184
3.56250e-07	-0.0036802674861631
3.56500e-07	-0.003716272882559015
3.56750e-07	-0.003752278278954938
3.57000e-07	-0.003788283675350861
3.57250e-07	-0.0038242890717467767
3.57500e-07	-0.0038602944681426997
3.57750e-07	-0.0038962998645386228
3.58000e-07	-0.003932305260934538
3.58250e-07	-0.003968310657330461
3.58500e-07	-0.004004316053726384
3.58750e-07	-0.004040321450122299
3.59000e-07	-0.004072705521863751
3.59250e-07	-0.004072545131919488
3.59500e-07	-0.004072384741975225
3.59750e-07	-0.004072224352030962
3.60000e-07	-0.004072063962086698
3.60250e-07	-0.004071903572142436
3.60500e-07	-0.004071743182198172
3.60750e-07	-0.004071582792253909
3.61000e-07	-0.004071422402309646
3.61250e-07	-0.004071262012365383
3.61500e-07	-0.0040711016224211196
3.61750e-07	-0.004070941232476857
3.62000e-07	-0.004056357764712017
3.62250e-07	-0.004032164168178906
3.62500e-07	-0.004007970571645789
3.62750e-07	-0.003983776975112673
3.63000e-07	-0.003959583378579563
3.63250e-07	-0.003935389782046446
3.63500e-07	-0.00391119618551333
3.63750e-07	-0.0038870025889802193
3.64000e-07	-0.003862225883189056
3.64250e-07	-0.0038322088361642313
3.64500e-07	-0.0038021917891394126
3.64750e-07	-0.0037721747421145878
3.65000e-07	-0.003742157695089769
3.65250e-07	-0.0037121406480649438
3.65500e-07	-0.003682123601040119
3.65750e-07	-0.0036521065540153002
3.66000e-07	-0.003622089506990475
3.66250e-07	-0.003600348442365757
3.66500e-07	-0.003584121683185333
3.66750e-07	-0.003567894924004906
3.67000e-07	-0.0035516681648244787
3.67250e-07	-0.0035354414056440546
3.67500e-07	-0.0035192146464636275
3.67750e-07	-0.0035029878872832
3.68000e-07	-0.0034867611281027763
3.68250e-07	-0.003470534368922349
3.68500e-07	-0.003454307609741925
3.68750e-07	-0.0034584655423894077
3.69000e-07	-0.0034762058404519715
3.69250e-07	-0.0034939461385145314
3.69500e-07	-0.003511686436577095
3.69750e-07	-0.0035294267346396586
3.70000e-07	-0.0035471670327022185
3.70250e-07	-0.0035649073307647823
3.70500e-07	-0.003582647628827346
3.70750e-07	-0.003600387926889906
3.71000e-07	-0.00361812822495247
3.71250e-07	-0.0036534581609554144
3.71500e-07	-0.003700508111763691
3.71750e-07	-0.0037475580625719778
3.72000e-07	-0.0037946080133802644
3.72250e-07	-0.003841657964188541
3.72500e-07	-0.003888707914996828
3.72750e-07	-0.0039357578658051045
3.73000e-07	-0.003982807816613391
3.73250e-07	-0.004037521375822162
3.73500e-07	-0.004097341214319938
3.73750e-07	-0.004157161052817725
3.74000e-07	-0.004216980891315513
3.74250e-07	-0.004276800729813288
3.74500e-07	-0.0043366205683110755
3.74750e-07	-0.004396440406808863
3.75000e-07	-0.004456260245306639
3.75250e-07	-0.004512435622208524
3.75500e-07	-0.004566182686259031
3.75750e-07	-0.004619929750309527
3.76000e-07	-0.004673676814360035
3.76250e-07	-0.004727423878410531
3.76500e-07	-0.004781170942461038
3.76750e-07	-0.004834918006511545
3.77000e-07	-0.004888665070562042
3.77250e-07	-0.004939615257384002
3.77500e-07	-0.0049654302043440025
3.77750e-07	-0.004991245151303997
3.78000e-07	-0.005017060098263998
3.78250e-07	-0.005042875045223999
3.78500e-07	-0.005068689992183993
3.78750e-07	-0.005094504939143994
3.79000e-07	-0.005120319886103994
3.79250e-07	-0.0051461348330639894
3.79500e-07	-0.005148611629448926
3.79750e-07	-0.005135538164299272
3.80000e-07	-0.005122464699149621
3.80250e-07	-0.0051093912339999666
3.80500e-07	-0.005096317768850315
3.80750e-07	-0.005083244303700661
3.81000e-07	-0.005070170838551007
3.81250e-07	-0.005057097373401356
3.81500e-07	-0.005044023908251701
3.81750e-07	-0.005027939638954133
3.82000e-07	-0.004984797591194408
3.82250e-07	-0.004941655543434673
3.82500e-07	-0.004898513495674939
3.82750e-07	-0.0048553714479152126
3.83000e-07	-0.0048122294001554785
3.83250e-07	-0.004769087352395744
3.83500e-07	-0.004725945304636018
3.83750e-07	-0.004682803256876283
3.84000e-07	-0.0046396612091165485
3.84250e-07	-0.00459172809132156
3.84500e-07	-0.004540602672926756
3.84750e-07	-0.004489477254531963
3.85000e-07	-0.004438351836137159
3.85250e-07	-0.004387226417742355
3.85500e-07	-0.004336100999347562
3.85750e-07	-0.004284975580952758
3.86000e-07	-0.0042409425640401385
3.86250e-07	-0.004201635229978968
3.86500e-07	-0.004162327895917787
3.86750e-07	-0.004123020561856608
3.87000e-07	-0.004083713227795436
3.87250e-07	-0.004044405893734256
3.87500e-07	-0.0040050985596730765
3.87750e-07	-0.003977981417912539
3.88000e-07	-0.003958986628341967
3.88250e-07	-0.0039399918387714
3.88500e-07	-0.003930627912998015
3.88750e-07	-0.003927681053151502
3.89000e-07	-0.00392473419330499
3.89250e-07	-0.003931612699940777
3.89500e-07	-0.003945037870074291
3.89750e-07	-0.0039584630402078
3.90000e-07	-0.003982061781343229
3.90250e-07	-0.0040124391954207495
3.90500e-07	-0.004042816609498264
3.90750e-07	-0.004089025591987235
3.91000e-07	-0.004145783183652026
3.91250e-07	-0.004202540775316805
3.91500e-07	-0.004259298366981596
3.91750e-07	-0.004316055958646387
3.92000e-07	-0.004372813550311166
3.92250e-07	-0.004429571141975957
3.92500e-07	-0.004486328733640736
3.92750e-07	-0.004557716818677045
3.93000e-07	-0.004638853233923919
3.93250e-07	-0.004719989649170776
3.93500e-07	-0.00480112606441765
3.93750e-07	-0.004882262479664524
3.94000e-07	-0.004963398894911381
3.94250e-07	-0.005044535310158255
3.94500e-07	-0.005125671725405129
3.94750e-07	-0.0052069775130871585
3.95000e-07	-0.005288396153998737
3.95250e-07	-0.005369814794910317
3.95500e-07	-0.005451233435821878
3.95750e-07	-0.005532652076733458
3.96000e-07	-0.0056140707176450194
3.96250e-07	-0.005695489358556599
3.96500e-07	-0.005774206883613958
3.96750e-07	-0.005828649766151788
3.97000e-07	-0.005883092648689629
3.97250e-07	-0.005937535531227472
3.97500e-07	-0.005991978413765302
3.97750e-07	-0.006046421296303143
3.98000e-07	-0.0061008641788409855
3.98250e-07	-0.006155307061378816
3.98500e-07	-0.006179450193325862
3.98750e-07	-0.006183404534193998
3.99000e-07	-0.006187358875062134
3.99250e-07	-0.0061913132159302706
3.99500e-07	-0.006195267556798408
3.99750e-07	-0.006199221897666543
4.00000e-07	-0.00620317623853468
4.00250e-07	-0.006207130579402816
4.00500e-07	-0.0062059372239079555
4.00750e-07	-0.006158482065604187
4.01000e-07	-0.006111026907300429
4.01250e-07	-0.006063571748996661
4.01500e-07	-0.006016116590692893
4.01750e-07	-0.005968661432389135
4.02000e-07	-0.005921206274085367
4.02250e-07	-0.005873751115781599
4.02500e-07	-0.0058262959574778405
4.02750e-07	-0.005760913825042628
4.03000e-07	-0.005683586909948798
4.03250e-07	-0.005606259994854984
4.03500e-07	-0.005528933079761152
4.03750e-07	-0.005451606164667338
4.04000e-07	-0.005374279249573508
4.04250e-07	-0.005296952334479677
4.04500e-07	-0.005217278292566665
4.04750e-07	-0.005136040354843777
4.05000e-07	-0.0050548024171208905
4.05250e-07	-0.00497356447939802
4.05500e-07	-0.0048923265416751325
4.05750e-07	-0.004811088603952246
4.06000e-07	-0.004729850666229375
4.06250e-07	-0.004664649820576352
4.06500e-07	-0.004610134524969148
4.06750e-07	-0.004555619229361954
4.07000e-07	-0.00450110393375475
4.07250e-07	-0.004446588638147545
4.07500e-07	-0.004392073342540351
4.07750e-07	-0.004337558046933147
4.08000e-07	-0.004283042751325953
4.08250e-07	-0.004234089931527614
4.08500e-07	-0.0042351264935531615
4.08750e-07	-0.004236163055578708
4.09000e-07	-0.004237199617604255
4.09250e-07	-0.004238236179629802
4.09500e-07	-0.004239272741655349
4.09750e-07	-0.004240309303680896
4.10000e-07	-0.004241345865706443
4.10250e-07	-0.00424238242773199
4.10500e-07	-0.004267376075514167
4.10750e-07	-0.004308332382716744
4.11000e-07	-0.004349288689919313
4.11250e-07	-0.004407104850767303
4.11500e-07	-0.004476154769525321
4.11750e-07	-0.004545204688283324
4.12000e-07	-0.004614254607041342
4.12250e-07	-0.004683304525799344
4.12500e-07	-0.004752354444557363
4.12750e-07	-0.00482140436331538
4.13000e-07	-0.004905046694318199
4.13250e-07	-0.004998411981992524
4.13500e-07	-0.005091777269666848
4.13750e-07	-0.0051851425573411535
4.14000e-07	-0.005278507845015479
4.14250e-07	-0.005371873132689804
4.14500e-07	-0.005465238420364109
4.14750e-07	-0.005559087848855829
4.15000e-07	-0.005653259861448894
4.15250e-07	-0.0057474318740419385
4.15500e-07	-0.005841603886635004
4.15750e-07	-0.005935775899228049
4.16000e-07	-0.006029947911821114
4.16250e-07	-0.006124119924414179
4.16500e-07	-0.006202095077223036
4.16750e-07	-0.006269278226403277
4.17000e-07	-0.006336461375583519
4.17250e-07	-0.006403644524763747
4.17500e-07	-0.006470827673943989
4.17750e-07	-0.006538010823124231
4.18000e-07	-0.006605193972304459
4.18250e-07	-0.006641888141587049
4.18500e-07	-0.006658267435883155
4.18750e-07	-0.006674646730179258
4.19000e-07	-0.006691026024475365
4.19250e-07	-0.0067074053187714715
4.19500e-07	-0.006723784613067575
4.19750e-07	-0.006740163907363681
4.20000e-07	-0.00675112550214278
4.20250e-07	-0.006713398804320365
4.20500e-07	-0.006675672106497952
4.20750e-07	-0.006637945408675546
4.21000e-07	-0.006600218710853131
4.21250e-07	-0.006562492013030718
4.21500e-07	-0.006524765315208312
4.21750e-07	-0.006487038617385897
4.22000e-07	-0.006425693108256532
4.22250e-07	-0.006348610332723349
4.22500e-07	-0.00627152755719015
4.22750e-07	-0.0061944447816569504
4.23000e-07	-0.006117362006123768
4.23250e-07	-0.006040279230590568
4.23500e-07	-0.0059631964550573855
4.23750e-07	-0.005876689681096581
4.24000e-07	-0.005783903676063668
4.24250e-07	-0.0056911176710307725
4.24500e-07	-0.005598331665997859
4.24750e-07	-0.005505545660964945
4.25000e-07	-0.0054127596559320505
4.25250e-07	-0.005319973650899136
4.25500e-07	-0.005236487564994697
4.25750e-07	-0.005159198035849947
4.26000e-07	-0.005081908506705181
4.26250e-07	-0.005004618977560415
4.26500e-07	-0.004927329448415666
4.26750e-07	-0.0048500399192709
4.27000e-07	-0.004772750390126134
4.27250e-07	-0.0046954608609813845
4.27500e-07	-0.0046225733873634075
4.27750e-07	-0.004589246721218652
4.28000e-07	-0.004555920055073887
4.28250e-07	-0.004522593388929123
4.28500e-07	-0.0044892667227843675
4.28750e-07	-0.004455940056639603
4.29000e-07	-0.004422613390494839
4.29250e-07	-0.004389286724350083
4.29500e-07	-0.004355960058205319
4.29750e-07	-0.004349678832613689
4.30000e-07	-0.004361418044099354
4.30250e-07	-0.004373157255585021
4.30500e-07	-0.004384896467070688
4.30750e-07	-0.004396635678556352
4.31000e-07	-0.004408374890042019
4.31250e-07	-0.004420114101527687
4.31500e-07	-0.004431853313013351
4.31750e-07	-0.0044468075657620315
4.32000e-07	-0.004490655054330134
4.32250e-07	-0.004534502542898244
4.32500e-07	-0.004578350031466355
4.32750e-07	-0.004622197520034456
4.33000e-07	-0.004666045008602567
4.33250e-07	-0.004709892497170677
4.33500e-07	-0.004753739985738779
4.33750e-07	-0.00479758747430689
4.34000e-07	-0.004848546428257442
4.34250e-07	-0.004904243767378683
4.34500e-07	-0.0049599411064999354
4.34750e-07	-0.005015638445621188
4.35000e-07	-0.005071335784742428
4.35250e-07	-0.00512703312386368
4.35500e-07	-0.005182730462984921
4.35750e-07	-0.0052384278021061735
4.36000e-07	-0.005287633928501985
4.36250e-07	-0.005332514945449305
4.36500e-07	-0.005377395962396634
4.36750e-07	-0.005422276979343963
4.37000e-07	-0.005467157996291282
4.37250e-07	-0.005512039013238611
4.37500e-07	-0.0055569200301859405
4.37750e-07	-0.005601801047133261
4.38000e-07	-0.005628723678429209
4.38250e-07	-0.005643680597500676
4.38500e-07	-0.005658637516572141
4.38750e-07	-0.0056735944356436085
4.39000e-07	-0.005688551354715076
4.39250e-07	-0.005703508273786541
4.39500e-07	-0.005718465192858008
4.39750e-07	-0.005733422111929473
4.40000e-07	-0.00574837903100094
4.40250e-07	-0.0057633359500724075
4.40500e-07	-0.005778292869143872
4.40750e-07	-0.005790186893654815
4.41000e-07	-0.005774555008670466
4.41250e-07	-0.005758923123686121
4.41500e-07	-0.005743291238701772
4.41750e-07	-0.005727659353717424
4.42000e-07	-0.005712027468733078
4.42250e-07	-0.00569639558374873
4.42500e-07	-0.005680763698764381
4.42750e-07	-0.005665131813780035
4.43000e-07	-0.005649499928795687
4.43250e-07	-0.005633868043811341
4.43500e-07	-0.005618236158826993
4.43750e-07	-0.00559583368494737
4.44000e-07	-0.005568919952657108
4.44250e-07	-0.00554200622036684
4.44500e-07	-0.005515092488076571
4.44750e-07	-0.005488178755786309
4.45000e-07	-0.005461265023496042
4.45250e-07	-0.0054343512912057735
4.45500e-07	-0.005407437558915511
