Time(s)	Current(A)
8.50000e-06	0.00019927572787292784
8.50025e-06	0.00027630657708406227
8.50050e-06	0.000346942654661348
8.50075e-06	0.0004124515029152962
8.50100e-06	0.0004743843664217989
8.50125e-06	0.0005331057424044767
8.50150e-06	0.0005882554034704893
8.50175e-06	0.0006394432139462088
8.50200e-06	0.0006862790078801352
8.50225e-06	0.0007283727308919311
8.50250e-06	0.0007657121688051274
8.50275e-06	0.0007977919675884968
8.50300e-06	0.0008296519889969281
8.50325e-06	0.0008563596872382229
8.50350e-06	0.0008828436781887328
8.50375e-06	0.0009036691202279764
8.50400e-06	0.0009242488753013897
8.50425e-06	0.0009385709170358166
8.50450e-06	0.0009526212568500922
8.50475e-06	0.0009616302866911189
8.50500e-06	0.0009704204292924748
8.50525e-06	0.0009748804901700891
8.50550e-06	0.0009791525444300456
8.50575e-06	0.0009834245986900308
8.50600e-06	0.0009822478576117751
8.50625e-06	0.000980834536799692
8.50650e-06	0.0009794212159875994
8.50675e-06	0.000973964021086125
8.50700e-06	0.0009683312463370006
8.50725e-06	0.000962698471587838
8.50750e-06	0.0009549230120258151
8.50775e-06	0.0009470545198261395
8.50800e-06	0.0009391860276264107
8.50825e-06	0.0009295902668209897
8.50850e-06	0.0009199195102190162
8.50875e-06	0.0009102487536169773
8.50900e-06	0.0009009458653598932
8.50925e-06	0.0008916589494765342
8.50950e-06	0.0008823720335931123
8.50975e-06	0.0008730851177096904
8.51000e-06	0.0008649164784541726
8.51025e-06	0.0008573760607284269
8.51050e-06	0.0008500121017631746
8.51075e-06	0.0008413353281871009
8.51100e-06	0.0008297974881963726
8.51125e-06	0.0008135031107841638
8.51150e-06	0.0007970074962388557
8.51175e-06	0.0007750914254019424
8.51200e-06	0.0007529400052762046
8.51225e-06	0.0007261255289277978
8.51250e-06	0.0006991085886339642
8.51275e-06	0.0006678533709950185
8.51300e-06	0.0006326006342997096
8.51325e-06	0.0005933291026110483
8.51350e-06	0.0005503660186065918
8.51375e-06	0.0005040554138603323
8.51400e-06	0.00045474118649969035
8.51425e-06	0.00040276722738469067
8.51450e-06	0.0003482833774287138
8.51475e-06	0.00029102208846288447
8.51500e-06	0.0002306927560116337
8.51525e-06	0.00016744508378599822
8.51550e-06	0.00010167905042842759
8.51575e-06	3.380490081680703e-05
8.51600e-06	-3.576713109793009e-05
8.51625e-06	-0.00010662685411224387
8.51650e-06	-0.00017848566339167697
8.51675e-06	-0.0002517757940713589
8.51700e-06	-0.000325126287110332
8.51725e-06	-0.00039962071579452895
8.51750e-06	-0.00047416481270337146
8.51775e-06	-0.0005487089096117088
8.51800e-06	-0.0006212754561585351
8.51825e-06	-0.0006937561399943794
8.51850e-06	-0.0007662368238297324
8.51875e-06	-0.0008348026097096923
8.51900e-06	-0.0009031984157205047
8.51925e-06	-0.0009671207805067206
8.51950e-06	-0.0010308489141888822
8.51975e-06	-0.001088318971926855
8.52000e-06	-0.0011455173119996954
8.52025e-06	-0.0011948836991209776
8.52050e-06	-0.0012439100328479201
8.52075e-06	-0.0012867662644028503
8.52100e-06	-0.0013293545980021197
8.52125e-06	-0.001371942931601389
8.52150e-06	-0.0014098929591559847
8.52175e-06	-0.0014476415973857944
8.52200e-06	-0.00148539023561586
8.52225e-06	-0.001516678352232808
8.52250e-06	-0.0015476859612522749
8.52275e-06	-0.0015786935702719518
8.52300e-06	-0.0016052809202678157
8.52325e-06	-0.001631676348262067
8.52350e-06	-0.0016580717762564971
8.52375e-06	-0.0016844672042509272
8.52400e-06	-0.0017108626322451784
8.52425e-06	-0.0017320301532657073
8.52450e-06	-0.0017529706852422284
8.52475e-06	-0.0017739112172186074
8.52500e-06	-0.0017948517491951285
8.52525e-06	-0.0018157922811716494
8.52550e-06	-0.001831793250394154
8.52575e-06	-0.0018475797501104954
8.52600e-06	-0.001863366249826837
8.52625e-06	-0.0018791527495430715
8.52650e-06	-0.001894939249259413
8.52675e-06	-0.0019107257489757545
8.52700e-06	-0.001926512248691989
8.52725e-06	-0.0019422987484083304
8.52750e-06	-0.001958085248124672
8.52775e-06	-0.0019738717478409067
8.52800e-06	-0.001984221635778613
8.52825e-06	-0.0019943354729760362
8.52850e-06	-0.0020044493101733906
8.52875e-06	-0.0020145631473708135
8.52900e-06	-0.0020246769845682364
8.52925e-06	-0.0020347908217655908
8.52950e-06	-0.002044904658963014
8.52975e-06	-0.002055018496160437
8.53000e-06	-0.00206513233335786
8.53025e-06	-0.0020752461705552143
8.53050e-06	-0.002083335141968333
8.53075e-06	-0.0020913361962950263
8.53100e-06	-0.002099337250621665
8.53125e-06	-0.0021073383049483585
8.53150e-06	-0.0021153393592750515
8.53175e-06	-0.0021233404136016907
8.53200e-06	-0.0021313414679283837
8.53225e-06	-0.002140805248307673
8.53250e-06	-0.002151997324215781
8.53275e-06	-0.002163189400123965
8.53300e-06	-0.0021743814760321494
8.53325e-06	-0.0021855735519402575
8.53350e-06	-0.0021967656278484415
8.53375e-06	-0.0022079577037566254
8.53400e-06	-0.002219149779664734
8.53425e-06	-0.0022344082835798708
8.53450e-06	-0.002249843346606039
8.53475e-06	-0.0022652784096321025
8.53500e-06	-0.0022807134726582708
8.53525e-06	-0.0022961485356844387
8.53550e-06	-0.0023115835987105025
8.53575e-06	-0.0023270186617366704
8.53600e-06	-0.0023424537247628387
8.53625e-06	-0.002357888787788902
8.53650e-06	-0.0023733238508150704
8.53675e-06	-0.0023887589138412383
8.53700e-06	-0.002404626933395689
8.53725e-06	-0.002420513751369812
8.53750e-06	-0.002436400569343935
8.53775e-06	-0.0024522873873179503
8.53800e-06	-0.0024681742052920733
8.53825e-06	-0.0024840610232661963
8.53850e-06	-0.0024999478412403194
8.53875e-06	-0.002515834659214335
8.53900e-06	-0.0025317214771884583
8.53925e-06	-0.0025476082951625813
8.53950e-06	-0.0025634951131365967
8.53975e-06	-0.0025762695755467825
8.54000e-06	-0.0025889089034528546
8.54025e-06	-0.0025995564649860274
8.54050e-06	-0.002610117546566845
8.54075e-06	-0.002614509381355136
8.54100e-06	-0.0026186333553257384
8.54125e-06	-0.0026227573292963687
8.54150e-06	-0.0026170809766735905
8.54175e-06	-0.0026109791063851666
8.54200e-06	-0.0026048772360967015
8.54225e-06	-0.002589462902223254
8.54250e-06	-0.0025736442330730525
8.54275e-06	-0.0025578255639227437
8.54300e-06	-0.0025310111959564565
8.54325e-06	-0.0025037194087892513
8.54350e-06	-0.002476427621621861
8.54375e-06	-0.0024389941748308823
8.54400e-06	-0.0024011203901301093
8.54425e-06	-0.00236324660542908
8.54450e-06	-0.0023167174362431282
8.54475e-06	-0.002269812461315941
8.54500e-06	-0.0022229074863884366
8.54525e-06	-0.0021690971188849406
8.54550e-06	-0.0021149869280541822
8.54575e-06	-0.002056635252211446
8.54600e-06	-0.0019980994165057484
8.54625e-06	-0.0019365708547585659
8.54650e-06	-0.0018749123526678436
8.54675e-06	-0.001811029904850694
8.54700e-06	-0.0017470508961499953
8.54725e-06	-0.0016818719965996478
8.54750e-06	-0.0016163096333038339
8.54775e-06	-0.0015507739406648772
8.54800e-06	-0.0014856536245985263
8.54825e-06	-0.001421337172721375
8.54850e-06	-0.0013581703312509081
8.54875e-06	-0.0012964091846323943
8.54900e-06	-0.001236312364417197
8.54925e-06	-0.0011794236304856203
8.54950e-06	-0.001122671161095374
8.54975e-06	-0.0010714521136819624
8.55000e-06	-0.0010204733203849994
8.55025e-06	-0.0009764221408980232
8.55050e-06	-0.0009326717495562773
8.55075e-06	-0.0008938501766753775
8.55100e-06	-0.0008552426067985808
8.55125e-06	-0.0008190567702255587
8.55150e-06	-0.0007829760822202454
8.55175e-06	-0.0007501076641892312
8.55200e-06	-0.0007173787188184677
8.55225e-06	-0.0006887671077739329
8.55250e-06	-0.0006603342661285718
8.55275e-06	-0.0006347983946716426
8.55300e-06	-0.0006093883059611557
8.55325e-06	-0.0005853367900257645
8.55350e-06	-0.0005613442615853338
8.55375e-06	-0.0005398521426338399
8.55400e-06	-0.0005184685882697408
8.55425e-06	-0.0004970850339054965
8.55450e-06	-0.00047895358967743677
8.55475e-06	-0.0004609633479190333
8.55500e-06	-0.00044297310616050794
8.55525e-06	-0.0004264506931269413
8.55550e-06	-0.0004099920113423711
8.55575e-06	-0.0003935333295579124
8.55600e-06	-0.00037915977122145547
8.55625e-06	-0.0003648767462826784
8.55650e-06	-0.00035059372134399805
8.55675e-06	-0.0003380320145542285
8.55700e-06	-0.00032554504520059734
8.55725e-06	-0.0003130580758470508
8.55750e-06	-0.0003016795648684695
8.55775e-06	-0.00029034918173718896
8.55800e-06	-0.00027901879860598523
8.55825e-06	-0.0002693365151225684
8.55850e-06	-0.0002597257900214849
8.55875e-06	-0.00025011506492046654
8.55900e-06	-0.00024163025441484266
8.55925e-06	-0.00023319432968333726
8.55950e-06	-0.000224758404951889
8.55975e-06	-0.00021753178952641067
8.56000e-06	-0.00021035768076691058
8.56025e-06	-0.0002031835720074591
8.56050e-06	-0.0001966963643594938
8.56075e-06	-0.00019023898108073647
8.56100e-06	-0.00018261904141447243
8.56125e-06	-0.00017378270756878236
8.56150e-06	-0.0001638408049649324
8.56175e-06	-0.00015290944395923573
8.56200e-06	-0.00014110476278145318
8.56225e-06	-0.0001285428444815653
8.56250e-06	-0.00011519438563698375
8.56275e-06	-0.0001007150672879239
8.56300e-06	-8.4737258074552e-05
8.56325e-06	-6.72180144428348e-05
8.56350e-06	-4.830034938400076e-05
8.56375e-06	-2.813496360627137e-05
8.56400e-06	-6.872529305139857e-06
8.56425e-06	1.5336296025854996e-05
8.56450e-06	3.843193590363921e-05
8.56475e-06	6.255214016533516e-05
8.56500e-06	8.784923974925908e-05
8.56525e-06	0.00011427218135952174
8.56550e-06	0.00014165341719666902
8.56575e-06	0.00017011124240982222
8.56600e-06	0.0001986140933195396
8.56625e-06	0.00022813612252079845
8.56650e-06	0.0002577024031420125
8.56675e-06	0.0002872686837634269
8.56700e-06	0.0003176579403373594
8.56725e-06	0.00034808292947619354
8.56750e-06	0.00037850791861523383
8.56775e-06	0.00040875957748036905
8.56800e-06	0.0004390037105661079
8.56825e-06	0.0004682960868158738
8.56850e-06	0.0004975471389989729
8.56875e-06	0.000525412325339204
8.56900e-06	0.000553217339154145
8.56925e-06	0.0005791984173476669
8.56950e-06	0.0006051003025850363
8.56975e-06	0.0006291848070003219
8.57000e-06	0.0006517306074514167
8.57025e-06	0.0006725672408923825
8.57050e-06	0.0006902833191557451
8.57075e-06	0.0007078670095066204
8.57100e-06	0.0007203433956113355
8.57125e-06	0.0007325980290864305
8.57150e-06	0.000739441550348231
8.57175e-06	0.0007460501280261888
8.57200e-06	0.0007472567981024251
8.57225e-06	0.0007482289242473443
8.57250e-06	0.0007436781997730043
8.57275e-06	0.0007388876801760118
8.57300e-06	0.0007282762757942514
8.57325e-06	0.000717412136026851
8.57350e-06	0.0007010126217900337
8.57375e-06	0.0006843727686608703
8.57400e-06	0.0006626790538182504
8.57425e-06	0.0006407659067526105
8.57450e-06	0.0006141989638634694
8.57475e-06	0.0005874299591012967
8.57500e-06	0.0005562961554264627
8.57525e-06	0.000524972837755268
8.57550e-06	0.0004899392387856302
8.57575e-06	0.0004547445441392344
8.57600e-06	0.0004166168418555813
8.57625e-06	0.00037836179212493023
8.57650e-06	0.00033789978336091873
8.57675e-06	0.0002973419512530395
8.57700e-06	0.00025502724237324697
8.57725e-06	0.00021263625214731514
8.57750e-06	0.00017024526192109605
8.57775e-06	0.00012742370739361213
8.57800e-06	8.458345831415716e-05
8.57825e-06	4.2206382499230635e-05
8.57850e-06	4.676880458719259e-07
8.57875e-06	-4.041607108329748e-05
8.57900e-06	-8.021587475543487e-05
8.57925e-06	-0.00011866836108034985
8.57950e-06	-0.00015549314589957634
8.57975e-06	-0.0001904091942910931
8.58000e-06	-0.000223135507257745
8.58025e-06	-0.0002533911012626491
8.58050e-06	-0.00028141801056146817
8.58075e-06	-0.00030935263828534823
8.58100e-06	-0.00033876216554913586
8.58125e-06	-0.0003711115864346598
8.58150e-06	-0.00040358587328892694
8.58175e-06	-0.00043828410586897666
8.58200e-06	-0.00047412630045108334
8.58225e-06	-0.0005111344380618192
8.58250e-06	-0.0005481912248849057
8.58275e-06	-0.00058875978021645
8.58300e-06	-0.0006294808120536154
8.58325e-06	-0.0006756639161804448
8.58350e-06	-0.0007220841765126551
8.58375e-06	-0.0007727546801828124
8.58400e-06	-0.0008236097239926733
8.58425e-06	-0.0008781828730201503
8.58450e-06	-0.0009329174574298939
8.58475e-06	-0.0009876520418396373
8.58500e-06	-0.0010481322935507048
8.58525e-06	-0.0011088620148013383
8.58550e-06	-0.0011695917360519717
8.58575e-06	-0.0012348915264906231
8.58600e-06	-0.001300389743499631
8.58625e-06	-0.0013658879605086389
8.58650e-06	-0.001431386177517203
8.58675e-06	-0.001496884394526211
8.58700e-06	-0.0015637564081794446
8.58725e-06	-0.0016306880703287185
8.58750e-06	-0.0016976197324784458
8.58775e-06	-0.001764551394628173
8.58800e-06	-0.001831483056777447
8.58825e-06	-0.0018948599239732363
8.58850e-06	-0.00195808244651015
8.58875e-06	-0.002021304969046635
8.58900e-06	-0.002078238839313669
8.58925e-06	-0.002134899664327144
8.58950e-06	-0.0021625344719411687
8.58975e-06	-0.026937277713410722
8.59000e-06	-0.054325868100075884
8.59025e-06	-0.02141404685850896
8.59050e-06	0.005012507323083389
8.59075e-06	0.024750500331117736
8.59100e-06	0.026187937079152318
8.59125e-06	0.012779099536046964
8.59150e-06	-0.004934452555245741
8.59175e-06	-0.02296628825065838
8.59200e-06	-0.024314330812161968
8.59225e-06	-0.011478410370399605
8.59250e-06	0.002770324828478145
8.59275e-06	0.015089348690694058
8.59300e-06	0.015961373009873506
8.59325e-06	0.007540775992696088
8.59350e-06	-0.003571304406582999
8.59375e-06	-0.014878456092182427
8.59400e-06	-0.0157314512483108
8.59425e-06	-0.00769733598751927
8.59450e-06	0.0012233724687440517
8.59475e-06	0.008936705811048197
8.59500e-06	0.009481208817576213
8.59525e-06	0.004206761163756569
8.59550e-06	-0.0027515601065804347
8.59575e-06	-0.009830124805363452
8.59600e-06	-0.010358761877593596
8.59625e-06	-0.005319813304920958
8.59650e-06	0.0002747390031345191
8.59675e-06	0.0051130622388533865
8.59700e-06	0.0054609686161314315
8.59725e-06	0.002164216240543381
8.59750e-06	-0.0021869443761596647
8.59775e-06	-0.006613175794058887
8.59800e-06	-0.006936642005598723
8.59825e-06	-0.0037731897572928466
8.59850e-06	-0.0002626532532085126
8.59875e-06	0.002773085185561567
8.59900e-06	0.002994930541478766
8.59925e-06	0.000932744526947935
8.59950e-06	-0.0017909598786104088
8.59975e-06	-0.0045628429332745515
8.60000e-06	-0.0047661754282042725
8.60025e-06	-0.002787071686978753
8.60050e-06	-0.0005920287957226274
8.60075e-06	0.0013054815281733042
8.60100e-06	0.0014417171799745675
8.60125e-06	0.00014924319139712934
8.60150e-06	-0.0015555373457052505
8.60175e-06	-0.003288522808656318
8.60200e-06	-0.0034107826254710792
8.60225e-06	-0.0021644258314491302
8.60250e-06	-0.000781443036549019
8.60275e-06	0.0004164200229777444
8.60300e-06	0.0005122276825777407
8.60325e-06	-0.0002857188016815723
8.60350e-06	-0.001340800430889417
8.60375e-06	-0.0024125105359273915
8.60400e-06	-0.0024743762979572087
8.60425e-06	-0.0016782448895345076
8.60450e-06	-0.000795981306856696
8.60475e-06	-2.922927329902401e-05
8.60500e-06	4.757707358467046e-05
8.60525e-06	-0.00043512835543331447
8.60550e-06	-0.0010786379445593772
8.60575e-06	-0.0017323927360243917
8.60600e-06	-0.0017535417156670109
8.60625e-06	-0.0012373565369378958
8.60650e-06	-0.00066746030163235
8.60675e-06	-0.00017026205207562828
8.60700e-06	-0.0001056637088413549
8.60725e-06	-0.00039202586557863367
8.60750e-06	-0.0007796775325715176
8.60775e-06	-0.0011744033101479874
8.60800e-06	-0.0011736391625140914
8.60825e-06	-0.0008371955158952267
8.60850e-06	-0.00046812866519322787
8.60875e-06	-0.0001457190140539434
8.60900e-06	-9.549245036712055e-05
8.60925e-06	-0.000266385754235359
8.60950e-06	-0.0005020903276073357
8.60975e-06	-0.0007436844082013832
8.61000e-06	-0.0007391110556577961
8.61025e-06	-0.0005259601016567629
8.61050e-06	-0.00029440521099999
8.61075e-06	-9.479677267936438e-05
8.61100e-06	-6.897990775951417e-05
8.61125e-06	-0.00018507322584379224
8.61150e-06	-0.0003450108652872073
8.61175e-06	-0.0005116914136930001
8.61200e-06	-0.0005270426441669206
8.61225e-06	-0.00041443281252545757
8.61250e-06	-0.00029280181543769575
8.61275e-06	-0.0001934975261655546
8.61300e-06	-0.00020517442462931906
8.61325e-06	-0.0003076616986488469
8.61350e-06	-0.00043933438994253816
8.61375e-06	-0.000576759410865589
8.61400e-06	-0.0006207331892223881
8.61425e-06	-0.0005857101312532903
8.61450e-06	-0.0005460064190731956
8.61475e-06	-0.0005210663476203204
8.61500e-06	-0.0005662276226756443
8.61525e-06	-0.0006686578400201949
8.61550e-06	-0.0007895601486275336
8.61575e-06	-0.0009140634179267428
8.61600e-06	-0.0009798374820746774
8.61625e-06	-0.0009957497566732336
8.61650e-06	-0.0010081625268418366
8.61675e-06	-0.0010290635650285313
8.61700e-06	-0.0010929221245373475
8.61725e-06	-0.0011915045533267817
8.61750e-06	-0.0013003146821557753
8.61775e-06	-0.0014098446811094843
8.61800e-06	-0.0014808608428229725
8.61825e-06	-0.001518729014716285
8.61850e-06	-0.0015523001483729781
8.61875e-06	-0.0015888912249389178
8.61900e-06	-0.0016499006173021533
8.61925e-06	-0.001729976543183158
8.61950e-06	-0.0018135815123652473
8.61975e-06	-0.0018945676432091997
8.62000e-06	-0.001948168296215517
8.62025e-06	-0.001977567807828489
8.62050e-06	-0.0020011604243038916
8.62075e-06	-0.002024769076015292
8.62100e-06	-0.0020631162704181816
8.62125e-06	-0.0021134149781108246
8.62150e-06	-0.0021660129510628636
8.62175e-06	-0.0022170536771291714
8.62200e-06	-0.002251018744818078
8.62225e-06	-0.002269898685887032
8.62250e-06	-0.002285211118708607
8.62275e-06	-0.0023005982906144375
8.62300e-06	-0.00232527623032062
8.62325e-06	-0.0023574931482243343
8.62350e-06	-0.002390736906605372
8.62375e-06	-0.0024237955983750985
8.62400e-06	-0.0024460748856556486
8.62425e-06	-0.002458766106033952
8.62450e-06	-0.0024693079632179984
8.62475e-06	-0.002479821430932189
8.62500e-06	-0.0024961851532072318
8.62525e-06	-0.002517302396150724
8.62550e-06	-0.0025390648438190044
8.62575e-06	-0.0025607113415901483
8.62600e-06	-0.002575598032199472
8.62625e-06	-0.0025844659397643165
8.62650e-06	-0.002591961015336669
8.62675e-06	-0.0025994298731390687
8.62700e-06	-0.002610532269567744
8.62725e-06	-0.0026245741866475405
8.62750e-06	-0.002638962901430049
8.62775e-06	-0.0026532613805027986
8.62800e-06	-0.002663269723862594
8.62825e-06	-0.002669445111680528
8.62850e-06	-0.0026746738380703304
8.62875e-06	-0.002679859791411755
8.62900e-06	-0.0026872422446323537
8.62925e-06	-0.002696378203640362
8.62950e-06	-0.002705613788518049
8.62975e-06	-0.002714757280724918
8.63000e-06	-0.002721109428369831
8.63025e-06	-0.002724929933124034
8.63050e-06	-0.0027273662478205303
8.63075e-06	-0.0027271668373396872
8.63100e-06	-0.0027240324333445646
8.63125e-06	-0.0027171395746508234
8.63150e-06	-0.002704016700428567
8.63175e-06	-0.0026889959806991525
8.63200e-06	-0.002667662840206213
8.63225e-06	-0.002640278436523752
8.63250e-06	-0.0026065103514898136
8.63275e-06	-0.0025708865645188406
8.63300e-06	-0.002529878681436803
8.63325e-06	-0.002483032703795955
8.63350e-06	-0.0024290023338645115
8.63375e-06	-0.002372837529018844
8.63400e-06	-0.0023088239681561314
8.63425e-06	-0.0022419021547426306
8.63450e-06	-0.0021687536264473053
8.63475e-06	-0.0020932978714519592
8.63500e-06	-0.002013527092911205
8.63525e-06	-0.0019293903882484302
8.63550e-06	-0.0018416140627135252
8.63575e-06	-0.0017506057692442383
8.63600e-06	-0.0016563319923729902
8.63625e-06	-0.001559417505565361
8.63650e-06	-0.0014606865684454497
8.63675e-06	-0.0013603881259127803
8.63700e-06	-0.0012590049974838707
8.63725e-06	-0.0011568914196544555
8.63750e-06	-0.0010544110597721728
8.63775e-06	-0.0009520947723677252
8.63800e-06	-0.0008501970002459861
8.63825e-06	-0.0007493845451311054
8.63850e-06	-0.0006504491941323216
8.63875e-06	-0.0005538222514811802
8.63900e-06	-0.00046008154328626405
8.63925e-06	-0.00036972417391452925
8.63950e-06	-0.0002832532256782572
8.63975e-06	-0.0002012764506793379
8.64000e-06	-0.0001242284585129533
8.64025e-06	-5.2791881032722373e-05
8.64050e-06	1.2671485763115009e-05
8.64075e-06	7.279578461809764e-05
8.64100e-06	0.00012828067143368462
8.64125e-06	0.00017936025935274337
8.64150e-06	0.00022590760101162867
8.64175e-06	0.00026766489429096515
8.64200e-06	0.00030448277871088274
8.64225e-06	0.00033605661126374713
8.64250e-06	0.0003622826748853366
8.64275e-06	0.00038368116630641273
8.64300e-06	0.00040081321014773523
8.64325e-06	0.0004139483490113098
8.64350e-06	0.0004231299141501442
8.64375e-06	0.0004283192467890303
8.64400e-06	0.0004295456763243827
