Time(s)	Current(A)
1.47500e-05	-0.0033219011529764856
1.47503e-05	-0.0033114703401407922
1.47505e-05	-0.003303632074681448
1.47508e-05	-0.003298568163402394
1.47510e-05	-0.00329350425212334
1.47513e-05	-0.003292518980034799
1.47515e-05	-0.0032958983686624836
1.47518e-05	-0.0032992777572901687
1.47520e-05	-0.003302657145917831
1.47523e-05	-0.003306036534545516
1.47525e-05	-0.003309415923173201
1.47528e-05	-0.0033220088878554562
1.47530e-05	-0.0033347605988799673
1.47533e-05	-0.003347512309904478
1.47535e-05	-0.0033602640209289027
1.47538e-05	-0.0033730157319534133
1.47540e-05	-0.003389093314145704
1.47543e-05	-0.003408729999890645
1.47545e-05	-0.0034283666856357196
1.47548e-05	-0.0034480033713807936
1.47550e-05	-0.003467640057125735
1.47553e-05	-0.003487276742870809
1.47555e-05	-0.003506913428615883
1.47558e-05	-0.0035290029027653094
1.47560e-05	-0.0035511346375078773
1.47563e-05	-0.0035732663722504456
1.47565e-05	-0.0035953981069928634
1.47568e-05	-0.0036175298417354318
1.47570e-05	-0.0036396615764779996
1.47573e-05	-0.003660933793933642
1.47575e-05	-0.0036812862189872196
1.47578e-05	-0.0037016386440409353
1.47580e-05	-0.003720501306613679
1.47583e-05	-0.0037377697345716532
1.47585e-05	-0.003755038162529744
1.47588e-05	-0.0037700953596226726
1.47590e-05	-0.003782786259516228
1.47593e-05	-0.0037954771594098696
1.47595e-05	-0.0038053623780798383
1.47598e-05	-0.003812245162347074
1.47600e-05	-0.003819127946614356
1.47603e-05	-0.003823092690442225
1.47605e-05	-0.0038239347612701023
1.47608e-05	-0.003824776832097986
1.47610e-05	-0.0038213766003894404
1.47613e-05	-0.0038134365674467557
1.47615e-05	-0.0038054965345040172
1.47618e-05	-0.003797556501561279
1.47620e-05	-0.0037896164686185944
1.47623e-05	-0.0037816764356758564
1.47625e-05	-0.0037638422415609643
1.47628e-05	-0.003745837574885843
1.47630e-05	-0.0037278329082106
1.47633e-05	-0.003709828241535357
1.47635e-05	-0.003691823574860236
1.47638e-05	-0.0036704860857954373
1.47640e-05	-0.003645582054488932
1.47643e-05	-0.0036206780231825956
1.47645e-05	-0.0035957739918760904
1.47648e-05	-0.003570869960569585
1.47650e-05	-0.003542538422595622
1.47653e-05	-0.003514147830010615
1.47655e-05	-0.0034857572374256077
1.47658e-05	-0.0034573666448406
1.47660e-05	-0.0034285850069439537
1.47663e-05	-0.003399384901016069
1.47665e-05	-0.003370303733897617
1.47668e-05	-0.0033415345248863117
1.47670e-05	-0.0033132234297090007
1.47673e-05	-0.003285529850596826
1.47675e-05	-0.003258623823167756
1.47678e-05	-0.003232688427392603
1.47680e-05	-0.003210471525677972
1.47683e-05	-0.003191643210017742
1.47685e-05	-0.0031728148943573845
1.47688e-05	-0.003153986578697027
1.47690e-05	-0.003135158263036797
1.47693e-05	-0.0031163299473764396
1.47695e-05	-0.003097501631716082
1.47698e-05	-0.003078673316055852
1.47700e-05	-0.0030598450003954947
1.47703e-05	-0.003045102356245292
1.47705e-05	-0.0030347318982865182
1.47708e-05	-0.003024361440327674
1.47710e-05	-0.0030139909823688306
1.47713e-05	-0.003003620524410057
1.47715e-05	-0.002993250066451213
1.47718e-05	-0.002982879608492369
1.47720e-05	-0.002972509150533595
1.47723e-05	-0.002962138692574751
1.47725e-05	-0.002954558423310453
1.47728e-05	-0.002949964009480783
1.47730e-05	-0.0029453695956510816
1.47733e-05	-0.0029407751818213805
1.47735e-05	-0.00293618076799171
1.47738e-05	-0.002931586354162009
1.47740e-05	-0.0029269919403323076
1.47743e-05	-0.0029223975265026065
1.47745e-05	-0.002917803112672936
1.47748e-05	-0.002913208698843235
1.47750e-05	-0.0029086142850135335
1.47753e-05	-0.0029071069901703364
1.47755e-05	-0.0029056528851905037
1.47758e-05	-0.0029041987802106706
1.47760e-05	-0.0029027446752308474
1.47763e-05	-0.0029012905702510143
1.47765e-05	-0.0028998364652711816
1.47768e-05	-0.0028983823602913585
1.47770e-05	-0.0028969282553115254
1.47773e-05	-0.0028954741503316923
1.47775e-05	-0.002894020045351869
1.47778e-05	-0.0028928773369838374
1.47780e-05	-0.002892067862446067
1.47783e-05	-0.002891258387908303
1.47785e-05	-0.0028904205330147503
1.47788e-05	-0.002889552307544565
1.47790e-05	-0.002888684082074386
1.47793e-05	-0.0028873042978794345
1.47795e-05	-0.002885377081031697
1.47798e-05	-0.0028834498641839724
1.47800e-05	-0.0028808856076989243
1.47803e-05	-0.0028776396380855314
1.47805e-05	-0.0028743936684721603
1.47808e-05	-0.002870193189138564
1.47810e-05	-0.002864971263462695
1.47813e-05	-0.0028597493377868614
1.47815e-05	-0.0028545274121109924
1.47818e-05	-0.0028493054864351234
1.47820e-05	-0.0028440835607592896
1.47823e-05	-0.0028362612705798047
1.47825e-05	-0.002828394177127806
1.47828e-05	-0.002820527083675808
1.47830e-05	-0.0028126599902238624
1.47833e-05	-0.002804792896771864
1.47835e-05	-0.002795957951730994
1.47838e-05	-0.00278608728285787
1.47840e-05	-0.0027762166139846793
1.47843e-05	-0.002766345945111488
1.47845e-05	-0.002756475276238364
1.47848e-05	-0.0027461412465075515
1.47850e-05	-0.0027353113619486354
1.47853e-05	-0.002724481477389793
1.47855e-05	-0.002713651592830877
1.47858e-05	-0.002702821708271961
1.47860e-05	-0.0026919313139453153
1.47863e-05	-0.0026809761665001135
1.47865e-05	-0.0026701097592162428
1.47868e-05	-0.002659434478441653
1.47870e-05	-0.0026489753635637937
1.47873e-05	-0.002638764655633327
1.47875e-05	-0.002628842697762243
1.47878e-05	-0.0026192686330337406
1.47880e-05	-0.0026101092601808085
1.47883e-05	-0.0026014317626751027
1.47885e-05	-0.0025933031878546077
1.47888e-05	-0.00258579464781277
1.47890e-05	-0.002578988882450588
1.47893e-05	-0.0025729694975310012
1.47895e-05	-0.002567790013978106
1.47898e-05	-0.00256367823263264
1.47900e-05	-0.0025602359479815393
1.47903e-05	-0.0025576373134573063
1.47905e-05	-0.002555941491464259
1.47908e-05	-0.0025551077087189564
1.47910e-05	-0.002555196417194189
1.47913e-05	-0.002556381874583429
1.47915e-05	-0.0025587409922751395
1.47918e-05	-0.0025611001099668657
1.47920e-05	-0.0025651327484265563
1.47923e-05	-0.002570956266152743
1.47925e-05	-0.0025767797838789695
1.47928e-05	-0.002582603301605196
1.47930e-05	-0.0025884268193313827
1.47933e-05	-0.0025942503370576086
1.47935e-05	-0.0026035719141372943
1.47938e-05	-0.0026129537614239967
1.47940e-05	-0.002622335608710763
1.47943e-05	-0.0026317174559975292
1.47945e-05	-0.002641099303284232
1.47948e-05	-0.002651329630163935
1.47950e-05	-0.0026624679377154777
1.47953e-05	-0.0026736062452669455
1.47955e-05	-0.00268501853384888
1.47958e-05	-0.002696724016848364
1.47960e-05	-0.0027084294998477683
1.47963e-05	-0.0027201033408125437
1.47965e-05	-0.0027317433207909463
1.47968e-05	-0.00274338330076927
1.47970e-05	-0.0027546847784593116
1.47973e-05	-0.0027656240158105308
1.47975e-05	-0.0027765632531616753
1.47978e-05	-0.0027862842206271394
1.47980e-05	-0.0027947014849526836
1.47983e-05	-0.002803118749278171
1.47985e-05	-0.0028115360136037153
1.47988e-05	-0.0028199532779292595
1.47990e-05	-0.0028283705422547465
1.47993e-05	-0.0028367878065802907
1.47995e-05	-0.002845205070905835
1.47998e-05	-0.002853312827206767
1.48000e-05	-0.002861089370704753
1.48003e-05	-0.0028688659142027924
1.48005e-05	-0.0028766424577008317
1.48008e-05	-0.0028844190011988184
1.48010e-05	-0.0028921955446968577
1.48013e-05	-0.002899972088194897
1.48015e-05	-0.0029077486316928833
1.48018e-05	-0.0029163458585991075
1.48020e-05	-0.0029258213207377605
1.48023e-05	-0.0029352967828763493
1.48025e-05	-0.002944772245015002
1.48028e-05	-0.0029542477071536548
1.48030e-05	-0.002963723169292243
1.48033e-05	-0.002973198631430896
1.48035e-05	-0.0029826740935695486
1.48038e-05	-0.0029933146211030427
1.48040e-05	-0.0030039752222619795
1.48043e-05	-0.0030146358234209164
1.48045e-05	-0.003025296424579781
1.48048e-05	-0.0030359570257387177
1.48050e-05	-0.0030466176268976546
1.48053e-05	-0.003057278228056519
1.48055e-05	-0.0030678147954386658
1.48058e-05	-0.003078218630963781
1.48060e-05	-0.003088622466488826
1.48063e-05	-0.003099026302013941
1.48065e-05	-0.0031094301375390564
1.48068e-05	-0.0031198339730641013
1.48070e-05	-0.0031302378085892165
1.48073e-05	-0.003140641644114332
1.48075e-05	-0.00314839389993399
1.48078e-05	-0.0031561004700625898
1.48080e-05	-0.003163807040191189
1.48083e-05	-0.003171513610319789
1.48085e-05	-0.003179220180448337
1.48088e-05	-0.0031869267505769366
1.48090e-05	-0.0031946333207055365
1.48093e-05	-0.0032001444402170844
1.48095e-05	-0.003203306149390668
1.48098e-05	-0.003206467858564252
1.48100e-05	-0.0032096295677378145
1.48103e-05	-0.0032127912769113983
1.48105e-05	-0.003215952986084982
1.48108e-05	-0.0032191146952585447
1.48110e-05	-0.0032222764044321285
1.48113e-05	-0.0032254381136057123
1.48115e-05	-0.003228599822779275
1.48118e-05	-0.0032317615319528586
1.48120e-05	-0.0032349232411264424
1.48123e-05	-0.003238084950300005
1.48125e-05	-0.0032412466594735887
1.48128e-05	-0.0032444083686471725
1.48130e-05	-0.003247570077820735
1.48133e-05	-0.003249125072705133
1.48135e-05	-0.0032489606797187977
1.48138e-05	-0.003248796286732464
1.48140e-05	-0.003248631893746129
1.48143e-05	-0.003248467500759794
1.48145e-05	-0.00324830310777346
1.48148e-05	-0.003248138714787125
1.48150e-05	-0.0032479743218007903
1.48153e-05	-0.0032478099288144563
1.48155e-05	-0.0032476455358281214
1.48158e-05	-0.003247481142841786
1.48160e-05	-0.003247316749855452
1.48163e-05	-0.0032471523568691173
1.48165e-05	-0.0032469879638827824
1.48168e-05	-0.0032468235708964475
1.48170e-05	-0.0032466591779101136
1.48173e-05	-0.0032462935926015086
1.48175e-05	-0.003245712706015663
1.48178e-05	-0.0032451318194298214
1.48180e-05	-0.0032445509328439754
1.48183e-05	-0.00324397004625813
1.48185e-05	-0.0032433891596722877
1.48188e-05	-0.003242808273086442
1.48190e-05	-0.003242227386500596
1.48193e-05	-0.0032416464999147545
1.48195e-05	-0.003242894827857645
1.48198e-05	-0.0032461006471200485
1.48200e-05	-0.00324930646638243
1.48203e-05	-0.0032525122856448337
1.48205e-05	-0.003255718104907237
1.48208e-05	-0.003258923924169619
1.48210e-05	-0.003262129743432022
1.48213e-05	-0.0032653355626944256
1.48215e-05	-0.003268541381956807
1.48218e-05	-0.0032744077614718396
1.48220e-05	-0.0032831212775681134
1.48223e-05	-0.0032918347936643287
1.48225e-05	-0.0033005483097606025
1.48228e-05	-0.0033092618258568768
1.48230e-05	-0.0033179753419530916
1.48233e-05	-0.003326688858049366
1.48235e-05	-0.0033354023741456397
1.48238e-05	-0.0033475742813950447
1.48240e-05	-0.003359805775384671
1.48243e-05	-0.0033720372693742976
1.48245e-05	-0.0033842687633638415
1.48248e-05	-0.0033965002573534677
1.48250e-05	-0.0034087317513430944
1.48253e-05	-0.003420963245332721
1.48255e-05	-0.00343360207485989
1.48258e-05	-0.0034466768050246195
1.48260e-05	-0.003459751535189349
1.48263e-05	-0.00347282626535399
1.48265e-05	-0.0034859009955187197
1.48268e-05	-0.0034989757256834496
1.48270e-05	-0.0035120504558480902
1.48273e-05	-0.0035229232577716394
1.48275e-05	-0.0035337581213243196
1.48278e-05	-0.0035445929848769266
1.48280e-05	-0.003555427848429607
1.48283e-05	-0.0035662627119822875
1.48285e-05	-0.0035770975755348945
1.48288e-05	-0.0035863727509414974
1.48290e-05	-0.003593978862408382
1.48293e-05	-0.003601584973875215
1.48295e-05	-0.0036091910853420996
1.48298e-05	-0.003616797196808984
1.48300e-05	-0.003624403308275817
1.48303e-05	-0.003632009419742702
1.48305e-05	-0.0036396155312095864
1.48308e-05	-0.0036472216426764194
1.48310e-05	-0.003654827754143304
1.48313e-05	-0.0036621418780666617
1.48315e-05	-0.003669450971157661
1.48318e-05	-0.00367676006424871
1.48320e-05	-0.0036840691573397583
1.48323e-05	-0.0036913782504307577
1.48325e-05	-0.0036986873435218065
1.48328e-05	-0.003705996436612855
1.48330e-05	-0.003713305529703854
1.48333e-05	-0.003720614622794903
1.48335e-05	-0.003728117370673045
1.48338e-05	-0.00373582735371083
1.48340e-05	-0.0037435373367485625
1.48343e-05	-0.0037512473197863472
1.48345e-05	-0.003758957302824132
1.48348e-05	-0.003766667285861864
1.48350e-05	-0.003774377268899649
1.48353e-05	-0.0037820872519374335
1.48355e-05	-0.0037895817770733824
1.48358e-05	-0.003796845734954393
1.48360e-05	-0.0038041096928354036
1.48363e-05	-0.0038113736507163648
1.48365e-05	-0.0038186376085973753
1.48368e-05	-0.0038259015664783855
1.48370e-05	-0.003833165524359347
1.48373e-05	-0.003838892136233659
1.48375e-05	-0.0038445922602314943
1.48378e-05	-0.0038502923842292907
1.48380e-05	-0.0038559925082271257
1.48383e-05	-0.0038616926322249607
1.48385e-05	-0.003867392756222757
1.48388e-05	-0.0038708909268304463
1.48390e-05	-0.003872032728306927
1.48393e-05	-0.0038731745297834
1.48395e-05	-0.0038743163312598807
1.48398e-05	-0.003875458132736361
1.48400e-05	-0.003876599934212834
1.48403e-05	-0.0038777417356893147
1.48405e-05	-0.0038788835371657954
1.48408e-05	-0.0038723931776194504
1.48410e-05	-0.0038657713188934933
1.48413e-05	-0.003859149460167536
1.48415e-05	-0.0038525276014416236
1.48418e-05	-0.003845905742715667
1.48420e-05	-0.0038392838839897097
1.48423e-05	-0.0038326620252637526
1.48425e-05	-0.0038227030619510933
1.48428e-05	-0.0038091729738946823
1.48430e-05	-0.0037956428858382713
1.48433e-05	-0.003782112797781952
1.48435e-05	-0.003768582709725541
1.48438e-05	-0.00375505262166913
1.48440e-05	-0.0037415225336128104
1.48443e-05	-0.003726048372441921
1.48445e-05	-0.003708493806709953
1.48448e-05	-0.0036909392409781036
1.48450e-05	-0.0036733846752461355
1.48453e-05	-0.0036558301095141674
1.48455e-05	-0.003638275543782318
1.48458e-05	-0.00362072097805035
1.48460e-05	-0.00360282584269354
1.48463e-05	-0.0035845662546855383
1.48465e-05	-0.0035663066666774125
1.48468e-05	-0.0035484427165745273
1.48470e-05	-0.0035310021491606796
1.48473e-05	-0.0035135615817467134
1.48475e-05	-0.0034969152144070856
1.48478e-05	-0.0034811187417782812
1.48480e-05	-0.00346532226914937
1.48483e-05	-0.0034522200182982793
1.48485e-05	-0.003442000926127945
1.48488e-05	-0.0034317818339575407
1.48490e-05	-0.0034215627417871364
1.48493e-05	-0.003411343649616802
1.48495e-05	-0.003401124557446398
1.48498e-05	-0.0033909054652759936
1.48500e-05	-0.003380686373105659
1.48503e-05	-0.003370467280935255
1.48505e-05	-0.003360248188764851
1.48508e-05	-0.003350029096594447
1.48510e-05	-0.0033466761351238954
1.48513e-05	-0.0033434414744274795
1.48515e-05	-0.003340206813731064
1.48518e-05	-0.00333697215303467
1.48520e-05	-0.0033337374923382546
1.48523e-05	-0.0033305028316418387
1.48525e-05	-0.003327268170945445
1.48528e-05	-0.0033240335102490293
1.48530e-05	-0.003320798849552614
1.48533e-05	-0.00331756418885622
1.48535e-05	-0.0033163674350778043
1.48538e-05	-0.003317351499920331
1.48540e-05	-0.003318335564762851
1.48543e-05	-0.0033193196296053776
1.48545e-05	-0.0033203036944479043
1.48548e-05	-0.0033212877592904244
1.48550e-05	-0.003322271824132951
1.48553e-05	-0.0033232558889754777
1.48555e-05	-0.0033242399538179978
1.48558e-05	-0.0033252240186605244
1.48560e-05	-0.003327480357966359
1.48563e-05	-0.003329758618068743
1.48565e-05	-0.0033320368781711417
1.48568e-05	-0.003334315138273541
1.48570e-05	-0.003336593398375925
1.48573e-05	-0.0033388716584783237
1.48575e-05	-0.003341149918580723
1.48578e-05	-0.003343428178683107
1.48580e-05	-0.0033457064387855057
1.48583e-05	-0.0033477339935774667
1.48585e-05	-0.0033494932619209097
1.48588e-05	-0.003350644733266469
1.48590e-05	-0.003351145784811613
1.48593e-05	-0.0033516468363567575
1.48595e-05	-0.0033504114750130187
1.48598e-05	-0.00334731793186099
1.48600e-05	-0.003344224388708962
1.48603e-05	-0.003339438334116654
1.48605e-05	-0.0033328410778287218
1.48608e-05	-0.0033262438215407894
1.48610e-05	-0.003317057467012433
1.48613e-05	-0.0033051004493075886
1.48615e-05	-0.003293143431602744
1.48618e-05	-0.0032811864138979807
1.48620e-05	-0.0032692293961931363
1.48623e-05	-0.0032542282422955947
1.48625e-05	-0.0032359694769558667
1.48628e-05	-0.0032177107116160156
1.48630e-05	-0.003199451946276164
1.48633e-05	-0.0031811931809364365
1.48635e-05	-0.0031605924701398882
1.48638e-05	-0.0031374855809615325
1.48640e-05	-0.003114378691783334
1.48643e-05	-0.003091271802604978
1.48645e-05	-0.0030681649134266225
1.48648e-05	-0.0030425344686777806
1.48650e-05	-0.0030168605440429267
1.48653e-05	-0.0029911866194080724
1.48655e-05	-0.0029655126947733925
1.48658e-05	-0.0029394778110036247
1.48660e-05	-0.0029130647531845524
1.48663e-05	-0.0028867431403723277
1.48665e-05	-0.0028606674596422916
1.48668e-05	-0.0028349849919950703
1.48670e-05	-0.002809814516083198
1.48673e-05	-0.0027852473625668804
1.48675e-05	-0.002761392840064743
1.48678e-05	-0.0027384004755361038
1.48680e-05	-0.0027164362693423063
1.48683e-05	-0.002695666687506452
1.48685e-05	-0.0026762582118260237
1.48688e-05	-0.0026583955287374115
1.48690e-05	-0.0026423256903149615
1.48693e-05	-0.0026283297800940883
1.48695e-05	-0.002616595055136083
1.48698e-05	-0.0026071761940559164
1.48700e-05	-0.0026000780132618313
1.48703e-05	-0.0025953043426286022
1.48705e-05	-0.0025934286485526795
1.48708e-05	-0.002593367064847433
1.48710e-05	-0.0025956597384993244
1.48713e-05	-0.002600471765827057
1.48715e-05	-0.0026082141492392453
1.48718e-05	-0.0026190923849617777
1.48720e-05	-0.002629970620684384
1.48723e-05	-0.0026449659874917195
1.48725e-05	-0.00266436720623372
1.48728e-05	-0.0026837684249758523
1.48730e-05	-0.002703169643717985
1.48733e-05	-0.0027225708624599855
1.48735e-05	-0.0027460820665855482
1.48738e-05	-0.0027739914758403376
1.48740e-05	-0.002801900885094938
1.48743e-05	-0.002829810294349727
1.48745e-05	-0.0028577197036045165
1.48748e-05	-0.0028877232981847165
1.48750e-05	-0.0029199679364141262
1.48753e-05	-0.0029522125746435364
1.48755e-05	-0.0029851894785376883
1.48758e-05	-0.003018949999477714
1.48760e-05	-0.00305271052041774
1.48763e-05	-0.003086349197029711
1.48765e-05	-0.003119857484772445
1.48768e-05	-0.003153365772515179
1.48770e-05	-0.003186145974790671
1.48773e-05	-0.0032181470333614948
1.48775e-05	-0.0032491179637492685
1.48778e-05	-0.0032789865264550833
1.48780e-05	-0.003306933379167566
1.48783e-05	-0.0033328237586908037
1.48785e-05	-0.0033587141382140414
1.48788e-05	-0.003381606659895409
1.48790e-05	-0.0034012910938324816
1.48793e-05	-0.0034209755277695543
1.48795e-05	-0.003437556792875044
1.48798e-05	-0.0034508172741332774
1.48800e-05	-0.0034640777553915105
1.48803e-05	-0.003474023546065164
1.48805e-05	-0.0034804221978140745
1.48808e-05	-0.0034868208495629845
1.48810e-05	-0.0034886230901962994
1.48813e-05	-0.003485506588531718
1.48815e-05	-0.003482390086867137
1.48818e-05	-0.0034792735852025767
1.48820e-05	-0.0034761570835379956
1.48823e-05	-0.0034730405818734146
1.48825e-05	-0.003459423743013644
1.48828e-05	-0.0034456259874064772
1.48830e-05	-0.0034318282317993107
1.48833e-05	-0.0034180304761922374
1.48835e-05	-0.0034042327205850704
1.48838e-05	-0.0033868000047884254
1.48840e-05	-0.0033654774210088775
1.48843e-05	-0.0033441548372291846
1.48845e-05	-0.0033228322534494923
1.48848e-05	-0.003301509669669944
1.48850e-05	-0.0032782866967800955
1.48853e-05	-0.0032530300667468408
1.48855e-05	-0.0032277734367135865
1.48858e-05	-0.0032025168066805026
1.48860e-05	-0.0031772601766472484
1.48863e-05	-0.00315167466815342
1.48865e-05	-0.0031257372180352326
1.48868e-05	-0.0030999426631954695
1.48870e-05	-0.0030745043732203436
1.48873e-05	-0.0030495790428892475
1.48875e-05	-0.0030253519539707404
1.48878e-05	-0.003001997902967656
1.48880e-05	-0.002979685940701974
1.48883e-05	-0.0029585848615027695
1.48885e-05	-0.002938863925360865
1.48888e-05	-0.0029206974692675084
1.48890e-05	-0.002904271529006567
1.48893e-05	-0.002890251052381269
1.48895e-05	-0.0028777866967039873
1.48898e-05	-0.002867320681729002
1.48900e-05	-0.0028589931445127557
1.48903e-05	-0.0028527034817969637
1.48905e-05	-0.002848594603013068
1.48908e-05	-0.002847102284305556
1.48910e-05	-0.0028484100164207424
1.48913e-05	-0.0028497177485359375
1.48915e-05	-0.0028552978983259454
1.48918e-05	-0.0028654500763803828
1.48920e-05	-0.002875602254434889
1.48923e-05	-0.002885754432489395
1.48925e-05	-0.0028959066105438322
1.48928e-05	-0.0029060587885983385
1.48930e-05	-0.0029256051969723334
1.48933e-05	-0.002945313464300638
1.48935e-05	-0.0029650217316290763
1.48938e-05	-0.0029847299989575146
1.48940e-05	-0.0030044382662859533
1.48943e-05	-0.003026712609240042
