Time(s)	Current(A)
1.20000e-05	-0.0004143006990757445
1.20003e-05	-0.000499566571875504
1.20005e-05	-0.000585676715332112
1.20008e-05	-0.0006749068475285851
1.20010e-05	-0.00076498855789698
1.20013e-05	-0.0008573688655892434
1.20015e-05	-0.0009503765586558061
1.20018e-05	-0.0010441646261546216
1.20020e-05	-0.0011381656911629641
1.20023e-05	-0.0012311885673835414
1.20025e-05	-0.0013239444541096228
1.20028e-05	-0.0014141169566866025
1.20030e-05	-0.0015035843434011106
1.20033e-05	-0.001589134402282691
1.20035e-05	-0.0016736152551026701
1.20038e-05	-0.0017524086022498223
1.20040e-05	-0.0018296495862053842
1.20043e-05	-0.0018992827196727083
1.20045e-05	-0.0019668393458356736
1.20048e-05	-0.0020257371355777358
1.20050e-05	-0.0020822715590705847
1.20052e-05	-0.002131347841783664
1.20055e-05	-0.0021783884793662046
1.20058e-05	-0.002215848488189384
1.20060e-05	-0.0022506935342673133
1.20063e-05	-0.002285538580345479
1.20065e-05	-0.002307783989052416
1.20068e-05	-0.00232659041863227
1.20070e-05	-0.0023453968482119963
1.20073e-05	-0.0023531539635619717
1.20075e-05	-0.0023578952491791457
1.20078e-05	-0.002362636534796288
1.20080e-05	-0.0023571487239441393
1.20083e-05	-0.0023488689558149307
1.20085e-05	-0.0023405891876857785
1.20088e-05	-0.002324144219729355
1.20090e-05	-0.0023054706200316424
1.20093e-05	-0.002281569984047093
1.20095e-05	-0.0022562426666304252
1.20098e-05	-0.0022274838234406617
1.20100e-05	-0.0021956593281567535
1.20103e-05	-0.0021612433910845547
1.20105e-05	-0.0021243882167564106
1.20108e-05	-0.0020853161798718312
1.20110e-05	-0.0020444117593962983
1.20113e-05	-0.0020021169479184954
1.20115e-05	-0.0019587724196201426
1.20118e-05	-0.0019146371409853463
1.20120e-05	-0.0018699552433370477
1.20123e-05	-0.0018249708246438024
1.20125e-05	-0.0017799282821959746
1.20128e-05	-0.0017351162603073394
1.20130e-05	-0.0016909248100204566
1.20133e-05	-0.0016477798015930645
1.20135e-05	-0.0016060440130067966
1.20137e-05	-0.0015668484689519645
1.20140e-05	-0.0015282594673187377
1.20143e-05	-0.0014923671609700382
1.20145e-05	-0.001459324027149509
1.20148e-05	-0.0014286436558660193
1.20150e-05	-0.0013988842506168359
1.20153e-05	-0.0013684245613712735
1.20155e-05	-0.001336702892429096
1.20158e-05	-0.0013039063189924296
1.20160e-05	-0.0012702011030847164
1.20163e-05	-0.0012363068403426951
1.20165e-05	-0.0012021352899786962
1.20168e-05	-0.0011678880559806658
1.20170e-05	-0.0011318616359547525
1.20173e-05	-0.00109534960007824
1.20175e-05	-0.001055723840040262
1.20178e-05	-0.0010152482117017818
1.20180e-05	-0.000972176471907546
1.20183e-05	-0.000928396142425537
1.20185e-05	-0.0008846158129438246
1.20188e-05	-0.0008390734145181209
1.20190e-05	-0.000793050072225365
1.20193e-05	-0.0007446588107040146
1.20195e-05	-0.0006956212428985158
1.20198e-05	-0.0006450247553040497
1.20200e-05	-0.0005933069464382139
1.20203e-05	-0.0005409608794913597
1.20205e-05	-0.0004883139788510575
1.20208e-05	-0.0004355551601221965
1.20210e-05	-0.0003825835588222436
1.20213e-05	-0.000329254358403672
1.20215e-05	-0.0002756830747852868
1.20218e-05	-0.00022216931869027548
1.20220e-05	-0.00016904403601552872
1.20222e-05	-0.00011663810354310453
1.20225e-05	-6.528214082691169e-05
1.20228e-05	-1.5220009504895108e-05
1.20230e-05	3.348598188890402e-05
1.20233e-05	8.080108250422486e-05
1.20235e-05	0.00012652743332275098
1.20238e-05	0.00017035188501740364
1.20240e-05	0.00021194169634544812
1.20243e-05	0.0002509641720609006
1.20245e-05	0.00028708637477983784
1.20248e-05	0.0003198279208346407
1.20250e-05	0.00034844734021841436
1.20253e-05	0.00037228465670961937
1.20255e-05	0.00039107738657219877
1.20258e-05	0.0004048039188839038
1.20260e-05	0.0004134817263253186
1.20263e-05	0.0004171283231620342
1.20265e-05	0.0004157610469926128
1.20268e-05	0.0004093049315713143
1.20270e-05	0.0003975214154410535
1.20273e-05	0.00038022314218259047
1.20275e-05	0.0003574716075970895
1.20278e-05	0.0003294793168262131
1.20280e-05	0.0002964831937707068
1.20283e-05	0.00025872014361065054
1.20285e-05	0.00021642703723111732
1.20288e-05	0.00016978282309950362
1.20290e-05	0.00011886404751447336
1.20293e-05	6.377925938557964e-05
1.20295e-05	4.792969472543e-06
1.20298e-05	-5.7735810372174e-05
1.20300e-05	-0.00012343276993593096
1.20303e-05	-0.00019192360758458888
1.20305e-05	-0.00026283413807770296
1.20307e-05	-0.00033651473464571654
1.20310e-05	-0.00041081448549532115
1.20313e-05	-0.0004873470098668184
1.20315e-05	-0.0005644889534868135
1.20318e-05	-0.0006425318075167839
1.20320e-05	-0.0007208205584726189
1.20323e-05	-0.0007985642682333738
1.20325e-05	-0.0008761592129744248
1.20328e-05	-0.0009518259478822049
1.20330e-05	-0.0010269663919783827
1.20333e-05	-0.0010988718443053973
1.20335e-05	-0.001169894329222591
1.20338e-05	-0.0012361389069800422
1.20340e-05	-0.0013010793898232693
1.20343e-05	-0.001359628402132069
1.20345e-05	-0.0014164329091715564
1.20348e-05	-0.001466982531778422
1.20350e-05	-0.001515824929296878
1.20353e-05	-0.0015620147426998333
1.20355e-05	-0.0016074805526134983
1.20358e-05	-0.0016529463625274711
1.20360e-05	-0.0016951224060028356
1.20363e-05	-0.0017364005317207919
1.20365e-05	-0.001776273719676552
1.20368e-05	-0.001812632273592768
1.20370e-05	-0.0018489908275087375
1.20373e-05	-0.0018840802496723913
1.20375e-05	-0.0019188232715799422
1.20378e-05	-0.001953566293487258
1.20380e-05	-0.0019875599591482065
1.20383e-05	-0.0020196790129632988
1.20385e-05	-0.0020517980667781738
1.20388e-05	-0.002083917120593266
1.20390e-05	-0.002114190686228891
1.20392e-05	-0.002143960539324806
1.20395e-05	-0.0021737303924209226
1.20398e-05	-0.0022035002455170396
1.20400e-05	-0.0022332700986129545
1.20403e-05	-0.0022622916014790623
1.20405e-05	-0.002289441009180121
1.20408e-05	-0.00231659041688118
1.20410e-05	-0.0023437398245820546
1.20413e-05	-0.0023708892322831135
1.20415e-05	-0.0023980386399841723
1.20418e-05	-0.002422905103910107
1.20420e-05	-0.00244714845498218
1.20423e-05	-0.002471391806054253
1.20425e-05	-0.002495635157126162
1.20428e-05	-0.0025198785081982345
1.20430e-05	-0.0025408170517465835
1.20433e-05	-0.0025608535721828537
1.20435e-05	-0.00258089009261926
1.20438e-05	-0.002600926613055666
1.20440e-05	-0.0026209631334919363
1.20443e-05	-0.002638626576711267
1.20445e-05	-0.0026545790650820363
1.20448e-05	-0.002667465638368493
1.20450e-05	-0.002679594601503717
1.20453e-05	-0.0026852874189717915
1.20455e-05	-0.0026892235374180685
1.20458e-05	-0.002684574439675569
1.20460e-05	-0.00267758206978534
1.20463e-05	-0.0026705896998951584
1.20465e-05	-0.002653734840942292
1.20468e-05	-0.002634188087525789
1.20470e-05	-0.0026146413341094185
1.20473e-05	-0.0025835236755250473
1.20475e-05	-0.002549247822760401
1.20477e-05	-0.002514971969995987
1.20480e-05	-0.0024716792700581127
1.20483e-05	-0.002425925487443047
1.20485e-05	-0.0023754936651107852
1.20488e-05	-0.002320861596944991
1.20490e-05	-0.0022624019274010247
1.20493e-05	-0.002200038095151016
1.20495e-05	-0.0021339747799611914
1.20498e-05	-0.00206460318451556
1.20500e-05	-0.001992345480694735
1.20503e-05	-0.0019176236075487694
1.20505e-05	-0.0018408594542029572
1.20508e-05	-0.0017623936988975378
1.20510e-05	-0.0016824065759575473
1.20513e-05	-0.0016010775250310573
1.20515e-05	-0.0015187621501836876
1.20518e-05	-0.0014359329025786132
1.20520e-05	-0.0013530813875499458
1.20523e-05	-0.001270699202040699
1.20525e-05	-0.0011892779679554982
1.20528e-05	-0.0011092583674858097
1.20530e-05	-0.0010309802981859886
1.20533e-05	-0.0009547835391255071
1.20535e-05	-0.0008811178350600494
1.20538e-05	-0.0008105062282493427
1.20540e-05	-0.0007434838259170046
1.20543e-05	-0.0006805855814275241
1.20545e-05	-0.0006223456458287109
1.20548e-05	-0.0005689011403855287
1.20550e-05	-0.0005195211262677394
1.20553e-05	-0.0004732477477532017
1.20555e-05	-0.00042977541141079147
1.20558e-05	-0.0003892912392687062
1.20560e-05	-0.00035206780118029286
1.20562e-05	-0.00031837756306430086
1.20565e-05	-0.0002884924171549569
1.20568e-05	-0.00026243553475797617
1.20570e-05	-0.00023968636216024246
1.20573e-05	-0.00021958227164889463
1.20575e-05	-0.00020186926257205638
1.20578e-05	-0.00018660195351889104
1.20580e-05	-0.00017388847458023554
1.20583e-05	-0.00016383687789577785
1.20585e-05	-0.00015655486536457128
1.20588e-05	-0.00015199432561034307
1.20590e-05	-0.00014976657338164475
1.20593e-05	-0.0001493939308807092
1.20595e-05	-0.00015065477551732108
1.20598e-05	-0.00015352076431664863
1.20600e-05	-0.00015799710062391984
1.20603e-05	-0.00016408892543449814
1.20605e-05	-0.00017180114382003665
1.20608e-05	-0.00018104107762780127
1.20610e-05	-0.00019150270466252977
1.20613e-05	-0.0002030698235031786
1.20615e-05	-0.00021487165958402777
1.20618e-05	-0.00022774585508951312
1.20620e-05	-0.00024091274327963605
1.20623e-05	-0.000254079631469759
1.20625e-05	-0.0002680401815516419
1.20628e-05	-0.0002822173558590479
1.20630e-05	-0.0002963945301664538
1.20633e-05	-0.00030995554278397683
1.20635e-05	-0.0003233483785618506
1.20638e-05	-0.0003367412143397244
1.20640e-05	-0.0003485198694302904
1.20643e-05	-0.00035985794567408835
1.20645e-05	-0.0003711960219178863
1.20647e-05	-0.00038112642755254835
1.20650e-05	-0.00039067261976023245
1.20653e-05	-0.00040021881196791655
1.20655e-05	-0.00040999437615471567
1.20658e-05	-0.0004198325457505632
1.20660e-05	-0.00042967071534641074
1.20663e-05	-0.0004395088849422583
1.20665e-05	-0.00044934705453803913
1.20668e-05	-0.00045918522413388666
1.20670e-05	-0.0004690233937297342
1.20673e-05	-0.0004791957613866941
1.20675e-05	-0.0004902041688416318
1.20678e-05	-0.0005012125762965695
1.20680e-05	-0.0005122209837514326
1.20683e-05	-0.0005232293912063703
1.20685e-05	-0.000534237798661308
1.20688e-05	-0.0005452462061161711
1.20690e-05	-0.0005562546135711088
1.20693e-05	-0.0005684465576666013
1.20695e-05	-0.0005809615394569622
1.20698e-05	-0.000593476521247408
1.20700e-05	-0.0006059915030378537
1.20703e-05	-0.0006185064848282147
1.20705e-05	-0.0006310214666186604
1.20708e-05	-0.0006435364484091062
1.20710e-05	-0.0006560514301994671
1.20713e-05	-0.0006683440080206534
1.20715e-05	-0.0006805758823003313
1.20718e-05	-0.0006928077565799262
1.20720e-05	-0.0007050396308596041
1.20723e-05	-0.000717271505139282
1.20725e-05	-0.000729503379418877
1.20728e-05	-0.0007417352536985549
1.20730e-05	-0.0007539671279782327
1.20732e-05	-0.0007638486592882774
1.20735e-05	-0.0007730886816248759
1.20738e-05	-0.0007823287039614744
1.20740e-05	-0.0007915687262980103
1.20743e-05	-0.0008008087486346088
1.20745e-05	-0.0008100487709712073
1.20748e-05	-0.0008192887933078058
1.20750e-05	-0.0008285288156443416
1.20753e-05	-0.0008357518037407767
1.20755e-05	-0.0008424242570506516
1.20758e-05	-0.0008490967103604814
1.20760e-05	-0.0008557691636703564
1.20763e-05	-0.0008624416169802314
1.20765e-05	-0.0008691140702900611
1.20768e-05	-0.0008757865235999361
1.20770e-05	-0.0008824589769098111
1.20773e-05	-0.000888864766916308
1.20775e-05	-0.000895197773118848
1.20778e-05	-0.000901530779321388
1.20780e-05	-0.0009078637855238852
1.20783e-05	-0.0009141967917264251
1.20785e-05	-0.0009205297979289652
1.20788e-05	-0.0009264976381748882
1.20790e-05	-0.0009320776338457709
1.20793e-05	-0.0009376576295166536
1.20795e-05	-0.0009432376251874984
1.20798e-05	-0.0009488176208583811
1.20800e-05	-0.0009543976165292638
1.20803e-05	-0.0009589412193481953
1.20805e-05	-0.000967551673324816
1.20808e-05	-0.004718323036906016
1.20810e-05	-0.01535004866381614
1.20813e-05	-0.015244585884580795
1.20815e-05	-0.013064492132680265
1.20817e-05	-0.008581695949116381
1.20820e-05	-0.0006664988507423125
1.20823e-05	0.0010697861971053677
1.20825e-05	0.00035730830251805886
1.20828e-05	-0.0022051680035338707
1.20830e-05	-0.008405336232792751
1.20833e-05	-0.009506667801582906
1.20835e-05	-0.007588890917667404
1.20838e-05	-0.004341519109842266
1.20840e-05	5.194686597489225e-05
1.20843e-05	0.002077971888124466
1.20845e-05	0.0015519383153610711
1.20848e-05	-0.0008105703247545133
1.20850e-05	-0.004150551922585076
1.20853e-05	-0.005449029768682013
1.20855e-05	-0.004572294013197211
1.20858e-05	-0.0024768628523173346
1.20860e-05	0.00020355928237711547
1.20863e-05	0.0014335429287990783
1.20865e-05	0.0010702192357901472
1.20868e-05	-0.0004411848248666093
1.20870e-05	-0.0025629100341934673
1.20873e-05	-0.0034042305087753732
1.20875e-05	-0.0028817775520451065
1.20878e-05	-0.001595024534481696
1.20880e-05	5.885482310460932e-05
1.20883e-05	0.0008047614955495094
1.20885e-05	0.000553187433263502
1.20888e-05	-0.00041697492072923534
1.20890e-05	-0.0017688767445257318
1.20893e-05	-0.002318223259568815
1.20895e-05	-0.002012886089705627
1.20898e-05	-0.0012284399848620543
1.20900e-05	-0.00021369879787691364
1.20902e-05	0.00023264940842079878
1.20905e-05	5.46168276300883e-05
1.20908e-05	-0.0005730173031442604
1.20910e-05	-0.001439181526109001
1.20913e-05	-0.0018020038158970573
1.20915e-05	-0.001628830845001
1.20918e-05	-0.001154909070504659
1.20920e-05	-0.0005360612520874567
1.20923e-05	-0.0002725179654954093
1.20925e-05	-0.00039925659025926016
1.20928e-05	-0.0008067040108303313
1.20930e-05	-0.0013625631017491887
1.20933e-05	-0.0016020698654268303
1.20935e-05	-0.001504735214863298
1.20938e-05	-0.0012178750856388521
1.20940e-05	-0.0008390425825100154
1.20943e-05	-0.0006815080404759225
1.20945e-05	-0.0007670918477201047
1.20948e-05	-0.0010271251229825827
1.20950e-05	-0.001378867541803171
1.20953e-05	-0.0015314191451773953
1.20955e-05	-0.0014720941523263021
1.20958e-05	-0.001293238585357597
1.20960e-05	-0.0010560142860655017
1.20963e-05	-0.0009566957495457135
1.20965e-05	-0.0010089841426670619
1.20968e-05	-0.001169899327879743
1.20970e-05	-0.001387651099424287
1.20973e-05	-0.0014800690382838484
1.20975e-05	-0.0014392640479002977
1.20978e-05	-0.0013231368785096935
1.20980e-05	-0.0011700494095299523
1.20983e-05	-0.0011029910939982092
1.20985e-05	-0.0011305815486245473
1.20987e-05	-0.0012259357841605673
1.20990e-05	-0.0013566531437743925
1.20993e-05	-0.0014086695581551792
1.20995e-05	-0.0013770958525621314
1.20998e-05	-0.0012982523062926817
1.21000e-05	-0.0011962170902606933
1.21003e-05	-0.001148074360749293
1.21005e-05	-0.001159263483395532
1.21008e-05	-0.0012129841498065858
1.21010e-05	-0.0012889829992446303
1.21013e-05	-0.001315856373338574
1.21015e-05	-0.0012905916977917038
1.21018e-05	-0.00123598876103596
1.21020e-05	-0.0011671771233583337
1.21023e-05	-0.001132486433224565
1.21025e-05	-0.0011353655168096527
1.21028e-05	-0.0011653329157498677
1.21030e-05	-0.0012097450422130212
1.21033e-05	-0.0012239206354176255
1.21035e-05	-0.0012060204017350581
1.21038e-05	-0.0011703733535138787
1.21040e-05	-0.0011265030085278942
1.21043e-05	-0.0011047271599935256
1.21045e-05	-0.0011072492915006542
1.21048e-05	-0.0011273118040700263
1.21050e-05	-0.0011562148972257043
1.21053e-05	-0.0011650544300113453
1.21055e-05	-0.001152342407761802
1.21058e-05	-0.0011271089374976246
1.21060e-05	-0.001095400629604782
1.21063e-05	-0.001076289019852823
1.21065e-05	-0.0010712336100533596
1.21068e-05	-0.0010760810099162232
1.21070e-05	-0.0010854616972564382
1.21072e-05	-0.0010813508517172046
1.21075e-05	-0.0010628987190340797
1.21078e-05	-0.0010358429765421593
1.21080e-05	-0.0010040526850249563
1.21083e-05	-0.0009795544865520392
1.21085e-05	-0.0009633425262399049
1.21088e-05	-0.0009528952547366734
1.21090e-05	-0.0009449291761241641
1.21093e-05	-0.0009282346496644004
1.21095e-05	-0.0009023605500412403
1.21098e-05	-0.000870982369039648
1.21100e-05	-0.0008366045632290708
1.21103e-05	-0.000806841254459638
1.21105e-05	-0.0007823952065121289
1.21108e-05	-0.0007617670482176978
1.21110e-05	-0.0007429803022136142
1.21113e-05	-0.0007190940491957616
1.21115e-05	-0.0006899067778217888
1.21118e-05	-0.0006578018071681603
1.21120e-05	-0.0006244285527514804
1.21123e-05	-0.000594636958445878
1.21125e-05	-0.0005689475046368455
1.21128e-05	-0.0005465013040127274
1.21130e-05	-0.0005249831031379174
1.21133e-05	-0.0005035158558585565
1.21135e-05	-0.0004788284196505643
1.21138e-05	-0.00045340509435788044
1.21140e-05	-0.00042844201188423607
1.21143e-05	-0.0004070575273608796
1.21145e-05	-0.0003896579028394007
1.21148e-05	-0.0003758859874939072
1.21150e-05	-0.0003654218391893256
1.21153e-05	-0.00035597937969582846
1.21155e-05	-0.00034759786929984657
1.21158e-05	-0.0003411397592958989
1.21160e-05	-0.00033716620845080275
1.21163e-05	-0.0003374937582165962
1.21165e-05	-0.0003422399960188604
1.21168e-05	-0.00035104435531152744
1.21170e-05	-0.00036356950364563177
1.21173e-05	-0.0003782467044856408
1.21175e-05	-0.0003949638056499569
1.21178e-05	-0.0004141243509963499
1.21180e-05	-0.00043594300267994134
1.21183e-05	-0.00046142083574219364
1.21185e-05	-0.0004904946184661016
1.21188e-05	-0.0005228015962017332
1.21190e-05	-0.0005587814189557293
1.21193e-05	-0.000595007160452039
1.21195e-05	-0.0006342531826004595
1.21198e-05	-0.0006737138730594286
1.21200e-05	-0.0007165468914225215
1.21203e-05	-0.0007596196000720823
1.21205e-05	-0.0008063040537551077
1.21208e-05	-0.0008532452144451471
1.21210e-05	-0.0009022666222371756
1.21213e-05	-0.000951435884875158
1.21215e-05	-0.0010009609355163675
1.21218e-05	-0.0010505112740094066
1.21220e-05	-0.00110006161250211
1.21223e-05	-0.001149504583285919
1.21225e-05	-0.0011989399228435468
1.21228e-05	-0.0012483752624008397
1.21230e-05	-0.0012959259879889388
1.21233e-05	-0.0013433427634763021
1.21235e-05	-0.0013874053079621779
1.21238e-05	-0.001431229448410301
1.21240e-05	-0.001471007654025777
1.21243e-05	-0.0015104982923262859
1.21245e-05	-0.0015451772740011148
1.21248e-05	-0.0015795142642122738
1.21250e-05	-0.0016072353963908603
1.21253e-05	-0.0016344863023777356
1.21255e-05	-0.0016538210906000446
1.21258e-05	-0.0016725932358676206
1.21260e-05	-0.0016836039293907346
1.21263e-05	-0.0016940629729420063
1.21265e-05	-0.00169692903441237
1.21268e-05	-0.0016992554199960906
1.21270e-05	-0.0016935068915710824
1.21273e-05	-0.001687184433650301
1.21275e-05	-0.001670707258436897
1.21278e-05	-0.0016535083304259368
1.21280e-05	-0.0016363094024149764
1.21283e-05	-0.001610093670056141
1.21285e-05	-0.0015832370627642935
1.21288e-05	-0.0015498516582146678
1.21290e-05	-0.0015160022153715494
1.21293e-05	-0.0014773979608275402
1.21295e-05	-0.0014355124270506994
1.21298e-05	-0.0013907620690683726
1.21300e-05	-0.0013434425388747105
1.21303e-05	-0.0012938967497816048
1.21305e-05	-0.001242403323436108
1.21308e-05	-0.0011892083526975645
1.21310e-05	-0.0011345316139125484
1.21313e-05	-0.0010785666977054821
1.21315e-05	-0.0010216243635014087
1.21318e-05	-0.0009640680046410373
1.21320e-05	-0.0009062560573526717
1.21323e-05	-0.0008485767612193123
1.21325e-05	-0.0007913779628467902
1.21328e-05	-0.0007349869309666994
1.21330e-05	-0.0006797148504876434
1.21333e-05	-0.0006258560917620583
1.21335e-05	-0.0005737785207434076
1.21338e-05	-0.0005238829683769395
1.21340e-05	-0.00047656717758663366
1.21343e-05	-0.00043224741697937765
1.21345e-05	-0.00039131472268787507
1.21348e-05	-0.0003537187535869811
1.21350e-05	-0.0003182989649628888
1.21353e-05	-0.0002835616152302982
1.21355e-05	-0.00024904929704133
1.21358e-05	-0.00021538795658652155
1.21360e-05	-0.00018178615823675781
1.21363e-05	-0.00014959506235234224
1.21365e-05	-0.00011881791597640982
1.21368e-05	-8.944826494149062e-05
1.21370e-05	-6.081070974619192e-05
1.21373e-05	-3.202122660476728e-05
1.21375e-05	-2.8450405823450345e-06
1.21378e-05	2.650755788863514e-05
1.21380e-05	5.5796716815460415e-05
1.21383e-05	8.477509133619012e-05
1.21385e-05	0.00011320530367914184
1.21388e-05	0.00014098151307174986
1.21390e-05	0.00016871389827759821
1.21393e-05	0.00019644628348363448
1.21395e-05	0.0002247068618436064
1.21398e-05	0.00025300498185778413
1.21400e-05	0.00028104302456471395
1.21403e-05	0.0003090625821165052
1.21405e-05	0.00033708213966810667
1.21408e-05	0.0003640180840406148
1.21410e-05	0.000390877009937622
1.21413e-05	0.0004177359358344472
1.21415e-05	0.00044425922215692634
1.21418e-05	0.00047075865268949354
1.21420e-05	0.0004964485864886744
1.21423e-05	0.000522080984808105
1.21425e-05	0.000546688313156341
1.21427e-05	0.0005703869027672305
1.21430e-05	0.0005932587838023436
1.21433e-05	0.0006154169775279871
