Time(s)	Current(A)
6.80000e-06	-0.002907573472458005
6.80025e-06	-0.0029284751928882586
6.80050e-06	-0.002949426303137023
6.80075e-06	-0.0029703774133857876
6.80100e-06	-0.0029971408488211415
6.80125e-06	-0.0030239616972066344
6.80150e-06	-0.0030507825455921276
6.80175e-06	-0.003081246328021356
6.80200e-06	-0.0031117460946021164
6.80225e-06	-0.003145199825157519
6.80250e-06	-0.003178682734360095
6.80275e-06	-0.0032152466423976947
6.80300e-06	-0.003251840983906863
6.80325e-06	-0.003290212314866353
6.80350e-06	-0.003329472689981753
6.80375e-06	-0.0033693777700254794
6.80400e-06	-0.0034097709896667005
6.80425e-06	-0.0034506621224641635
6.80450e-06	-0.003492062116012976
6.80475e-06	-0.00353380600119603
6.80500e-06	-0.003575637155491138
6.80525e-06	-0.003617297607099989
6.80550e-06	-0.003658529840775702
6.80575e-06	-0.0036990756541666796
6.80600e-06	-0.003738727790365411
6.80625e-06	-0.0037773834752919647
6.80650e-06	-0.003814940270295471
6.80675e-06	-0.0038511864476349837
6.80700e-06	-0.003884933498596734
6.80725e-06	-0.0039186559905317435
6.80750e-06	-0.003948170885000366
6.80775e-06	-0.003977644217688579
6.80800e-06	-0.004002781304177114
6.80825e-06	-0.004027875558119484
6.80850e-06	-0.00405092895437574
6.80875e-06	-0.004073962191460565
6.80900e-06	-0.004094638789708706
6.80925e-06	-0.004115292109564237
6.80950e-06	-0.004135945429419838
6.80975e-06	-0.004153325737978694
6.81000e-06	-0.0041706737164067
6.81025e-06	-0.004185923121976079
6.81050e-06	-0.004201151798275332
6.81075e-06	-0.004216380474574639
6.81100e-06	-0.004229806531583112
6.81125e-06	-0.004243214782689858
6.81150e-06	-0.004256623033796649
6.81175e-06	-0.004268823379135785
6.81200e-06	-0.00427976761680225
6.81225e-06	-0.004290711854468753
6.81250e-06	-0.004301656092135218
6.81275e-06	-0.004307600423375317
6.81300e-06	-0.004313495366570568
6.81325e-06	-0.004319390309765798
6.81350e-06	-0.004325285252961029
6.81375e-06	-0.004331180196156279
6.81400e-06	-0.00433707513935151
6.81425e-06	-0.00434297008254674
6.81450e-06	-0.0043488650257419905
6.81475e-06	-0.004354759968937221
6.81500e-06	-0.004360654912132471
6.81525e-06	-0.004366549855327702
6.81550e-06	-0.004372444798522932
6.81575e-06	-0.004378339741718183
6.81600e-06	-0.004384234684913413
6.81625e-06	-0.004390129628108644
6.81650e-06	-0.004396024571303894
6.81675e-06	-0.0044019195144991245
6.81700e-06	-0.004407814457694355
6.81725e-06	-0.004413709400889605
6.81750e-06	-0.004419604344084836
6.81775e-06	-0.0044254992872800655
6.81800e-06	-0.004431394230475316
6.81825e-06	-0.004437289173670546
6.81850e-06	-0.004443184116865777
6.81875e-06	-0.004449079060061027
6.81900e-06	-0.004452419837325672
6.81925e-06	-0.00445310452376906
6.81950e-06	-0.004453789210212444
6.81975e-06	-0.00445447389665583
6.82000e-06	-0.004455158583099217
6.82025e-06	-0.004455843269542602
6.82050e-06	-0.004456527955985987
6.82075e-06	-0.004457212642429374
6.82100e-06	-0.0044578973288727595
6.82125e-06	-0.004458582015316144
6.82150e-06	-0.0044592667017595315
6.82175e-06	-0.004459951388202916
6.82200e-06	-0.004460636074646302
6.82225e-06	-0.004461320761089689
6.82250e-06	-0.004462005447533074
6.82275e-06	-0.0044626901339764585
6.82300e-06	-0.004463374820419847
6.82325e-06	-0.004464059506863231
6.82350e-06	-0.004464744193306619
6.82375e-06	-0.004465428879750003
6.82400e-06	-0.004466113566193389
6.82425e-06	-0.004466798252636776
6.82450e-06	-0.004467482939080161
6.82475e-06	-0.004468167625523546
6.82500e-06	-0.004468852311966933
6.82525e-06	-0.0044695369984103185
6.82550e-06	-0.004469145299371893
6.82575e-06	-0.004468742968019657
6.82600e-06	-0.004468340636667423
6.82625e-06	-0.004467938305315189
6.82650e-06	-0.004467426345875535
6.82675e-06	-0.0044669133035522435
6.82700e-06	-0.004466400261228952
6.82725e-06	-0.004465887218905659
6.82750e-06	-0.0044653284117551284
6.82775e-06	-0.004464744252794198
6.82800e-06	-0.00446379834032642
6.82825e-06	-0.004461469687205668
6.82850e-06	-0.00445545262210739
6.82875e-06	-0.004449399258203033
6.82900e-06	-0.004437298712164199
6.82925e-06	-0.004425138433307403
6.82950e-06	-0.004412978154450649
6.82975e-06	-0.0043954976279696745
6.83000e-06	-0.0043779645491799045
6.83025e-06	-0.004351521251934967
6.83050e-06	-0.004324989941389884
6.83075e-06	-0.0042984586308447105
6.83100e-06	-0.004271927320299627
6.83125e-06	-0.004239765102073468
6.83150e-06	-0.004201747272814117
6.83175e-06	-0.004163729443554895
6.83200e-06	-0.004125711614295544
6.83225e-06	-0.004087693785036321
6.83250e-06	-0.004041447201600689
6.83275e-06	-0.003995119336228431
6.83300e-06	-0.003948791470856329
6.83325e-06	-0.003897553973262018
6.83350e-06	-0.0038462679793331337
6.83375e-06	-0.003794981985404423
6.83400e-06	-0.003740909831867282
6.83425e-06	-0.0036868101572200456
6.83450e-06	-0.0036327104825729923
6.83475e-06	-0.003577216383227552
6.83500e-06	-0.0035217085100423848
6.83525e-06	-0.0034664598940273485
6.83550e-06	-0.0034112138389011584
6.83575e-06	-0.003357507533894362
6.83600e-06	-0.003303816438221814
6.83625e-06	-0.003252583616959519
6.83650e-06	-0.0032013750780249305
6.83675e-06	-0.0031535811485305055
6.83700e-06	-0.0031058209478435905
6.83725e-06	-0.0030628410389857827
6.83750e-06	-0.003019908348864549
6.83775e-06	-0.0029845763473435693
6.83800e-06	-0.00294931942385678
6.83825e-06	-0.002914062500369991
6.83850e-06	-0.002886941879192103
6.83875e-06	-0.0028599016267300734
6.83900e-06	-0.002832861374268044
6.83925e-06	-0.0028141331825698905
6.83950e-06	-0.0027954870956933
6.83975e-06	-0.0027768410088167086
6.84000e-06	-0.002766955024589571
6.84025e-06	-0.0027571555708492523
6.84050e-06	-0.0027473561171089005
6.84075e-06	-0.0027448655099347333
6.84100e-06	-0.0027424470980391006
6.84125e-06	-0.0027400286861434596
6.84150e-06	-0.0027447256866071656
6.84175e-06	-0.0027494929716461933
6.84200e-06	-0.002754260256685237
6.84225e-06	-0.0027643384903662826
6.84250e-06	-0.002774469184502306
6.84275e-06	-0.002787912814079567
6.84300e-06	-0.0028013891681495746
6.84325e-06	-0.0028178408123736396
6.84350e-06	-0.0028343218459000565
6.84375e-06	-0.0028534550491503474
6.84400e-06	-0.0028726144499859807
6.84425e-06	-0.0028933644379408557
6.84450e-06	-0.002914855458024386
6.84475e-06	-0.0029369035122623834
6.84500e-06	-0.0029593809854913397
6.84525e-06	-0.002982160291073322
6.84550e-06	-0.0030051142989222564
6.84575e-06	-0.003028115191846696
6.84600e-06	-0.0030510056350027603
6.84625e-06	-0.0030735592971655843
6.84650e-06	-0.0030955327991741546
6.84675e-06	-0.003116734935771178
6.84700e-06	-0.003137005682246591
6.84725e-06	-0.00315618508622542
6.84750e-06	-0.0031741129625022617
6.84775e-06	-0.0031906298152541944
6.84800e-06	-0.0032054705620852713
6.84825e-06	-0.0032169230473608917
6.84850e-06	-0.0032283422262789343
6.84875e-06	-0.003234585022822609
6.84900e-06	-0.0032407766881293173
6.84925e-06	-0.0032405304603324737
6.84950e-06	-0.003240220640355985
6.84975e-06	-0.003239910820379495
6.85000e-06	-0.0032288533132458
6.85025e-06	-0.003217689642676141
6.85050e-06	-0.0032065259721064453
6.85075e-06	-0.003195362301536787
6.85100e-06	-0.003184198630967129
6.85125e-06	-0.003160252348458169
6.85150e-06	-0.0031361798019462804
6.85175e-06	-0.0031121072554343918
6.85200e-06	-0.003088034708922422
6.85225e-06	-0.0030639621624105333
6.85250e-06	-0.0030312741777503947
6.85275e-06	-0.002998501091569994
6.85300e-06	-0.0029657280053897042
6.85325e-06	-0.002928124136210376
6.85350e-06	-0.002890472549553607
6.85375e-06	-0.002852820962896838
6.85400e-06	-0.002812004955540208
6.85425e-06	-0.002771157690689075
6.85450e-06	-0.0027303104258379423
6.85475e-06	-0.0026879545739860885
6.85500e-06	-0.0026455838206233136
6.85525e-06	-0.0026030957156380277
6.85550e-06	-0.002560606451477489
6.85575e-06	-0.0025186412349358926
6.85600e-06	-0.002477340807779417
6.85625e-06	-0.0024369052460267234
6.85650e-06	-0.0023975456245907845
6.85675e-06	-0.0023595157732231413
6.85700e-06	-0.0023250440170713266
6.85725e-06	-0.0022906072783319157
6.85750e-06	-0.0022561705395923877
6.85775e-06	-0.0022273267161640247
6.85800e-06	-0.0021985381383987984
6.85825e-06	-0.002172340633736837
6.85850e-06	-0.0021461687231603146
6.85875e-06	-0.0021205336559099635
6.85900e-06	-0.0020949038914871024
6.85925e-06	-0.002069274127064328
6.85950e-06	-0.002045650560484193
6.85975e-06	-0.0020220468107122
6.86000e-06	-0.0019984430609402875
6.86025e-06	-0.001975522747958814
6.86050e-06	-0.0019526091858248196
6.86075e-06	-0.0019296956236909027
6.86100e-06	-0.0019067820615569857
6.86125e-06	-0.0018838877887389252
6.86150e-06	-0.001861013574983803
6.86175e-06	-0.0018381393612286034
6.86200e-06	-0.0018152651474734813
6.86225e-06	-0.0017923909337183592
6.86250e-06	-0.001769235975226929
6.86275e-06	-0.0017460782435970211
6.86300e-06	-0.001722920511967113
6.86325e-06	-0.0016997627803371264
6.86350e-06	-0.0016766050487072182
6.86375e-06	-0.0016539810248788066
6.86400e-06	-0.0016313622729058161
6.86425e-06	-0.0016087435209329024
6.86450e-06	-0.0015861247689599887
6.86475e-06	-0.0015635060169869983
6.86500e-06	-0.0015414846401054824
6.86525e-06	-0.001519469163971808
6.86550e-06	-0.0014980847698198557
6.86575e-06	-0.0014773121575709072
6.86600e-06	-0.001457228886741435
6.86625e-06	-0.0014377831597906403
6.86650e-06	-0.001418911977540407
6.86675e-06	-0.0014006780097036951
6.86700e-06	-0.0013836568236720239
6.86725e-06	-0.0013666475556228731
6.86750e-06	-0.0013526939543673717
6.86775e-06	-0.001338770536357718
6.86800e-06	-0.0013248471183480643
6.86825e-06	-0.0013109237003383636
6.86850e-06	-0.0012996402615479657
6.86875e-06	-0.001288382899927301
6.86900e-06	-0.0012771255383065983
6.86925e-06	-0.0012658681766859338
6.86950e-06	-0.0012576049337380492
6.86975e-06	-0.001249371266076273
6.87000e-06	-0.0012411375984145248
6.87025e-06	-0.0012329039307527488
6.87050e-06	-0.0012246702630910006
6.87075e-06	-0.0012164365954292523
6.87100e-06	-0.0012082029277674761
6.87125e-06	-0.0012012508163846763
6.87150e-06	-0.0011956314022339627
6.87175e-06	-0.00119001198808323
6.87200e-06	-0.0011843925739325164
6.87225e-06	-0.0011787731597818027
6.87250e-06	-0.00117315374563107
6.87275e-06	-0.0011675343314803564
6.87300e-06	-0.0011619149173296428
6.87325e-06	-0.001158000879897441
6.87350e-06	-0.0011541036878243865
6.87375e-06	-0.0011502064957513319
6.87400e-06	-0.001146309303678264
6.87425e-06	-0.0011424121116052094
6.87450e-06	-0.0011385149195321416
6.87475e-06	-0.001134617727459087
6.87500e-06	-0.0011307205353860324
6.87525e-06	-0.0011280434168923614
6.87550e-06	-0.0011253783500336078
6.87575e-06	-0.0011227132831748542
6.87600e-06	-0.0011200482163160916
6.87625e-06	-0.001117383149457338
6.87650e-06	-0.0011147180825985844
6.87675e-06	-0.0011120530157398218
6.87700e-06	-0.0011093879488810682
6.87725e-06	-0.0011072158914050521
6.87750e-06	-0.0011051707817387993
6.87775e-06	-0.0011032640571385951
6.87800e-06	-0.0011017226159280489
6.87825e-06	-0.001101201855347467
6.87850e-06	-0.0011023406348145985
6.87875e-06	-0.0011052990954401013
6.87900e-06	-0.001109990916558332
6.87925e-06	-0.0011163275049707049
6.87950e-06	-0.0011242201533406939
6.87975e-06	-0.0011343281833291325
6.88000e-06	-0.0011444579461425814
6.88025e-06	-0.0011581973664768273
6.88050e-06	-0.001171972442262643
6.88075e-06	-0.0011908084316528946
6.88100e-06	-0.0012096944117027278
6.88125e-06	-0.001228580391752497
6.88150e-06	-0.001251713067264771
6.88175e-06	-0.0012748876907579547
6.88200e-06	-0.0013009969117507147
6.88225e-06	-0.001327135120091568
6.88250e-06	-0.0013564047608000177
6.88275e-06	-0.001385705333150639
6.88300e-06	-0.0014170843433738165
6.88325e-06	-0.001449611981204923
6.88350e-06	-0.0014830857709984806
6.88375e-06	-0.0015173108323671878
6.88400e-06	-0.0015521440452747623
6.88425e-06	-0.0015875475874205255
6.88450e-06	-0.0016234797146672548
6.88475e-06	-0.0016597810517383583
6.88500e-06	-0.0016962314638807492
6.88525e-06	-0.0017326104581976533
6.88550e-06	-0.0017686975440692823
6.88575e-06	-0.0018042718850462911
6.88600e-06	-0.0018391458409364628
6.88625e-06	-0.0018731971155133654
6.88650e-06	-0.0019063012881263797
6.88675e-06	-0.0019382602490217323
6.88700e-06	-0.001968837580643918
6.88725e-06	-0.001997797070611766
6.88750e-06	-0.002024902051130515
6.88775e-06	-0.002049916426234209
6.88800e-06	-0.002071459869692274
6.88825e-06	-0.0020929692302143056
6.88850e-06	-0.0021085081828443315
6.88875e-06	-0.002123988161018355
6.88900e-06	-0.0021394681391923263
6.88925e-06	-0.0021474290830527875
6.88950e-06	-0.0021553157554453015
6.88975e-06	-0.002163202427837789
6.89000e-06	-0.002163276725285962
6.89025e-06	-0.002163273853708024
6.89050e-06	-0.0021632709821300853
6.89075e-06	-0.002153621238481995
6.89100e-06	-0.002143876205024087
6.89125e-06	-0.0021341311715662114
6.89150e-06	-0.0021243861381083032
6.89175e-06	-0.002114641104650428
6.89200e-06	-0.002094554834106029
6.89225e-06	-0.002074366414957635
6.89250e-06	-0.0020541779958093086
6.89275e-06	-0.002033989576660983
6.89300e-06	-0.0020138011575125884
6.89325e-06	-0.001987417717775862
6.89350e-06	-0.0019609730849054065
6.89375e-06	-0.0019345284520348614
6.89400e-06	-0.0019053559895365025
6.89425e-06	-0.0018761565821005489
6.89450e-06	-0.0018455605981350346
6.89475e-06	-0.0018149508190751476
6.89500e-06	-0.0017837445986645852
6.89525e-06	-0.0017523698313862426
6.89550e-06	-0.0017210069447993518
6.89575e-06	-0.0016898338215154526
6.89600e-06	-0.0016590339927020144
6.89625e-06	-0.0016288074146047524
6.89650e-06	-0.001599366424485941
6.89675e-06	-0.0015709208289453294
6.89700e-06	-0.0015436767195401726
6.89725e-06	-0.0015178399208367304
6.89750e-06	-0.0014936162551241739
6.89775e-06	-0.0014712116599680434
6.89800e-06	-0.0014507882689482562
6.89825e-06	-0.0014323904313244403
6.89850e-06	-0.0014159945920046424
6.89875e-06	-0.0014016164223203387
6.89900e-06	-0.001389307377515435
6.89925e-06	-0.001379119031854803
6.89950e-06	-0.0013722044256494952
6.89975e-06	-0.0013653219518230868
6.90000e-06	-0.0013628554379969701
6.90025e-06	-0.001360432544111447
6.90050e-06	-0.001363186397644249
6.90075e-06	-0.0013659913860185713
6.90100e-06	-0.001368796374392884
6.90125e-06	-0.001377389172457116
6.90150e-06	-0.0013860391413097447
6.90175e-06	-0.0013946891101623443
6.90200e-06	-0.0014078076435900283
6.90225e-06	-0.001420970316575418
6.90250e-06	-0.0014372139307589525
6.90275e-06	-0.0014534879778431052
6.90300e-06	-0.0014723897560036964
6.90325e-06	-0.0014913174903488941
6.90350e-06	-0.0015124549050247633
6.90375e-06	-0.0015336141464664724
6.90400e-06	-0.0015565293393720776
6.90425e-06	-0.0015794618772034437
6.90450e-06	-0.0016033456778926398
6.90475e-06	-0.0016276688568379835
6.90500e-06	-0.0016522843593863345
6.90525e-06	-0.0016770488782763572
6.90550e-06	-0.0017018191062469655
6.90575e-06	-0.0017264518513137165
6.90600e-06	-0.0017507966602020885
6.90625e-06	-0.001774685831681241
6.90650e-06	-0.001797940428299454
6.90675e-06	-0.0018193669304079414
6.90700e-06	-0.0018407754364561638
6.90725e-06	-0.0018621839425044587
6.90750e-06	-0.0018812195172827487
6.90775e-06	-0.0018987697143501609
6.90800e-06	-0.0019151939733008396
6.90825e-06	-0.0019319166556196225
6.90850e-06	-0.001950391717209497
6.90875e-06	-0.0019709621502939085
6.90900e-06	-0.001993384971475452
6.90925e-06	-0.002017410480137063
6.90950e-06	-0.002043335376700933
6.90975e-06	-0.002069278880416031
6.91000e-06	-0.002096935510322376
6.91025e-06	-0.0021265233460682834
6.91050e-06	-0.002160170767604651
6.91075e-06	-0.0021938581021124694
6.91100e-06	-0.0022313507186045856
6.91125e-06	-0.0022710206879325906
6.91150e-06	-0.002312553453065769
6.91175e-06	-0.0023556481945348874
6.91200e-06	-0.002400206290380247
6.91225e-06	-0.002446551645078442
6.91250e-06	-0.0024950187724980797
6.91275e-06	-0.0025455069656703877
6.91300e-06	-0.002597685275755033
6.91325e-06	-0.0026512207526538847
6.91350e-06	-0.0027057795263337294
6.91375e-06	-0.002761028639864344
6.91400e-06	-0.0028167617191794665
6.91425e-06	-0.0028730369323347743
6.91450e-06	-0.002929918967533742
6.91475e-06	-0.002987200268264797
6.91500e-06	-0.003044528337079487
6.91525e-06	-0.003101550424165499
6.91550e-06	-0.0031579124077781755
6.91575e-06	-0.0032132615358284222
6.91600e-06	-0.003267323458007945
6.91625e-06	-0.003319990135569949
6.91650e-06	-0.003371157931549889
6.91675e-06	-0.003420551474112958
6.91700e-06	-0.0034678060845447275
6.91725e-06	-0.0035125559881815267
6.91750e-06	-0.0035544347164220046
6.91775e-06	-0.0035930769465997705
6.91800e-06	-0.003628262154898232
6.91825e-06	-0.0036601156942910563
6.91850e-06	-0.003687363633932579
6.91875e-06	-0.003714566402183879
6.91900e-06	-0.0037337807296304
6.91925e-06	-0.003752916148909802
6.91950e-06	-0.0037720515681891388
6.91975e-06	-0.0037808379115688495
6.92000e-06	-0.003789522028915881
6.92025e-06	-0.003798206146262883
6.92050e-06	-0.0037974109115559173
6.92075e-06	-0.0037965220417686585
6.92100e-06	-0.0037956331719814023
6.92125e-06	-0.003786009483551572
6.92150e-06	-0.0037762995143885984
6.92175e-06	-0.0037665895452256575
6.92200e-06	-0.0037488224303785546
6.92225e-06	-0.003730975728711842
6.92250e-06	-0.003713129027045129
6.92275e-06	-0.0036898730841833554
6.92300e-06	-0.0036665637099552355
6.92325e-06	-0.0036387976638585728
6.92350e-06	-0.003610987595678315
6.92375e-06	-0.003583177527498151
6.92400e-06	-0.0035517692910352213
6.92425e-06	-0.0035203255126096595
6.92450e-06	-0.003487089874045775
6.92475e-06	-0.003453836535857842
6.92500e-06	-0.003419635854217811
6.92525e-06	-0.003385425814915104
6.92550e-06	-0.003351016923403262
6.92575e-06	-0.003316606067670287
6.92600e-06	-0.0032828163224897914
6.92625e-06	-0.0032490327125108223
6.92650e-06	-0.0032169118528302806
6.92675e-06	-0.0031848074174534577
6.92700e-06	-0.0031553232201714213
6.92725e-06	-0.0031258649050597245
6.92750e-06	-0.003100984571270623
6.92775e-06	-0.0030761494578345552
6.92800e-06	-0.0030513143443985716
6.92825e-06	-0.0030333432633921084
6.92850e-06	-0.003015439983878927
6.92875e-06	-0.0029975367043658064
6.92900e-06	-0.0029870756849234128
6.92925e-06	-0.002976688178587404
6.92950e-06	-0.00296630067225143
6.92975e-06	-0.002965661983527068
6.93000e-06	-0.0029651195916076383
6.93025e-06	-0.0029645771996882108
6.93050e-06	-0.0029640348077687815
6.93075e-06	-0.002968978444413452
6.93100e-06	-0.002979627031511172
6.93125e-06	-0.0029902756186089285
6.93150e-06	-0.0030009242057066486
6.93175e-06	-0.003011572792804369
6.93200e-06	-0.0030293768701107945
6.93225e-06	-0.0030472516278700675
6.93250e-06	-0.0030680536054245575
6.93275e-06	-0.0030906489217485257
6.93300e-06	-0.0031148843007174393
6.93325e-06	-0.0031406163209322362
6.93350e-06	-0.0031677017892698025
6.93375e-06	-0.0031959975148841122
6.93400e-06	-0.0032253563875235436
6.93425e-06	-0.003255614427831535
6.93450e-06	-0.0032865895070478025
6.93475e-06	-0.003318092632733278
6.93500e-06	-0.0033499356686182468
6.93525e-06	-0.003381930487542741
6.93550e-06	-0.0034138891929000824
6.93575e-06	-0.0034456231987007677
6.93600e-06	-0.0034769425288038295
6.93625e-06	-0.0035076456657398523
6.93650e-06	-0.00353752014216678
6.93675e-06	-0.0035663496948544877
6.93700e-06	-0.003593918024135114
6.93725e-06	-0.003620008599787227
6.93750e-06	-0.0036444055809721843
6.93775e-06	-0.0036668929031301086
6.93800e-06	-0.0036872556521899595
6.93825e-06	-0.003705310280714619
6.93850e-06	-0.0037197265483898873
6.93875e-06	-0.003734107100264525
6.93900e-06	-0.0037409772635720985
6.93925e-06	-0.0037477732408143895
6.93950e-06	-0.0037545692180566805
6.93975e-06	-0.0037613651952989944
6.94000e-06	-0.0037578237972198955
6.94025e-06	-0.003754180288685017
6.94050e-06	-0.0037505367801501264
6.94075e-06	-0.003746893271615248
6.94100e-06	-0.00373459634895968
6.94125e-06	-0.0037222139496688377
6.94150e-06	-0.0037098315503780377
6.94175e-06	-0.0036908081405359013
6.94200e-06	-0.0036717191321648016
6.94225e-06	-0.0036526301237937665
6.94250e-06	-0.003627805410774293
6.94275e-06	-0.0036029240416503524
6.94300e-06	-0.0035780426725264963
6.94325e-06	-0.0035487024797029015
6.94350e-06	-0.003519318243540994
6.94375e-06	-0.0034899340073790866
6.94400e-06	-0.0034574442184549903
6.94425e-06	-0.003424923753523065
6.94450e-06	-0.00339240328859114
