Time(s)	Current(A)
4.75000e-06	-0.0007623481434577449
4.75025e-06	-0.0007302904401207932
4.75050e-06	-0.0006937241010673152
4.75075e-06	-0.0006529494245039675
4.75100e-06	-0.0006082666810948948
4.75125e-06	-0.000559974488633812
4.75150e-06	-0.0005082410043435951
4.75175e-06	-0.0004529834096310488
4.75200e-06	-0.0003941131616412105
4.75225e-06	-0.0003318073910782898
4.75250e-06	-0.00026642988352583013
4.75275e-06	-0.00019838184295349438
4.75300e-06	-0.00012806444605787033
4.75325e-06	-5.587779078432129e-05
4.75350e-06	1.7859714377148887e-05
4.75375e-06	9.29869183269712e-05
4.75400e-06	0.00016934628480092767
4.75425e-06	0.0002466138311117925
4.75450e-06	0.0003243487324481989
4.75475e-06	0.0004020866840739365
4.75500e-06	0.0004793634645599394
4.75525e-06	0.0005557155640594746
4.75550e-06	0.0006307306711891654
4.75575e-06	0.0007040950286522965
4.75600e-06	0.0007754971118316267
4.75625e-06	0.0008445212076344369
4.75650e-06	0.0009106783625673595
4.75675e-06	0.0009734651079058585
4.75700e-06	0.001032377902065811
4.75725e-06	0.0010869115150441058
4.75750e-06	0.001136433046145151
4.75775e-06	0.0011801138031826476
4.75800e-06	0.0012172581219202362
4.75825e-06	0.0012475663144432836
4.75850e-06	0.0012709756829773285
4.75875e-06	0.001287468040950541
4.75900e-06	0.0012970253439880636
4.75925e-06	0.0012996283347241064
4.75950e-06	0.0012951778120875313
4.75975e-06	0.0012834519259573558
4.76000e-06	0.00126431236300249
4.76025e-06	0.0012378686486830427
4.76050e-06	0.0012043789803693604
4.76075e-06	0.0011641292287749882
4.76100e-06	0.0011174053552469574
4.76125e-06	0.0010644926644368064
4.76150e-06	0.0010056263275620512
4.76175e-06	0.0009409646690073572
4.76200e-06	0.0008707182758539867
4.76225e-06	0.0007952531135188141
4.76250e-06	0.0007150281472488386
4.76275e-06	0.0006305196499008267
4.76300e-06	0.0005422039978551944
4.76325e-06	0.0004505570345373027
4.76350e-06	0.0003560231919933907
4.76375e-06	0.00025899880851556627
4.76400e-06	0.00015991289246551646
4.76425e-06	5.929169829615072e-05
4.76450e-06	-4.234055984773607e-05
4.76475e-06	-0.00014423413256657244
4.76500e-06	-0.00024554201913237165
4.76525e-06	-0.0003465924393313036
4.76550e-06	-0.0004454541793053353
4.76575e-06	-0.000543353760611018
4.76600e-06	-0.0006386437134406675
4.76625e-06	-0.0007304630123896488
4.76650e-06	-0.0008184723247607829
4.76675e-06	-0.0009020020700562274
4.76700e-06	-0.0009803827664179757
4.76725e-06	-0.0010529533776079255
4.76750e-06	-0.0011184460662257536
4.76775e-06	-0.00118163414922996
4.76800e-06	-0.0012414471661096316
4.76825e-06	-0.001299776481034606
4.76850e-06	-0.001353835367390878
4.76875e-06	-0.00140601694439058
4.76900e-06	-0.001458198521390105
4.76925e-06	-0.0015036845507279443
4.76950e-06	-0.0015462271719109872
4.76975e-06	-0.0015887697930938858
4.77000e-06	-0.0016278983033250788
4.77025e-06	-0.0016655259472307864
4.77050e-06	-0.0017031535911363664
4.77075e-06	-0.0017361280728238563
4.77100e-06	-0.0017670569928471044
4.77125e-06	-0.0017979859128702477
4.77150e-06	-0.001828914832893391
4.77175e-06	-0.001859843752916639
4.77200e-06	-0.0018864868366920693
4.77225e-06	-0.0019112458377906424
4.77250e-06	-0.0019360048388892995
4.77275e-06	-0.0019607638399878726
4.77300e-06	-0.00198552284108653
4.77325e-06	-0.002005771355278387
4.77350e-06	-0.0020240370288403912
4.77375e-06	-0.002042302702402457
4.77400e-06	-0.0020605683759644614
4.77425e-06	-0.0020788340495264653
4.77450e-06	-0.0020970997230885316
4.77475e-06	-0.0021153653966505355
4.77500e-06	-0.0021336310702125398
4.77525e-06	-0.0021507102969210248
4.77550e-06	-0.0021628801903137724
4.77575e-06	-0.00217505008370652
4.77600e-06	-0.002187219977099309
4.77625e-06	-0.0021993898704920564
4.77650e-06	-0.002211559763884804
4.77675e-06	-0.002223729657277593
4.77700e-06	-0.0022358995506703404
4.77725e-06	-0.0022480694440631293
4.77750e-06	-0.0022547827624140233
4.77775e-06	-0.0022590973333756537
4.77800e-06	-0.002263411904337299
4.77825e-06	-0.0022677264752989294
4.77850e-06	-0.00227204104626056
4.77875e-06	-0.002276355617222205
4.77900e-06	-0.0022806701881838355
4.77925e-06	-0.002284984759145466
4.77950e-06	-0.0022873656040689706
4.77975e-06	-0.002281744990155646
4.78000e-06	-0.002276124376242321
4.78025e-06	-0.002270503762328978
4.78050e-06	-0.002264883148415653
4.78075e-06	-0.0022592625345023284
4.78100e-06	-0.002253641920588985
4.78125e-06	-0.0022480213066756603
4.78150e-06	-0.0022424006927623356
4.78175e-06	-0.002231132944324197
4.78200e-06	-0.002217382677256172
4.78225e-06	-0.002203632410188101
4.78250e-06	-0.0021898821431200763
4.78275e-06	-0.0021761318760520516
4.78300e-06	-0.0021623816089839805
4.78325e-06	-0.002148631341915956
4.78350e-06	-0.002134881074847931
4.78375e-06	-0.00212113080777986
4.78400e-06	-0.002106924634732221
4.78425e-06	-0.0020908319933550883
4.78450e-06	-0.0020747393519779016
4.78475e-06	-0.002058646710600769
4.78500e-06	-0.0020425540692236366
4.78525e-06	-0.0020264614278464495
4.78550e-06	-0.002010368786469317
4.78575e-06	-0.0019942761450921845
4.78600e-06	-0.0019781835037149978
4.78625e-06	-0.0019620908623378653
4.78650e-06	-0.0019496451427575478
4.78675e-06	-0.0019388026347285188
4.78700e-06	-0.0019279601266994897
4.78725e-06	-0.0019171176186704238
4.78750e-06	-0.0019062751106413947
4.78775e-06	-0.0018954326026123657
4.78800e-06	-0.0018845900945832997
4.78825e-06	-0.0018737475865542707
4.78850e-06	-0.0018629050785252414
4.78875e-06	-0.0018520625704961757
4.78900e-06	-0.0018412200624671464
4.78925e-06	-0.0018311140113707579
4.78950e-06	-0.0018240553049932214
4.78975e-06	-0.001816996598615709
4.79000e-06	-0.0018099378922381965
4.79025e-06	-0.0018028791858606603
4.79050e-06	-0.0017958204794831477
4.79075e-06	-0.0017887617731056113
4.79100e-06	-0.0017817030667280989
4.79125e-06	-0.0017746443603505863
4.79150e-06	-0.0017675856539730499
4.79175e-06	-0.0017605269475955375
4.79200e-06	-0.001753468241218025
4.79225e-06	-0.0017473512221662622
4.79250e-06	-0.0017416481752483468
4.79275e-06	-0.0017359451283304316
4.79300e-06	-0.0017302420814124969
4.79325e-06	-0.0017245390344945814
4.79350e-06	-0.0017188359875766662
4.79375e-06	-0.0017131329406587315
4.79400e-06	-0.001707429893740816
4.79425e-06	-0.0017017268468229008
4.79450e-06	-0.0016960237999049661
4.79475e-06	-0.0016912723281218753
4.79500e-06	-0.0016869391752204793
4.79525e-06	-0.001682606022319098
4.79550e-06	-0.0016782728694177168
4.79575e-06	-0.0016739397165163208
4.79600e-06	-0.0016696065636149396
4.79625e-06	-0.0016652734107135583
4.79650e-06	-0.0016609402578121623
4.79675e-06	-0.001656607104910781
4.79700e-06	-0.0016522739520093998
4.79725e-06	-0.0016477144954516966
4.79750e-06	-0.0016430555542721816
4.79775e-06	-0.0016383966130926666
4.79800e-06	-0.0016337376719131357
4.79825e-06	-0.0016290787307336207
4.79850e-06	-0.001624419789554106
4.79875e-06	-0.001619760848374575
4.79900e-06	-0.0016140927838705127
4.79925e-06	-0.0016042491233519546
4.79950e-06	-0.0015944054628334297
4.79975e-06	-0.001584561802314905
4.80000e-06	-0.0015747181417963467
4.80025e-06	-0.001564874481277822
4.80050e-06	-0.0015550308207592971
4.80075e-06	-0.001545187160240739
4.80100e-06	-0.0015311637004366823
4.80125e-06	-0.001515302772524586
4.80150e-06	-0.0014994418446124362
4.80175e-06	-0.00148358091670034
4.80200e-06	-0.0014677199887882437
4.80225e-06	-0.0014518590608760939
4.80250e-06	-0.0014359981329639976
4.80275e-06	-0.0014201372050519016
4.80300e-06	-0.0014042762771397516
4.80325e-06	-0.0013862843309926614
4.80350e-06	-0.0013673555747795748
4.80375e-06	-0.0013484268185665522
4.80400e-06	-0.0013294980623535296
4.80425e-06	-0.0013105693061404428
4.80450e-06	-0.0012916405499274202
4.80475e-06	-0.0012727117937143977
4.80500e-06	-0.001253783037501311
4.80525e-06	-0.0012348542812882883
4.80550e-06	-0.0012170276844861501
4.80575e-06	-0.0011996856044343845
4.80600e-06	-0.0011823435243826777
4.80625e-06	-0.001165001444330971
4.80650e-06	-0.0011483383507666387
4.80675e-06	-0.0011344847981188812
4.80700e-06	-0.0011206312454711234
4.80725e-06	-0.0011067776928233189
4.80750e-06	-0.0010929241401755614
4.80775e-06	-0.0010800180609566263
4.80800e-06	-0.001067528497481571
4.80825e-06	-0.0010550389340065157
4.80850e-06	-0.001042549370531418
4.80875e-06	-0.0010300598070563628
4.80900e-06	-0.0010175702435813074
4.80925e-06	-0.0010050806801062096
4.80950e-06	-0.0009922239887058548
4.80975e-06	-0.0009778481788153294
4.81000e-06	-0.0009634723689247555
4.81025e-06	-0.0009490965590342302
4.81050e-06	-0.000934720749143705
4.81075e-06	-0.0009203449392531309
4.81100e-06	-0.0009059691293626057
4.81125e-06	-0.0008915933194720804
4.81150e-06	-0.0008754723608019472
4.81175e-06	-0.0008585842228951574
4.81200e-06	-0.0008416960849883104
4.81225e-06	-0.0008248079470815206
4.81250e-06	-0.0008079198091747308
4.81275e-06	-0.0007910316712678839
4.81300e-06	-0.0007741435333610941
4.81325e-06	-0.0007572553954543044
4.81350e-06	-0.0007398799637511097
4.81375e-06	-0.0007222903143909484
4.81400e-06	-0.0007047006650307871
4.81425e-06	-0.0006871110156705663
4.81450e-06	-0.000669521366310405
4.81475e-06	-0.0006519317169502438
4.81500e-06	-0.0006343420675900229
4.81525e-06	-0.0006167524182298616
4.81550e-06	-0.0006006761235247386
4.81575e-06	-0.0005852651097873655
4.81600e-06	-0.0005698540960500445
4.81625e-06	-0.0005544430823126714
4.81650e-06	-0.0005390320685753505
4.81675e-06	-0.0005260917958649648
4.81700e-06	-0.0005142376776630429
4.81725e-06	-0.0005023835594611613
4.81750e-06	-0.0004905294412592797
4.81775e-06	-0.00047867532305735785
4.81800e-06	-0.00046794868252993127
4.81825e-06	-0.0004577176888331347
4.81850e-06	-0.0004474866951363035
4.81875e-06	-0.0004372557014395069
4.81900e-06	-0.0004270247077427103
4.81925e-06	-0.0004167937140458791
4.81950e-06	-0.00040656272034908254
4.81975e-06	-0.0003963181807087164
4.82000e-06	-0.0003860175900519814
4.82025e-06	-0.0003757169993952813
4.82050e-06	-0.00036541640873854635
4.82075e-06	-0.0003551158180818463
4.82100e-06	-0.00034481522742514615
4.82125e-06	-0.00033451463676841117
4.82150e-06	-0.0003242140461117111
4.82175e-06	-0.000313447419659923
4.82200e-06	-0.0003024759207126056
4.82225e-06	-0.0002915044217653255
4.82250e-06	-0.00028053292281804534
4.82275e-06	-0.000269561423870728
4.82300e-06	-0.0002585899249234479
4.82325e-06	-0.0002475586659611454
4.82350e-06	-0.00023650113609099765
4.82375e-06	-0.0002254436062208874
4.82400e-06	-0.00021438607635077716
4.82425e-06	-0.00020332854648062943
4.82450e-06	-0.00019227101661051918
4.82475e-06	-0.0001815598192090336
4.82500e-06	-0.00017100087190911607
4.82525e-06	-0.00016044192460919852
4.82550e-06	-0.0001503903191485623
4.82575e-06	-0.0001405617446005525
4.82600e-06	-0.00013115190965037028
4.82625e-06	-0.00012192615546662194
4.82650e-06	-0.00011309316771452952
4.82675e-06	-0.00010475614523886519
4.82700e-06	-9.693061454671035e-05
4.82725e-06	-8.968802876446816e-05
4.82750e-06	-8.350378758707548e-05
4.82775e-06	-7.963941302609988e-05
4.82800e-06	-7.939784293126168e-05
4.82825e-06	-8.32818278701526e-05
4.82850e-06	-9.122504956186676e-05
4.82875e-06	-0.00010304643691380946
4.82900e-06	-0.00011856489234192629
4.82925e-06	-0.00013760255756791847
4.82950e-06	-0.00016023458957856285
4.82975e-06	-0.00018702851221992717
4.83000e-06	-0.00021857775749664518
4.83025e-06	-0.0002549744780431778
4.83050e-06	-0.0002959543255892616
4.83075e-06	-0.00034118114000375444
4.83100e-06	-0.0003903187202827841
4.83125e-06	-0.00044303293239070967
4.83150e-06	-0.0004991481947309915
4.83175e-06	-0.0005587972197420475
4.83200e-06	-0.0006221289947899719
4.83225e-06	-0.0006900194374236515
4.83250e-06	-0.0007594150182183137
4.83275e-06	-0.0008323724657275026
4.83300e-06	-0.000906895733995015
4.83325e-06	-0.0009843016345437777
4.83350e-06	-0.0010629747597884548
4.83375e-06	-0.0011416478850331318
4.83400e-06	-0.001222533280350152
4.83425e-06	-0.001304391204590682
4.83450e-06	-0.001386249128831212
4.83475e-06	-0.0014354206407034154
4.83500e-06	-0.0071233226486038395
4.83525e-06	-0.02849179456305746
4.83550e-06	-0.022063109564857457
4.83575e-06	-0.017218223952648107
4.83600e-06	-0.009981751911398861
4.83625e-06	0.006881611295788288
4.83650e-06	0.004376117114597146
4.83675e-06	0.0022888070786642304
4.83700e-06	-0.0037879307217634764
4.83725e-06	-0.011040885786264363
4.83750e-06	-0.011923433628143753
4.83775e-06	-0.008632818125180066
4.83800e-06	-0.003405195462155112
4.83825e-06	0.0021152023582312017
4.83850e-06	0.0033635140337265933
4.83875e-06	0.001590827844841239
4.83900e-06	-0.0024990282875385723
4.83925e-06	-0.0071463304306256005
4.83950e-06	-0.0077751220598628115
4.83975e-06	-0.005768459616307808
4.84000e-06	-0.0025321349511220363
4.84025e-06	0.0009001023040021188
4.84050e-06	0.0016660736693099854
4.84075e-06	0.0005474594734588324
4.84100e-06	-0.002016417469278362
4.84125e-06	-0.004924512495816313
4.84150e-06	-0.0053115888752001015
4.84175e-06	-0.004045001023871771
4.84200e-06	-0.0020060977772744055
4.84225e-06	0.00015701392567761695
4.84250e-06	0.0006511091898633828
4.84275e-06	-3.439644741060988e-05
4.84300e-06	-0.0016245198939366314
4.84325e-06	-0.0034297784614280274
4.84350e-06	-0.0036556841850598305
4.84375e-06	-0.002845871609702478
4.84400e-06	-0.001552673570412469
4.84425e-06	-0.00018226268974443782
4.84450e-06	0.00014196842262785672
4.84475e-06	-0.00027348463255470496
4.84500e-06	-0.00125646216900893
4.84525e-06	-0.0023751855981486835
4.84550e-06	-0.0025057700057641214
4.84575e-06	-0.0019889604106331305
4.84600e-06	-0.0011709169040072967
4.84625e-06	-0.00030621631486260994
4.84650e-06	-9.865594251247355e-05
4.84675e-06	-0.0003563287169765782
4.84700e-06	-0.0009714884432835945
4.84725e-06	-0.0016737278041607498
4.84750e-06	-0.0017586871731039432
4.84775e-06	-0.001438376768736858
4.84800e-06	-0.000927803612894949
4.84825e-06	-0.0003856394065087837
4.84850e-06	-0.00025275911869451285
4.84875e-06	-0.00040905521932578016
4.84900e-06	-0.0007871468077347316
4.84925e-06	-0.001217773067791385
4.84950e-06	-0.0012598738157965587
4.84975e-06	-0.001046415797890969
4.85000e-06	-0.0007122305200653663
4.85025e-06	-0.0003568505151329518
4.85050e-06	-0.0002565628231250767
4.85075e-06	-0.00033624652561234315
4.85100e-06	-0.0005538139435720718
4.85125e-06	-0.0008033667006590739
4.85150e-06	-0.0008087690582410716
4.85175e-06	-0.0006534637381170837
4.85200e-06	-0.0004220539416020047
4.85225e-06	-0.00017702480403384386
4.85250e-06	-9.15695125715013e-05
4.85275e-06	-0.0001187539422165086
4.85300e-06	-0.00023233930278832398
4.85325e-06	-0.0003661200403260288
4.85350e-06	-0.00034726506917600745
4.85375e-06	-0.00022818825998467609
4.85400e-06	-6.20255462442409e-05
4.85425e-06	0.00011194607513892004
4.85450e-06	0.0001851090425696666
4.85475e-06	0.0001867368696042056
4.85500e-06	0.0001331374835574631
4.85525e-06	6.565130029393223e-05
4.85550e-06	9.24020397696313e-05
4.85575e-06	0.00018041684876867075
4.85600e-06	0.0002962736135761058
4.85625e-06	0.0004152341159574779
4.85650e-06	0.0004691295720438664
4.85675e-06	0.0004761683028966994
4.85700e-06	0.0004464356458213105
4.85725e-06	0.00040572458366217013
4.85750e-06	0.0004219126931624728
4.85775e-06	0.0004751117229012005
4.85800e-06	0.000545403791066148
4.85825e-06	0.0006177803953432373
4.85850e-06	0.0006495870711067648
4.85875e-06	0.0006522233247645747
4.85900e-06	0.0006319997617103888
4.85925e-06	0.0006050650558567129
4.85950e-06	0.0006139270829702047
4.85975e-06	0.0006461159133385879
4.86000e-06	0.0006891441543788119
4.86025e-06	0.0007336007693797623
4.86050e-06	0.000752758954398115
4.86075e-06	0.0007537520896006994
4.86100e-06	0.0007405254625446701
4.86125e-06	0.0007231862692676158
4.86150e-06	0.0007283513260154426
4.86175e-06	0.0007481987016638758
4.86200e-06	0.0007748961481779341
4.86225e-06	0.0008025391671980212
4.86250e-06	0.0008143776860828517
4.86275e-06	0.0008148722205965168
4.86300e-06	0.0008064858833600748
4.86325e-06	0.0007955412697321623
4.86350e-06	0.0007987015794643407
4.86375e-06	0.0008110569949831156
4.86400e-06	0.0008276918205159628
4.86425e-06	0.0008448982000908386
4.86450e-06	0.0008521752835581875
4.86475e-06	0.0008523089867005579
4.86500e-06	0.0008468337205885042
4.86525e-06	0.0008397013351594045
4.86550e-06	0.0008413402733214377
4.86575e-06	0.0008486654719708257
4.86600e-06	0.0008585883731209343
4.86625e-06	0.0008687772826516229
4.86650e-06	0.0008726459172748344
4.86675e-06	0.0008719308128014517
4.86700e-06	0.0008675846409781343
4.86725e-06	0.0008620267369062061
4.86750e-06	0.0008613257736819124
4.86775e-06	0.0008621453923113899
4.86800e-06	0.0008608990936073444
4.86825e-06	0.0008554966152434557
4.86850e-06	0.0008419648231741613
4.86875e-06	0.0008216356122078642
4.86900e-06	0.0007953497262486057
4.86925e-06	0.0007648665079558258
4.86950e-06	0.000734230996207208
4.86975e-06	0.000701596979115251
4.87000e-06	0.000664961615083182
4.87025e-06	0.0006232594690362151
4.87050e-06	0.0005742458559601037
4.87075e-06	0.0005189993157534473
4.87100e-06	0.00045829051559808076
4.87125e-06	0.00039346559435620267
4.87150e-06	0.00032730223522007163
4.87175e-06	0.00025888770138660257
4.87200e-06	0.00018721133589419772
4.87225e-06	0.00011184974483315807
4.87250e-06	3.1640914855118096e-05
4.87275e-06	-5.2495494807340986e-05
4.87300e-06	-0.00013983265042017255
4.87325e-06	-0.00022928339323192645
4.87350e-06	-0.0003188639511561763
4.87375e-06	-0.00040916154304032664
4.87400e-06	-0.0005008015695041432
4.87425e-06	-0.0005924415959679599
4.87450e-06	-0.0006846470750378309
4.87475e-06	-0.0007779482817605089
4.87500e-06	-0.0008703712982763798
4.87525e-06	-0.0009627943147925639
4.87550e-06	-0.0010531939775393188
4.87575e-06	-0.0011384392521678098
4.87600e-06	-0.0012236845267960118
4.87625e-06	-0.001306946122974293
4.87650e-06	-0.0013851544018391802
4.87675e-06	-0.0014610933935559891
4.87700e-06	-0.0015312514947086178
4.87725e-06	-0.0015981334777530676
4.87750e-06	-0.0016566697209123916
4.87775e-06	-0.0017116642116610425
4.87800e-06	-0.0017576362730046893
4.87825e-06	-0.001800214027106413
4.87850e-06	-0.0018341449606750397
4.87875e-06	-0.001864542313176684
4.87900e-06	-0.0018859380523446128
4.87925e-06	-0.0019034424762396293
4.87950e-06	-0.0019110339775836504
4.87975e-06	-0.0019148407192886925
4.88000e-06	-0.0019090059833587066
4.88025e-06	-0.0018997517534147228
4.88050e-06	-0.0018817865409503903
4.88075e-06	-0.0018605875274362235
4.88100e-06	-0.001831150574536082
4.88125e-06	-0.001798528586115005
4.88150e-06	-0.0017577928859471514
4.88175e-06	-0.0017142118189033078
4.88200e-06	-0.0016633823282565879
4.88225e-06	-0.0016102090566861166
4.88250e-06	-0.001551065125546856
4.88275e-06	-0.0014904070838071017
4.88300e-06	-0.0014250107975249961
4.88325e-06	-0.0013565222328260913
4.88350e-06	-0.0012851478522203888
4.88375e-06	-0.0012113441589705213
4.88400e-06	-0.0011356181097179033
4.88425e-06	-0.0010584732495654658
4.88450e-06	-0.0009804664390252124
4.88475e-06	-0.0009020286766012389
4.88500e-06	-0.0008236026346629521
4.88525e-06	-0.0007456094151262152
4.88550e-06	-0.0006684198624322497
4.88575e-06	-0.0005925614450500737
4.88600e-06	-0.0005185932603263862
4.88625e-06	-0.0004470722913615967
4.88650e-06	-0.0003785886761888083
4.88675e-06	-0.00031365382755615663
4.88700e-06	-0.00025278633044601844
4.88725e-06	-0.00019644582856065998
4.88750e-06	-0.00014465557460672878
4.88775e-06	-9.655102414176734e-05
4.88800e-06	-5.0870590368508616e-05
4.88825e-06	-7.167525729623221e-06
4.88850e-06	3.4292945851884286e-05
4.88875e-06	7.321044355486989e-05
4.88900e-06	0.00010928007375993911
4.88925e-06	0.00014223394896257838
4.88950e-06	0.0001720775344149739
4.88975e-06	0.00019937237109669343
4.89000e-06	0.0002249286474634754
4.89025e-06	0.0002490461015331566
4.89050e-06	0.0002715784917139535
4.89075e-06	0.00029235755067721865
4.89100e-06	0.00031121222955349405
4.89125e-06	0.00032799467559418895
4.89150e-06	0.0003425536550498394
4.89175e-06	0.0003553398408843962
4.89200e-06	0.00036769113238540235
4.89225e-06	0.0003785039620198398
4.89250e-06	0.0003882198829161092
4.89275e-06	0.0003972804883039595
4.89300e-06	0.00040467171163866683
4.89325e-06	0.0004112575776792003
4.89350e-06	0.00041579183804905294
4.89375e-06	0.0004203260984188902
