Time(s)	Current(A)
1.25000e-06	-0.014389078974458933
1.25025e-06	-0.014416788382965295
1.25050e-06	-0.014443890801209202
1.25075e-06	-0.014470462955353943
1.25100e-06	-0.014495941147027722
1.25125e-06	-0.01452036661446642
1.25150e-06	-0.014542620256946
1.25175e-06	-0.014564873899425597
1.25200e-06	-0.014584174704648177
1.25225e-06	-0.014597383652723958
1.25250e-06	-0.01461059260079973
1.25275e-06	-0.014623801548875501
1.25300e-06	-0.014637010496951285
1.25325e-06	-0.014650219445027056
1.25350e-06	-0.014663428393102838
1.25375e-06	-0.014676637341178609
1.25400e-06	-0.014685911951595564
1.25425e-06	-0.014687069818386455
1.25450e-06	-0.014688227685177345
1.25475e-06	-0.014689385551968238
1.25500e-06	-0.014690543418759128
1.25525e-06	-0.014691701285550019
1.25550e-06	-0.01469285915234091
1.25575e-06	-0.0146940170191318
1.25600e-06	-0.014692159367203996
1.25625e-06	-0.014684080543007452
1.25650e-06	-0.014676001718810902
1.25675e-06	-0.01466792289461436
1.25700e-06	-0.014659844070417817
1.25725e-06	-0.014651765246221266
1.25750e-06	-0.014643686422024724
1.25775e-06	-0.0146339245913529
1.25800e-06	-0.014620690630613697
1.25825e-06	-0.014607456669874492
1.25850e-06	-0.014594222709135277
1.25875e-06	-0.014580988748396074
1.25900e-06	-0.014567754787656859
1.25925e-06	-0.014554520826917655
1.25950e-06	-0.014540819902500899
1.25975e-06	-0.014526155607681862
1.26000e-06	-0.014511491312862826
1.26025e-06	-0.014496888740298438
1.26050e-06	-0.014482413503962047
1.26075e-06	-0.014467938267625645
1.26100e-06	-0.01445384380388493
1.26125e-06	-0.014440534893852816
1.26150e-06	-0.014427225983820692
1.26175e-06	-0.014414418706464196
1.26200e-06	-0.014402646323459759
1.26225e-06	-0.014391662292767142
1.26250e-06	-0.014382304673978264
1.26275e-06	-0.014372947055189378
1.26300e-06	-0.014364871921475213
1.26325e-06	-0.014359442621306059
1.26350e-06	-0.01435401332113691
1.26375e-06	-0.014350691504237586
1.26400e-06	-0.01435171753515402
1.26425e-06	-0.014352743566070454
1.26450e-06	-0.01435376959698689
1.26475e-06	-0.014354795627903323
1.26500e-06	-0.014355821658819759
1.26525e-06	-0.014356847689736192
1.26550e-06	-0.014364939438168757
1.26575e-06	-0.014374514723759377
1.26600e-06	-0.01438409000934999
1.26625e-06	-0.01439366529494061
1.26650e-06	-0.014403240580531223
1.26675e-06	-0.014412815866121836
1.26700e-06	-0.01442450453333957
1.26725e-06	-0.014440553216991427
1.26750e-06	-0.014456601900643296
1.26775e-06	-0.014472650584295152
1.26800e-06	-0.014488699267947021
1.26825e-06	-0.014504747951598878
1.26850e-06	-0.014520796635250733
1.26875e-06	-0.014537599277309684
1.26900e-06	-0.014555957374854421
1.26925e-06	-0.014574315472399176
1.26950e-06	-0.014592673569943914
1.26975e-06	-0.014611031667488653
1.27000e-06	-0.014629389765033406
1.27025e-06	-0.014647747862578145
1.27050e-06	-0.014665615266026524
1.27075e-06	-0.014682470341981915
1.27100e-06	-0.014699325417937305
1.27125e-06	-0.014715533474395534
1.27150e-06	-0.014730406695912144
1.27175e-06	-0.014744548675938768
1.27200e-06	-0.014757182066663427
1.27225e-06	-0.01476875720956857
1.27250e-06	-0.014778149132072288
1.27275e-06	-0.014785534371848175
1.27300e-06	-0.014788779720579855
1.27325e-06	-0.01479202506931153
1.27350e-06	-0.01479278845368442
1.27375e-06	-0.01478843141623951
1.27400e-06	-0.014784074378794601
1.27425e-06	-0.014777166762924536
1.27450e-06	-0.014764997170842035
1.27475e-06	-0.014752827578759524
1.27500e-06	-0.014737348937349019
1.27525e-06	-0.014715043554726404
1.27550e-06	-0.014692738172103769
1.27575e-06	-0.014670432789481155
1.27600e-06	-0.014648127406858521
1.27625e-06	-0.014617316879860877
1.27650e-06	-0.014584720589749339
1.27675e-06	-0.014552124299637773
1.27700e-06	-0.014519528009526233
1.27725e-06	-0.014484665326871395
1.27750e-06	-0.01444512695828867
1.27775e-06	-0.01440558858970591
1.27800e-06	-0.014365040621386138
1.27825e-06	-0.014322409796194402
1.27850e-06	-0.014279331560668924
1.27875e-06	-0.014235090702502347
1.27900e-06	-0.014190188022119134
1.27925e-06	-0.014144855188788103
1.27950e-06	-0.014099345237370027
1.27975e-06	-0.014053908997687953
1.28000e-06	-0.01400879823088762
1.28025e-06	-0.013964257420073267
1.28050e-06	-0.013920502577255127
1.28075e-06	-0.013877730400520755
1.28100e-06	-0.013836166228905187
1.28125e-06	-0.013796076590518156
1.28150e-06	-0.013757740597252491
1.28175e-06	-0.013721843191755373
1.28200e-06	-0.013688281120133927
1.28225e-06	-0.013656224554640526
1.28250e-06	-0.013627273926747317
1.28275e-06	-0.01359923119369368
1.28300e-06	-0.013573061495008273
1.28325e-06	-0.013548042272798813
1.28350e-06	-0.01352539654351532
1.28375e-06	-0.013502750814231829
1.28400e-06	-0.013481763883211298
1.28425e-06	-0.01346419913945405
1.28450e-06	-0.013446634395696789
1.28475e-06	-0.013430756473525048
1.28500e-06	-0.013418358552191336
1.28525e-06	-0.013405960630857616
1.28550e-06	-0.013393562709523906
1.28575e-06	-0.013381164788190184
1.28600e-06	-0.013368766866856474
1.28625e-06	-0.013358274278078825
1.28650e-06	-0.013351712489658944
1.28675e-06	-0.01334515070123906
1.28700e-06	-0.013338588912819173
1.28725e-06	-0.01333202712439929
1.28750e-06	-0.013325465335979402
1.28775e-06	-0.013320226580499287
1.28800e-06	-0.01331771731092248
1.28825e-06	-0.013315208041345672
1.28850e-06	-0.013312698771768865
1.28875e-06	-0.013310189502192057
1.28900e-06	-0.01330768023261525
1.28925e-06	-0.013305170963038446
1.28950e-06	-0.01330436192762569
1.28975e-06	-0.013303909877976012
1.29000e-06	-0.013303457828326332
1.29025e-06	-0.013303005778676654
1.29050e-06	-0.013302553729026974
1.29075e-06	-0.013302101679377296
1.29100e-06	-0.013301692111041966
1.29125e-06	-0.013301370183872006
1.29150e-06	-0.013301048256702048
1.29175e-06	-0.013300398271694509
1.29200e-06	-0.013299071486271647
1.29225e-06	-0.013297744700848785
1.29250e-06	-0.013296417915425922
1.29275e-06	-0.01329509113000306
1.29300e-06	-0.013293764344580199
1.29325e-06	-0.013292437559157337
1.29350e-06	-0.013291110773734476
1.29375e-06	-0.01328911602733511
1.29400e-06	-0.01328574324263114
1.29425e-06	-0.013282370457927168
1.29450e-06	-0.013278997673223198
1.29475e-06	-0.013275624888519225
1.29500e-06	-0.013272252103815255
1.29525e-06	-0.013268879319111285
1.29550e-06	-0.013265506534407312
1.29575e-06	-0.013261523429103333
1.29600e-06	-0.013256281200595334
1.29625e-06	-0.013251038972087337
1.29650e-06	-0.013245796743579341
1.29675e-06	-0.013240554515071341
1.29700e-06	-0.013235312286563345
1.29725e-06	-0.013230070058055345
1.29750e-06	-0.013224827829547349
1.29775e-06	-0.013218685448742884
1.29800e-06	-0.013212354069527957
1.29825e-06	-0.013206022690313034
1.29850e-06	-0.013199691311098107
1.29875e-06	-0.013193359931883185
1.29900e-06	-0.013187028552668257
1.29925e-06	-0.013180697173453335
1.29950e-06	-0.013174302734161472
1.29975e-06	-0.013167778198644568
1.30000e-06	-0.01316125366312767
1.30025e-06	-0.01315478922826269
1.30050e-06	-0.013148448784174708
1.30075e-06	-0.013142108340086726
1.30100e-06	-0.01313584147622352
1.30125e-06	-0.01312977688458419
1.30150e-06	-0.013123874797805645
1.30175e-06	-0.013118160342426388
1.30200e-06	-0.013112661743003134
1.30225e-06	-0.013107615879430443
1.30250e-06	-0.013104017553322973
1.30275e-06	-0.013103452634116513
1.30300e-06	-0.013106936368907644
1.30325e-06	-0.013114561935984143
1.30350e-06	-0.013126113876609717
1.30375e-06	-0.013141377682541693
1.30400e-06	-0.013160139130416899
1.30425e-06	-0.01318302779456608
1.30450e-06	-0.013209769790973611
1.30475e-06	-0.013239660078445252
1.30500e-06	-0.013276045454451617
1.30525e-06	-0.013316938666511118
1.30550e-06	-0.013367131779268585
1.30575e-06	-0.013417324892026093
1.30600e-06	-0.013467518004783558
1.30625e-06	-0.013517711117541025
1.30650e-06	-0.01358125582227947
1.30675e-06	-0.0136476038633768
1.30700e-06	-0.013713951904474187
1.30725e-06	-0.013780299945571516
1.30750e-06	-0.013850065818515184
1.30775e-06	-0.013926882856673761
1.30800e-06	-0.014003699894832336
1.30825e-06	-0.01408198377402859
1.30850e-06	-0.01416329382272797
1.30875e-06	-0.014244603871427418
1.30900e-06	-0.014326610601208298
1.30925e-06	-0.014410054620366979
1.30950e-06	-0.014493498639525731
1.30975e-06	-0.014576460333216435
1.31000e-06	-0.014658426964330987
1.31025e-06	-0.0147393075270036
1.31050e-06	-0.014817947473881557
1.31075e-06	-0.014895072945141167
1.31100e-06	-0.014969073974274964
1.31125e-06	-0.015040217131262126
1.31150e-06	-0.015105464349076253
1.31175e-06	-0.015170711566890382
1.31200e-06	-0.015231354547746176
1.31225e-06	-0.0152824987478129
1.31250e-06	-0.015333642947879669
1.31275e-06	-0.015377985899876333
1.31300e-06	-0.015408297522666287
1.31325e-06	-0.015438609145456214
1.31350e-06	-0.015468920768246143
1.31375e-06	-0.015499232391036096
1.31400e-06	-0.015529544013826023
1.31425e-06	-0.015559855636615976
1.31450e-06	-0.015581067852752572
1.31475e-06	-0.01558350751875982
1.31500e-06	-0.015585947184767067
1.31525e-06	-0.015588386850774313
1.31550e-06	-0.015590826516781562
1.31575e-06	-0.015593266182788808
1.31600e-06	-0.015595705848796054
1.31625e-06	-0.015591194114782884
1.31650e-06	-0.015572341280264745
1.31675e-06	-0.015553488445746591
1.31700e-06	-0.015534635611228453
1.31725e-06	-0.015515782776710299
1.31750e-06	-0.015496929942192162
1.31775e-06	-0.015478077107674024
1.31800e-06	-0.015449061709012803
1.31825e-06	-0.015417912550901816
1.31850e-06	-0.015386763392790803
1.31875e-06	-0.015355614234679814
1.31900e-06	-0.015324465076568827
1.31925e-06	-0.015293315918457813
1.31950e-06	-0.015261022360982911
1.31975e-06	-0.01522636784798144
1.32000e-06	-0.015191713334979998
1.32025e-06	-0.015157219360650821
1.32050e-06	-0.015123056585968747
1.32075e-06	-0.015088893811286702
1.32100e-06	-0.015056049627678397
1.32125e-06	-0.015025925766171816
1.32150e-06	-0.014995801904665209
1.32175e-06	-0.014965678043158627
1.32200e-06	-0.014937440739089062
1.32225e-06	-0.014913095501327306
1.32250e-06	-0.01488875026356557
1.32275e-06	-0.014864405025803815
1.32300e-06	-0.014840631441017828
1.32325e-06	-0.014818037206111691
1.32350e-06	-0.014795442971205535
1.32375e-06	-0.014772848736299398
1.32400e-06	-0.014750254501393242
1.32425e-06	-0.014727660266487105
1.32450e-06	-0.014705066031580968
1.32475e-06	-0.014682471796674812
1.32500e-06	-0.01465984571247716
1.32525e-06	-0.014637153921531313
1.32550e-06	-0.014614462130585485
1.32575e-06	-0.014591770339639638
1.32600e-06	-0.01456907854869381
1.32625e-06	-0.014546386757747982
1.32650e-06	-0.014523694966802135
1.32675e-06	-0.014501003175856307
1.32700e-06	-0.014477957041905751
1.32725e-06	-0.014454179879870447
1.32750e-06	-0.014430402717835142
1.32775e-06	-0.014406625555799817
1.32800e-06	-0.014382848393764512
1.32825e-06	-0.014359071231729187
1.32850e-06	-0.014335294069693881
1.32875e-06	-0.014311516907658577
1.32900e-06	-0.014288847514850088
1.32925e-06	-0.014266410712264168
1.32950e-06	-0.014243973909678227
1.32975e-06	-0.014221537107092307
1.33000e-06	-0.014199100304506366
1.33025e-06	-0.014176663501920445
1.33050e-06	-0.014154226699334525
1.33075e-06	-0.014132748148145201
1.33100e-06	-0.014113246519524916
1.33125e-06	-0.014093744890904612
1.33150e-06	-0.014074243262284326
1.33175e-06	-0.01405733292342818
1.33200e-06	-0.014040966658778367
1.33225e-06	-0.01402460039412857
1.33250e-06	-0.014008493325304069
1.33275e-06	-0.01399292099097478
1.33300e-06	-0.013977348656645494
1.33325e-06	-0.013961307983171889
1.33350e-06	-0.013944301101636835
1.33375e-06	-0.013927294220101766
1.33400e-06	-0.013909672041673166
1.33425e-06	-0.013890780473687933
1.33450e-06	-0.013871888905702717
1.33475e-06	-0.0138529973377175
1.33500e-06	-0.013834105769732267
1.33525e-06	-0.01381521420174705
1.33550e-06	-0.013795034726452507
1.33575e-06	-0.013772198231261648
1.33600e-06	-0.01374936173607079
1.33625e-06	-0.013726525240879911
1.33650e-06	-0.013703688745689052
1.33675e-06	-0.013680852250498175
1.33700e-06	-0.01365701243006702
1.33725e-06	-0.013631102697378465
1.33750e-06	-0.013605192964689887
1.33775e-06	-0.013579283232001332
1.33800e-06	-0.013553373499312757
1.33825e-06	-0.013527463766624202
1.33850e-06	-0.013500853456247304
1.33875e-06	-0.013474096050684467
1.33900e-06	-0.013447338645121631
1.33925e-06	-0.013420581239558771
1.33950e-06	-0.013393823833995936
1.33975e-06	-0.013367298584822275
1.34000e-06	-0.013341252286378004
1.34025e-06	-0.01331558285854792
1.34050e-06	-0.013290690934434862
1.34075e-06	-0.013266229241801515
1.34100e-06	-0.013242655139131542
1.34125e-06	-0.013219498649844875
1.34150e-06	-0.013197547295813876
1.34175e-06	-0.01317669850462726
1.34200e-06	-0.013157105032358332
1.34225e-06	-0.013138981603872437
1.34250e-06	-0.01312277014302929
1.34275e-06	-0.013109062105234602
1.34300e-06	-0.013098224606438417
1.34325e-06	-0.013090314865281207
1.34350e-06	-0.013085748529931157
1.34375e-06	-0.013084052591522783
1.34400e-06	-0.013084184148738933
1.34425e-06	-0.013088085924665285
1.34450e-06	-0.013094531032480258
1.34475e-06	-0.013106223166522848
1.34500e-06	-0.01311791530056543
1.34525e-06	-0.013133073292742131
1.34550e-06	-0.013155381530866699
1.34575e-06	-0.013177689768991266
1.34600e-06	-0.01319999800711585
1.34625e-06	-0.013224200579149612
1.34650e-06	-0.013256802194692146
1.34675e-06	-0.013289403810234654
1.34700e-06	-0.01332200542577716
1.34725e-06	-0.01335322573979063
1.34750e-06	-0.01338101986924048
1.34775e-06	-0.02111923525187932
1.34800e-06	-0.03433409634895702
1.34825e-06	-0.0301666953548201
1.34850e-06	-0.026762693403246177
1.34875e-06	-0.01936159505503346
1.34900e-06	-0.008429099726197587
1.34925e-06	-0.009708434289324705
1.34950e-06	-0.010526114642684688
1.34975e-06	-0.015930103137155486
1.35000e-06	-0.02188017424260179
1.35025e-06	-0.02205513072206072
1.35050e-06	-0.019191486527049034
1.35075e-06	-0.014913127338468966
1.35100e-06	-0.01071194599335159
1.35125e-06	-0.01002928156658543
1.35150e-06	-0.011616381279216301
1.35175e-06	-0.0149629432645931
1.35200e-06	-0.018422854018892803
1.35225e-06	-0.018592320797689268
1.35250e-06	-0.016859954773675218
1.35275e-06	-0.014227396077757283
1.35300e-06	-0.011631699562872041
1.35325e-06	-0.011230434686447084
1.35350e-06	-0.012242850653167929
1.35375e-06	-0.014350501205987846
1.35400e-06	-0.016523291663627142
1.35425e-06	-0.016630070465237873
1.35450e-06	-0.015541540537028765
1.35475e-06	-0.013885815506409572
1.35500e-06	-0.012250404675041564
1.35525e-06	-0.01198717420656246
1.35550e-06	-0.01260733230775405
1.35575e-06	-0.013911656170326482
1.35600e-06	-0.015255144695635894
1.35625e-06	-0.015303156663461244
1.35650e-06	-0.014601422408308253
1.35675e-06	-0.013543648256659109
1.35700e-06	-0.012498056653407448
1.35725e-06	-0.012311595217897016
1.35750e-06	-0.012678190064932088
1.35775e-06	-0.013473166176488654
1.35800e-06	-0.014292630292357606
1.35825e-06	-0.014300751323647673
1.35850e-06	-0.013839578088690636
1.35875e-06	-0.013155904789512191
1.35900e-06	-0.012480533872089037
1.35925e-06	-0.012344107450684382
1.35950e-06	-0.012554997410006694
1.35975e-06	-0.013035215712315924
1.36000e-06	-0.013531885807792089
1.36025e-06	-0.01352160052438025
1.36050e-06	-0.013218789807452629
1.36075e-06	-0.012778197001976677
1.36100e-06	-0.012344535375006634
1.36125e-06	-0.012250314816029388
1.36150e-06	-0.012375606158525917
1.36175e-06	-0.012671672733128667
1.36200e-06	-0.01298023368184977
1.36225e-06	-0.01297360020281581
1.36250e-06	-0.012786420506669739
1.36275e-06	-0.012516024241561709
1.36300e-06	-0.012253184425033588
1.36325e-06	-0.012206046031214219
1.36350e-06	-0.012299296795074176
1.36375e-06	-0.012502218716889196
1.36400e-06	-0.01271548540602181
1.36425e-06	-0.012733663057828153
1.36450e-06	-0.012640935298936833
1.36475e-06	-0.012498097792313359
1.36500e-06	-0.012361839476970317
1.36525e-06	-0.01236235766738279
1.36550e-06	-0.012452290217847096
1.36575e-06	-0.012612211945003542
1.36600e-06	-0.012779724895203815
1.36625e-06	-0.012825975538685723
1.36650e-06	-0.0128035270693368
1.36675e-06	-0.012750292756470086
1.36700e-06	-0.012701604333441427
1.36725e-06	-0.012738838637003024
1.36750e-06	-0.012832144495148901
1.36775e-06	-0.012969172985861997
1.36800e-06	-0.01311065942057554
1.36825e-06	-0.013175717120524448
1.36850e-06	-0.013197101123143661
1.36875e-06	-0.013198386297220012
1.36900e-06	-0.013201528726008343
1.36925e-06	-0.013257323039254058
1.36950e-06	-0.013346891331914142
1.36975e-06	-0.013462319198943017
1.37000e-06	-0.013578832582314163
1.37025e-06	-0.013645589479204188
1.37050e-06	-0.013682936208028372
1.37075e-06	-0.013705463220345146
1.37100e-06	-0.013726749416685882
1.37125e-06	-0.013778435143677083
1.37150e-06	-0.013848515354095947
1.37175e-06	-0.013931854816960906
1.37200e-06	-0.014012757824724505
1.37225e-06	-0.01405922396988717
1.37250e-06	-0.014084040761118344
1.37275e-06	-0.014096647307926157
1.37300e-06	-0.014105841670768792
1.37325e-06	-0.014131612065826372
1.37350e-06	-0.014166579392525733
1.37375e-06	-0.014197307032326117
1.37400e-06	-0.014227752588172013
1.37425e-06	-0.01425819814401791
1.37450e-06	-0.014257898527776222
1.37475e-06	-0.014248310090027144
1.37500e-06	-0.014238276951930803
1.37525e-06	-0.01422824381383447
1.37550e-06	-0.014227313379458515
1.37575e-06	-0.014222126602856116
1.37600e-06	-0.014216653530525957
1.37625e-06	-0.014211180458195796
1.37650e-06	-0.01418505045048136
1.37675e-06	-0.014152234070901203
1.37700e-06	-0.014119092336201766
1.37725e-06	-0.014085950601502358
1.37750e-06	-0.01405816279524071
1.37775e-06	-0.014027951632448828
1.37800e-06	-0.013997576857118577
1.37825e-06	-0.01396720208178835
1.37850e-06	-0.013924588416476334
1.37875e-06	-0.013879143814560811
1.37900e-06	-0.013833573890544017
1.37925e-06	-0.013788003966527185
1.37950e-06	-0.013747538951020854
1.37975e-06	-0.013709502745420802
1.38000e-06	-0.013671593260021047
1.38025e-06	-0.013628288684654351
1.38050e-06	-0.013584662275630315
1.38075e-06	-0.013539794429027368
1.38100e-06	-0.0134961374696918
1.38125e-06	-0.01345891991324337
1.38150e-06	-0.013422081914465742
1.38175e-06	-0.013391871507813095
1.38200e-06	-0.013362056457350214
1.38225e-06	-0.013332241406887307
1.38250e-06	-0.013305322897626329
1.38275e-06	-0.013278577175928521
1.38300e-06	-0.013251831454230692
1.38325e-06	-0.013233753969721313
1.38350e-06	-0.013216193572136065
1.38375e-06	-0.013198633174550832
1.38400e-06	-0.013190692437684833
1.38425e-06	-0.013183325543073537
1.38450e-06	-0.013175958648462245
1.38475e-06	-0.013168591753850949
1.38500e-06	-0.013161224859239658
1.38525e-06	-0.013153857964628368
1.38550e-06	-0.013146491070017072
1.38575e-06	-0.013150975682455353
1.38600e-06	-0.01315616727362451
1.38625e-06	-0.013161358864793664
1.38650e-06	-0.013166550455962817
1.38675e-06	-0.013171742047131974
1.38700e-06	-0.013176933638301127
1.38725e-06	-0.013182125229470284
1.38750e-06	-0.013195783004314437
1.38775e-06	-0.013209945812971143
1.38800e-06	-0.013224108621627836
1.38825e-06	-0.01323827143028453
1.38850e-06	-0.013252434238941235
1.38875e-06	-0.013266597047597929
1.38900e-06	-0.013280759856254633
1.38925e-06	-0.013296000706050127
1.38950e-06	-0.013312593149039475
1.38975e-06	-0.013329185592028838
1.39000e-06	-0.013345778035018185
1.39025e-06	-0.013362370478007549
1.39050e-06	-0.013378962920996896
1.39075e-06	-0.013395555363986246
1.39100e-06	-0.013412147806975607
1.39125e-06	-0.013424466668514526
1.39150e-06	-0.013436530597817662
1.39175e-06	-0.01344859452712079
1.39200e-06	-0.013460658456423925
1.39225e-06	-0.01347272238572705
1.39250e-06	-0.013484786315030176
1.39275e-06	-0.013496850244333313
1.39300e-06	-0.013508914173636439
1.39325e-06	-0.013520978102939575
1.39350e-06	-0.0135330420322427
1.39375e-06	-0.013545105961545827
1.39400e-06	-0.013555999284125262
1.39425e-06	-0.01356682277642469
1.39450e-06	-0.013577646268724125
1.39475e-06	-0.013588469761023552
1.39500e-06	-0.013599293253322979
1.39525e-06	-0.013610116745622415
1.39550e-06	-0.013620940237921842
1.39575e-06	-0.013631763730221277
1.39600e-06	-0.013642587222520704
1.39625e-06	-0.01365341071482014
1.39650e-06	-0.013664234207119567
1.39675e-06	-0.013676333361616612
1.39700e-06	-0.013688508613274768
1.39725e-06	-0.013700683864932915
