Time(s)	Current(A)
9.75000e-06	-0.008481191090809399
9.75025e-06	-0.008463436213966533
9.75050e-06	-0.008445681337123668
9.75075e-06	-0.008427926460280922
9.75100e-06	-0.008410171583438056
9.75125e-06	-0.00839241670659519
9.75150e-06	-0.008373903747589955
9.75175e-06	-0.008355102923855726
9.75200e-06	-0.008336302100121368
9.75225e-06	-0.008317501276387012
9.75250e-06	-0.008298700452652782
9.75275e-06	-0.008279899628918425
9.75300e-06	-0.008261286704285095
9.75325e-06	-0.008243321802261743
9.75350e-06	-0.008225356900238269
9.75375e-06	-0.008207638534932714
9.75400e-06	-0.008190770420461393
9.75425e-06	-0.008174169532811708
9.75450e-06	-0.00815849025160677
9.75475e-06	-0.008143285028480931
9.75500e-06	-0.008129714727246209
9.75525e-06	-0.008116144426011487
9.75550e-06	-0.008103252676445365
9.75575e-06	-0.00809270110211583
9.75600e-06	-0.008082149527786294
9.75625e-06	-0.00807228501842268
9.75650e-06	-0.008064790044783034
9.75675e-06	-0.008057295071143387
9.75700e-06	-0.008050951545127073
9.75725e-06	-0.008048579108328532
9.75750e-06	-0.008046206671529992
9.75775e-06	-0.008043834234731467
9.75800e-06	-0.008041461797932926
9.75825e-06	-0.008039089361134386
9.75850e-06	-0.00803671692433586
9.75875e-06	-0.008038821014629228
9.75900e-06	-0.008042624965865155
9.75925e-06	-0.008046428917101054
9.75950e-06	-0.008050232868336981
9.75975e-06	-0.008054036819572907
9.76000e-06	-0.008057840770808832
9.76025e-06	-0.008062675515954182
9.76050e-06	-0.008071065242235349
9.76075e-06	-0.008079454968516515
9.76100e-06	-0.008087844694797624
9.76125e-06	-0.00809623442107879
9.76150e-06	-0.008104624147359957
9.76175e-06	-0.008113013873641066
9.76200e-06	-0.008121403599922233
9.76225e-06	-0.00813094380415453
9.76250e-06	-0.008140920876631801
9.76275e-06	-0.008150897949109143
9.76300e-06	-0.008160875021586484
9.76325e-06	-0.008170852094063756
9.76350e-06	-0.008180829166541097
9.76375e-06	-0.008190806239018437
9.76400e-06	-0.008200373417162106
9.76425e-06	-0.00820852696003835
9.76450e-06	-0.008216680502914592
9.76475e-06	-0.008224834045790781
9.76500e-06	-0.008232987588667025
9.76525e-06	-0.008240712731255085
9.76550e-06	-0.008246960415614592
9.76575e-06	-0.008253208099974143
9.76600e-06	-0.008259455784333694
9.76625e-06	-0.008265703468693202
9.76650e-06	-0.008272090189620081
9.76675e-06	-0.008278956417041577
9.76700e-06	-0.008285822644463026
9.76725e-06	-0.008292688871884522
9.76750e-06	-0.008299555099306018
9.76775e-06	-0.008306421326727466
9.76800e-06	-0.008313287554148962
9.76825e-06	-0.008320153781570458
9.76850e-06	-0.008327020008991954
9.76875e-06	-0.008334309714806108
9.76900e-06	-0.008343059904315765
9.76925e-06	-0.008351810093825423
9.76950e-06	-0.00836056028333502
9.76975e-06	-0.008369310472844676
9.77000e-06	-0.008378060662354333
9.77025e-06	-0.00838681085186393
9.77050e-06	-0.008395561041373586
9.77075e-06	-0.008404311230883244
9.77100e-06	-0.008413260636203115
9.77125e-06	-0.008422897092970833
9.77150e-06	-0.00843253354973855
9.77175e-06	-0.008442170006506202
9.77200e-06	-0.008451806463273922
9.77225e-06	-0.00846144292004164
9.77250e-06	-0.008471079376809292
9.77275e-06	-0.00848071583357701
9.77300e-06	-0.008489454534140314
9.77325e-06	-0.008497852331883736
9.77350e-06	-0.008506250129627215
9.77375e-06	-0.008514647927370694
9.77400e-06	-0.008523045725114118
9.77425e-06	-0.008531443522857597
9.77450e-06	-0.008539841320601076
9.77475e-06	-0.008547713443167003
9.77500e-06	-0.008553772627837452
9.77525e-06	-0.0085598318125079
9.77550e-06	-0.008565182997875129
9.77575e-06	-0.008568092449598235
9.77600e-06	-0.00857100190132134
9.77625e-06	-0.008572867148276753
9.77650e-06	-0.008571131162997667
9.77675e-06	-0.00856939517771858
9.77700e-06	-0.008566164252348503
9.77725e-06	-0.00855777760789846
9.77750e-06	-0.008549390963448358
9.77775e-06	-0.008541004318998256
9.77800e-06	-0.008532617674548213
9.77825e-06	-0.008524231030098112
9.77850e-06	-0.008509502164544325
9.77875e-06	-0.008492364982514608
9.77900e-06	-0.008475227800484778
9.77925e-06	-0.008458090618454945
9.77950e-06	-0.008440953436425229
9.77975e-06	-0.008422280450477234
9.78000e-06	-0.008398310815109842
9.78025e-06	-0.00837434117974261
9.78050e-06	-0.008350371544375216
9.78075e-06	-0.008326401909007823
9.78100e-06	-0.008301538293680825
9.78125e-06	-0.008273591538390794
9.78150e-06	-0.008245644783100761
9.78175e-06	-0.00821769802781092
9.78200e-06	-0.008189751272520888
9.78225e-06	-0.008161533124476126
9.78250e-06	-0.008132379002600559
9.78275e-06	-0.008103269261520848
9.78300e-06	-0.008074312580030904
9.78325e-06	-0.008045479411133937
9.78350e-06	-0.008017194885182287
9.78375e-06	-0.007989481444808051
9.78400e-06	-0.00796245931640453
9.78425e-06	-0.007936281416603656
9.78450e-06	-0.007911124602745727
9.78475e-06	-0.007887168410744421
9.78500e-06	-0.007864591654533746
9.78525e-06	-0.007843579428349515
9.78550e-06	-0.007824368735921357
9.78575e-06	-0.007807308652677941
9.78600e-06	-0.007792729016406522
9.78625e-06	-0.007780765078728317
9.78650e-06	-0.007771718537147801
9.78675e-06	-0.007765718025799532
9.78700e-06	-0.007760894547591696
9.78725e-06	-0.0077601303974192265
9.78750e-06	-0.007760913294807053
9.78775e-06	-0.007767031618461017
9.78800e-06	-0.00777314994211494
9.78825e-06	-0.007781642449948409
9.78850e-06	-0.007798322996053317
9.78875e-06	-0.007815003542158111
9.78900e-06	-0.00783168408826302
9.78925e-06	-0.007848364634367928
9.78950e-06	-0.007867521168336604
9.78975e-06	-0.007895216839060519
9.79000e-06	-0.007922912509784434
9.79025e-06	-0.007950608180508162
9.79050e-06	-0.007978303851232077
9.79075e-06	-0.00800778180169145
9.79100e-06	-0.008043406442374541
9.79125e-06	-0.008079031083057873
9.79150e-06	-0.008114655723741208
9.79175e-06	-0.008150280364424299
9.79200e-06	-0.008185905005107632
9.79225e-06	-0.008222020835135827
9.79250e-06	-0.008259830669019811
9.79275e-06	-0.00829764050290405
9.79300e-06	-0.00833545033678829
9.79325e-06	-0.008373260170672272
9.79350e-06	-0.008411070004556511
9.79375e-06	-0.008448292525595064
9.79400e-06	-0.008483489533996219
9.79425e-06	-0.008517831409590478
9.79450e-06	-0.008549224120494758
9.79475e-06	-0.008580616831399037
9.79500e-06	-0.008609261561567442
9.79525e-06	-0.008628429111475617
9.79550e-06	-0.00864759666138379
9.79575e-06	-0.008666764211291835
9.79600e-06	-0.00868593176120001
9.79625e-06	-0.008705099311108183
9.79650e-06	-0.008724266861016228
9.79675e-06	-0.008743434410924402
9.79700e-06	-0.008762601960832577
9.79725e-06	-0.00878176951074062
9.79750e-06	-0.008797657675705698
9.79775e-06	-0.008802235964350253
9.79800e-06	-0.008806814252994778
9.79825e-06	-0.008811392541639334
9.79850e-06	-0.008815970830283888
9.79875e-06	-0.008820549118928413
9.79900e-06	-0.008825127407572967
9.79925e-06	-0.008829705696217523
9.79950e-06	-0.008834283984862048
9.79975e-06	-0.008838862273506602
9.80000e-06	-0.008841367099734357
9.80025e-06	-0.008836721010806405
9.80050e-06	-0.00883207492187842
9.80075e-06	-0.008827428832950436
9.80100e-06	-0.008822782744022484
9.80125e-06	-0.008818136655094498
9.80150e-06	-0.008813490566166515
9.80175e-06	-0.008808844477238563
9.80200e-06	-0.008804198388310577
9.80225e-06	-0.008799552299382594
9.80250e-06	-0.008794254168636764
9.80275e-06	-0.008786707289285671
9.80300e-06	-0.008779160409934527
9.80325e-06	-0.008771613530583382
9.80350e-06	-0.00876406665123229
9.80375e-06	-0.008756519771881145
9.80400e-06	-0.00874897289253
9.80425e-06	-0.008741426013178908
9.80450e-06	-0.008733879133827763
9.80475e-06	-0.00872633225447662
9.80500e-06	-0.008719074073599275
9.80525e-06	-0.008712811550166703
9.80550e-06	-0.00870654902673413
9.80575e-06	-0.008699690307318826
9.80600e-06	-0.008690775439281921
9.80625e-06	-0.008681860571245014
9.80650e-06	-0.008672945703208168
9.80675e-06	-0.008664030835171263
9.80700e-06	-0.008655115967134357
9.80725e-06	-0.008646201099097512
9.80750e-06	-0.008637286231060606
9.80775e-06	-0.008624378575430757
9.80800e-06	-0.008609954748100583
9.80825e-06	-0.008595530920770311
9.80850e-06	-0.00858110709344004
9.80875e-06	-0.008566683266109867
9.80900e-06	-0.008552259438779596
9.80925e-06	-0.008537835611449324
9.80950e-06	-0.0085223207036129
9.80975e-06	-0.008503042899439945
9.81000e-06	-0.008483765095266988
9.81025e-06	-0.008464487291094162
9.81050e-06	-0.008445209486921207
9.81075e-06	-0.008425931682748251
9.81100e-06	-0.008406653878575294
9.81125e-06	-0.008385709332114967
9.81150e-06	-0.008364131877584691
9.81175e-06	-0.008342554423054415
9.81200e-06	-0.008320976968524286
9.81225e-06	-0.00829939951399401
9.81250e-06	-0.008277822059463733
9.81275e-06	-0.008256303070781467
9.81300e-06	-0.008234985717930235
9.81325e-06	-0.008213668365079004
9.81350e-06	-0.008192657700275798
9.81375e-06	-0.008172704734996377
9.81400e-06	-0.008152751769716958
9.81425e-06	-0.008134032081164427
9.81450e-06	-0.008119565692392496
9.81475e-06	-0.008105099303620564
9.81500e-06	-0.008090632914848732
9.81525e-06	-0.0080761665260768
9.81550e-06	-0.008061700137304869
9.81575e-06	-0.008047233748533035
9.81600e-06	-0.008032767359761104
9.81625e-06	-0.008018300970989172
9.81650e-06	-0.00800383458221734
9.81675e-06	-0.007989368193445407
9.81700e-06	-0.007974901804673477
9.81725e-06	-0.00796144624784452
9.81750e-06	-0.007951476827734333
9.81775e-06	-0.007941507407624148
9.81800e-06	-0.00793153798751403
9.81825e-06	-0.007921568567403843
9.81850e-06	-0.007911599147293658
9.81875e-06	-0.00790162972718354
9.81900e-06	-0.007891660307073353
9.81925e-06	-0.007881690886963168
9.81950e-06	-0.007871721466852982
9.81975e-06	-0.007861752046742863
9.82000e-06	-0.007851782626632676
9.82025e-06	-0.00784217186685497
9.82050e-06	-0.007833798047563435
9.82075e-06	-0.007825424228271843
9.82100e-06	-0.007817050408980251
9.82125e-06	-0.007808676589688717
9.82150e-06	-0.007800302770397125
9.82175e-06	-0.007791928951105534
9.82200e-06	-0.007783555131813999
9.82225e-06	-0.007775181312522407
9.82250e-06	-0.007766807493230815
9.82275e-06	-0.007758433673939281
9.82300e-06	-0.007750059854647689
9.82325e-06	-0.007741686035356098
9.82350e-06	-0.00773509066435453
9.82375e-06	-0.0077291706192767285
9.82400e-06	-0.007723250574198928
9.82425e-06	-0.0077173305291211676
9.82450e-06	-0.007711410484043366
9.82475e-06	-0.007705490438965566
9.82500e-06	-0.007699570393887805
9.82525e-06	-0.007693650348810004
9.82550e-06	-0.007687730303732204
9.82575e-06	-0.007681810258654443
9.82600e-06	-0.007675890213576642
9.82625e-06	-0.0076699701684988415
9.82650e-06	-0.0076647004928173355
9.82675e-06	-0.007661673797930121
9.82700e-06	-0.007658647103042907
9.82725e-06	-0.007655620408155713
9.82750e-06	-0.007652593713268499
9.82775e-06	-0.007649567018381285
9.82800e-06	-0.00764654032349407
9.82825e-06	-0.007643513628606877
9.82850e-06	-0.0076404869337196625
9.82875e-06	-0.007637460238832448
9.82900e-06	-0.007634433543945255
9.82925e-06	-0.00763140684905804
9.82950e-06	-0.007628380154170826
9.82975e-06	-0.0076253534592836325
9.83000e-06	-0.007622326764396418
9.83025e-06	-0.007619300069509204
9.83050e-06	-0.00761627337462201
9.83075e-06	-0.007613246679734796
9.83100e-06	-0.007610545699882215
9.83125e-06	-0.007608968039440827
9.83150e-06	-0.0076073903789994285
9.83175e-06	-0.00760581271855803
9.83200e-06	-0.0076042350581166426
9.83225e-06	-0.007602657397675244
9.83250e-06	-0.007601079737233845
9.83275e-06	-0.007599502076792457
9.83300e-06	-0.0075979244163510585
9.83325e-06	-0.00759634675590966
9.83350e-06	-0.007594769095468272
9.83375e-06	-0.007593191435026873
9.83400e-06	-0.007591613774585474
9.83425e-06	-0.007590036114144087
9.83450e-06	-0.0075884584537026884
9.83475e-06	-0.00758688079326129
9.83500e-06	-0.007585303132819902
9.83525e-06	-0.007583725472378503
9.83550e-06	-0.0075823527591034005
9.83575e-06	-0.007581686863462554
9.83600e-06	-0.007581020967821703
9.83625e-06	-0.007580355072180852
9.83650e-06	-0.007579689176540001
9.83675e-06	-0.0075790232808991545
9.83700e-06	-0.0075783573852583035
9.83725e-06	-0.007577691489617453
9.83750e-06	-0.007577025593976607
9.83775e-06	-0.007576359698335756
9.83800e-06	-0.007575693802694905
9.83825e-06	-0.007575396922334422
9.83850e-06	-0.0075763726943955546
9.83875e-06	-0.007577348466456687
9.83900e-06	-0.007578324238517813
9.83925e-06	-0.0075793000105789455
9.83950e-06	-0.007580275782640078
9.83975e-06	-0.007581251554701204
9.84000e-06	-0.007582227326762336
9.84025e-06	-0.007583203098823469
9.84050e-06	-0.007584178870884594
9.84075e-06	-0.007585154642945726
9.84100e-06	-0.007586319770849339
9.84125e-06	-0.0075881379453456195
9.84150e-06	-0.007589956119841913
9.84175e-06	-0.007591774294338206
9.84200e-06	-0.0075935924688344866
9.84225e-06	-0.00759541064333078
9.84250e-06	-0.007597228817827073
9.84275e-06	-0.007599046992323354
9.84300e-06	-0.007600797758252195
9.84325e-06	-0.007602316046879462
9.84350e-06	-0.007603834335506718
9.84375e-06	-0.007605352624133985
9.84400e-06	-0.007606870912761252
9.84425e-06	-0.007608389201388508
9.84450e-06	-0.007609907490015775
9.84475e-06	-0.007611425778643042
9.84500e-06	-0.007612793217921779
9.84525e-06	-0.007613640411023815
9.84550e-06	-0.0076144876041258575
9.84575e-06	-0.007615658302526738
9.84600e-06	-0.007617944699447403
9.84625e-06	-0.007620231096368084
9.84650e-06	-0.007623312684106886
9.84675e-06	-0.007629136709827204
9.84700e-06	-0.007634960735547562
9.84725e-06	-0.00764078476126792
9.84750e-06	-0.0076466087869882385
9.84775e-06	-0.007652432812708596
9.84800e-06	-0.007658256838428954
9.84825e-06	-0.007665303459377939
9.84850e-06	-0.0076765665419801345
9.84875e-06	-0.007687829624582329
9.84900e-06	-0.007699092707184447
9.84925e-06	-0.007710355789786641
9.84950e-06	-0.007721618872388835
9.84975e-06	-0.007732881954990953
9.85000e-06	-0.007745144573465924
9.85025e-06	-0.007760854371007224
9.85050e-06	-0.007776564168548419
9.85075e-06	-0.007792273966089719
9.85100e-06	-0.00780798376363102
9.85125e-06	-0.007823693561172214
9.85150e-06	-0.007839403358713514
9.85175e-06	-0.007855113156254815
9.85200e-06	-0.007871580939033831
9.85225e-06	-0.007888336549738254
9.85250e-06	-0.007905092160442675
9.85275e-06	-0.007921847771146984
9.85300e-06	-0.007938603381851405
9.85325e-06	-0.007955358992555828
9.85350e-06	-0.00797211460326025
9.85375e-06	-0.007988326646907828
9.85400e-06	-0.008002664047503176
9.85425e-06	-0.008017001448098523
9.85450e-06	-0.008031338848693772
9.85475e-06	-0.00804567624928912
9.85500e-06	-0.008057337931394815
9.85525e-06	-0.008067983569304315
9.85550e-06	-0.008078629207213885
9.85575e-06	-0.008089274845123456
9.85600e-06	-0.008099468047588931
9.85625e-06	-0.008108100899861486
9.85650e-06	-0.00811673375213404
9.85675e-06	-0.008125366604406535
9.85700e-06	-0.008133999456679088
9.85725e-06	-0.008142632308951642
9.85750e-06	-0.008151265161224138
9.85775e-06	-0.008159898013496692
9.85800e-06	-0.008168530865769246
9.85825e-06	-0.008177163718041742
9.85850e-06	-0.008185796570314294
9.85875e-06	-0.008194318775096469
9.85900e-06	-0.008202459381055438
9.85925e-06	-0.008210599987014464
9.85950e-06	-0.008218740592973488
9.85975e-06	-0.00822688119893246
9.86000e-06	-0.008235021804891484
9.86025e-06	-0.00824316241085051
9.86050e-06	-0.008251303016809479
9.86075e-06	-0.008259443622768505
9.86100e-06	-0.00826758422872753
9.86125e-06	-0.0082757248346865
9.86150e-06	-0.008283673586956088
9.86175e-06	-0.008290960678108323
9.86200e-06	-0.008298247769260508
9.86225e-06	-0.008305534860412743
9.86250e-06	-0.008312821951564976
9.86275e-06	-0.00832010904271721
9.86300e-06	-0.008327396133869396
9.86325e-06	-0.00833468322502163
9.86350e-06	-0.008341970316173866
9.86375e-06	-0.00834925740732605
9.86400e-06	-0.008356544498478285
9.86425e-06	-0.008363083225120143
9.86450e-06	-0.008367041007399479
9.86475e-06	-0.008370998789678839
9.86500e-06	-0.0083749565719582
9.86525e-06	-0.008378914354237536
9.86550e-06	-0.008382872136516896
9.86575e-06	-0.008386829918796258
9.86600e-06	-0.008390787701075594
9.86625e-06	-0.008394745483354954
9.86650e-06	-0.008398703265634315
9.86675e-06	-0.008402661047913651
9.86700e-06	-0.008406012346755379
9.86725e-06	-0.008407272017803639
9.86750e-06	-0.008408531688851889
9.86775e-06	-0.00840979135990015
9.86800e-06	-0.00841153785157097
9.86825e-06	-0.008412397647546106
9.86850e-06	-0.05756050023718696
9.86875e-06	-0.03579776749497639
9.86900e-06	-0.021549216094013356
9.86925e-06	-0.0033223330742153446
9.86950e-06	0.011761170757883299
9.86975e-06	0.010719962959734413
9.87000e-06	0.0009840265540401452
9.87025e-06	-0.013444910619196216
9.87050e-06	-0.026349722355342015
9.87075e-06	-0.024489610352809194
9.87100e-06	-0.015022263303783456
9.87125e-06	-0.003868539931074566
9.87150e-06	0.005289718598072679
9.87175e-06	0.004467981902327189
9.87200e-06	-0.0017331018172935294
9.87225e-06	-0.010836244744966812
9.87250e-06	-0.01896331970770633
9.87275e-06	-0.01782977299553969
9.87300e-06	-0.01192476074481835
9.87325e-06	-0.004960101238747265
9.87350e-06	0.0007564079913513022
9.87375e-06	0.00022277083958293438
9.87400e-06	-0.0036792033837437276
9.87425e-06	-0.009397776173876337
9.87450e-06	-0.014503793664118733
9.87475e-06	-0.013808210183372971
9.87500e-06	-0.010123489568881556
9.87525e-06	-0.005774895189189009
9.87550e-06	-0.0022078380686749548
9.87575e-06	-0.0025546724765930025
9.87600e-06	-0.005009141073203859
9.87625e-06	-0.008598794475923804
9.87650e-06	-0.01180207630879274
9.87675e-06	-0.011368885927653668
9.87700e-06	-0.009061324758034475
9.87725e-06	-0.0063361646488230335
9.87750e-06	-0.004098932218589376
9.87775e-06	-0.0043117194746424455
9.87800e-06	-0.005843041092027742
9.87825e-06	-0.008083788308789567
9.87850e-06	-0.010080962076844304
9.87875e-06	-0.009798941761380488
9.87900e-06	-0.00834178681352247
9.87925e-06	-0.006622205046911229
9.87950e-06	-0.005207537692180372
9.87975e-06	-0.0053268744405122765
9.88000e-06	-0.006271468982931679
9.88025e-06	-0.0076598389890636795
9.88050e-06	-0.008895135634517798
9.88075e-06	-0.008702442653747403
9.88100e-06	-0.007773560304593197
9.88125e-06	-0.006680369241925855
9.88150e-06	-0.005778370302546594
9.88175e-06	-0.005837531125386876
9.88200e-06	-0.006413945903128141
9.88225e-06	-0.00726873888845919
9.88250e-06	-0.008028154799944391
9.88275e-06	-0.007893752421105743
9.88300e-06	-0.007299055912258564
9.88325e-06	-0.006602435000337619
9.88350e-06	-0.006026692317274356
9.88375e-06	-0.006054220441832233
9.88400e-06	-0.006407033011828353
9.88425e-06	-0.006935594227947313
9.88450e-06	-0.007405896937011239
9.88475e-06	-0.007317944364853682
9.88500e-06	-0.006943451795782969
9.88525e-06	-0.006507012113198181
9.88550e-06	-0.006148076421255118
9.88575e-06	-0.006168144467297258
9.88600e-06	-0.0063921841679686845
9.88625e-06	-0.006726108472240506
9.88650e-06	-0.0070233094385527646
9.88675e-06	-0.006970616853711631
9.88700e-06	-0.006738265650897575
9.88725e-06	-0.006466958108730582
9.88750e-06	-0.006244054469033127
9.88775e-06	-0.006258409593856872
9.88800e-06	-0.006400374246622195
9.88825e-06	-0.006611012373404869
9.88850e-06	-0.006798494618220079
9.88875e-06	-0.006766670278014306
9.88900e-06	-0.006622197447086259
9.88925e-06	-0.0064532262108906785
9.88950e-06	-0.0063144857224313004
9.88975e-06	-0.006324274320338555
9.89000e-06	-0.006413904914954578
9.89025e-06	-0.006546461447277703
9.89050e-06	-0.006664428219361163
9.89075e-06	-0.0066449511730684654
9.89100e-06	-0.006554857683449696
9.89125e-06	-0.006449375326371713
9.89150e-06	-0.0063627936448403385
9.89175e-06	-0.006369216470720135
9.89200e-06	-0.006425618524538637
9.89225e-06	-0.006508879515410563
9.89250e-06	-0.0065829773476701395
9.89275e-06	-0.006570967879844616
9.89300e-06	-0.006514723913957744
9.89325e-06	-0.00644884944313427
9.89350e-06	-0.006394829753818871
9.89375e-06	-0.0063990867582185175
9.89400e-06	-0.006434671914576411
9.89425e-06	-0.006487107333469944
9.89450e-06	-0.0065338342163636645
9.89475e-06	-0.00652666428104238
9.89500e-06	-0.006491836761604581
9.89525e-06	-0.006451035823647269
9.89550e-06	-0.006417732775835345
9.89575e-06	-0.006421028428291425
9.89600e-06	-0.006444064949295988
9.89625e-06	-0.006477777788718645
9.89650e-06	-0.006508029325723996
9.89675e-06	-0.006504628536839071
9.89700e-06	-0.006484006100599188
