Time(s)	Current(A)
8.75000e-06	0.013633476722123415
8.75025e-06	0.01365610840395792
8.75050e-06	0.013678740085792578
8.75075e-06	0.013699928204333356
8.75100e-06	0.013717088055601174
8.75125e-06	0.013734247906869107
8.75150e-06	0.013751407758137041
8.75175e-06	0.013768567609404975
8.75200e-06	0.013785727460672793
8.75225e-06	0.013802887311940727
8.75250e-06	0.01382004716320866
8.75275e-06	0.013837207014476478
8.75300e-06	0.013854366865744412
8.75325e-06	0.013871526717012346
8.75350e-06	0.013888686568280163
8.75375e-06	0.013904916817530316
8.75400e-06	0.013918553009837216
8.75425e-06	0.013932189202144023
8.75450e-06	0.013945825394450922
8.75475e-06	0.013958474736882187
8.75500e-06	0.013968370272068053
8.75525e-06	0.013978265807253986
8.75550e-06	0.013988161342439919
8.75575e-06	0.013995545363324613
8.75600e-06	0.013995920996763042
8.75625e-06	0.013996296630201471
8.75650e-06	0.013993636461881486
8.75675e-06	0.013982504880548538
8.75700e-06	0.01397137329921559
8.75725e-06	0.013960241717882717
8.75750e-06	0.013949110136549769
8.75775e-06	0.01392618878662683
8.75800e-06	0.01389962187886349
8.75825e-06	0.013873054971099969
8.75850e-06	0.013846488063336448
8.75875e-06	0.013816838125014644
8.75900e-06	0.013778584981584888
8.75925e-06	0.013740331838155132
8.75950e-06	0.013699865847986254
8.75975e-06	0.013653224903008652
8.76000e-06	0.013606583958031052
8.76025e-06	0.013558401825372868
8.76050e-06	0.013505919004325918
8.76075e-06	0.01345260105251134
8.76100e-06	0.013396952666032916
8.76125e-06	0.01334070723108049
8.76150e-06	0.01328279573074575
8.76175e-06	0.013224461873897654
8.76200e-06	0.013164949430057554
8.76225e-06	0.013105380844004543
8.76250e-06	0.01304565559295574
8.76275e-06	0.01298626989787094
8.76300e-06	0.012927831734620256
8.76325e-06	0.012870063715284711
8.76350e-06	0.012814165734356668
8.76375e-06	0.012759227944966393
8.76400e-06	0.01270696957265957
8.76425e-06	0.012656305983166723
8.76450e-06	0.012610092639427212
8.76475e-06	0.012563879295687704
8.76500e-06	0.012524050552445693
8.76525e-06	0.012486196015077873
8.76550e-06	0.012449601667679062
8.76575e-06	0.01241652388379667
8.76600e-06	0.012383446099914052
8.76625e-06	0.012351792190647972
8.76650e-06	0.012324111607349954
8.76675e-06	0.012296431024051747
8.76700e-06	0.012268750440753541
8.76725e-06	0.012241069857455522
8.76750e-06	0.01221471044660825
8.76775e-06	0.012192037771058267
8.76800e-06	0.012169365095508436
8.76825e-06	0.012146692419958452
8.76850e-06	0.012124019744408469
8.76875e-06	0.012102435509111439
8.76900e-06	0.012083888569284062
8.76925e-06	0.01206534162945656
8.76950e-06	0.012046794689629058
8.76975e-06	0.012028247749801683
8.77000e-06	0.012009700809974181
8.77025e-06	0.01199115387014668
8.77050e-06	0.011972606930319303
8.77075e-06	0.011954994352926495
8.77100e-06	0.011939989116434934
8.77125e-06	0.011924983879943474
8.77150e-06	0.011909978643451913
8.77175e-06	0.011894973406960352
8.77200e-06	0.011879968170468894
8.77225e-06	0.011864962933977333
8.77250e-06	0.011849957697485772
8.77275e-06	0.011835802845571708
8.77300e-06	0.011824020994121106
8.77325e-06	0.011812239142670503
8.77350e-06	0.01180045729121998
8.77375e-06	0.011788675439769379
8.77400e-06	0.011778990362169348
8.77425e-06	0.011769953635747628
8.77450e-06	0.011760916909325849
8.77475e-06	0.011751880182904068
8.77500e-06	0.011743977712083718
8.77525e-06	0.011739240384587485
8.77550e-06	0.011734503057091254
8.77575e-06	0.011732980395231418
8.77600e-06	0.011740428266526314
8.77625e-06	0.011747876137821212
8.77650e-06	0.01175532400911606
8.77675e-06	0.011762771880410958
8.77700e-06	0.011770219751705856
8.77725e-06	0.011790814724425086
8.77750e-06	0.011815474960881126
8.77775e-06	0.011840135197337334
8.77800e-06	0.011864795433793542
8.77825e-06	0.011889455670249583
8.77850e-06	0.011919380350355412
8.77875e-06	0.011963995474707688
8.77900e-06	0.012008610599059662
8.77925e-06	0.012053225723411939
8.77950e-06	0.012097840847764215
8.77975e-06	0.012142455972116188
8.78000e-06	0.012187071096468464
8.78025e-06	0.01223168622082074
8.78050e-06	0.012280067541689007
8.78075e-06	0.012338958444126276
8.78100e-06	0.012397849346563546
8.78125e-06	0.012456740249000417
8.78150e-06	0.012515631151437686
8.78175e-06	0.012574522053874956
8.78200e-06	0.012633412956311825
8.78225e-06	0.012692303858749095
8.78250e-06	0.012751585350871371
8.78275e-06	0.01281195678456612
8.78300e-06	0.012872328218261276
8.78325e-06	0.012931798428169326
8.78350e-06	0.012988753770660407
8.78375e-06	0.013045709113151876
8.78400e-06	0.013100842305352531
8.78425e-06	0.013150890782235535
8.78450e-06	0.01320093925911888
8.78475e-06	0.013250987736002222
8.78500e-06	0.013293371204592426
8.78525e-06	0.013333384547688206
8.78550e-06	0.013373397890783985
8.78575e-06	0.013410265693413139
8.78600e-06	0.013438355856857428
8.78625e-06	0.013466446020301906
8.78650e-06	0.013494536183746386
8.78675e-06	0.013522626347190675
8.78700e-06	0.013550716510635155
8.78725e-06	0.013578806674079633
8.78750e-06	0.013606896837523922
8.78775e-06	0.013634987000968402
8.78800e-06	0.013663077164412882
8.78825e-06	0.01369116732785717
8.78850e-06	0.013719257491301649
8.78875e-06	0.013744243002681828
8.78900e-06	0.013760564974073356
8.78925e-06	0.013776886945464995
8.78950e-06	0.013793208916856632
8.78975e-06	0.01380953088824816
8.79000e-06	0.013825852859639798
8.79025e-06	0.013842174831031437
8.79050e-06	0.013858496802422963
8.79075e-06	0.013874818773814602
8.79100e-06	0.01389114074520624
8.79125e-06	0.013907462716597768
8.79150e-06	0.013923784687989405
8.79175e-06	0.013938356503531674
8.79200e-06	0.013948044504438525
8.79225e-06	0.013957732505345441
8.79250e-06	0.013967420506252357
8.79275e-06	0.013977108507159207
8.79300e-06	0.013986796508066125
8.79325e-06	0.01399648450897304
8.79350e-06	0.01400617250987989
8.79375e-06	0.014015860510786807
8.79400e-06	0.014025548511693723
8.79425e-06	0.01403523651260064
8.79450e-06	0.01404492451350749
8.79475e-06	0.014054612514414406
8.79500e-06	0.014064300515321322
8.79525e-06	0.014073988516228174
8.79550e-06	0.01408367651713509
8.79575e-06	0.014093364518042006
8.79600e-06	0.014102510463683594
8.79625e-06	0.014110143802639865
8.79650e-06	0.014117777141596137
8.79675e-06	0.014125410480552356
8.79700e-06	0.014133043819508629
8.79725e-06	0.014140677158464902
8.79750e-06	0.01414831049742112
8.79775e-06	0.014155943836377393
8.79800e-06	0.014163577175333664
8.79825e-06	0.014171210514289885
8.79850e-06	0.014178843853246158
8.79875e-06	0.014186477192202429
8.79900e-06	0.01419411053115865
8.79925e-06	0.01420174387011492
8.79950e-06	0.014209377209071193
8.79975e-06	0.014217010548027414
8.80000e-06	0.014224643886983685
8.80025e-06	0.014232452296887405
8.80050e-06	0.014240749242744025
8.80075e-06	0.014249046188600702
8.80100e-06	0.01425734313445738
8.80125e-06	0.014265640080314
8.80150e-06	0.014273937026170677
8.80175e-06	0.014282233972027355
8.80200e-06	0.014290530917883976
8.80225e-06	0.014298827863740652
8.80250e-06	0.014306937368590475
8.80275e-06	0.014314523818802955
8.80300e-06	0.014322110269015486
8.80325e-06	0.014329696719228019
8.80350e-06	0.01433728316944055
8.80375e-06	0.01434486961965303
8.80400e-06	0.01435245606986556
8.80425e-06	0.014360042520078093
8.80450e-06	0.014367628970290574
8.80475e-06	0.014374778840750502
8.80500e-06	0.01438071043422824
8.80525e-06	0.01438664202770594
8.80550e-06	0.014390860198534045
8.80575e-06	0.01439029705881726
8.80600e-06	0.014389733919100478
8.80625e-06	0.014386153465111497
8.80650e-06	0.01437415318747306
8.80675e-06	0.014362152909834707
8.80700e-06	0.01435015263219627
8.80725e-06	0.014338152354557836
8.80750e-06	0.014322001582662554
8.80775e-06	0.01429426884530013
8.80800e-06	0.014266536107937709
8.80825e-06	0.014238803370575474
8.80850e-06	0.014211070633213052
8.80875e-06	0.01417899215029994
8.80900e-06	0.014134786852655918
8.80925e-06	0.014090581555011597
8.80950e-06	0.014046376257367274
8.80975e-06	0.014002170959723252
8.81000e-06	0.013957965662078931
8.81025e-06	0.013913760364434608
8.81050e-06	0.013860110719823363
8.81075e-06	0.013803540753837258
8.81100e-06	0.013746970787851151
8.81125e-06	0.01369040082186543
8.81150e-06	0.013633830855879325
8.81175e-06	0.01357726088989322
8.81200e-06	0.013519833935383604
8.81225e-06	0.013460015552077745
8.81250e-06	0.01340036584110771
8.81275e-06	0.013341186810748919
8.81300e-06	0.013282553846329733
8.81325e-06	0.013225444680393024
8.81350e-06	0.013169143495487168
8.81375e-06	0.013115096983837449
8.81400e-06	0.01306257945681709
8.81425e-06	0.013014328565548837
8.81450e-06	0.012966077674280912
8.81475e-06	0.012920380741804894
8.81500e-06	0.01288181063825891
8.81525e-06	0.012843240534713187
8.81550e-06	0.012806062643375648
8.81575e-06	0.012772769723978294
8.81600e-06	0.012739476804581165
8.81625e-06	0.012707456654937678
8.81650e-06	0.012678988172741346
8.81675e-06	0.012650519690545209
8.81700e-06	0.012622051208348877
8.81725e-06	0.012593582726152545
8.81750e-06	0.01256622834132169
8.81775e-06	0.012541982848207695
8.81800e-06	0.0125177373550937
8.81825e-06	0.01249349186197987
8.81850e-06	0.012469246368865875
8.81875e-06	0.01244587212137427
8.81900e-06	0.012424929087153268
8.81925e-06	0.012403986052932124
8.81950e-06	0.012383043018710979
8.81975e-06	0.012362099984489977
8.82000e-06	0.012341156950268833
8.82025e-06	0.012320213916047689
8.82050e-06	0.012299270881826543
8.82075e-06	0.012278327847605542
8.82100e-06	0.01225980511201477
8.82125e-06	0.012242030765894552
8.82150e-06	0.012224256419774456
8.82175e-06	0.012206482073654238
8.82200e-06	0.012188707727534021
8.82225e-06	0.012170933381413923
8.82250e-06	0.012153159035293707
8.82275e-06	0.01213538468917349
8.82300e-06	0.012118692210977808
8.82325e-06	0.012105018688157717
8.82350e-06	0.012091345165337627
8.82375e-06	0.01207767164251763
8.82400e-06	0.012063998119697538
8.82425e-06	0.012050324596877446
8.82450e-06	0.01203828046766173
8.82475e-06	0.012030783165715639
8.82500e-06	0.012023285863769545
8.82525e-06	0.012015788561823504
8.82550e-06	0.012008291259877412
8.82575e-06	0.01200079395793132
8.82600e-06	0.011997138576915875
8.82625e-06	0.012004204086672288
8.82650e-06	0.012011269596428701
8.82675e-06	0.012018335106185066
8.82700e-06	0.012025400615941479
8.82725e-06	0.012032466125697892
8.82750e-06	0.012039531635454256
8.82775e-06	0.012046597145210669
8.82800e-06	0.012067049411496266
8.82825e-06	0.012091641046167015
8.82850e-06	0.01211623268083793
8.82875e-06	0.012140824315508846
8.82900e-06	0.012165415950179762
8.82925e-06	0.012190007584850511
8.82950e-06	0.012214599219521427
8.82975e-06	0.012243056700351477
8.83000e-06	0.012282301835369014
8.83025e-06	0.012321546970386819
8.83050e-06	0.012360792105404621
8.83075e-06	0.01240003724042216
8.83100e-06	0.012439282375439963
8.83125e-06	0.012478527510457768
8.83150e-06	0.012517772645475305
8.83175e-06	0.01255701778049311
8.83200e-06	0.012596262915510912
8.83225e-06	0.012635508050528451
8.83250e-06	0.012674468234955705
8.83275e-06	0.012713340308759334
8.83300e-06	0.012752212382562701
8.83325e-06	0.01279108445636633
8.83350e-06	0.012829956530169958
8.83375e-06	0.012868828603973325
8.83400e-06	0.012907700677776954
8.83425e-06	0.012946572751580582
8.83450e-06	0.01298544482538395
8.83475e-06	0.013024316899187578
8.83500e-06	0.013059575681963864
8.83525e-06	0.013084751566329728
8.83550e-06	0.013109927450695764
8.83575e-06	0.0131351033350618
8.83600e-06	0.013160279219427664
8.83625e-06	0.0131854551037937
8.83650e-06	0.013210630988159736
8.83675e-06	0.0132358068725256
8.83700e-06	0.013260982756891635
8.83725e-06	0.013286158641257671
8.83750e-06	0.01330971495178841
8.83775e-06	0.013328751837139224
8.83800e-06	0.013347788722490166
8.83825e-06	0.013366825607841108
8.83850e-06	0.013385862493191923
8.83875e-06	0.013404899378542865
8.83900e-06	0.013423936263893807
8.83925e-06	0.01344297314924462
8.83950e-06	0.013462010034595564
8.83975e-06	0.013481046919946506
8.84000e-06	0.013499330885404065
8.84025e-06	0.013515513825857355
8.84050e-06	0.013531696766310646
8.84075e-06	0.013547879706763827
8.84100e-06	0.013564062647217118
8.84125e-06	0.01358024558767041
8.84150e-06	0.01359642852812359
8.84175e-06	0.013612611468576882
8.84200e-06	0.013628794409030172
8.84225e-06	0.013644977349483355
8.84250e-06	0.013660270368303319
8.84275e-06	0.013673080058391353
8.84300e-06	0.013685889748479299
8.84325e-06	0.013698699438567333
8.84350e-06	0.013711509128655368
8.84375e-06	0.013724318818743314
8.84400e-06	0.013737128508831348
8.84425e-06	0.01374993819891938
8.84450e-06	0.013762747889007328
8.84475e-06	0.013775557579095363
8.84500e-06	0.013788165753038846
8.84525e-06	0.013800211595634163
8.84550e-06	0.013812257438229562
8.84575e-06	0.01382430328082496
8.84600e-06	0.013836349123420359
8.84625e-06	0.013848394966015675
8.84650e-06	0.013860440808611074
8.84675e-06	0.013872486651206472
8.84700e-06	0.013886308467309545
8.84725e-06	0.013905086142304908
8.84750e-06	0.01392386381730027
8.84775e-06	0.013942641492295507
8.84800e-06	0.01396141916729087
8.84825e-06	0.013980196842286232
8.84850e-06	0.013998974517281467
8.84875e-06	0.01401775219227683
8.84900e-06	0.01403863654134257
8.84925e-06	0.01406539957011804
8.84950e-06	0.014092162598893693
8.84975e-06	0.014118925627669345
8.85000e-06	0.014145688656444815
8.85025e-06	0.014172451685220468
8.85050e-06	0.01419921471399612
8.85075e-06	0.014225977742771592
8.85100e-06	0.014252740771547243
8.85125e-06	0.014279503800322895
8.85150e-06	0.014306266829098366
8.85175e-06	0.014333029857874019
8.85200e-06	0.014359689099313993
8.85225e-06	0.014386058721911905
8.85250e-06	0.014412428344509997
8.85275e-06	0.01443879796710809
8.85300e-06	0.014465167589706002
8.85325e-06	0.014491537212304093
8.85350e-06	0.014517906834902186
8.85375e-06	0.014544276457500099
8.85400e-06	0.01457064608009819
8.85425e-06	0.014597015702696283
8.85450e-06	0.014623385325294374
8.85475e-06	0.014649754947892286
8.85500e-06	0.014672522091389686
8.85525e-06	0.014685236507178356
8.85550e-06	0.014697950922966937
8.85575e-06	0.014710665338755606
8.85600e-06	0.014723379754544274
8.85625e-06	0.014736094170332857
8.85650e-06	0.014748808586121525
8.85675e-06	0.014761523001910195
8.85700e-06	0.014774237417698777
8.85725e-06	0.014786951833487445
8.85750e-06	0.014787512322491593
8.85775e-06	0.01478431465094016
8.85800e-06	0.014781116979388704
8.85825e-06	0.014777919307837247
8.85850e-06	0.014774721636285813
8.85875e-06	0.014771523964734358
8.85900e-06	0.014768326293182902
8.85925e-06	0.014765128621631467
8.85950e-06	0.014761930950080012
8.85975e-06	0.01475565608563877
8.86000e-06	0.01474079430608532
8.86025e-06	0.014725932526531772
8.86050e-06	0.014711070746978222
8.86075e-06	0.014696208967424773
8.86100e-06	0.014681347187871223
8.86125e-06	0.014666485408317673
8.86150e-06	0.014651623628764224
8.86175e-06	0.014636761849210676
8.86200e-06	0.014621900069657126
8.86225e-06	0.014607038290103676
8.86250e-06	0.014591416913303287
8.86275e-06	0.014575560658634823
8.86300e-06	0.01455970440396636
8.86325e-06	0.014543848149298006
8.86350e-06	0.014527991894629543
8.86375e-06	0.01451213563996108
8.86400e-06	0.014496279385292724
8.86425e-06	0.01448042313062426
8.86450e-06	0.014464566875955799
8.86475e-06	0.014448710621287443
8.86500e-06	0.014434483577702108
8.86525e-06	0.014424802852068009
8.86550e-06	0.014415122126433977
8.86575e-06	0.014405441400799879
8.86600e-06	0.014395760675165781
8.86625e-06	0.014386079949531748
8.86650e-06	0.01437639922389765
8.86675e-06	0.014366718498263552
8.86700e-06	0.014357037772629519
8.86725e-06	0.014347357046995421
8.86750e-06	0.014337837033050978
8.86775e-06	0.014328765485512996
8.86800e-06	0.014319693937974954
8.86825e-06	0.014310622390436912
8.86850e-06	0.014301550842898931
8.86875e-06	0.014292479295360889
8.86900e-06	0.014283407747822847
8.86925e-06	0.014274336200284867
8.86950e-06	0.014265264652746825
8.86975e-06	0.014256193105208783
8.87000e-06	0.014247002374277989
8.87025e-06	0.014237479061765793
8.87050e-06	0.014227955749253595
8.87075e-06	0.014218432436741464
8.87100e-06	0.014208909124229266
8.87125e-06	0.014199385811717069
8.87150e-06	0.014189862499204873
8.87175e-06	0.01418033918669274
8.87200e-06	0.014170815874180542
8.87225e-06	0.014161292561668346
8.87250e-06	0.01415319960741314
8.87275e-06	0.014145548939513608
8.87300e-06	0.014137898271614074
8.87325e-06	0.014130247603714592
8.87350e-06	0.01412259693581506
8.87375e-06	0.014114946267915526
8.87400e-06	0.014107295600016044
8.87425e-06	0.014099644932116512
8.87450e-06	0.014091994264216978
8.87475e-06	0.01408504519185249
8.87500e-06	0.014080053923734267
8.87525e-06	0.014075062655616045
8.87550e-06	0.014068893998082473
8.87575e-06	0.014059439832186695
8.87600e-06	0.014049985666290914
8.87625e-06	0.014037992015510111
8.87650e-06	0.014018911925258275
8.87675e-06	0.01399983183500644
8.87700e-06	0.013980751744754733
8.87725e-06	0.013961671654502896
8.87750e-06	0.013942591564251062
8.87775e-06	0.013912536608107203
8.87800e-06	0.013879088073174199
8.87825e-06	0.013845639538241195
8.87850e-06	0.01381219100330842
8.87875e-06	0.013778742468375415
8.87900e-06	0.013741349226219567
8.87925e-06	0.013692948267840786
8.87950e-06	0.013644547309461675
8.87975e-06	0.013596146351082566
8.88000e-06	0.013547745392703456
8.88025e-06	0.013499344434324675
8.88050e-06	0.013450943475945564
8.88075e-06	0.013402542517566455
8.88100e-06	0.01334722182609633
8.88125e-06	0.013289761458416734
8.88150e-06	0.013232301090737137
8.88175e-06	0.013174840723057931
8.88200e-06	0.013117380355378336
8.88225e-06	0.013059919987698738
8.88250e-06	0.013002459620019533
8.88275e-06	0.012945398660568902
8.88300e-06	0.012889452250866601
8.88325e-06	0.01283350584116468
8.88350e-06	0.012778790055652068
8.88375e-06	0.012727508330285157
8.88400e-06	0.012676226604918595
8.88425e-06	0.012626932420336634
8.88450e-06	0.012583184473716647
8.88475e-06	0.012539436527096954
8.88500e-06	0.012500378463152287
8.88525e-06	0.012474407529559339
8.88550e-06	0.012448436595966568
8.88575e-06	0.012422465662373618
8.88600e-06	0.01239649472878067
8.88625e-06	0.0123705237951879
8.88650e-06	0.01234455286159495
8.88675e-06	0.012342874174581154
8.88700e-06	0.012344233399919914
8.88725e-06	0.012345592625258684
8.88750e-06	0.012346951850597454
8.88775e-06	0.012348311075936213
8.88800e-06	0.012349670301274982
8.88825e-06	0.012358347264675246
8.88850e-06	0.012374056966173408
8.88875e-06	0.012399214882887056
8.88900e-06	0.012426602430518983
8.88925e-06	0.012465462299562016
8.88950e-06	0.012504322168604785
8.88975e-06	0.012543182037647817
8.89000e-06	0.01258204190669085
8.89025e-06	0.012620901775733618
8.89050e-06	0.01265976164477665
8.89075e-06	0.012698621513819683
8.89100e-06	0.012743928293360208
8.89125e-06	0.012795333946717714
8.89150e-06	0.01284673960007522
8.89175e-06	0.012898145253432377
8.89200e-06	0.012949550906789883
8.89225e-06	0.013000956560147388
8.89250e-06	0.013052362213504545
8.89275e-06	0.013103744219489939
8.89300e-06	0.01315344502478644
8.89325e-06	0.013203145830082605
8.89350e-06	0.013252846635379104
8.89375e-06	0.013302547440675605
8.89400e-06	0.013352248245971768
8.89425e-06	0.013401753062750935
8.89450e-06	0.013437324152386229
8.89475e-06	0.01347289524202128
8.89500e-06	0.013508466331656572
8.89525e-06	0.013544037421291866
8.89550e-06	0.013579608510926917
8.89575e-06	0.013614852317895637
8.89600e-06	0.013626828091402348
8.89625e-06	0.013638803864908981
8.89650e-06	0.013650779638415692
8.89675e-06	0.013662755411922405
8.89700e-06	0.013674731185429117
8.89725e-06	0.013686706958935748
8.89750e-06	0.013698682732442461
8.89775e-06	0.013710658505949174
8.89800e-06	0.013722278597867394
8.89825e-06	0.013708611646045463
8.89850e-06	0.013694944694223532
8.89875e-06	0.013681277742401694
8.89900e-06	0.013667610790579763
8.89925e-06	0.013653943838757834
8.89950e-06	0.013640276886935995
8.89975e-06	0.013626609935114064
8.90000e-06	0.013612942983292135
8.90025e-06	0.013599051732304782
8.90050e-06	0.013569214019659251
8.90075e-06	0.01353937630701372
8.90100e-06	0.013509538594368391
8.90125e-06	0.01347970088172286
8.90150e-06	0.01344986316907733
8.90175e-06	0.013420025456432002
