Time(s)	Current(A)
2.25000e-06	-0.007964784194633858
2.25025e-06	-0.007989073353471994
2.25050e-06	-0.00801336251231013
2.25075e-06	-0.008037651671148224
2.25100e-06	-0.008061940829986361
2.25125e-06	-0.008086229988824497
2.25150e-06	-0.008111682229295581
2.25175e-06	-0.008140820385641494
2.25200e-06	-0.008169958541987406
2.25225e-06	-0.00819909669833332
2.25250e-06	-0.008228234854679183
2.25275e-06	-0.008257373011025094
2.25300e-06	-0.008286511167371008
2.25325e-06	-0.008314789687058764
2.25350e-06	-0.00834034393674278
2.25375e-06	-0.008365898186426796
2.25400e-06	-0.008390187096308293
2.25425e-06	-0.00841046602448883
2.25450e-06	-0.008430744952669366
2.25475e-06	-0.008448269920377588
2.25500e-06	-0.008457067326463476
2.25525e-06	-0.00846586473254938
2.25550e-06	-0.008474662138635285
2.25575e-06	-0.008483459544721173
2.25600e-06	-0.008492256950807077
2.25625e-06	-0.008501054356892981
2.25650e-06	-0.008505805134998127
2.25675e-06	-0.00849773176569096
2.25700e-06	-0.008489658396383779
2.25725e-06	-0.008481585027076598
2.25750e-06	-0.008473511657769429
2.25775e-06	-0.008465438288462248
2.25800e-06	-0.008457364919155066
2.25825e-06	-0.008445951004753406
2.25850e-06	-0.008423950586493856
2.25875e-06	-0.008401950168234307
2.25900e-06	-0.008379949749974755
2.25925e-06	-0.008357949331715244
2.25950e-06	-0.008335948913455692
2.25975e-06	-0.008313948495196143
2.26000e-06	-0.00828583081009879
2.26025e-06	-0.008255562253302207
2.26050e-06	-0.008225293696505624
2.26075e-06	-0.00819502513970904
2.26100e-06	-0.008164756582912507
2.26125e-06	-0.008134488026115924
2.26150e-06	-0.008103710730650597
2.26175e-06	-0.008071321194150676
2.26200e-06	-0.008038931657650699
2.26225e-06	-0.008006753594406703
2.26250e-06	-0.007975245709944082
2.26275e-06	-0.007943737825481408
2.26300e-06	-0.007912858031481479
2.26325e-06	-0.007883968715657764
2.26350e-06	-0.007855079399834099
2.26375e-06	-0.007827252960508922
2.26400e-06	-0.0078027948774952284
2.26425e-06	-0.007778336794481576
2.26450e-06	-0.007754636701611976
2.26475e-06	-0.0077333387513143816
2.26500e-06	-0.0077120408010167875
2.26525e-06	-0.007690601877413152
2.26550e-06	-0.007668716196047934
2.26575e-06	-0.007646830514682717
2.26600e-06	-0.007624944833317536
2.26625e-06	-0.0076030591519523185
2.26650e-06	-0.0075811734705871015
2.26675e-06	-0.007559287789221921
2.26700e-06	-0.00753687529691461
2.26725e-06	-0.007512793290826286
2.26750e-06	-0.007488711284737961
2.26775e-06	-0.007464629278649677
2.26800e-06	-0.007440547272561352
2.26825e-06	-0.0074164652664730265
2.26850e-06	-0.007392383260384742
2.26875e-06	-0.007367641894938537
2.26900e-06	-0.007340810957225152
2.26925e-06	-0.0073139800195117675
2.26950e-06	-0.007287149081798428
2.26975e-06	-0.007260318144085043
2.27000e-06	-0.007233487206371659
2.27025e-06	-0.007206467264435799
2.27050e-06	-0.0071788483502140754
2.27075e-06	-0.007151229435992351
2.27100e-06	-0.007123610521770674
2.27125e-06	-0.007095991607548951
2.27150e-06	-0.007068372693327226
2.27175e-06	-0.007041001794791175
2.27200e-06	-0.007014416881457962
2.27225e-06	-0.006987831968124705
2.27250e-06	-0.0069616457637875955
2.27275e-06	-0.0069367231060296405
2.27300e-06	-0.006912154181969689
2.27325e-06	-0.006888706273508595
2.27350e-06	-0.0068656032749494795
2.27375e-06	-0.006843874573081574
2.27400e-06	-0.006823357164021597
2.27425e-06	-0.006804220227402515
2.27450e-06	-0.006786732182465593
2.27475e-06	-0.006771465009459711
2.27500e-06	-0.006759114771358078
2.27525e-06	-0.006750400692215175
2.27550e-06	-0.0067453901767637395
2.27575e-06	-0.006741894394354937
2.27600e-06	-0.006743198944451329
2.27625e-06	-0.006746413139003365
2.27650e-06	-0.006755679177739083
2.27675e-06	-0.0067649452164748
2.27700e-06	-0.0067775197021763215
2.27725e-06	-0.0068005789697270285
2.27750e-06	-0.006823638237277736
2.27775e-06	-0.006846697504828442
2.27800e-06	-0.00686975677237911
2.27825e-06	-0.006896318148742128
2.27850e-06	-0.006933978039691854
2.27875e-06	-0.006971637930641516
2.27900e-06	-0.007009297821591242
2.27925e-06	-0.0070469577125409685
2.27950e-06	-0.007087350355471368
2.27975e-06	-0.007136403348307009
2.28000e-06	-0.0071854563411426495
2.28025e-06	-0.00723450933397829
2.28050e-06	-0.007283562326813848
2.28075e-06	-0.007332615319649489
2.28100e-06	-0.007382691835597711
2.28125e-06	-0.007436011993249721
2.28150e-06	-0.007489332150901821
2.28175e-06	-0.007542652308553921
2.28200e-06	-0.007595972466206021
2.28225e-06	-0.007649292623858031
2.28250e-06	-0.007701852352722068
2.28275e-06	-0.007752002210719962
2.28300e-06	-0.007802152068717772
2.28325e-06	-0.007848872731499357
2.28350e-06	-0.007884725949786587
2.28375e-06	-0.007920579168073755
2.28400e-06	-0.007956432386360986
2.28425e-06	-0.007992285604648215
2.28450e-06	-0.008028138822935444
2.28475e-06	-0.008063992041222613
2.28500e-06	-0.008099845259509842
2.28525e-06	-0.008135698477797073
2.28550e-06	-0.008171551696084241
2.28575e-06	-0.0082034699704389
2.28600e-06	-0.008222918034706537
2.28625e-06	-0.008242366098974172
2.28650e-06	-0.008261814163241775
2.28675e-06	-0.00828126222750941
2.28700e-06	-0.008300710291777045
2.28725e-06	-0.008320158356044648
2.28750e-06	-0.008339606420312283
2.28775e-06	-0.008359054484579919
2.28800e-06	-0.00837850254884752
2.28825e-06	-0.008395739440898631
2.28850e-06	-0.008405968918726829
2.28875e-06	-0.008416198396555028
2.28900e-06	-0.00842642787438321
2.28925e-06	-0.00843665735221141
2.28950e-06	-0.008446886830039609
2.28975e-06	-0.008457116307867791
2.29000e-06	-0.00846734578569599
2.29025e-06	-0.00847757526352419
2.29050e-06	-0.008487804741352389
2.29075e-06	-0.008498034219180571
2.29100e-06	-0.008507005559752841
2.29125e-06	-0.008511989744175117
2.29150e-06	-0.008516973928597385
2.29175e-06	-0.008521958113019661
2.29200e-06	-0.008526942297441937
2.29225e-06	-0.008531926481864205
2.29250e-06	-0.00853691066628648
2.29275e-06	-0.008541894850708758
2.29300e-06	-0.008546879035131034
2.29325e-06	-0.0085518632195533
2.29350e-06	-0.008556847403975578
2.29375e-06	-0.008561347904248702
2.29400e-06	-0.008564315563632711
2.29425e-06	-0.008566944264929101
2.29450e-06	-0.00856849877593557
2.29475e-06	-0.008570053286942039
2.29500e-06	-0.00856895343251203
2.29525e-06	-0.008562184981658304
2.29550e-06	-0.053025094621093984
2.29575e-06	-0.03600164906722895
2.29600e-06	-0.02352266143700913
2.29625e-06	-0.010280650931431743
2.29650e-06	0.003812602382538789
2.29675e-06	0.007665893837010636
2.29700e-06	0.0027537227509437873
2.29725e-06	-0.0072045168141971275
2.29750e-06	-0.018931329770607044
2.29775e-06	-0.02164334005174849
2.29800e-06	-0.016265469910481223
2.29825e-06	-0.007881923526266097
2.29850e-06	0.0007249484094303529
2.29875e-06	0.002978229709341929
2.29900e-06	-0.0001835021099964103
2.29925e-06	-0.0064613398924465255
2.29950e-06	-0.013820358105046584
2.29975e-06	-0.015516796350858595
2.30000e-06	-0.012136842837911537
2.30025e-06	-0.006869325404008432
2.30050e-06	-0.0014594856041824575
2.30075e-06	-2.83452650066562e-05
2.30100e-06	-0.001988568365308231
2.30125e-06	-0.005900510534333641
2.30150e-06	-0.010489839522124319
2.30175e-06	-0.011532768089319405
2.30200e-06	-0.009397097095274266
2.30225e-06	-0.006080776788562822
2.30250e-06	-0.002677333630070056
2.30275e-06	-0.0017683019000065948
2.30300e-06	-0.002985797953597453
2.30325e-06	-0.00542810748529567
2.30350e-06	-0.008297142057804963
2.30375e-06	-0.008947434972375165
2.30400e-06	-0.00760979184576606
2.30425e-06	-0.005536074237369496
2.30450e-06	-0.0034116747008160276
2.30475e-06	-0.002854360548864697
2.30500e-06	-0.0036343700694894173
2.30525e-06	-0.005187011924285137
2.30550e-06	-0.007012091915279101
2.30575e-06	-0.007452232422679572
2.30600e-06	-0.00665181659018969
2.30625e-06	-0.00539477310907727
2.30650e-06	-0.004110138646471456
2.30675e-06	-0.00381092245284181
2.30700e-06	-0.0043528043605565924
2.30725e-06	-0.005381687332292062
2.30750e-06	-0.006583903966371218
2.30775e-06	-0.006920992007683166
2.30800e-06	-0.006483152311510136
2.30825e-06	-0.00576116838836131
2.30850e-06	-0.00502348649398979
2.30875e-06	-0.00490430978857782
2.30900e-06	-0.005312867575327375
2.30925e-06	-0.006026998894122077
2.30950e-06	-0.006849886676941481
2.30975e-06	-0.0071307419286591595
2.31000e-06	-0.006925795546808776
2.31025e-06	-0.006542186929718487
2.31050e-06	-0.006147760973183676
2.31075e-06	-0.0061394458369422
2.31100e-06	-0.006460032032035161
2.31125e-06	-0.006970015934823896
2.31150e-06	-0.007545781170086002
2.31175e-06	-0.007779368402992561
2.31200e-06	-0.00770571145916459
2.31225e-06	-0.007516901110519251
2.31250e-06	-0.007317762444323354
2.31275e-06	-0.007356600385938406
2.31300e-06	-0.007597239192328411
2.31325e-06	-0.00795196028907026
2.31350e-06	-0.008343002692850059
2.31375e-06	-0.008514510211317404
2.31400e-06	-0.008488064162353216
2.31425e-06	-0.008383681495589638
2.31450e-06	-0.00826718574300962
2.31475e-06	-0.008295749233132912
2.31500e-06	-0.008449173979914232
2.31525e-06	-0.008673880925832267
2.31550e-06	-0.008921382259213486
2.31575e-06	-0.009031414112811068
2.31600e-06	-0.009017500546503595
2.31625e-06	-0.008954822001378444
2.31650e-06	-0.008884604772062658
2.31675e-06	-0.008905291877857725
2.31700e-06	-0.009004217156511087
2.31725e-06	-0.009147805884533249
2.31750e-06	-0.009305676735569564
2.31775e-06	-0.009377436373626927
2.31800e-06	-0.009371556873689933
2.31825e-06	-0.009335127954661862
2.31850e-06	-0.009293970178975486
2.31875e-06	-0.009309738006941324
2.31900e-06	-0.00937448435278799
2.31925e-06	-0.009467168992774383
2.31950e-06	-0.009568750561747106
2.31975e-06	-0.00961633777750758
2.32000e-06	-0.009615234771033359
2.32025e-06	-0.009594935143674366
2.32050e-06	-0.009571606036182512
2.32075e-06	-0.009583857387278068
2.32100e-06	-0.009626701456341912
2.32125e-06	-0.00968694837111226
2.32150e-06	-0.009752662676016322
2.32175e-06	-0.009784442240725652
2.32200e-06	-0.009785605236982863
2.32225e-06	-0.00977462008602977
2.32250e-06	-0.009761605318473561
2.32275e-06	-0.009770739360853941
2.32300e-06	-0.009798887485546201
2.32325e-06	-0.009838480082569092
2.32350e-06	-0.009880102751073842
2.32375e-06	-0.009900642878975041
2.32400e-06	-0.009902000949394365
2.32425e-06	-0.009895355448591341
2.32450e-06	-0.009887574714141723
2.32475e-06	-0.009893217887282446
2.32500e-06	-0.009910217645124213
2.32525e-06	-0.009928989376382443
2.32550e-06	-0.009947701819992454
2.32575e-06	-0.009966414263602497
2.32600e-06	-0.00996682535847933
2.32625e-06	-0.009961921991063622
2.32650e-06	-0.0099568400742148
2.32675e-06	-0.00995175815736598
2.32700e-06	-0.009956675187085392
2.32725e-06	-0.00996346963610692
2.32750e-06	-0.009970103446805911
2.32775e-06	-0.0099767372575049
2.32800e-06	-0.0099714989778735
2.32825e-06	-0.009962538615685903
2.32850e-06	-0.009953393338444033
2.32875e-06	-0.009944248061202176
2.32900e-06	-0.009941156520692655
2.32925e-06	-0.009939092851960448
2.32950e-06	-0.009936904554350959
2.32975e-06	-0.009934716256741473
2.33000e-06	-0.009925078541791874
2.33025e-06	-0.009913208800138643
2.33050e-06	-0.009901249066076303
2.33075e-06	-0.009889289332013943
2.33100e-06	-0.009881305811888437
2.33125e-06	-0.009874310353583595
2.33150e-06	-0.00986731177487623
2.33175e-06	-0.009860313196168853
2.33200e-06	-0.009849028362515276
2.33225e-06	-0.009836935411097437
2.33250e-06	-0.00982491048445486
2.33275e-06	-0.009812885557812283
2.33300e-06	-0.009803927556834303
2.33325e-06	-0.009795932464698006
2.33350e-06	-0.009787985489168812
2.33375e-06	-0.009780038513639618
2.33400e-06	-0.009772091538110438
2.33425e-06	-0.00976393602899835
2.33450e-06	-0.00975572805031762
2.33475e-06	-0.009747520071636904
2.33500e-06	-0.009739312092956174
2.33525e-06	-0.00973049800890543
2.33550e-06	-0.009721531421421547
2.33575e-06	-0.009712564833937681
2.33600e-06	-0.009703598246453797
2.33625e-06	-0.009694631658969914
2.33650e-06	-0.009683536652358457
2.33675e-06	-0.009671906109782144
2.33700e-06	-0.009660275567205832
2.33725e-06	-0.009648645024629539
2.33750e-06	-0.009637014482053225
2.33775e-06	-0.009621604224962835
2.33800e-06	-0.009605242946039903
2.33825e-06	-0.009588881667116998
2.33850e-06	-0.009572520388194065
2.33875e-06	-0.009556159109271132
2.33900e-06	-0.009539797830348227
2.33925e-06	-0.009523436551425294
2.33950e-06	-0.009507075272502361
2.33975e-06	-0.009490713993579428
2.34000e-06	-0.009473549877813812
2.34025e-06	-0.009454503252789416
2.34050e-06	-0.00943545662776502
2.34075e-06	-0.009416410002740657
2.34100e-06	-0.009397363377716262
2.34125e-06	-0.009378316752691865
2.34150e-06	-0.009359270127667503
2.34175e-06	-0.009340223502643106
2.34200e-06	-0.00932117687761871
2.34225e-06	-0.009302130252594316
2.34250e-06	-0.009284008234199174
2.34275e-06	-0.009266118858001627
2.34300e-06	-0.00924822948180408
2.34325e-06	-0.009230989818773036
2.34350e-06	-0.009215273617280322
2.34375e-06	-0.009199557415787608
2.34400e-06	-0.009183841214294892
2.34425e-06	-0.009169703103823165
2.34450e-06	-0.009155962060116431
2.34475e-06	-0.009142221016409696
2.34500e-06	-0.009124042913809981
2.34525e-06	-0.009104748393590814
2.34550e-06	-0.009085453873371646
2.34575e-06	-0.009059862296236234
2.34600e-06	-0.009032686303508954
2.34625e-06	-0.009005510310781674
2.34650e-06	-0.008969054193110995
2.34675e-06	-0.008930263083895926
2.34700e-06	-0.00889147197468079
2.34725e-06	-0.008852680865465654
2.34750e-06	-0.008813889756250585
2.34775e-06	-0.008770181396604173
2.34800e-06	-0.008714942961389966
2.34825e-06	-0.008659704526175758
2.34850e-06	-0.008604466090961644
2.34875e-06	-0.008549227655747437
2.34900e-06	-0.00849398922053323
2.34925e-06	-0.00842874118686963
2.34950e-06	-0.008360974617314823
2.34975e-06	-0.008293208047760018
2.35000e-06	-0.008225441478205326
2.35025e-06	-0.008157674908650521
2.35050e-06	-0.008085367999341736
2.35075e-06	-0.008011918685701142
2.35100e-06	-0.00793846937206067
2.35125e-06	-0.007865020058420076
2.35150e-06	-0.007791570744779482
2.35175e-06	-0.007717734016295376
2.35200e-06	-0.007643799809556308
2.35225e-06	-0.0075710098401663255
2.35250e-06	-0.007499701680635155
2.35275e-06	-0.007430067527944089
2.35300e-06	-0.007362270536325597
2.35325e-06	-0.007296607512141572
2.35350e-06	-0.007233511021188167
2.35375e-06	-0.007174849153458216
2.35400e-06	-0.007117168621121981
2.35425e-06	-0.007065871337102587
2.35450e-06	-0.007016180155472691
2.35475e-06	-0.006972762653666836
2.35500e-06	-0.006930923685494167
2.35525e-06	-0.0068943853024336765
2.35550e-06	-0.00685918061062128
2.35575e-06	-0.006831275338308219
2.35600e-06	-0.006805206688122201
2.35625e-06	-0.006779138037936139
2.35650e-06	-0.00676228541876094
2.35675e-06	-0.006747751664322778
2.35700e-06	-0.006733217909884641
2.35725e-06	-0.006730047716512619
2.35750e-06	-0.006729736732382911
2.35775e-06	-0.006729425748253205
2.35800e-06	-0.0067291147641234976
2.35825e-06	-0.00672880377999379
2.35850e-06	-0.006728492795864084
2.35875e-06	-0.0067407784058946705
2.35900e-06	-0.006756233471189779
2.35925e-06	-0.006771688536484888
2.35950e-06	-0.006787143601779971
2.35975e-06	-0.00680259866707508
2.36000e-06	-0.006818053732370189
2.36025e-06	-0.0068415366609009464
2.36050e-06	-0.006867039496802833
2.36075e-06	-0.006892542332704721
2.36100e-06	-0.006918045168606608
2.36125e-06	-0.0069435480045084525
2.36150e-06	-0.0069690508404103395
2.36175e-06	-0.006995196844676084
2.36200e-06	-0.007022850964085081
2.36225e-06	-0.007050505083494125
2.36250e-06	-0.007078159202903169
2.36275e-06	-0.007105813322312166
2.36300e-06	-0.00713346744172121
2.36325e-06	-0.007161121561130255
2.36350e-06	-0.007181734852563963
2.36375e-06	-0.007200576586621912
2.36400e-06	-0.0072194183206798915
2.36425e-06	-0.007238260054737872
2.36450e-06	-0.0072571017887958205
2.36475e-06	-0.0072759435228538
2.36500e-06	-0.007294785256911781
2.36525e-06	-0.007313626990969761
2.36550e-06	-0.00733246872502771
2.36575e-06	-0.0073479932323310335
2.36600e-06	-0.007355739434319931
2.36625e-06	-0.007363485636308814
2.36650e-06	-0.007371231838297711
2.36675e-06	-0.007378978040286609
2.36700e-06	-0.007386724242275493
2.36725e-06	-0.00739447044426439
2.36750e-06	-0.007402216646253287
2.36775e-06	-0.007409962848242184
2.36800e-06	-0.007417709050231068
2.36825e-06	-0.007419386228834551
2.36850e-06	-0.0074195363678369744
2.36875e-06	-0.007419686506839398
2.36900e-06	-0.007419836645841821
2.36925e-06	-0.007419986784844245
2.36950e-06	-0.007420136923846668
2.36975e-06	-0.007420287062849092
2.37000e-06	-0.007420437201851516
2.37025e-06	-0.007420587340853939
2.37050e-06	-0.007419597059969367
2.37075e-06	-0.007415932697774076
2.37100e-06	-0.007412268335578783
2.37125e-06	-0.007408603973383498
2.37150e-06	-0.007404939611188205
2.37175e-06	-0.007401275248992914
2.37200e-06	-0.007397610886797621
2.37225e-06	-0.007393946524602336
2.37250e-06	-0.007390282162407044
2.37275e-06	-0.007386617800211752
2.37300e-06	-0.0073824969923789365
2.37325e-06	-0.007378261337309584
2.37350e-06	-0.007374025682240231
2.37375e-06	-0.007369790027170878
2.37400e-06	-0.007366446081048473
2.37425e-06	-0.007363326499669476
2.37450e-06	-0.007360206918290478
2.37475e-06	-0.007357087336911486
2.37500e-06	-0.007359042103719932
2.37525e-06	-0.00736227363783342
2.37550e-06	-0.0073655051719469025
2.37575e-06	-0.007374678207946838
2.37600e-06	-0.007385346197598206
2.37625e-06	-0.007396014187249575
2.37650e-06	-0.007416694326445433
2.37675e-06	-0.007439893643419305
2.37700e-06	-0.007463092960393178
2.37725e-06	-0.007486292277367012
2.37750e-06	-0.007509491594340884
2.37775e-06	-0.007532690911314757
2.37800e-06	-0.00756088318441329
2.37825e-06	-0.00760078304943529
2.37850e-06	-0.007640682914457356
2.37875e-06	-0.007680582779479424
2.37900e-06	-0.0077204826445014234
2.37925e-06	-0.007760382509523491
2.37950e-06	-0.007800282374545558
2.37975e-06	-0.007849136711805716
2.38000e-06	-0.007900244102456397
2.38025e-06	-0.007951351493107078
2.38050e-06	-0.00800245888375776
2.38075e-06	-0.008053566274408354
2.38100e-06	-0.008104673665059035
2.38125e-06	-0.008155781055709715
2.38150e-06	-0.008207612879324392
2.38175e-06	-0.008259626979024503
2.38200e-06	-0.008311641078724613
2.38225e-06	-0.008363655178424724
2.38250e-06	-0.008415669278124746
2.38275e-06	-0.008467683377824857
2.38300e-06	-0.008519697477524967
2.38325e-06	-0.008562349200044042
2.38350e-06	-0.008602645235361311
2.38375e-06	-0.00864294127067858
2.38400e-06	-0.00868323730599578
2.38425e-06	-0.00872353334131305
2.38450e-06	-0.008763829376630318
2.38475e-06	-0.00879916974498104
2.38500e-06	-0.008822889957834874
2.38525e-06	-0.00884661017068875
2.38550e-06	-0.008870330383542626
2.38575e-06	-0.00889405059639646
2.38600e-06	-0.008917770809250335
2.38625e-06	-0.00894149102210421
2.38650e-06	-0.008950565380387562
2.38675e-06	-0.008955954664730082
2.38700e-06	-0.008961343949072612
2.38725e-06	-0.00896673323341514
2.38750e-06	-0.008972122517757662
2.38775e-06	-0.00897751180210019
2.38800e-06	-0.008982901086442719
2.38825e-06	-0.00898829037078524
2.38850e-06	-0.008993679655127769
2.38875e-06	-0.008999068939470299
2.38900e-06	-0.008992549002972491
2.38925e-06	-0.008983032562640568
2.38950e-06	-0.00897351612230863
2.38975e-06	-0.008963999681976689
2.39000e-06	-0.008954483241644766
2.39025e-06	-0.008944966801312827
2.39050e-06	-0.008935450360980889
2.39075e-06	-0.008925933920648966
2.39100e-06	-0.008916417480317027
2.39125e-06	-0.008906901039985086
2.39150e-06	-0.008893463647426275
2.39175e-06	-0.008879039695919685
2.39200e-06	-0.00886461574441307
2.39225e-06	-0.008850191792906456
2.39250e-06	-0.008835767841399866
2.39275e-06	-0.008821717427301283
2.39300e-06	-0.008807760999727125
2.39325e-06	-0.008793804572152968
2.39350e-06	-0.008779848144578833
2.39375e-06	-0.008765891717004676
2.39400e-06	-0.008753603260454108
2.39425e-06	-0.00874173448556323
2.39450e-06	-0.008730013042159958
2.39475e-06	-0.008718328669138832
2.39500e-06	-0.008700660752670647
2.39525e-06	-0.00868148730438618
2.39550e-06	-0.008662313856101712
2.39575e-06	-0.00863538342979685
2.39600e-06	-0.008606501254112924
2.39625e-06	-0.008577619078428949
2.39650e-06	-0.008541321217867655
2.39675e-06	-0.008503157481405128
2.39700e-06	-0.008464993744942535
