Time(s)	Current(A)
4.00000e-06	0.001040043150816307
4.00025e-06	0.0010467139427825266
4.00050e-06	0.0010533847347487463
4.00075e-06	0.0010641962805379944
4.00100e-06	0.0010754838325321195
4.00125e-06	0.0010867713845262444
4.00150e-06	0.0011027758944207899
4.00175e-06	0.0011193226488738304
4.00200e-06	0.0011358694033268707
4.00225e-06	0.0011524161577799671
4.00250e-06	0.0011689629122330074
4.00275e-06	0.001185509666686048
4.00300e-06	0.001203248099312325
4.00325e-06	0.0012227973481956874
4.00350e-06	0.00124234659707905
4.00375e-06	0.0012618958459624785
4.00400e-06	0.0012814450948458412
4.00425e-06	0.0013009943437292699
4.00450e-06	0.0013205435926126323
4.00475e-06	0.0013376350141071412
4.00500e-06	0.0013544438925823775
4.00525e-06	0.0013712527710575567
4.00550e-06	0.0013880616495327359
4.00575e-06	0.001404870528007972
4.00600e-06	0.0014216794064831515
4.00625e-06	0.0014357791823345375
4.00650e-06	0.0014495675294670881
4.00675e-06	0.0014633558765995921
4.00700e-06	0.0014771442237320961
4.00725e-06	0.001490932570864647
4.00750e-06	0.001504720917997151
4.00775e-06	0.0015217480868761962
4.00800e-06	0.0015391475790841698
4.00825e-06	0.0015565470712920844
4.00850e-06	0.001573946563500058
4.00875e-06	0.0015913460557079725
4.00900e-06	0.001608745547915887
4.00925e-06	0.0016261450401238607
4.00950e-06	0.0016435445323317753
4.00975e-06	0.0016609440245396899
4.01000e-06	0.0016783435167476634
4.01025e-06	0.001695743008955578
4.01050e-06	0.0017131425011634926
4.01075e-06	0.0017353700768987241
4.01100e-06	0.001758152671795577
4.01125e-06	0.00178093526669243
4.01150e-06	0.0018037178615893602
4.01175e-06	0.0018265004564862132
4.01200e-06	0.0018492830513830662
4.01225e-06	0.0018720656462799963
4.01250e-06	0.0018948482411768493
4.01275e-06	0.0019176308360737795
4.01300e-06	0.0019404134309706324
4.01325e-06	0.001963196025867485
4.01350e-06	0.0019859786207644154
4.01375e-06	0.0020075926763578607
4.01400e-06	0.0020290724008651074
4.01425e-06	0.0020505521253724266
4.01450e-06	0.0020720318498796734
4.01475e-06	0.00209351157438692
4.01500e-06	0.0021149912988942397
4.01525e-06	0.0021364710234014865
4.01550e-06	0.002150887723516968
4.01575e-06	0.0021644924836869968
4.01600e-06	0.0021780972438569797
4.01625e-06	0.0021917020040269626
4.01650e-06	0.0022053067641969915
4.01675e-06	0.0022189115243669744
4.01700e-06	0.0022325162845370037
4.01725e-06	0.0022275422904336987
4.01750e-06	0.0022204325493905964
4.01775e-06	0.0022133228083474703
4.01800e-06	0.002206213067304368
4.01825e-06	0.0021991033262612663
4.01850e-06	0.0021919935852181397
4.01875e-06	0.002184883844175038
4.01900e-06	0.0021777741031319357
4.01925e-06	0.0021706643620888096
4.01950e-06	0.002153959935601162
4.01975e-06	0.0021226758912514924
4.02000e-06	0.002091391846901717
4.02025e-06	0.002060107802552047
4.02050e-06	0.0020288237582023775
4.02075e-06	0.0019975397138526016
4.02100e-06	0.001966255669502932
4.02125e-06	0.0019349716251532622
4.02150e-06	0.0019036875808034865
4.02175e-06	0.0018724035364538168
4.02200e-06	0.0018303371040559197
4.02225e-06	0.0017870311670103555
4.02250e-06	0.0017437252299647911
4.02275e-06	0.0017004192929190802
4.02300e-06	0.001657113355873516
4.02325e-06	0.0016138074188279516
4.02350e-06	0.0015700068800441503
4.02375e-06	0.0015261494836190917
4.02400e-06	0.0014822920871940333
4.02425e-06	0.0014384346907688262
4.02450e-06	0.0013945772943437678
4.02475e-06	0.0013507198979187094
4.02500e-06	0.0013113798535935193
4.02525e-06	0.0012725591078596422
4.02550e-06	0.0012337383621257652
4.02575e-06	0.0012008474078019228
4.02600e-06	0.001168638121025241
4.02625e-06	0.0011364288342484501
4.02650e-06	0.001111300242426776
4.02675e-06	0.0010869856218946807
4.02700e-06	0.0010626710013625028
4.02725e-06	0.00104406262520214
4.02750e-06	0.0010261102184232083
4.02775e-06	0.0010130722964677274
4.02800e-06	0.001000599326056546
4.02825e-06	0.000993245958711329
4.02850e-06	0.000986481122567604
4.02875e-06	0.0009843913535177566
4.02900e-06	0.0009828390134088553
4.02925e-06	0.000986696890996392
4.02950e-06	0.0009911767078007215
4.02975e-06	0.000995656524605051
4.03000e-06	0.001006356643037695
4.03025e-06	0.0010177718250296498
4.03050e-06	0.001029187007021643
4.03075e-06	0.0010458015457833114
4.03100e-06	0.0010630137839460674
4.03125e-06	0.0010802260221088817
4.03150e-06	0.0011030853201909165
4.03175e-06	0.001126593784021914
4.03200e-06	0.0011501022478529912
4.03225e-06	0.0011736107116839887
4.03250e-06	0.0011971191755149862
4.03275e-06	0.0012206276393460635
4.03300e-06	0.0012474843491633387
4.03325e-06	0.0012747259613270214
4.03350e-06	0.0013019675734907967
4.03375e-06	0.0013292091856544795
4.03400e-06	0.0013564507978181622
4.03425e-06	0.0013836924099819372
4.03450e-06	0.0014047054538360965
4.03475e-06	0.00142500248382314
4.03500e-06	0.0014452995138101148
4.03525e-06	0.0014655965437970898
4.03550e-06	0.0014858935737841333
4.03575e-06	0.0015061906037711081
4.03600e-06	0.0015264876337580829
4.03625e-06	0.0015467846637451266
4.03650e-06	0.0015670816937321014
4.03675e-06	0.0015873787237190762
4.03700e-06	0.00160767575370612
4.03725e-06	0.0016279727836930947
4.03750e-06	0.001642561974421944
4.03775e-06	0.0016484778099217284
4.03800e-06	0.0016543936454214926
4.03825e-06	0.0016603094809212568
4.03850e-06	0.0016662253164210412
4.03875e-06	0.0016721411519208054
4.03900e-06	0.0016780569874205898
4.03925e-06	0.0016839728229203542
4.03950e-06	0.0016898886584201184
4.03975e-06	0.0016958044939199028
4.04000e-06	0.001701720329419667
4.04025e-06	0.0017076361649194314
4.04050e-06	0.0017135520004192156
4.04075e-06	0.001711772174351998
4.04100e-06	0.0017091076826403697
4.04125e-06	0.0017064431909287322
4.04150e-06	0.0017037786992171041
4.04175e-06	0.0017011142075054758
4.04200e-06	0.0016984497157938384
4.04225e-06	0.00169578522408221
4.04250e-06	0.0016931207323705817
4.04275e-06	0.0016904562406589445
4.04300e-06	0.0016877917489473162
4.04325e-06	0.0016841994916325415
4.04350e-06	0.0016791974467816706
4.04375e-06	0.0016741954019307997
4.04400e-06	0.0016691933570799119
4.04425e-06	0.001664191312229041
4.04450e-06	0.0016591892673781703
4.04475e-06	0.0016541872225272823
4.04500e-06	0.0016491851776764116
4.04525e-06	0.0016441831328255407
4.04550e-06	0.001639181087974653
4.04575e-06	0.001634179043123782
4.04600e-06	0.001628230983760276
4.04625e-06	0.0016221741739623724
4.04650e-06	0.0016161173641644894
4.04675e-06	0.0016100605543666064
4.04700e-06	0.0016040037445687028
4.04725e-06	0.0015979469347708196
4.04750e-06	0.0015918901249729162
4.04775e-06	0.001585833315175033
4.04800e-06	0.00157977650537715
4.04825e-06	0.0015737196955792464
4.04850e-06	0.0015676628857813635
4.04875e-06	0.0015616060759834805
4.04900e-06	0.0015555492661855769
4.04925e-06	0.0015494924563876939
4.04950e-06	0.001543435646589811
4.04975e-06	0.001532179104136872
4.05000e-06	0.001520324819073029
4.05025e-06	0.0015084705340091859
4.05050e-06	0.0014966162489453028
4.05075e-06	0.00148476196388146
4.05100e-06	0.001472907678817617
4.05125e-06	0.001461053393753734
4.05150e-06	0.001449199108689891
4.05175e-06	0.0014373448236260078
4.05200e-06	0.0014254905385621649
4.05225e-06	0.001413636253498322
4.05250e-06	0.001401781968434439
4.05275e-06	0.001389927683370596
4.05300e-06	0.001378073398306753
4.05325e-06	0.00136621911324287
4.05350e-06	0.0013540363347618654
4.05375e-06	0.0013418157938561678
4.05400e-06	0.0013295952529504289
4.05425e-06	0.0013173747120447314
4.05450e-06	0.0013051541711390337
4.05475e-06	0.0012929336302332948
4.05500e-06	0.0012807130893275971
4.05525e-06	0.0012684925484218997
4.05550e-06	0.0012574699126729053
4.05575e-06	0.0012482675554008886
4.05600e-06	0.0012390651981288407
4.05625e-06	0.001229862840856824
4.05650e-06	0.0012206604835848073
4.05675e-06	0.0012114581263127594
4.05700e-06	0.0012022557690407427
4.05725e-06	0.0011930534117687258
4.05750e-06	0.001183851054496678
4.05775e-06	0.0011732765719320384
4.05800e-06	0.0011625443547666008
4.05825e-06	0.001151812137601127
4.05850e-06	0.0011410799204356896
4.05875e-06	0.0011303477032702522
4.05900e-06	0.0011196154861047784
4.05925e-06	0.001108883268939341
4.05950e-06	0.0010981510517739034
4.05975e-06	0.0010874188346084296
4.06000e-06	0.0010766866174429922
4.06025e-06	0.0010659544002775184
4.06050e-06	0.0010540048076622538
4.06075e-06	0.001040205350458817
4.06100e-06	0.0010264058932553334
4.06125e-06	0.0010126064360518965
4.06150e-06	0.0009988069788484596
4.06175e-06	0.000985007521644976
4.06200e-06	0.000971208064441539
4.06225e-06	0.0009574086072381021
4.06250e-06	0.0009436091500346184
4.06275e-06	0.0009298096928311815
4.06300e-06	0.0009160102356277446
4.06325e-06	0.000902210778424261
4.06350e-06	0.0008886242461848942
4.06375e-06	0.0008750621910354681
4.06400e-06	0.000861500135885996
4.06425e-06	0.00084793808073657
4.06450e-06	0.0008343760255870979
4.06475e-06	0.0008208139704376719
4.06500e-06	0.0008097704478039933
4.06525e-06	0.0007990164466323184
4.06550e-06	0.0007882624454606798
4.06575e-06	0.0007775084442890412
4.06600e-06	0.0007667544431173663
4.06625e-06	0.0007560004419457277
4.06650e-06	0.000748914415060729
4.06675e-06	0.0007422500453397408
4.06700e-06	0.0007391245787249257
4.06725e-06	0.0007364059317143013
4.06750e-06	0.0007371986490282288
4.06775e-06	0.0007383950201868138
4.06800e-06	0.0007429681419289884
4.06825e-06	0.0007479294428031342
4.06850e-06	0.0007565627204408915
4.06875e-06	0.0007656181153530608
4.06900e-06	0.0007786972525462641
4.06925e-06	0.0007922389447156473
4.06950e-06	0.0008102558324626719
4.06975e-06	0.0008287871726370489
4.07000e-06	0.0008473185128114258
4.07025e-06	0.0008705360052016982
4.07050e-06	0.0008942922008375435
4.07075e-06	0.0009180483964733887
4.07100e-06	0.0009461014077306572
4.07125e-06	0.0009746483654954317
4.07150e-06	0.0010031953232602063
4.07175e-06	0.0010357485516242254
4.07200e-06	0.0010687623264823921
4.07225e-06	0.0011017761013405588
4.07250e-06	0.0011347898761988376
4.07275e-06	0.0011678036510570043
4.07300e-06	0.001200817425915283
4.07325e-06	0.0012349752130973773
4.07350e-06	0.0012692645118316946
4.07375e-06	0.001303553810566128
4.07400e-06	0.0013378431093004452
4.07425e-06	0.0013721324080347625
4.07450e-06	0.0014064217067691958
4.07475e-06	0.0014356885756157192
4.07500e-06	0.0014643780839420709
4.07525e-06	0.0014930675922685196
4.07550e-06	0.0015217571005948713
4.07575e-06	0.001550446608921223
4.07600e-06	0.0015791361172476717
4.07625e-06	0.0016016002947449022
4.07650e-06	0.0016233488305456274
4.07675e-06	0.0016450973663464264
4.07700e-06	0.0016668459021471516
4.07725e-06	0.0016885944379479503
4.07750e-06	0.0017103429737486756
4.07775e-06	0.0017310894260523994
4.07800e-06	0.0017517206824327208
4.07825e-06	0.0017723519388129724
4.07850e-06	0.0017929831951932237
4.07875e-06	0.0018136144515735451
4.07900e-06	0.0018342457079537967
4.07925e-06	0.001854876964334048
4.07950e-06	0.0018755082207143694
4.07975e-06	0.001896139477094621
4.08000e-06	0.0019167707334748724
4.08025e-06	0.001937401989855194
4.08050e-06	0.0019580332462354453
4.08075e-06	0.0019786645026156967
4.08100e-06	0.0019992957589960183
4.08125e-06	0.0020203845357815017
4.08150e-06	0.00204152590747131
4.08175e-06	0.002062667279161047
4.08200e-06	0.002083808650850784
4.08225e-06	0.0021049500225405926
4.08250e-06	0.0021260913942303295
4.08275e-06	0.0021472327659200663
4.08300e-06	0.0021683741376098747
4.08325e-06	0.0021895155092996115
4.08350e-06	0.0022106568809893484
4.08375e-06	0.002231798252679157
4.08400e-06	0.0022529396243688936
4.08425e-06	0.0022740809960586305
4.08450e-06	0.002295222367748439
4.08475e-06	0.0023121762088392614
4.08500e-06	0.0023286486664369143
4.08525e-06	0.002345121124034623
4.08550e-06	0.002361593581632276
4.08575e-06	0.002378066039229985
4.08600e-06	0.0023945384968276384
4.08625e-06	0.002406521080198154
4.08650e-06	0.002417987523736859
4.08675e-06	0.0024294539672755247
4.08700e-06	0.0024409204108141905
4.08725e-06	0.0024523868543528953
4.08750e-06	0.002463853297891561
4.08775e-06	0.002473534497495089
4.08800e-06	0.0024793402865948637
4.08825e-06	0.0024847241643647607
4.08850e-06	0.0024901080421346577
4.08875e-06	0.0024954919199045725
4.08900e-06	0.0025008757976744695
4.08925e-06	0.0025062596754443665
4.08950e-06	0.0025116435532142813
4.08975e-06	0.0025170274309841783
4.09000e-06	0.0025224113087540935
4.09025e-06	0.0025277951865239905
4.09050e-06	0.002533179064293887
4.09075e-06	0.0025385629420638023
4.09100e-06	0.0025439468198336992
4.09125e-06	0.002549330697603596
4.09150e-06	0.002554714575373511
4.09175e-06	0.002560098453143408
4.09200e-06	0.0025654823309133046
4.09225e-06	0.00257086620868322
4.09250e-06	0.0025762500864531168
4.09275e-06	0.002578307262918794
4.09300e-06	0.002579982013738602
4.09325e-06	0.0025816567645584043
4.09350e-06	0.0025833315153782066
4.09375e-06	0.0025850062661980145
4.09400e-06	0.002586681017017817
4.09425e-06	0.0025883557678376247
4.09450e-06	0.002590030518657427
4.09475e-06	0.0025917052694772293
4.09500e-06	0.0025933800202970372
4.09525e-06	0.0025950547711168395
4.09550e-06	0.002596729521936642
4.09575e-06	0.0025984042727564497
4.09600e-06	0.002600079023576252
4.09625e-06	0.0026017537743960543
4.09650e-06	0.002603428525215862
4.09675e-06	0.0026051032760356645
4.09700e-06	0.0026067780268554668
4.09725e-06	0.0026084527776752747
4.09750e-06	0.0026108666334632466
4.09775e-06	0.002613365454106461
4.09800e-06	0.0026158642747496842
4.09825e-06	0.0026183630953928987
4.09850e-06	0.002620861916036122
4.09875e-06	0.0026233607366793364
4.09900e-06	0.0026258595573225513
4.09925e-06	0.0026283583779657745
4.09950e-06	0.002630857198608989
4.09975e-06	0.0026333560192522035
4.10000e-06	0.0026358548398954266
4.10025e-06	0.002638353660538641
4.10050e-06	0.002640852481181856
4.10075e-06	0.0026433513018250788
4.10100e-06	0.0026458501224682937
4.10125e-06	0.002648348943111508
4.10150e-06	0.0026508477637547313
4.10175e-06	0.0026542255529032987
4.10200e-06	0.002657704385117493
4.10225e-06	0.0026611832173316988
4.10250e-06	0.002664662049545893
4.10275e-06	0.002668140881760099
4.10300e-06	0.002671619713974293
4.10325e-06	0.002675098546188487
4.10350e-06	0.0026785773784026934
4.10375e-06	0.0026820562106168876
4.10400e-06	0.0026855350428310817
4.10425e-06	0.0026890138750452876
4.10450e-06	0.0026924927072594818
4.10475e-06	0.002695971539473676
4.10500e-06	0.002699450371687882
4.10525e-06	0.002702929203902076
4.10550e-06	0.0027064080361162706
4.10575e-06	0.0027098868683304764
4.10600e-06	0.0027058937619295425
4.10625e-06	0.002701041708274999
4.10650e-06	0.002696189654620439
4.10675e-06	0.0026913376009658953
4.10700e-06	0.0026864855473113353
4.10725e-06	0.0026816334936567918
4.10750e-06	0.0026767814400022482
4.10775e-06	0.002671929386347688
4.10800e-06	0.0026575154869647425
4.10825e-06	0.002628571871382677
4.10850e-06	0.002599628255800514
4.10875e-06	0.0025706846402184487
4.10900e-06	0.002541741024636384
4.10925e-06	0.0025127974090542204
4.10950e-06	0.002483853793472155
4.10975e-06	0.00245491017789009
4.11000e-06	0.0024259665623079267
4.11025e-06	0.0023784679958941085
4.11050e-06	0.002328836418908975
4.11075e-06	0.002279204841923673
4.11100e-06	0.0022295732649385393
4.11125e-06	0.0021799416879532377
4.11150e-06	0.002130310110968104
4.11175e-06	0.0020765349816139283
4.11200e-06	0.002016463511397824
4.11225e-06	0.001956392041181923
4.11250e-06	0.0018963205709660218
4.11275e-06	0.0018362491007499174
4.11300e-06	0.0017761776305340164
4.11325e-06	0.0017161061603181153
4.11350e-06	0.0016556163303289059
4.11375e-06	0.001595078407201493
4.11400e-06	0.0015345404840740801
4.11425e-06	0.0014740025609464623
4.11450e-06	0.0014134646378190494
4.11475e-06	0.0013601999809973806
4.11500e-06	0.0013077714327729326
4.11525e-06	0.0012553428845486624
4.11550e-06	0.0012029143363242144
4.11575e-06	0.001150485788099944
4.11600e-06	0.0011074247378568527
4.11625e-06	0.001065440541570062
4.11650e-06	0.0010295868174102067
4.11675e-06	0.0009944378303293048
4.11700e-06	0.0009644729209996963
4.11725e-06	0.0009351039546475017
4.11750e-06	0.0009113092553429338
4.11775e-06	0.0008881553537770354
4.11800e-06	0.0008711106764060829
4.11825e-06	0.0008547682935280178
4.11850e-06	0.0008442588856260384
4.11875e-06	0.0008344200155980045
4.11900e-06	0.0008294968572420535
4.11925e-06	0.0008251387914617864
4.11950e-06	0.0008256165618354105
4.11975e-06	0.0008266502425817458
4.12000e-06	0.0008325303834479582
4.12025e-06	0.00083896765597987
4.12050e-06	0.0008497540721698607
4.12075e-06	0.0008610404503094906
4.12100e-06	0.0008765587778419293
4.12125e-06	0.0008925635950918577
4.12150e-06	0.000908568412341732
4.12175e-06	0.0009289502513717275
4.12200e-06	0.0009498352571203185
4.12225e-06	0.0009707202628688388
4.12250e-06	0.000995377043110634
4.12275e-06	0.0010204674130146324
4.12300e-06	0.001045557782918546
4.12325e-06	0.0010706481528224595
4.12350e-06	0.0010957385227264582
4.12375e-06	0.0011210896010081448
4.12400e-06	0.0011468368390739328
4.12425e-06	0.0011725840771396336
4.12450e-06	0.0011983313152053345
4.12475e-06	0.0012240785532711225
4.12500e-06	0.0012498257913368233
4.12525e-06	0.001272043932936514
4.12550e-06	0.0012938563822694725
4.12575e-06	0.0013156688316023574
4.12600e-06	0.0013363403946994186
4.12625e-06	0.0013529088425012425
4.12650e-06	0.0013694772903030104
4.12675e-06	0.0013860457381047783
4.12700e-06	0.0013983252579017468
4.12725e-06	0.0014127183763893976
4.12750e-06	-0.02763663330379006
4.12775e-06	-0.021324285502164718
4.12800e-06	-0.01505848153979273
4.12825e-06	-0.010070365303844746
4.12850e-06	0.007482388823761222
4.12875e-06	0.01083518020529525
4.12900e-06	0.007794478611516213
4.12925e-06	0.0030812535968650725
4.12950e-06	-0.0036534971670125352
4.12975e-06	-0.0071753769887794696
4.13000e-06	-0.005641585089727851
4.13025e-06	-0.0011931306244764377
4.13050e-06	0.004115633034079264
4.13075e-06	0.007128104081067895
4.13100e-06	0.006623360839307248
4.13125e-06	0.0034823995914704804
4.13150e-06	-0.000856107482073623
4.13175e-06	-0.003152347372014731
4.13200e-06	-0.0022602587635334754
4.13225e-06	0.00047298721578929357
4.13250e-06	0.00375622401599732
4.13275e-06	0.005609148953937099
4.13300e-06	0.005264934017253155
4.13325e-06	0.00327401068652882
4.13350e-06	0.0005365134431305712
4.13375e-06	-0.0009190047692879156
4.13400e-06	-0.00037540688818926693
4.13425e-06	0.0013228607376515604
4.13450e-06	0.0033666303545422725
4.13475e-06	0.004515242595404089
4.13500e-06	0.004288300033551297
4.13525e-06	0.0030305872806575145
4.13550e-06	0.001305934561351647
4.13575e-06	0.00038495261768345477
4.13600e-06	0.0007167247137856018
4.13625e-06	0.0017722425564217924
4.13650e-06	0.0030448366101407526
4.13675e-06	0.003757702455722404
4.13700e-06	0.0036101422604823048
4.13725e-06	0.0028181715395409956
4.13750e-06	0.0017349457308141775
4.13775e-06	0.001156296406593948
4.13800e-06	0.0013634029489797822
4.13825e-06	0.0020247731386823418
4.13850e-06	0.0028229382749317693
4.13875e-06	0.0032712546189860893
4.13900e-06	0.0031813420584338994
4.13925e-06	0.002688492255225228
4.13950e-06	0.0020138850975557443
4.13975e-06	0.0016559587963999732
4.14000e-06	0.0017907441562960726
4.14025e-06	0.0022104966702657203
4.14050e-06	0.002716274796426325
4.14075e-06	0.0030031890103443797
4.14100e-06	0.0029532013875847147
4.14125e-06	0.002651022916462834
4.14150e-06	0.0022351546303345147
4.14175e-06	0.002017751439784958
4.14200e-06	0.002108993615909315
4.14225e-06	0.0023786656218005046
4.14250e-06	0.002702078049179441
4.14275e-06	0.0028881903710906197
4.14300e-06	0.0028630173851066317
4.14325e-06	0.002679576932465227
4.14350e-06	0.0024245743442027575
4.14375e-06	0.0022934787487007844
4.14400e-06	0.002355230581021349
4.14425e-06	0.0025281873251418465
4.14450e-06	0.0027341750546696834
4.14475e-06	0.002853466751164346
4.14500e-06	0.0028396666842697895
4.14525e-06	0.002725933936070121
4.14550e-06	0.002566525664857512
4.14575e-06	0.0024838203293927447
4.14600e-06	0.0025209326381706526
4.14625e-06	0.0026266933692675187
4.14650e-06	0.002752233770359311
4.14675e-06	0.0028227549628819758
4.14700e-06	0.002809343594401945
4.14725e-06	0.002732832946547351
4.14750e-06	0.0026272452726879324
4.14775e-06	0.0025692690750099725
