Time(s)	Current(A)
1.05000e-05	0.0064749905518047286
1.05002e-05	0.006505216765662055
1.05005e-05	0.006535442979519587
1.05008e-05	0.006565669193377118
1.05010e-05	0.006581018417975576
1.05013e-05	0.00659579206780435
1.05015e-05	0.006610565717633125
1.05017e-05	0.0066253393674618
1.05020e-05	0.006640113017290574
1.05023e-05	0.006654886667119349
1.05025e-05	0.006669660316948023
1.05028e-05	0.0066844339667767975
1.05030e-05	0.006699207616605573
1.05033e-05	0.006713981266434347
1.05035e-05	0.006728754916263022
1.05038e-05	0.006743528566091796
1.05040e-05	0.00675830221592057
1.05043e-05	0.006773075865749246
1.05045e-05	0.00678784951557802
1.05048e-05	0.006802623165406795
1.05050e-05	0.006817396815235469
1.05053e-05	0.006828292484776764
1.05055e-05	0.006834685881205418
1.05058e-05	0.006841079277634028
1.05060e-05	0.006847472674062681
1.05063e-05	0.006853866070491334
1.05065e-05	0.006860259466919944
1.05068e-05	0.006866652863348597
1.05070e-05	0.00687304625977725
1.05073e-05	0.00687943965620586
1.05075e-05	0.006885833052634513
1.05078e-05	0.006892226449063166
1.05080e-05	0.006898619845491776
1.05083e-05	0.00690501324192043
1.05085e-05	0.006911406638349082
1.05087e-05	0.006917800034777692
1.05090e-05	0.006924193431206345
1.05093e-05	0.006930586827634999
1.05095e-05	0.0069369802240636085
1.05098e-05	0.006930583070546766
1.05100e-05	0.006923691064359883
1.05102e-05	0.006916799058173046
1.05105e-05	0.006909907051986163
1.05108e-05	0.006903015045799279
1.05110e-05	0.006896123039612442
1.05113e-05	0.006889231033425558
1.05115e-05	0.006882339027238675
1.05118e-05	0.006861397070482425
1.05120e-05	0.0068241433457427855
1.05123e-05	0.006786889621002894
1.05125e-05	0.0067496358962630025
1.05128e-05	0.0067123821715233635
1.05130e-05	0.006675128446783472
1.05133e-05	0.0066378747220435805
1.05135e-05	0.0066006209973039414
1.05138e-05	0.00656336727256405
1.05140e-05	0.006499649799579564
1.05143e-05	0.006434908472536161
1.05145e-05	0.006370167145492318
1.05148e-05	0.0063054258184484764
1.05150e-05	0.0062406844914050736
1.05153e-05	0.006175943164361232
1.05155e-05	0.00611120183731739
1.05158e-05	0.006046460510273986
1.05160e-05	0.0059768886262201275
1.05163e-05	0.005901708542706868
1.05165e-05	0.005826528459194118
1.05168e-05	0.005751348375680858
1.05170e-05	0.005676168292167598
1.05172e-05	0.005600988208654847
1.05175e-05	0.005525808125141587
1.05178e-05	0.005450628041628327
1.05180e-05	0.005375447958115577
1.05183e-05	0.005312363643371389
1.05185e-05	0.005249747300958815
1.05187e-05	0.0051871309585466655
1.05190e-05	0.005124514616134091
1.05193e-05	0.005061898273721517
1.05195e-05	0.004999281931309368
1.05198e-05	0.004936665588896794
1.05200e-05	0.004891815961607945
1.05203e-05	0.004847653709488336
1.05205e-05	0.0048034914573690255
1.05208e-05	0.004759329205249416
1.05210e-05	0.0047151669531298075
1.05213e-05	0.004671004701010497
1.05215e-05	0.004626842448890888
1.05218e-05	0.004594812547358172
1.05220e-05	0.004563252033468968
1.05223e-05	0.004531691519579551
1.05225e-05	0.004500131005690134
1.05228e-05	0.004468570491800931
1.05230e-05	0.004437009977911514
1.05233e-05	0.004405449464022097
1.05235e-05	0.0043738889501328945
1.05238e-05	0.0043423284362434774
1.05240e-05	0.00431076792235406
1.05243e-05	0.004279207408464857
1.05245e-05	0.00424764689457544
1.05248e-05	0.004216086380686023
1.05250e-05	0.00418452586679682
1.05253e-05	0.004152965352907403
1.05255e-05	0.004121404839017986
1.05257e-05	0.004098782409314271
1.05260e-05	0.004076505784509909
1.05263e-05	0.004054229159705546
1.05265e-05	0.004031952534901334
1.05268e-05	0.004009675910096972
1.05270e-05	0.003987399285292609
1.05272e-05	0.003965122660488397
1.05275e-05	0.003942846035684035
1.05278e-05	0.003920569410879672
1.05280e-05	0.0038982927860754606
1.05283e-05	0.003876016161271098
1.05285e-05	0.0038537395364667353
1.05288e-05	0.0038314629116623727
1.05290e-05	0.003809186286858161
1.05293e-05	0.0037869096620537983
1.05295e-05	0.0037646330372494356
1.05298e-05	0.0037571486813745693
1.05300e-05	0.003750236622534368
1.05303e-05	0.003743324563694166
1.05305e-05	0.0037364125048540116
1.05308e-05	0.00372950044601381
1.05310e-05	0.0037225883871736085
1.05313e-05	0.0037156763283334535
1.05315e-05	0.003708764269493252
1.05318e-05	0.0037018522106530504
1.05320e-05	0.0036949401518128954
1.05323e-05	0.003688028092972694
1.05325e-05	0.0036811160341324923
1.05328e-05	0.003674203975292338
1.05330e-05	0.003667291916452136
1.05333e-05	0.0036603798576119347
1.05335e-05	0.0036670456289927683
1.05338e-05	0.003674236712076325
1.05340e-05	0.0036814277951598817
1.05342e-05	0.0036886188782433893
1.05345e-05	0.003695809961326946
1.05348e-05	0.0037030010444105027
1.05350e-05	0.0037101921274940103
1.05353e-05	0.003717383210577567
1.05355e-05	0.0037245742936611237
1.05357e-05	0.0037317653767446318
1.05360e-05	0.0037389564598281884
1.05363e-05	0.003746147542911745
1.05365e-05	0.0037533386259952528
1.05368e-05	0.0037605297090788094
1.05370e-05	0.003767720792162366
1.05373e-05	0.0037779231867428585
1.05375e-05	0.003788242085738558
1.05378e-05	0.0037985609847343274
1.05380e-05	0.0038088798837300963
1.05383e-05	0.0032035590001904504
1.05385e-05	-0.0026651026151021115
1.05388e-05	-0.008168790056849421
1.05390e-05	-0.007726121906338229
1.05393e-05	-0.005710943054631829
1.05395e-05	-0.0013193580409377442
1.05398e-05	0.003524998676409543
1.05400e-05	0.004590803378790933
1.05403e-05	0.0034182054611450107
1.05405e-05	0.0006473734497589186
1.05408e-05	-0.003018694226924553
1.05410e-05	-0.0037451595290826146
1.05413e-05	-0.0017082601095341212
1.05415e-05	0.0007239347139454274
1.05418e-05	0.0035854897161593027
1.05420e-05	0.00537699465090995
1.05423e-05	0.004112327236274368
1.05425e-05	0.0030243696580837323
1.05427e-05	0.0012732605576540798
1.05430e-05	0.0003510560280056753
1.05433e-05	0.001010910523454039
1.05435e-05	0.0022677293285615963
1.05438e-05	0.003824327292893822
1.05440e-05	0.00474793293762712
1.05442e-05	0.004596198669313199
1.05445e-05	0.0038850553102627097
1.05448e-05	0.002756161340451914
1.05450e-05	0.0021840494633631395
1.05453e-05	0.0026034917934761414
1.05455e-05	0.0033972382789249204
1.05458e-05	0.004378988372628586
1.05460e-05	0.0049643540029967615
1.05463e-05	0.004876191661114503
1.05465e-05	0.004437626015197224
1.05468e-05	0.003737324263277696
1.05470e-05	0.003385636147520541
1.05473e-05	0.0036547693271474727
1.05475e-05	0.004157955344530629
1.05478e-05	0.0047783969813707675
1.05480e-05	0.005149960004936664
1.05483e-05	0.005098995191818027
1.05485e-05	0.0048278602640582
1.05488e-05	0.004392039160510344
1.05490e-05	0.00417377920247278
1.05493e-05	0.004343491754874148
1.05495e-05	0.004658810079822622
1.05498e-05	0.005046537455963349
1.05500e-05	0.005277820029837816
1.05503e-05	0.00524507993779663
1.05505e-05	0.005076053479907575
1.05508e-05	0.00480575455990252
1.05510e-05	0.00467355289448703
1.05512e-05	0.00478606872012933
1.05515e-05	0.004991361925740792
1.05518e-05	0.005243468580215716
1.05520e-05	0.005398930662371619
1.05523e-05	0.005390267808140748
1.05525e-05	0.005297398368892888
1.05527e-05	0.005142156647008472
1.05530e-05	0.00507437655650828
1.05533e-05	0.005160728114316651
1.05535e-05	0.0053059221028338
1.05538e-05	0.005481057112403198
1.05540e-05	0.0055961675630176394
1.05543e-05	0.00560888637296983
1.05545e-05	0.005569176697511127
1.05548e-05	0.005490615041804804
1.05550e-05	0.005466951638771259
1.05553e-05	0.005539837486741261
1.05555e-05	0.005649471913283236
1.05558e-05	0.0057776445409570484
1.05560e-05	0.00586789776865454
1.05563e-05	0.005893592531911037
1.05565e-05	0.0058859265977587935
1.05568e-05	0.005853302337348361
1.05570e-05	0.005854339454774202
1.05573e-05	0.005915019727052484
1.05575e-05	0.00599777668339715
1.05578e-05	0.006091097195945276
1.05580e-05	0.006159512006695878
1.05583e-05	0.006186233994381346
1.05585e-05	0.0061907041520240244
1.05588e-05	0.006178082710218629
1.05590e-05	0.006184984638081274
1.05593e-05	0.0062275784787012185
1.05595e-05	0.006282225499633331
1.05597e-05	0.006341633892394955
1.05600e-05	0.00638379471780726
1.05603e-05	0.006398813287906978
1.05605e-05	0.006399424944624409
1.05608e-05	0.006389063289455016
1.05610e-05	0.006390700489731992
1.05612e-05	0.0064144760500901244
1.05615e-05	0.006445596320355899
1.05618e-05	0.006479506925510821
1.05620e-05	0.0065024361031806735
1.05623e-05	0.006508201930696383
1.05625e-05	0.006504796700332815
1.05628e-05	0.006494386760566451
1.05630e-05	0.00649137551492894
1.05633e-05	0.006502127482105018
1.05635e-05	0.006517389771127306
1.05638e-05	0.006534323259224499
1.05640e-05	0.006544315899815702
1.05643e-05	0.006543510468904729
1.05645e-05	0.006536928361060421
1.05648e-05	0.006528832294992712
1.05650e-05	0.006520564013175248
1.05653e-05	0.006521860672954278
1.05655e-05	0.006526044752613709
1.05658e-05	0.006530109820431486
1.05660e-05	0.006534174888249235
1.05663e-05	0.006530331323579259
1.05665e-05	0.006521880352816082
1.05668e-05	0.00651277605376754
1.05670e-05	0.006503671754718937
1.05673e-05	0.006500868654314634
1.05675e-05	0.006500199266214131
1.05678e-05	0.006496559879564149
1.05680e-05	0.006491914791807917
1.05682e-05	0.006487269704051716
1.05685e-05	0.006482624616295484
1.05688e-05	0.006477379545522853
1.05690e-05	0.00647193130846137
1.05693e-05	0.006466483071399852
1.05695e-05	0.006461034834338333
1.05697e-05	0.006457413306480192
1.05700e-05	0.006454410339013857
1.05703e-05	0.00645140737154752
1.05705e-05	0.006448404404081206
1.05708e-05	0.006445401436614869
1.05710e-05	0.006442398469148534
1.05713e-05	0.006439395501682197
1.05715e-05	0.006436392534215882
1.05718e-05	0.006434635068431281
1.05720e-05	0.006436673843114482
1.05723e-05	0.00643871261779767
1.05725e-05	0.006440751392480871
1.05728e-05	0.006442790167164073
1.05730e-05	0.0064448289418472604
1.05733e-05	0.006446867716530462
1.05735e-05	0.006448906491213663
1.05738e-05	0.006450945265896851
1.05740e-05	0.00645677736607155
1.05743e-05	0.006463893962376152
1.05745e-05	0.006471010558680704
1.05748e-05	0.006478127154985306
1.05750e-05	0.006485243751289907
1.05753e-05	0.00649236034759446
1.05755e-05	0.006499476943899061
1.05758e-05	0.006506593540203663
1.05760e-05	0.006513710136508216
1.05763e-05	0.006520826732812817
1.05765e-05	0.006527943329117418
1.05767e-05	0.006535059925421971
1.05770e-05	0.006542176521726573
1.05773e-05	0.006549293118031174
1.05775e-05	0.006556409714335727
1.05778e-05	0.006562725029145898
1.05780e-05	0.006566598069264424
1.05782e-05	0.006570471109382925
1.05785e-05	0.006574344149501451
1.05788e-05	0.0065782171896199785
1.05790e-05	0.006582090229738479
1.05793e-05	0.006585963269857006
1.05795e-05	0.006589836309975533
1.05798e-05	0.006593709350094059
1.05800e-05	0.00659758239021256
1.05803e-05	0.006601455430331087
1.05805e-05	0.006605328470449614
1.05808e-05	0.006609201510568114
1.05810e-05	0.006613074550686641
1.05813e-05	0.006616947590805168
1.05815e-05	0.006620820630923669
1.05818e-05	0.006614396902535432
1.05820e-05	0.0066044864817103475
1.05823e-05	0.006594576060885331
1.05825e-05	0.006584665640060247
1.05828e-05	0.006574755219235163
1.05830e-05	0.0065648447984101455
1.05833e-05	0.006554934377585061
1.05835e-05	0.006545023956759977
1.05838e-05	0.006535113535934961
1.05840e-05	0.006525203115109877
1.05843e-05	0.006515292694284793
1.05845e-05	0.006505382273459776
1.05848e-05	0.006495471852634692
1.05850e-05	0.006485561431809608
1.05853e-05	0.006475651010984591
1.05855e-05	0.006460680568151736
1.05858e-05	0.006443996700329638
1.05860e-05	0.006427312832507652
1.05863e-05	0.0064106289646855535
1.05865e-05	0.0063939450968634555
1.05867e-05	0.00637726122904147
1.05870e-05	0.006360577361219372
1.05873e-05	0.006343893493397273
1.05875e-05	0.006327209625575288
1.05878e-05	0.00631052575775319
1.05880e-05	0.006293841889931092
1.05883e-05	0.006277158022108993
1.05885e-05	0.006260474154287008
1.05888e-05	0.00624379028646491
1.05890e-05	0.006227106418642811
1.05893e-05	0.006218284813082103
1.05895e-05	0.006212125527292164
1.05898e-05	0.006205966241502224
1.05900e-05	0.0061998069557123265
1.05903e-05	0.006193647669922387
1.05905e-05	0.006187488384132448
1.05908e-05	0.0061813290983425495
1.05910e-05	0.006175169812552611
1.05913e-05	0.006169010526762671
1.05915e-05	0.006162851240972773
1.05918e-05	0.006156691955182834
1.05920e-05	0.006150532669392894
1.05923e-05	0.0061443733836029964
1.05925e-05	0.006138214097813057
1.05928e-05	0.006136521684213867
1.05930e-05	0.006148444122553732
1.05933e-05	0.006160366560893678
1.05935e-05	0.006172288999233624
1.05938e-05	0.00618421143757349
1.05940e-05	0.006196133875913436
1.05943e-05	0.006208056314253382
1.05945e-05	0.0062199787525932465
1.05948e-05	0.006231901190933193
1.05950e-05	0.006243823629273139
1.05952e-05	0.006255746067613004
1.05955e-05	0.00626766850595295
1.05958e-05	0.006279590944292896
1.05960e-05	0.006291513382632761
1.05963e-05	0.006303435820972707
1.05965e-05	0.006319897023526964
1.05968e-05	0.00633789514272228
1.05970e-05	0.006355893261917473
1.05973e-05	0.006373891381112789
1.05975e-05	0.006391889500308105
1.05978e-05	0.006409887619503299
1.05980e-05	0.006427885738698615
1.05983e-05	0.006445883857893931
1.05985e-05	0.006463881977089124
1.05988e-05	0.006475249023421158
1.05990e-05	0.0064843706554176634
1.05993e-05	0.006493492287414108
1.05995e-05	0.006502613919410614
1.05998e-05	0.00651173555140712
1.06000e-05	0.006520857183403565
1.06003e-05	0.00652997881540007
1.06005e-05	0.006539100447396576
1.06008e-05	0.00654822207939302
1.06010e-05	0.006531769130493088
1.06013e-05	0.006506656115302519
1.06015e-05	0.00648154310011212
1.06018e-05	0.006456430084921551
1.06020e-05	0.006431317069730982
1.06023e-05	0.006406204054540583
1.06025e-05	0.006381091039350014
1.06028e-05	0.006355978024159445
1.06030e-05	0.006330865008969046
1.06033e-05	0.006296315093152041
1.06035e-05	0.006233001872867509
1.06037e-05	0.006169688652583406
1.06040e-05	0.006106375432298874
1.06043e-05	0.006043062212014341
1.06045e-05	0.005979748991730238
1.06048e-05	0.005916435771445706
1.06050e-05	0.005853122551161174
1.06053e-05	0.005789809330876642
1.06055e-05	0.005726496110592538
1.06058e-05	0.005649751006810512
1.06060e-05	0.005568457597741132
1.06063e-05	0.0054871641886723044
1.06065e-05	0.005405870779602925
1.06068e-05	0.005324577370533546
1.06070e-05	0.005243283961464717
1.06073e-05	0.005161990552395339
1.06075e-05	0.005082352542230666
1.06078e-05	0.005007760123262494
1.06080e-05	0.004933167704293816
1.06083e-05	0.004858575285325139
1.06085e-05	0.004783982866356966
1.06088e-05	0.004709390447388289
1.06090e-05	0.004634798028419611
1.06093e-05	0.004560205609451439
1.06095e-05	0.004511078871403041
1.06098e-05	0.004470575323930864
1.06100e-05	0.004430071776458961
1.06103e-05	0.004389568228986784
1.06105e-05	0.0043490646815146075
1.06108e-05	0.004308561134042706
1.06110e-05	0.004268057586570529
1.06113e-05	0.004227554039098352
1.06115e-05	0.004199239761707267
1.06118e-05	0.00420807790337302
1.06120e-05	0.004216916045038773
1.06122e-05	0.004225754186704467
1.06125e-05	0.00423459232837022
1.06128e-05	0.004243430470035973
1.06130e-05	0.004252268611701667
1.06133e-05	0.004261106753367419
1.06135e-05	0.004269944895033173
1.06138e-05	0.004308863704944524
1.06140e-05	0.004357968432748852
1.06143e-05	0.004407073160553512
1.06145e-05	0.004456177888358174
1.06148e-05	0.0045052826161625014
1.06150e-05	0.004554387343967162
1.06153e-05	0.0046034920717718236
1.06155e-05	0.004657667126888351
1.06158e-05	0.004727296341592388
1.06160e-05	0.004796925556296424
1.06163e-05	0.004866554770999989
1.06165e-05	0.004936183985704026
1.06168e-05	0.005005813200408063
1.06170e-05	0.005075442415111628
1.06173e-05	0.005145071629815664
1.06175e-05	0.00521192099704781
1.06178e-05	0.005277829052142475
1.06180e-05	0.005343737107237586
1.06183e-05	0.005409645162332699
1.06185e-05	0.005475553217427364
1.06188e-05	0.005541461272522475
1.06190e-05	0.005607369327617587
1.06193e-05	0.005673277382712252
1.06195e-05	0.005731542120292284
1.06198e-05	0.005766510324650329
1.06200e-05	0.0058014785290081364
1.06203e-05	0.0058364467333661815
1.06205e-05	0.0058714149377242265
1.06207e-05	0.005906383142082034
1.06210e-05	0.005941351346440079
1.06213e-05	0.005976319550798124
1.06215e-05	0.006011287755155931
1.06218e-05	0.0060147855946719566
1.06220e-05	0.006007626937136037
1.06222e-05	0.006000468279600164
1.06225e-05	0.005993309622064244
1.06228e-05	0.0059861509645283235
1.06230e-05	0.0059789923069924035
1.06233e-05	0.005971833649456532
1.06235e-05	0.005964674991920611
1.06238e-05	0.005957516334384691
1.06240e-05	0.005950357676848819
1.06243e-05	0.00591853537771295
1.06245e-05	0.005878361474605253
1.06248e-05	0.005838187571497828
1.06250e-05	0.00579801366839013
1.06253e-05	0.005757839765282433
1.06255e-05	0.005717665862175007
1.06258e-05	0.00567749195906731
1.06260e-05	0.0056373180559596125
1.06263e-05	0.005597144152852187
1.06265e-05	0.0055569702497444895
1.06268e-05	0.005510114024604065
1.06270e-05	0.005460995031129241
1.06273e-05	0.005411876037654085
1.06275e-05	0.005362757044178928
1.06278e-05	0.005313638050704104
1.06280e-05	0.005264519057228948
1.06283e-05	0.005215400063753791
1.06285e-05	0.005166281070278967
1.06288e-05	0.005120535528186442
1.06290e-05	0.005085072134137106
1.06292e-05	0.0050496087400880105
1.06295e-05	0.0050141453460386745
1.06298e-05	0.0049786819519893385
1.06300e-05	0.004943218557940243
1.06303e-05	0.0049077551638909075
1.06305e-05	0.0048722917698415715
1.06307e-05	0.004836828375792476
1.06310e-05	0.004817182718112096
1.06313e-05	0.004802893263382613
1.06315e-05	0.00478860380865313
1.06318e-05	0.0047743143539237445
1.06320e-05	0.0047600248991942614
1.06323e-05	0.004745735444464778
1.06325e-05	0.004731445989735392
1.06328e-05	0.004717156535005909
1.06330e-05	0.004702867080276426
1.06333e-05	0.00468857762554704
1.06335e-05	0.004674288170817557
1.06338e-05	0.004659998716088073
1.06340e-05	0.004645709261358687
1.06343e-05	0.004635237408799531
1.06345e-05	0.004636401458537515
1.06348e-05	0.004637565508275493
1.06350e-05	0.004638729558013477
1.06353e-05	0.004639893607751461
1.06355e-05	0.0046410576574894375
1.06358e-05	0.004642221707227422
1.06360e-05	0.004643385756965407
1.06363e-05	0.004644549806703383
1.06365e-05	0.004645713856441368
1.06368e-05	0.004646877906179352
1.06370e-05	0.004648041955917328
1.06373e-05	0.004649206005655313
1.06375e-05	0.004650370055393298
1.06377e-05	0.004652195538337521
1.06380e-05	0.0046542449958384855
1.06383e-05	0.004656294453339449
1.06385e-05	0.0046583439108404
1.06388e-05	0.004660393368341364
1.06390e-05	0.004662442825842329
1.06392e-05	0.004664492283343279
1.06395e-05	0.004666541740844243
1.06398e-05	0.004668591198345207
1.06400e-05	0.004670640655846172
1.06403e-05	0.004672690113347122
1.06405e-05	0.0046747395708480865
1.06408e-05	0.004676789028349051
1.06410e-05	0.004678838485850001
1.06413e-05	0.004680887943350966
1.06415e-05	0.00468293740085193
1.06418e-05	0.0046849868583528805
1.06420e-05	0.004678688089051063
1.06423e-05	0.004669562442628168
1.06425e-05	0.004660436796205335
1.06428e-05	0.004651311149782441
1.06430e-05	0.004642185503359546
1.06433e-05	0.004633059856936713
1.06435e-05	0.004623934210513818
1.06438e-05	0.004614808564090923
1.06440e-05	0.004605682917668091
1.06443e-05	0.004596557271245196
1.06445e-05	0.004587431624822301
1.06448e-05	0.004578305978399469
1.06450e-05	0.004569180331976574
1.06453e-05	0.004560054685553679
1.06455e-05	0.004550929039130846
1.06458e-05	0.004541803392707952
1.06460e-05	0.004532677746285057
1.06462e-05	0.004519857689195586
1.06465e-05	0.004505786630517577
1.06468e-05	0.004491715571839567
1.06470e-05	0.004477644513161653
1.06473e-05	0.004463573454483644
1.06475e-05	0.004449502395805634
1.06477e-05	0.00443543133712772
1.06480e-05	0.0044213602784497095
1.06483e-05	0.0044072892197717
1.06485e-05	0.004394646254485965
1.06488e-05	0.004386356062079587
1.06490e-05	0.0043780658696731525
1.06493e-05	0.004369775677266718
1.06495e-05	0.004361485484860339
1.06498e-05	0.0043531952924539055
1.06500e-05	0.004344905100047471
1.06503e-05	0.004336614907641092
1.06505e-05	0.0043283247152346585
