Time(s)	Current(A)
1.12500e-05	0.004410638791692458
1.12503e-05	0.004381158284422863
1.12505e-05	0.004347322093523879
1.12508e-05	0.004313485902624666
1.12510e-05	0.00426235536870744
1.12513e-05	0.00420581140811361
1.12515e-05	0.0041492674475193956
1.12518e-05	0.004092723486925182
1.12520e-05	0.004036179526331351
1.12523e-05	0.003979635565737137
1.12525e-05	0.003918413964977521
1.12527e-05	0.0038439894348134725
1.12530e-05	0.0037695649046489187
1.12533e-05	0.0036951403744843654
1.12535e-05	0.003620715844320316
1.12538e-05	0.0035462913141557626
1.12540e-05	0.003471866783991209
1.12542e-05	0.003397927460224602
1.12545e-05	0.0033241400144012508
1.12548e-05	0.003250352568577899
1.12550e-05	0.0031765651227545475
1.12553e-05	0.0031027776769316957
1.12555e-05	0.0030289902311083443
1.12558e-05	0.0029688536108244293
1.12560e-05	0.0029129899336112187
1.12563e-05	0.002857126256397629
1.12565e-05	0.00280126257918404
1.12568e-05	0.002745398901970829
1.12570e-05	0.0026895352247572396
1.12573e-05	0.0026466628623699885
1.12575e-05	0.002607857004862532
1.12578e-05	0.0025690511473548134
1.12580e-05	0.0025302452898470947
1.12583e-05	0.0024914394323396383
1.12585e-05	0.0024526335748319195
1.12588e-05	0.0024138277173242004
1.12590e-05	0.0023750218598167444
1.12593e-05	0.0023362160023090257
1.12595e-05	0.002306246816004877
1.12598e-05	0.002279043659702689
1.12600e-05	0.0022518405034003164
1.12603e-05	0.002224637347097944
1.12605e-05	0.0021974341907957553
1.12608e-05	0.002170231034493383
1.12610e-05	0.0021430278781910104
1.12612e-05	0.002115824721888822
1.12615e-05	0.0020886215655864493
1.12618e-05	0.002067710192317515
1.12620e-05	0.0020487682553031743
1.12623e-05	0.0020298263182887055
1.12625e-05	0.0020108843812742367
1.12627e-05	0.0019919424442598962
1.12630e-05	0.0019730005072454274
1.12633e-05	0.0019540585702309586
1.12635e-05	0.0019351166332164898
1.12638e-05	0.0019161746962021494
1.12640e-05	0.0018972327591876804
1.12643e-05	0.0018782908221732116
1.12645e-05	0.0018593488851588711
1.12648e-05	0.0018404069481444023
1.12650e-05	0.0018214650111299333
1.12653e-05	0.0018025230741155929
1.12655e-05	0.0017865608258608166
1.12658e-05	0.0017790089338912396
1.12660e-05	0.0017714570419217136
1.12663e-05	0.0017639051499521367
1.12665e-05	0.0017563532579825598
1.12668e-05	0.001748801366013034
1.12670e-05	0.001741249474043457
1.12673e-05	0.0017336975820738802
1.12675e-05	0.0017261456901043544
1.12678e-05	0.0017185937981347775
1.12680e-05	0.0017110419061652003
1.12683e-05	0.0017034900141956746
1.12685e-05	0.0016959381222260976
1.12688e-05	0.0016883862302565207
1.12690e-05	0.001680834338286995
1.12693e-05	0.001673282446317418
1.12695e-05	0.0016738499217403492
1.12697e-05	0.001676958898741829
1.12700e-05	0.00168006787574333
1.12703e-05	0.001683176852744831
1.12705e-05	0.001686285829746311
1.12708e-05	0.0016893948067478119
1.12710e-05	0.0016925037837493128
1.12712e-05	0.0016956127607507926
1.12715e-05	0.0016987217377522938
1.12718e-05	0.0017018307147537947
1.12720e-05	0.0017049396917552956
1.12723e-05	0.0017114569661991737
1.12725e-05	0.0017190410963366645
1.12728e-05	0.0017266252264741553
1.12730e-05	0.0017342093566115946
1.12733e-05	0.0017417934867490854
1.12735e-05	0.0017493776168865764
1.12738e-05	0.0017569617470240158
1.12740e-05	0.0017645458771615066
1.12743e-05	0.0017721300072989974
1.12745e-05	0.0017797141374364367
1.12748e-05	0.0017872982675739277
1.12750e-05	0.0017943779099798113
1.12753e-05	0.0018012996390526928
1.12755e-05	0.0018082213681256214
1.12758e-05	0.0018151430971985497
1.12760e-05	0.0018220648262714312
1.12763e-05	0.001829558605475315
1.12765e-05	0.001837231446204671
1.12768e-05	0.0018449042869339747
1.12770e-05	0.0018525771276633306
1.12773e-05	0.0018602499683926864
1.12775e-05	0.0018751658338539384
1.12778e-05	0.0018923488905760232
1.12780e-05	0.0019095319472981077
1.12782e-05	0.0019323390996915809
1.12785e-05	0.0019569066907180062
1.12788e-05	0.0019814742817444316
1.12790e-05	0.0020135103247384428
1.12793e-05	0.002047884121593853
1.12795e-05	0.002082257918449263
1.12797e-05	0.002124184278383545
1.12800e-05	0.002168474720403246
1.12803e-05	0.002212765162422947
1.12805e-05	0.0022664625267611723
1.12808e-05	0.002323104419505733
1.12810e-05	0.002379746312250678
1.12813e-05	0.0024363882049956223
1.12815e-05	0.0024930300977401834
1.12818e-05	0.002549671990485128
1.12820e-05	0.0026091897055882675
1.12823e-05	0.0026768246076226236
1.12825e-05	0.002744459509657438
1.12828e-05	0.0028120944116922526
1.12830e-05	0.002879729313726609
1.12833e-05	0.0029473642157614235
1.12835e-05	0.003014999117796238
1.12838e-05	0.003081782636213472
1.12840e-05	0.00314829965692222
1.12843e-05	0.0032148166776309684
1.12845e-05	0.0032813336983392657
1.12848e-05	0.003347850719048014
1.12850e-05	0.0034143677397567625
1.12853e-05	0.00348088476046506
1.12855e-05	0.0035339903442550853
1.12858e-05	0.0035828979177230037
1.12860e-05	0.0036318054911905913
1.12863e-05	0.0036807130646585103
1.12865e-05	0.0037296206381264288
1.12867e-05	0.0037785282115940164
1.12870e-05	0.0038274357850619353
1.12873e-05	0.0038509440439323454
1.12875e-05	0.0038665018806734704
1.12878e-05	0.0038820597174147003
1.12880e-05	0.0038976175541559303
1.12882e-05	0.003913175390897055
1.12885e-05	0.003928733227638285
1.12888e-05	0.0039442910643795156
1.12890e-05	0.003959848901120746
1.12893e-05	0.0039754067378618705
1.12895e-05	0.0039909645746031
1.12898e-05	0.003979651127809569
1.12900e-05	0.003959926507303509
1.12903e-05	0.003940201886797314
1.12905e-05	0.003920477266291121
1.12908e-05	0.00390075264578506
1.12910e-05	0.0038810280252788657
1.12913e-05	0.0038613034047726715
1.12915e-05	0.0038415787842666113
1.12918e-05	0.003821854163760417
1.12920e-05	0.003802129543254223
1.12923e-05	0.00376858517751284
1.12925e-05	0.003730714993925766
1.12928e-05	0.0036928448103386914
1.12930e-05	0.003654974626751874
1.12933e-05	0.0036171044431647995
1.12935e-05	0.0035792342595777253
1.12938e-05	0.0035413640759909075
1.12940e-05	0.0035033139817492974
1.12943e-05	0.003464756078529041
1.12945e-05	0.0034261981753090465
1.12948e-05	0.0033876402720887902
1.12950e-05	0.003349082368868534
1.12952e-05	0.0033105244656485393
1.12955e-05	0.003271966562428283
1.12958e-05	0.003233408659208027
1.12960e-05	0.0032089569991545614
1.12963e-05	0.003188920835725112
1.12965e-05	0.0031688846722956626
1.12967e-05	0.003148848508866349
1.12970e-05	0.0031288123454368995
1.12973e-05	0.00310877618200745
1.12975e-05	0.003088740018578001
1.12978e-05	0.0030687038551486874
1.12980e-05	0.003048667691719238
1.12983e-05	0.003056195442886451
1.12985e-05	0.003072351173198435
1.12988e-05	0.0030885069035105285
1.12990e-05	0.0031046626338226218
1.12993e-05	0.003120818364134606
1.12995e-05	0.0031369740944466994
1.12998e-05	0.003153129824758793
1.13000e-05	0.0031692855550707775
1.13003e-05	0.0031854412853828708
1.13005e-05	0.003224781265311517
1.13008e-05	0.003271378313951452
1.13010e-05	0.0033179753625917035
1.13013e-05	0.003364572411231955
1.13015e-05	0.00341116945987189
1.13018e-05	0.0034577665085121414
1.13020e-05	0.0035043635571523923
1.13023e-05	0.0035547826900105485
1.13025e-05	0.003615989892584166
1.13028e-05	0.0036771970951577832
1.13030e-05	0.0037384042977309856
1.13033e-05	0.003799611500304603
1.13035e-05	0.0038608187028782203
1.13037e-05	0.003922025905451423
1.13040e-05	0.00398323310802504
1.13043e-05	0.00404025870571187
1.13045e-05	0.004095975389178721
1.13048e-05	0.00415169207264595
1.13050e-05	0.00420740875611318
1.13052e-05	0.004263125439580032
1.13055e-05	0.004318842123047261
1.13058e-05	0.0043745588065144895
1.13060e-05	0.004430275489981719
1.13063e-05	0.004485992173448571
1.13065e-05	0.004522173681866372
1.13068e-05	0.004552240344644829
1.13070e-05	0.004582307007423083
1.13073e-05	0.00461237367020154
1.13075e-05	0.004642440332979996
1.13078e-05	0.00467250699575825
1.13080e-05	0.004702573658536707
1.13083e-05	0.0047326403213151635
1.13085e-05	0.004762706984093417
1.13088e-05	0.004771018353314879
1.13090e-05	0.004772519941635071
1.13093e-05	0.004774021529955253
1.13095e-05	0.004775523118275445
1.13098e-05	0.004777024706595637
1.13100e-05	0.004778526294915819
1.13103e-05	0.004780027883236011
1.13105e-05	0.0047815294715562034
1.13108e-05	0.004783031059876385
1.13110e-05	0.004784532648196577
1.13113e-05	0.0047860342365167695
1.13115e-05	0.004772883822913361
1.13118e-05	0.004755147080809698
1.13120e-05	0.004737410338706034
1.13122e-05	0.00471967359660249
1.13125e-05	0.004701936854498827
1.13128e-05	0.004684200112395164
1.13130e-05	0.00466646337029162
1.13133e-05	0.004648726628187956
1.13135e-05	0.004630989886084293
1.13137e-05	0.0046132531439807495
1.13140e-05	0.004595516401877086
1.13143e-05	0.004577568417454945
1.13145e-05	0.004559554310555426
1.13148e-05	0.00454154020365603
1.13150e-05	0.004523526096756512
1.13153e-05	0.004505511989856993
1.13155e-05	0.004487497882957596
1.13158e-05	0.004469483776058077
1.13160e-05	0.004451469669158559
1.13163e-05	0.004433455562259162
1.13165e-05	0.004415441455359643
1.13168e-05	0.004397427348460125
1.13170e-05	0.004379413241560728
1.13173e-05	0.0043613991346612094
1.13175e-05	0.0043555187978440765
1.13178e-05	0.004353436539667743
1.13180e-05	0.004351354281491396
1.13183e-05	0.004349272023315049
1.13185e-05	0.004347189765138716
1.13188e-05	0.004345107506962369
1.13190e-05	0.004343025248786021
1.13193e-05	0.004340942990609688
1.13195e-05	0.0043388607324333405
1.13198e-05	0.004336778474256993
1.13200e-05	0.00433469621608066
1.13203e-05	0.004332613957904313
1.13205e-05	0.004330531699727966
1.13207e-05	0.004338552229479037
1.13210e-05	0.004349735105539876
1.13213e-05	0.004360917981600714
1.13215e-05	0.004372100857661477
1.13218e-05	0.004383283733722315
1.13220e-05	0.004394466609783153
1.13222e-05	0.004405649485843916
1.13225e-05	0.0044168323619047534
1.13228e-05	0.004428015237965592
1.13230e-05	0.004439198114026431
1.13233e-05	0.004450380990087193
1.13235e-05	0.004462105781322453
1.13238e-05	0.004475360161742952
1.13240e-05	0.00448861454216336
1.13243e-05	0.004501868922583858
1.13245e-05	0.004515123303004356
1.13248e-05	0.004528377683424765
1.13250e-05	0.004541632063845263
1.13253e-05	0.0045548864442657615
1.13255e-05	0.00456814082468617
1.13258e-05	0.004581395205106668
1.13260e-05	0.004594649585527166
1.13263e-05	0.0046079039659475745
1.13265e-05	0.004609594730009707
1.13268e-05	0.0046076658833474615
1.13270e-05	0.00460573703668523
1.13273e-05	0.004603808190022984
1.13275e-05	0.004601879343360739
1.13278e-05	0.004599950496698506
1.13280e-05	0.004598021650036261
1.13283e-05	0.004596092803374015
1.13285e-05	0.004594163956711784
1.13288e-05	0.004592235110049538
1.13290e-05	0.004590306263387293
1.13292e-05	0.00458837741672506
1.13295e-05	0.0045670102144128
1.13298e-05	0.0045395584725931885
1.13300e-05	0.004512106730773763
1.13303e-05	0.0044846549889541515
1.13305e-05	0.00445720324713454
1.13307e-05	0.004429751505315114
1.13310e-05	0.004402299763495503
1.13313e-05	0.004374848021675892
1.13315e-05	0.00434739627985628
1.13318e-05	0.004319944538036855
1.13320e-05	0.004292492796217243
1.13323e-05	0.004265041054397632
1.13325e-05	0.004228594910301293
1.13328e-05	0.004189333363657952
1.13330e-05	0.0041500718170146104
1.13333e-05	0.004110810270371535
1.13335e-05	0.004071548723728194
1.13338e-05	0.004032287177084853
1.13340e-05	0.003993025630441778
1.13343e-05	0.003953764083798436
1.13345e-05	0.003915939057334006
1.13348e-05	0.0038821686981581876
1.13350e-05	0.0038483983389821412
1.13353e-05	0.0038146279798060945
1.13355e-05	0.0037808576206302767
1.13358e-05	0.00374708726145423
1.13360e-05	0.003713316902278183
1.13363e-05	0.0036795465431023653
1.13365e-05	0.0036457761839263185
1.13368e-05	0.003630178421347797
1.13370e-05	0.003620268993933515
1.13373e-05	0.0036103595665191663
1.13375e-05	0.003600450139104817
1.13377e-05	0.003590540711690535
1.13380e-05	0.0035806312842761863
1.13383e-05	0.0035707218568618374
1.13385e-05	0.0035608124294475556
1.13388e-05	0.0035509030020332063
1.13390e-05	0.0035409935746188574
1.13392e-05	0.0035310841472045757
1.13395e-05	0.0035211747197902267
1.13398e-05	0.0035326950214397274
1.13400e-05	0.003550923196713534
1.13403e-05	0.003569151371987217
1.13405e-05	0.0035873795472610237
1.13408e-05	0.0036056077225348304
1.13410e-05	0.0036238358978085135
1.13413e-05	0.0036420640730823197
1.13415e-05	0.0036602922483561263
1.13418e-05	0.0036785204236298094
1.13420e-05	0.003696748598903616
1.13423e-05	0.0037149767741774227
1.13425e-05	0.003733204949451106
1.13428e-05	0.003760373661520095
1.13430e-05	0.0037903409153149884
1.13433e-05	0.003820308169109679
1.13435e-05	0.0038502754229045727
1.13438e-05	0.0038802426766994663
1.13440e-05	0.003910209930494157
1.13443e-05	0.003940177184289051
1.13445e-05	0.003970144438083944
1.13448e-05	0.003996994342284675
1.13450e-05	0.004022868462467964
1.13453e-05	0.004048742582651253
1.13455e-05	0.004074616702834367
1.13458e-05	0.004100490823017656
1.13460e-05	0.004126364943200945
1.13462e-05	0.004152239063384059
1.13465e-05	0.004178113183567348
1.13468e-05	0.004183253094234994
1.13470e-05	0.004181902840852852
1.13473e-05	0.0041805525874707
1.13475e-05	0.0041792023340885475
1.13477e-05	0.004177852080706405
1.13480e-05	0.004176501827324253
1.13483e-05	0.004175151573942101
1.13485e-05	0.004173801320559949
1.13488e-05	0.004160853704158399
1.13490e-05	0.0041151718114284695
1.13493e-05	0.004069489918698539
1.13495e-05	0.004023808025968918
1.13498e-05	0.003978126133238988
1.13500e-05	0.003932444240509058
1.13503e-05	0.003886762347779437
1.13505e-05	0.003841080455049507
1.13508e-05	0.0037953985623195765
1.13510e-05	0.00372447172902022
1.13513e-05	0.003645642795299815
1.13515e-05	0.0035668138615794097
1.13518e-05	0.0034879849278595387
1.13520e-05	0.0034091559941391335
1.13523e-05	0.003330327060418728
1.13525e-05	0.0032479207197005145
1.13528e-05	0.0031554169258763373
1.13530e-05	0.0030629131320521596
1.13533e-05	0.002970409338228609
1.13535e-05	0.0028779055444044313
1.13538e-05	0.002785401750580254
1.13540e-05	0.002692897956756703
1.13543e-05	0.0026027676867410652
1.13545e-05	0.0025133803704843038
1.13548e-05	0.002423993054228148
1.13550e-05	0.0023346057379713863
1.13553e-05	0.002245218421714625
1.13555e-05	0.002168560958647763
1.13558e-05	0.002095888158486819
1.13560e-05	0.0020232153583258743
1.13562e-05	0.0019505425581654223
1.13565e-05	0.0018778697580044779
1.13568e-05	0.0018205996735964445
1.13570e-05	0.0017681509040307728
1.13573e-05	0.001727165214026899
1.13575e-05	0.0016897676650049099
1.13578e-05	0.0016641670540016279
1.13580e-05	0.0016422590874177348
1.13583e-05	0.0016323285756016958
1.13585e-05	0.0016261472130509693
1.13588e-05	0.0016291481328541046
1.13590e-05	0.0016443987427342142
1.13593e-05	0.0016625840383645222
1.13595e-05	0.0016927665604891688
1.13598e-05	0.0017267044207695593
1.13600e-05	0.0017717733640655424
1.13603e-05	0.0018203265277165902
1.13605e-05	0.001879171628620883
1.13608e-05	0.0019412382828299306
1.13610e-05	0.0020128270625650066
1.13613e-05	0.0020873964312999624
1.13615e-05	0.002171961900244609
1.13618e-05	0.002259656320412812
1.13620e-05	0.002347350740581609
1.13623e-05	0.002446423368852599
1.13625e-05	0.002549057571879499
1.13628e-05	0.002651691774907094
1.13630e-05	0.0027543259779346896
1.13633e-05	0.002856960180961589
1.13635e-05	0.00296093488200706
1.13638e-05	0.0030686932218401894
1.13640e-05	0.003176451561672589
1.13643e-05	0.0032842099015057183
1.13645e-05	0.0033919682413388478
1.13647e-05	0.0034997265811712473
1.13650e-05	0.0035957728987765104
1.13653e-05	0.0036881531520641633
1.13655e-05	0.0037805334053518163
1.13658e-05	0.0038729136586388435
1.13660e-05	0.003965293911926497
1.13663e-05	0.00405767416521415
1.13665e-05	0.004120293359734563
1.13668e-05	0.004173596831190534
1.13670e-05	0.0042269003026465055
1.13673e-05	0.0042802037741021155
1.13675e-05	0.004333507245558087
1.13678e-05	0.004386810717014059
1.13680e-05	0.0044111056079208805
1.13683e-05	0.004426320314381584
1.13685e-05	0.004441535020842288
1.13688e-05	0.004436539771906472
1.13690e-05	0.0044252184594689905
1.13693e-05	0.00441389714703151
1.13695e-05	0.0043832652710954195
1.13698e-05	0.004346588856784405
1.13700e-05	0.0043099124424733895
1.13703e-05	0.004255743990631754
1.13705e-05	0.0041961002303082294
1.13708e-05	0.004136456469984705
1.13710e-05	0.0040614930203842275
1.13713e-05	0.0039817342446533
1.13715e-05	0.0039019754689223717
1.13718e-05	0.003806405319578766
1.13720e-05	0.003705885938453901
1.13723e-05	0.003605366557329036
1.13725e-05	0.003504847176204852
1.13728e-05	0.003404327795079987
1.13730e-05	0.0033004905030626177
1.13732e-05	0.0031872882017860292
1.13735e-05	0.0030740859005086735
1.13738e-05	0.0029608835992313174
1.13740e-05	0.0028476812979539618
1.13743e-05	0.0027344789966773733
1.13745e-05	0.0026250301441167316
1.13748e-05	0.00251675618553637
1.13750e-05	0.002408482226956742
1.13753e-05	0.0023002082683763808
1.13755e-05	0.0021971148454620346
1.13758e-05	0.0021086438057468936
1.13760e-05	0.002020172766031153
1.13763e-05	0.0019317017263154128
1.13765e-05	0.0018432306866002718
1.13768e-05	0.0017708554232184171
1.13770e-05	0.0017035184145596206
1.13773e-05	0.0016452140260372102
1.13775e-05	0.0015897370029125154
1.13778e-05	0.0015437688946077083
1.13780e-05	0.0015007772401262607
1.13783e-05	0.0014681055402300481
1.13785e-05	0.0014386641635476772
1.13788e-05	0.001419403452741203
1.13790e-05	0.0014033294653875556
1.13793e-05	0.0013960663533811486
1.13795e-05	0.0013915611968417835
1.13798e-05	0.0013955647983496325
1.13800e-05	0.001402231787415362
1.13803e-05	0.0014173149709299944
1.13805e-05	0.0014350325680048612
1.13808e-05	0.001460478693562784
1.13810e-05	0.0014883439814104124
1.13813e-05	0.0015224793447621687
1.13815e-05	0.0015585773495466037
1.13817e-05	0.001601390751769261
1.13820e-05	0.0016463061888467437
1.13823e-05	0.0016912216259242262
1.13825e-05	0.0017441449158176654
1.13828e-05	0.0017995748013202315
1.13830e-05	0.0018550046868227974
1.13833e-05	0.0019104345723253635
1.13835e-05	0.001965864457827554
1.13838e-05	0.002022186796020606
1.13840e-05	0.00208102813728041
1.13843e-05	0.0021398694785398163
1.13845e-05	0.002198710819799621
1.13848e-05	0.0022575521610594253
1.13850e-05	0.0023163935023188314
1.13853e-05	0.0023660437328647923
1.13855e-05	0.0024128169877361606
1.13858e-05	0.0024595902426072123
1.13860e-05	0.0025063634974785806
1.13863e-05	0.002553136752349949
1.13865e-05	0.0025999100072210007
1.13868e-05	0.002646683262092369
1.13870e-05	0.0026892770478280153
1.13873e-05	0.0027200740227251914
1.13875e-05	0.002750870997622576
1.13878e-05	0.0027816679725199607
1.13880e-05	0.0028124649474171367
1.13883e-05	0.0028432619223145213
1.13885e-05	0.002874058897211906
1.13888e-05	0.002904855872109082
1.13890e-05	0.002929841436640431
1.13893e-05	0.002953007929812309
1.13895e-05	0.00297617442298403
1.13898e-05	0.002999340916155908
1.13900e-05	0.003022507409327786
1.13902e-05	0.0030422909297918434
1.13905e-05	0.0030606459697499087
1.13908e-05	0.0030790010097079736
1.13910e-05	0.003097356049665914
1.13913e-05	0.0031157110896239794
1.13915e-05	0.0031261595574402284
1.13918e-05	-0.00035927701248767135
1.13920e-05	-0.0056635335316510835
1.13923e-05	-0.007107852572445142
1.13925e-05	-0.005722524723099379
1.13928e-05	-0.0027391747650556825
1.13930e-05	0.000995089444992358
1.13933e-05	0.0029722916777622887
1.13935e-05	0.0027624171473448035
1.13938e-05	0.0007674121188061165
1.13940e-05	-0.0019559186096588495
1.13943e-05	-0.003245298989140991
1.13945e-05	-0.002541465612298329
1.13948e-05	-0.0005748115736509186
1.13950e-05	0.001772867068652034
1.13953e-05	0.0031597519116467556
1.13955e-05	0.0030736846289390603
1.13958e-05	0.0018259957380438014
1.13960e-05	-5.211503479764419e-05
1.13963e-05	-0.0003995287253080409
1.13965e-05	2.8517830245126594e-05
1.13968e-05	0.0013469384554247112
1.13970e-05	0.0027612297100165746
1.13973e-05	0.003636713814091217
1.13975e-05	0.0036396240580403123
1.13978e-05	0.0028446804432999354
1.13980e-05	0.0018685150478856699
1.13983e-05	0.0013162925148145952
1.13985e-05	0.0015158719135115344
1.13987e-05	0.00232443522775198
1.13990e-05	0.003198078638279006
