Time(s)	Current(A)
5.50000e-06	0.000552143293957708
5.50025e-06	0.0005552071176423085
5.50050e-06	0.0005581767031707356
5.50075e-06	0.0005611462886991725
5.50100e-06	0.0005641158742275996
5.50125e-06	0.0005670854597560266
5.50150e-06	0.0005700550452844637
5.50175e-06	0.0005726689568508633
5.50200e-06	0.0005751139076932679
5.50225e-06	0.0005773725465256066
5.50250e-06	0.0005792919930901859
5.50275e-06	0.0005802817640172519
5.50300e-06	0.0005795833601446667
5.50325e-06	0.0005769114712394499
5.50350e-06	0.0005723368430382525
5.50375e-06	0.0005659514506462718
5.50400e-06	0.0005578476673671033
5.50425e-06	0.0005473256195636897
5.50450e-06	0.0005367564762218355
5.50475e-06	0.0005224402530483299
5.50500e-06	0.000508050038701932
5.50525e-06	0.0004892121523876122
5.50550e-06	0.0004702864407586313
5.50575e-06	0.00044742887962725167
5.50600e-06	0.0004244936787953988
5.50625e-06	0.00039824332649080125
5.50650e-06	0.0003719275120244964
5.50675e-06	0.0003432467799131
5.50700e-06	0.0003127981144999087
5.50725e-06	0.0002806570432971748
5.50750e-06	0.00024702367527555506
5.50775e-06	0.00021210642835750479
5.50800e-06	0.00017611380294821534
5.50825e-06	0.0001392543131590968
5.50850e-06	0.0001017042157496773
5.50875e-06	6.353216159878889e-05
5.50900e-06	2.4765539231223452e-05
5.50925e-06	-1.445192274489872e-05
5.50950e-06	-5.387855169579171e-05
5.50975e-06	-9.330914151837834e-05
5.51000e-06	-0.00013223411201990085
5.51025e-06	-0.00017114909838211598
5.51050e-06	-0.0002087049759562341
5.51075e-06	-0.0002462340160843539
5.51100e-06	-0.00028180436641811544
5.51125e-06	-0.0003173360397656929
5.51150e-06	-0.0003508892449160375
5.51175e-06	-0.00038275318445058
5.51200e-06	-0.00041268544086381516
5.51225e-06	-0.00044043219965011983
5.51250e-06	-0.00046575719856669365
5.51275e-06	-0.0004885098002734682
5.51300e-06	-0.000508641456015585
5.51325e-06	-0.0005261198127159884
5.51350e-06	-0.0005408927056075428
5.51375e-06	-0.0005529062603201795
5.51400e-06	-0.0005621064623988947
5.51425e-06	-0.0005684395805370243
5.51450e-06	-0.0005718626772833739
5.51475e-06	-0.000571002309854588
5.51500e-06	-0.000570058472632873
5.51525e-06	-0.0005637383345953875
5.51550e-06	-0.0005573120342075579
5.51575e-06	-0.0005457972330284741
5.51600e-06	-0.0005341819525008526
5.51625e-06	-0.0005177615189252814
5.51650e-06	-0.0005012462010866424
5.51675e-06	-0.00048031644641749043
5.51700e-06	-0.00045929952270671535
5.51725e-06	-0.00043533687270336176
5.51750e-06	-0.00040955141080197953
5.51775e-06	-0.00038211332726312584
5.51800e-06	-0.0003531723618582478
5.51825e-06	-0.00032287828233522206
5.51850e-06	-0.0002913852236659005
5.51875e-06	-0.0002588682129007119
5.51900e-06	-0.00022552746087890427
5.51925e-06	-0.00019156710671703264
5.51950e-06	-0.00015718641997601257
5.51975e-06	-0.00012258419456096054
5.52000e-06	-8.795920977467027e-05
5.52025e-06	-5.351025191446256e-05
5.52050e-06	-1.9438775932788e-05
5.52075e-06	1.404060522663432e-05
5.52100e-06	4.669756867620554e-05
5.52125e-06	7.829934982759909e-05
5.52150e-06	0.00010861623816158311
5.52175e-06	0.0001374188431284487
5.52200e-06	0.00016447779708822898
5.52225e-06	0.00018956374702303676
5.52250e-06	0.00021254225084577622
5.52275e-06	0.00023362145428325277
5.52300e-06	0.00025320710820279967
5.52325e-06	0.00027143828505893803
5.52350e-06	0.00028822306335348066
5.52375e-06	0.00030345514800992875
5.52400e-06	0.0003170280195724385
5.52425e-06	0.00032883512948131405
5.52450e-06	0.0003380244569112819
5.52475e-06	0.00034716276863642267
5.52500e-06	0.0003535722172665806
5.52525e-06	0.00035992778079448507
5.52550e-06	0.00036382766863673365
5.52575e-06	0.0003676790658325646
5.52600e-06	0.0003689618820573935
5.52625e-06	0.00037019397816786826
5.52650e-06	0.0003688828941424997
5.52675e-06	0.0003675215915767164
5.52700e-06	0.0003642147562783555
5.52725e-06	0.0003608695037979976
5.52750e-06	0.0003555038860122348
5.52775e-06	0.0003500983733738264
5.52800e-06	0.00034469286073543633
5.52825e-06	0.0003370701976697129
5.52850e-06	0.00032940375396226554
5.52875e-06	0.0003217373102548441
5.52900e-06	0.00031272037929732825
5.52925e-06	0.0003036767811378015
5.52950e-06	0.00029463318297827466
5.52975e-06	0.00028494091217968657
5.53000e-06	0.0002752358324602624
5.53025e-06	0.0002655307527408381
5.53050e-06	0.00025573627540036474
5.53075e-06	0.00024594003278267316
5.53100e-06	0.00023614379016498161
5.53125e-06	0.0002271975241833879
5.53150e-06	0.00021826804214308197
5.53175e-06	0.00020933856010277606
5.53200e-06	0.00020161345342975724
5.53225e-06	0.00019391212878153342
5.53250e-06	0.00018727498020926531
5.53275e-06	0.00018065884523662092
5.53300e-06	0.0001740427102639989
5.53325e-06	0.0001673457619475895
5.53350e-06	0.00016064721786214728
5.53375e-06	0.00015394867377670505
5.53400e-06	0.00014725012969124012
5.53425e-06	0.00014051830654637356
5.53450e-06	0.00013375052283140035
5.53475e-06	0.00012698273911640421
5.53500e-06	0.00012021495540143101
5.53525e-06	0.00011344717168645782
5.53550e-06	0.00010599190612254119
5.53575e-06	9.852306529732497e-05
5.53600e-06	9.105422447210875e-05
5.53625e-06	8.334221346048284e-05
5.53650e-06	7.562540072381764e-05
5.53675e-06	6.790858798715242e-05
5.53700e-06	5.98124584902328e-05
5.53725e-06	5.170883886956317e-05
5.53750e-06	4.3275910977500976e-05
5.53775e-06	3.483648044705653e-05
5.53800e-06	2.628217981249324e-05
5.53825e-06	1.7725610911933556e-05
5.53850e-06	9.207013941090307e-06
5.53875e-06	6.891667774875956e-07
5.53900e-06	-7.857999644759879e-06
5.53925e-06	-1.643333911538818e-05
5.53950e-06	-2.4948391183051604e-05
5.53975e-06	-3.3462242026963574e-05
5.54000e-06	-4.172005994411857e-05
5.54025e-06	-4.9972822143963736e-05
5.54050e-06	-5.779917852596168e-05
5.54075e-06	-6.561711494686802e-05
5.54100e-06	-7.298480015912679e-05
5.54125e-06	-8.034359455077261e-05
5.54150e-06	-8.712105230009041e-05
5.54175e-06	-9.388703076913811e-05
5.54200e-06	-9.986615058557813e-05
5.54225e-06	-0.00010582973281095487
5.54250e-06	-0.00011083944945998438
5.54275e-06	-0.00011583033073979378
5.54300e-06	-0.00011988325407301659
5.54325e-06	-0.00012391765615477315
5.54350e-06	-0.0001270066762536907
5.54375e-06	-0.0001300770285034695
5.54400e-06	-0.00013214082271403098
5.54425e-06	-0.0001341847410712617
5.54450e-06	-0.00013518492769509167
5.54475e-06	-0.00013616450442060775
5.54500e-06	-0.00013617776487946827
5.54525e-06	-0.00013617194411337692
5.54550e-06	-0.00013526258139182705
5.54575e-06	-0.0001343353770092212
5.54600e-06	-0.00013253375601081428
5.54625e-06	-0.00013071486847066884
5.54650e-06	-0.00012806571610350575
5.54675e-06	-0.00012540016903154062
5.54700e-06	-0.0001220202662807054
5.54725e-06	-0.00011862625760837487
5.54750e-06	-0.00011449058973769422
5.54775e-06	-0.00011034027680051899
5.54800e-06	-0.00010618996386334376
5.54825e-06	-0.00010132718128306567
5.54850e-06	-9.645033002364535e-05
5.54875e-06	-9.157347876422504e-05
5.54900e-06	-8.62306619077131e-05
5.54925e-06	-8.087864392869191e-05
5.54950e-06	-7.552662594967073e-05
5.54975e-06	-7.017460797063141e-05
5.55000e-06	-6.47626679230695e-05
5.55025e-06	-5.9349544633015e-05
5.55050e-06	-5.393642134294216e-05
5.55075e-06	-4.852329805288766e-05
5.55100e-06	-4.340756074867623e-05
5.55125e-06	-3.829769573400209e-05
5.55150e-06	-3.347105003152658e-05
5.55175e-06	-2.8886517183208112e-05
5.55200e-06	-2.4578918167287874e-05
5.55225e-06	-2.058469832588476e-05
5.55250e-06	-1.695045077838026e-05
5.55275e-06	-1.3753004979670961e-05
5.55300e-06	-1.1071417415349003e-05
5.55325e-06	-8.937326862110643e-06
5.55350e-06	-7.351048224093619e-06
5.55375e-06	-6.311094116068694e-06
5.55400e-06	-5.815950290995831e-06
5.55425e-06	-5.8641006564351845e-06
5.55450e-06	-6.460385982633624e-06
5.55475e-06	-7.628584167082489e-06
5.55500e-06	-9.393862652583135e-06
5.55525e-06	-1.1751686083975226e-05
5.55550e-06	-1.4677896722718216e-05
5.55575e-06	-1.8147210875418196e-05
5.55600e-06	-2.2134330037464197e-05
5.55625e-06	-2.6613952136673247e-05
5.55650e-06	-3.156476174861512e-05
5.55675e-06	-3.697730038232116e-05
5.55700e-06	-4.284298784697985e-05
5.55725e-06	-4.91346306125663e-05
5.55750e-06	-5.5812751791339557e-05
5.55775e-06	-6.298687624831972e-05
5.55800e-06	-7.017064747953144e-05
5.55825e-06	-7.787567452935576e-05
5.55850e-06	-8.559099448205046e-05
5.55875e-06	-9.381562972028104e-05
5.55900e-06	-0.00010205032207941929
5.55925e-06	-0.00011028501443852963
5.55950e-06	-0.00011851970679766787
5.55975e-06	-0.0001268596770565027
5.56000e-06	-0.00013520172617021033
5.56025e-06	-0.0001435437752839462
5.56050e-06	-0.0001518858243976538
5.56075e-06	-0.00015972206986749978
5.56100e-06	-0.00016754832755862405
5.56125e-06	-0.00017537458524972182
5.56150e-06	-0.00018228392035807324
5.56175e-06	-0.00018917514958683405
5.56200e-06	-0.00019606637881557152
5.56225e-06	-0.00020189995341857828
5.56250e-06	-0.000207712643196993
5.56275e-06	-0.00021389613522349764
5.56300e-06	-0.00022008694924314414
5.56325e-06	-0.00022831884880041296
5.56350e-06	-0.00023659105235900323
5.56375e-06	-0.0002466888624601947
5.56400e-06	-0.0002568227216377804
5.56425e-06	-0.0002684075749845505
5.56450e-06	-0.0002800210801785535
5.56475e-06	-0.0002935818019810368
5.56500e-06	-0.00030718097421557203
5.56525e-06	-0.0003234930412677985
5.56550e-06	-0.00033985867810639846
5.56575e-06	-0.0003585216207048651
5.56600e-06	-0.00037722992672039766
5.56625e-06	-0.00039772034391575195
5.56650e-06	-0.00041824595131260045
5.56675e-06	-0.00044110609048739587
5.56700e-06	-0.00046401232815730583
5.56725e-06	-0.00048691856582721584
5.56750e-06	-0.0005130352260388825
5.56775e-06	-0.0005392152803963353
5.56800e-06	-0.0005653953347538767
5.56825e-06	-0.0005915753891113295
5.56850e-06	-0.0006177554434687823
5.56875e-06	-0.0006446710840609702
5.56900e-06	-0.0006723815818635931
5.56925e-06	-0.0007000920796662159
5.56950e-06	-0.0007278025774689327
5.56975e-06	-0.0007555130752715557
5.57000e-06	-0.0007832235730741786
5.57025e-06	-0.0008098011901685775
5.57050e-06	-0.0008363564369973223
5.57075e-06	-0.0008629116838260671
5.57100e-06	-0.0008872895368151933
5.57125e-06	-0.0009116243942107329
5.57150e-06	-0.0009359592516062726
5.57175e-06	-0.0009568179428706406
5.57200e-06	-0.0009776079925216574
5.57225e-06	-0.0009983980421727446
5.57250e-06	-0.0010148139918988422
5.57275e-06	-0.0010311435690915063
5.57300e-06	-0.0010474731462842258
5.57325e-06	-0.0010592572411678523
5.57350e-06	-0.0010709515793405266
5.57375e-06	-0.0010826459175132404
5.57400e-06	-0.0010943402556859146
5.57425e-06	-0.0011060345938585887
5.57450e-06	-0.001111904023924467
5.57475e-06	-0.0011176584332823723
5.57500e-06	-0.0011234128426402777
5.57525e-06	-0.0011291672519982024
5.57550e-06	-0.0011349216613561078
5.57575e-06	-0.001134314230176326
5.57600e-06	-0.0011335811758298152
5.57625e-06	-0.0011328481214833066
5.57650e-06	-0.0011321150671367956
5.57675e-06	-0.0011313820127902873
5.57700e-06	-0.0011306489584437787
5.57725e-06	-0.0011299159040972678
5.57750e-06	-0.0011291828497507594
5.57775e-06	-0.001128449795404251
5.57800e-06	-0.001122681680324189
5.57825e-06	-0.0011168141411435394
5.57850e-06	-0.0011109466019628897
5.57875e-06	-0.00110507906278222
5.57900e-06	-0.0010992115236015706
5.57925e-06	-0.001093343984420921
5.57950e-06	-0.0010874764452402513
5.57975e-06	-0.0010816089060596017
5.58000e-06	-0.001075741366878952
5.58025e-06	-0.001068739992764905
5.58050e-06	-0.001061716229542906
5.58075e-06	-0.0010546924663208833
5.58100e-06	-0.00104842196196883
5.58125e-06	-0.0010421663317344025
5.58150e-06	-0.0010359107014999535
5.58175e-06	-0.001029655071265526
5.58200e-06	-0.0010233994410310983
5.58225e-06	-0.00101805256516223
5.58250e-06	-0.00101368766791923
5.58275e-06	-0.0010093227706762303
5.58300e-06	-0.0010049578734332154
5.58325e-06	-0.0010005929761902157
5.58350e-06	-0.0009962280789472158
5.58375e-06	-0.0009947736081387674
5.58400e-06	-0.0009933766076460839
5.58425e-06	-0.0009919796071534005
5.58450e-06	-0.0009905826066607122
5.58475e-06	-0.0009891856061680288
5.58500e-06	-0.0009877886056753405
5.58525e-06	-0.0009863916051826571
5.58550e-06	-0.0009849946046899735
5.58575e-06	-0.0009835976041972854
5.58600e-06	-0.0009822006037046018
5.58625e-06	-0.0009808036032119185
5.58650e-06	-0.0009794066027192302
5.58675e-06	-0.0009780096022265468
5.58700e-06	-0.0009766126017338632
5.58725e-06	-0.000977793537303851
5.58750e-06	-0.0009790253777163826
5.58775e-06	-0.0009802572181289142
5.58800e-06	-0.00098148905854145
5.58825e-06	-0.0009827208989539816
5.58850e-06	-0.000983952739366513
5.58875e-06	-0.0009851845797790488
5.58900e-06	-0.0009864164201915805
5.58925e-06	-0.0009876482606041162
5.58950e-06	-0.0009888801010166479
5.58975e-06	-0.0009901119414291793
5.59000e-06	-0.000991343781841715
5.59025e-06	-0.0009925756222542467
5.59050e-06	-0.0009938074626667784
5.59075e-06	-0.0009953966924225732
5.59100e-06	-0.0009969929793154635
5.59125e-06	-0.0009985892662083536
5.59150e-06	-0.0010000556612889352
5.59175e-06	-0.0010013816983275856
5.59200e-06	-0.001002707735366236
5.59225e-06	-0.001004033772404891
5.59250e-06	-0.0010046661016263913
5.59275e-06	-0.0010052847326465796
5.59300e-06	-0.001003545652437315
5.59325e-06	-0.0010017600160234725
5.59350e-06	-0.0009964789773398949
5.59375e-06	-0.0009911289171998018
5.59400e-06	-0.0009857788570597087
5.59425e-06	-0.0009766470216383985
5.59450e-06	-0.0009674405099372517
5.59475e-06	-0.000958233998236105
5.59500e-06	-0.0009442804034094959
5.59525e-06	-0.0009302330709910343
5.59550e-06	-0.0009161857385725727
5.59575e-06	-0.0008976215858805649
5.59600e-06	-0.0008789682424489133
5.59625e-06	-0.0008603148990172617
5.59650e-06	-0.0008379385351949734
5.59675e-06	-0.0008154886552879018
5.59700e-06	-0.0007930387753808302
5.59725e-06	-0.0007674657914375832
5.59750e-06	-0.0007418311375712921
5.59775e-06	-0.0007142728128140828
5.59800e-06	-0.000686676502567347
5.59825e-06	-0.0006577785850293253
5.59850e-06	-0.0006288549654906816
5.59875e-06	-0.000599212873339959
5.59900e-06	-0.000569111137529114
5.59925e-06	-0.0005386645725055238
5.59950e-06	-0.0005080520602984617
5.59975e-06	-0.00047745658023164584
5.60000e-06	-0.00044706108067392295
5.60025e-06	-0.00041704859392454404
5.60050e-06	-0.0003875861143446404
5.60075e-06	-0.000358787263219903
5.60100e-06	-0.0003307451211662547
5.60125e-06	-0.0003036100066771174
5.60150e-06	-0.0002775756156771873
5.60175e-06	-0.0002528380764242157
5.60200e-06	-0.00022959363435610326
5.60225e-06	-0.00020803840817059364
5.60250e-06	-0.0001883870937411615
5.60275e-06	-0.00017089599450474674
5.60300e-06	-0.00015578516871851914
5.60325e-06	-0.0001431480089327376
5.60350e-06	-0.00013276323328131645
5.60375e-06	-0.00012599965982269609
5.60400e-06	-0.004074692097468971
5.60425e-06	-0.012686002093194244
5.60450e-06	-0.013133060265481021
5.60475e-06	-0.011021438013800358
5.60500e-06	-0.00754720488165723
5.60525e-06	-0.001309562354312018
5.60550e-06	0.0009608731845769236
5.60575e-06	-1.6884080629032093e-05
5.60600e-06	-0.0021404793255876443
5.60625e-06	-0.00665372533918447
5.60650e-06	-0.008702054772448242
5.60675e-06	-0.006635268878665871
5.60700e-06	-0.00442405660908566
5.60725e-06	-0.0011847308300538106
5.60750e-06	0.0018725065023190498
5.60775e-06	0.0009406950558519097
5.60800e-06	0.0002950170638790875
5.60825e-06	-0.0016086106579664013
5.60850e-06	-0.0039012716599527465
5.60875e-06	-0.004472793819214301
5.60900e-06	-0.003552656486841549
5.60925e-06	-0.0018530567744093572
5.60950e-06	-6.0827444612875656e-05
5.60975e-06	0.0005771438256777908
5.61000e-06	0.00016352624885778978
5.61025e-06	-0.0010810304198494794
5.61050e-06	-0.0025398374723907572
5.61075e-06	-0.0029184600532186663
5.61100e-06	-0.0023607205557277023
5.61125e-06	-0.0013127776800235832
5.61150e-06	-0.00020485216115822419
5.61175e-06	0.00018208113547144624
5.61200e-06	-8.755162753011604e-05
5.61225e-06	-0.0008754243062880231
5.61250e-06	-0.001795108010630281
5.61275e-06	-0.002035601469385447
5.61300e-06	-0.0016869000586017676
5.61325e-06	-0.001028544525739689
5.61350e-06	-0.00033018057180601574
5.61375e-06	-8.114572385930726e-05
5.61400e-06	-0.000241196522036714
5.61425e-06	-0.0007238021209952051
5.61450e-06	-0.0012870333311866566
5.61475e-06	-0.0014230421720210894
5.61500e-06	-0.0011883823988229972
5.61525e-06	-0.0007583272487586046
5.61550e-06	-0.0003019345635180871
5.61575e-06	-0.00012585401269668908
5.61600e-06	-0.00020499277055937353
5.61625e-06	-0.00048526639404664176
5.61650e-06	-0.000815257865302636
5.61675e-06	-0.0008769998303790094
5.61700e-06	-0.0007060777546323092
5.61725e-06	-0.0004124356561471966
5.61750e-06	-0.00010211395444816756
5.61775e-06	3.2673492139442605e-05
5.61800e-06	7.524344392875218e-06
5.61825e-06	-0.0001438054339930076
5.61850e-06	-0.0003265964552899777
5.61875e-06	-0.00034181564680069203
5.61900e-06	-0.0002119028551439019
5.61925e-06	-5.87168653696569e-06
5.61950e-06	0.000209715800787856
5.61975e-06	0.00031432735603314924
5.62000e-06	0.0003176086982080453
5.62025e-06	0.0002405786198774143
5.62050e-06	0.0001424397090073395
5.62075e-06	0.00014772821116601547
5.62100e-06	0.000242245028701354
5.62125e-06	0.00038262002071432394
5.62150e-06	0.0005270226774365685
5.62175e-06	0.0005998209128052432
5.62200e-06	0.0006069293414331999
5.62225e-06	0.0005613856761245183
5.62250e-06	0.0005002248796861563
5.62275e-06	0.0005016419770113391
5.62300e-06	0.0005570802427051898
5.62325e-06	0.0006396043331690636
5.62350e-06	0.0007231209314454861
5.62375e-06	0.0007603451591298567
5.62400e-06	0.0007550746533377668
5.62425e-06	0.0007155686065401125
5.62450e-06	0.000665116421678781
5.62475e-06	0.0006527870080041992
5.62500e-06	0.0006733059624798812
5.62525e-06	0.0007098875816845996
5.62550e-06	0.0007462751359482487
5.62575e-06	0.000752939775771806
5.62600e-06	0.0007323517443509883
5.62625e-06	0.0006897756614792918
5.62650e-06	0.0006398902536668173
5.62675e-06	0.0006135203524015063
5.62700e-06	0.0006074489057427207
5.62725e-06	0.000611248991576812
5.62750e-06	0.0006148258116594654
5.62775e-06	0.0005997723220526911
5.62800e-06	0.0005677264422589202
5.62825e-06	0.0005220762381467377
5.62850e-06	0.000472106246888372
5.62875e-06	0.0004372134885672037
5.62900e-06	0.00041547052707284964
5.62925e-06	0.0004004339228797012
5.62950e-06	0.0003858690296272317
5.62975e-06	0.0003603350579563505
5.63000e-06	0.0003249479556712746
5.63025e-06	0.0002819198011781793
5.63050e-06	0.00023715577985619163
5.63075e-06	0.00020289476195114463
5.63100e-06	0.000178017495071209
5.63125e-06	0.00015857615580493827
5.63150e-06	0.00014075402162855435
5.63175e-06	0.00011747379799246425
5.63200e-06	8.952398043800763e-05
5.63225e-06	5.8379585402351856e-05
5.63250e-06	2.7808495524944582e-05
5.63275e-06	5.4713192926051175e-06
5.63300e-06	-9.41834301032115e-06
5.63325e-06	-1.9432152824033047e-05
5.63350e-06	-2.70443884678838e-05
5.63375e-06	-3.676802970359862e-05
5.63400e-06	-4.8188729706157505e-05
5.63425e-06	-6.0462169926391526e-05
5.63450e-06	-7.130791098530596e-05
5.63475e-06	-7.600744942636005e-05
5.63500e-06	-7.513368158466944e-05
5.63525e-06	-7.037765825968933e-05
5.63550e-06	-6.336931335499757e-05
5.63575e-06	-5.701539098684971e-05
5.63600e-06	-5.1136054461666676e-05
5.63625e-06	-4.5282163790430306e-05
5.63650e-06	-3.8105081484039665e-05
5.63675e-06	-2.672916879158615e-05
5.63700e-06	-1.1593410610321171e-05
5.63725e-06	6.162843433249881e-06
5.63750e-06	2.543864736321539e-05
5.63775e-06	4.433338085393336e-05
5.63800e-06	6.287994096102112e-05
5.63825e-06	8.127991482658947e-05
5.63850e-06	0.00010029826813230955
5.63875e-06	0.00012165636927605448
5.63900e-06	0.00014499924739843874
5.63925e-06	0.00016953326166363605
5.63950e-06	0.00019448892497094685
5.63975e-06	0.00021859588621579262
5.64000e-06	0.00024179503342915959
5.64025e-06	0.0002641329035955615
5.64050e-06	0.0002860089336638307
5.64075e-06	0.0003084215602862425
5.64100e-06	0.00033106854853777256
5.64125e-06	0.0003533729551866558
5.64150e-06	0.00037477302260897953
5.64175e-06	0.0003943932851897148
5.64200e-06	0.0004121170532717153
5.64225e-06	0.00042789382190016597
5.64250e-06	0.00044196013765839974
5.64275e-06	0.00045511593139915476
5.64300e-06	0.0004674516884078979
