Time(s)	Current(A)
6.75000e-06	-0.0004326427013264114
6.75025e-06	-0.00047951459489996377
6.75050e-06	-0.0005263864884736749
6.75075e-06	-0.0005724297589691494
6.75100e-06	-0.0006162101078537285
6.75125e-06	-0.000659990456738456
6.75150e-06	-0.0007037708056230351
6.75175e-06	-0.0007475511545076143
6.75200e-06	-0.0007923111424910938
6.75225e-06	-0.00083736701525179
6.75250e-06	-0.000882422888012486
6.75275e-06	-0.0009274787607733349
6.75300e-06	-0.0009727173179162529
6.75325e-06	-0.0010184547755211766
6.75350e-06	-0.001064192233126255
6.75375e-06	-0.0011099296907311788
6.75400e-06	-0.0011556671483361023
6.75425e-06	-0.0012014046059411808
6.75450e-06	-0.0012471420635461045
6.75475e-06	-0.0012926568137934526
6.75500e-06	-0.0013381042987419326
6.75525e-06	-0.0013835517836902585
6.75550e-06	-0.0014289992686387384
6.75575e-06	-0.0014744467535870646
6.75600e-06	-0.0015198942385353906
6.75625e-06	-0.0015638246004794655
6.75650e-06	-0.0016036117874100335
6.75675e-06	-0.0016433989743406016
6.75700e-06	-0.0016831861612713042
6.75725e-06	-0.0017229733482018723
6.75750e-06	-0.0017627605351324402
6.75775e-06	-0.001802547722063143
6.75800e-06	-0.001842334908993711
6.75825e-06	-0.0018712124748944
6.75850e-06	-0.001896794959174562
6.75875e-06	-0.0019223774434546374
6.75900e-06	-0.001947959927734713
6.75925e-06	-0.001973542412014875
6.75950e-06	-0.0019991248962949507
6.75975e-06	-0.002024707380575113
6.76000e-06	-0.0020466107840043757
6.76025e-06	-0.0020584668308200886
6.76050e-06	-0.0020703228776358423
6.76075e-06	-0.0020799015878038628
6.76100e-06	-0.0020832610235509297
6.76125e-06	-0.0020866204592980084
6.76150e-06	-0.002086254606692856
6.76175e-06	-0.0020757152074657287
6.76200e-06	-0.0020651758082385657
6.76225e-06	-0.0020546364090114383
6.76250e-06	-0.002044097009784311
6.76275e-06	-0.0020335576105571474
6.76300e-06	-0.00202301821133002
6.76325e-06	-0.0020124788121028926
6.76350e-06	-0.0019979208299064984
6.76375e-06	-0.0019723883304851105
6.76400e-06	-0.001946855831063636
6.76425e-06	-0.0019213233316422481
6.76450e-06	-0.0018957908322208602
6.76475e-06	-0.0018702583327993858
6.76500e-06	-0.0018447258333779979
6.76525e-06	-0.00181919333395661
6.76550e-06	-0.0017922134594797157
6.76575e-06	-0.0017612808875974851
6.76600e-06	-0.0017303483157152543
6.76625e-06	-0.001699415743832919
6.76650e-06	-0.0016684831719506882
6.76675e-06	-0.0016375506000684576
6.76700e-06	-0.001606618028186122
6.76725e-06	-0.0015785613737117805
6.76750e-06	-0.0015513733454312218
6.76775e-06	-0.0015241853171505712
6.76800e-06	-0.0014969972888700125
6.76825e-06	-0.0014698092605893616
6.76850e-06	-0.0014426212323088029
6.76875e-06	-0.001416779501662228
6.76900e-06	-0.0013946144318399308
6.76925e-06	-0.0013724493620177088
6.76950e-06	-0.0013502842921954868
6.76975e-06	-0.0013265171373214898
6.77000e-06	-0.0012983747810077248
6.77025e-06	-0.0012702324246939597
6.77050e-06	-0.0012420900683800993
6.77075e-06	-0.0012126257697097132
6.77100e-06	-0.001179551323066321
6.77125e-06	-0.0011464768764228167
6.77150e-06	-0.001111337541652348
6.77175e-06	-0.001070559117061522
6.77200e-06	-0.0010297806924705578
6.77225e-06	-0.0009875390658741665
6.77250e-06	-0.0009413015193890925
6.77275e-06	-0.000893968572270654
6.77300e-06	-0.0008436441494976802
6.77325e-06	-0.000793319726724536
6.77350e-06	-0.0007414151127672252
6.77375e-06	-0.0006851950882535236
6.77400e-06	-0.0006289750637396316
6.77425e-06	-0.0005853498907785423
6.77450e-06	-0.003564129752737274
6.77475e-06	-0.010899152019193744
6.77500e-06	-0.011969172834109977
6.77525e-06	-0.009865503837509964
6.77550e-06	-0.006684127122618729
6.77575e-06	-0.002252626233725217
6.77600e-06	-8.265977495449333e-06
6.77625e-06	-0.0004215170019138748
6.77650e-06	-0.0026012164113331177
6.77675e-06	-0.005645805664238783
6.77700e-06	-0.007072393174600145
6.77725e-06	-0.00610985905483091
6.77750e-06	-0.003849232582442673
6.77775e-06	-0.0011828903903375871
6.77800e-06	0.0004302823230285577
6.77825e-06	0.0002740894218559468
6.77850e-06	-0.001131523801345132
6.77875e-06	-0.003139077906616312
6.77900e-06	-0.004289696903982942
6.77925e-06	-0.003550991890015868
6.77950e-06	-0.0019379206763599863
6.77975e-06	-0.0002644496046112075
6.78000e-06	0.0010562570739187328
6.78025e-06	0.0013113807474501233
6.78050e-06	0.000567158378891931
6.78075e-06	-0.0005436462972432717
6.78100e-06	-0.0014818741646206457
6.78125e-06	-0.0014507625101144155
6.78150e-06	-0.0005662227483627105
6.78175e-06	0.0004654616855287198
6.78200e-06	0.0012750890561126407
6.78225e-06	0.0014163008605026423
6.78250e-06	0.0009307554973768431
6.78275e-06	0.00021496182254540823
6.78300e-06	-0.00039323934693591184
6.78325e-06	-0.00039468366492554025
6.78350e-06	0.00013807525016774506
6.78375e-06	0.0007626983390902564
6.78400e-06	0.0012480243653282912
6.78425e-06	0.001314584082010834
6.78450e-06	0.0009886125517833202
6.78475e-06	0.000518609615214356
6.78500e-06	0.00011630427661476087
6.78525e-06	9.4454060017006e-05
6.78550e-06	0.0004076806127658951
6.78575e-06	0.0007789870185682445
6.78600e-06	0.0010636768985288676
6.78625e-06	0.0010868081853841803
6.78650e-06	0.0008649384737201787
6.78675e-06	0.0005538440413106324
6.78700e-06	0.0002862544058756099
6.78725e-06	0.0002581680670874838
6.78750e-06	0.00044123997034062416
6.78775e-06	0.0006620485785841101
6.78800e-06	0.0008300572954886823
6.78825e-06	0.0008357926091212757
6.78850e-06	0.0006897406775334463
6.78875e-06	0.0004895706768192351
6.78900e-06	0.00031829540163660046
6.78925e-06	0.0002979832633012668
6.78950e-06	0.00040989709407253665
6.78975e-06	0.0005449054646754229
6.79000e-06	0.0006462547477311164
6.79025e-06	0.0006454112594412035
6.79050e-06	0.0005489866395627764
6.79075e-06	0.00041820075246027353
6.79100e-06	0.0003050875552119153
6.79125e-06	0.00028613945293258806
6.79150e-06	0.00034964546432223755
6.79175e-06	0.00042727545586456806
6.79200e-06	0.00048351327427999447
6.79225e-06	0.0004754674255988633
6.79250e-06	0.00040731914056389625
6.79275e-06	0.00031745414244694806
6.79300e-06	0.00023850083983505767
6.79325e-06	0.00021840478522225322
6.79350e-06	0.00024985909834192825
6.79375e-06	0.0002900930529500957
6.79400e-06	0.00031689354415308495
6.79425e-06	0.00030342974004205544
6.79450e-06	0.0002523582646470035
6.79475e-06	0.00018776014513121475
6.79500e-06	0.0001301079739423121
6.79525e-06	0.00010946668299304841
6.79550e-06	0.00012129000995597364
6.79575e-06	0.00013881858693463666
6.79600e-06	0.00014817217900176395
6.79625e-06	0.00013257942937826427
6.79650e-06	9.374054843140265e-05
6.79675e-06	4.6775198577083994e-05
6.79700e-06	4.5414667177096196e-06
6.79725e-06	-1.4095401930023374e-05
6.79750e-06	-1.1951290560515696e-05
6.79775e-06	-5.755452687773353e-06
6.79800e-06	-4.168502023959057e-06
6.79825e-06	-1.76611734976029e-05
6.79850e-06	-4.513322257319103e-05
6.79875e-06	-7.705241495969052e-05
6.79900e-06	-0.00010500595219847494
6.79925e-06	-0.00011605313543429736
6.79950e-06	-0.0001105638022908876
6.79975e-06	-9.843305397065021e-05
6.80000e-06	-8.520223568340938e-05
6.80025e-06	-7.766010169211852e-05
6.80050e-06	-7.534707632932949e-05
6.80075e-06	-7.252210709456775e-05
6.80100e-06	-6.41458458965753e-05
6.80125e-06	-4.234328465748928e-05
6.80150e-06	-7.577460516468923e-06
6.80175e-06	3.372228183121399e-05
6.80200e-06	7.785424525925925e-05
6.80225e-06	0.00012033570829270798
6.80250e-06	0.0001612244919893821
6.80275e-06	0.00020388655509556196
6.80300e-06	0.00025124801270384007
6.80325e-06	0.00030801089908702814
6.80350e-06	0.0003736540806650601
6.80375e-06	0.00044391933005442246
6.80400e-06	0.0005162573601148493
6.80425e-06	0.0005876298778015571
6.80450e-06	0.0006578428879385624
6.80475e-06	0.0007287745520346071
6.80500e-06	0.0008020273415783046
6.80525e-06	0.0008807715102186842
6.80550e-06	0.0009644623104570849
6.80575e-06	0.0010481531106954856
6.80600e-06	0.001131070039823831
6.80625e-06	0.0012121651858391174
6.80650e-06	0.001292003340123584
6.80675e-06	0.001368882388843586
6.80700e-06	0.0014457294539684867
6.80725e-06	0.0015225012259696853
6.80750e-06	0.0015977448600913472
6.80775e-06	0.001669391078900336
6.80800e-06	0.0017410372977095675
6.80825e-06	0.0018089461966980039
6.80850e-06	0.0018680570076782047
6.80875e-06	0.0019243790504731306
6.80900e-06	0.0019741360067598588
6.80925e-06	0.0020226548178614518
6.80950e-06	0.0020682588903728023
6.80975e-06	0.0021116449014312983
6.81000e-06	0.0021498093363858223
6.81025e-06	0.002187973771340476
6.81050e-06	0.002222801453670294
6.81075e-06	0.002249774030025326
6.81100e-06	0.002276746606380267
6.81125e-06	0.0023018926759189903
6.81150e-06	0.0023227389347679666
6.81175e-06	0.002343585193616872
6.81200e-06	0.002360599407194842
6.81225e-06	0.002368592537975189
6.81250e-06	0.002376585668755509
6.81275e-06	0.0023845787995358286
6.81300e-06	0.0023925719303161752
6.81325e-06	0.0024005650610964954
6.81350e-06	0.002408558191876815
6.81375e-06	0.002416551322657162
6.81400e-06	0.002424544453437482
6.81425e-06	0.002423021033674488
6.81450e-06	0.002419090770234077
6.81475e-06	0.002415160506793679
6.81500e-06	0.002411230243353268
6.81525e-06	0.0024072999799128704
6.81550e-06	0.0024033697164724723
6.81575e-06	0.0023994394530320613
6.81600e-06	0.002395509189591663
6.81625e-06	0.0023903233075808963
6.81650e-06	0.0023821815525874993
6.81675e-06	0.00237403979759413
6.81700e-06	0.002365898042600761
6.81725e-06	0.002357756287607364
6.81750e-06	0.002349614532613995
6.81775e-06	0.0023414727776206257
6.81800e-06	0.0023333310226272288
6.81825e-06	0.002325189267633859
6.81850e-06	0.00231704751264049
6.81875e-06	0.002308905757647093
6.81900e-06	0.0023039982529141434
6.81925e-06	0.0022999087267916046
6.81950e-06	0.002295819200669079
6.81975e-06	0.0022917296745465538
6.82000e-06	0.002287640148424015
6.82025e-06	0.0022835506223014895
6.82050e-06	0.002279461096178964
6.82075e-06	0.0022753715700564252
6.82100e-06	0.0022712820439339
6.82125e-06	0.0022671925178113744
6.82150e-06	0.002265095817893802
6.82175e-06	0.0022676904639602298
6.82200e-06	0.002270285110026657
6.82225e-06	0.0022728797560930937
6.82250e-06	0.002275474402159521
6.82275e-06	0.0022780690482259486
6.82300e-06	0.002280663694292385
6.82325e-06	0.0022832583403588126
6.82350e-06	0.002285852986425249
6.82375e-06	0.0022884476324916765
6.82400e-06	0.002291042278558104
6.82425e-06	0.0022936369246245405
6.82450e-06	0.002296231570690968
6.82475e-06	0.0023015492903874332
6.82500e-06	0.002307555706320823
6.82525e-06	0.0023135621222541932
6.82550e-06	0.002319568538187563
6.82575e-06	0.0023255749541209528
6.82600e-06	0.002331581370054323
6.82625e-06	0.0023375877859876924
6.82650e-06	0.0023435942019210828
6.82675e-06	0.0023496006178544524
6.82700e-06	0.0023556070337878224
6.82725e-06	0.0023616134497212123
6.82750e-06	0.002367619865654582
6.82775e-06	0.0023729125174229326
6.82800e-06	0.0023765248848592224
6.82825e-06	0.0023801372522955122
6.82850e-06	0.002383749619731814
6.82875e-06	0.002387361987168104
6.82900e-06	0.0023909743546043937
6.82925e-06	0.0023945867220406957
6.82950e-06	0.002394838017980961
6.82975e-06	0.0023871769584821742
6.83000e-06	0.0023795158989833617
6.83025e-06	0.002371854839484575
6.83050e-06	0.002364193779985788
6.83075e-06	0.002356532720486975
6.83100e-06	0.002348871660988188
6.83125e-06	0.0023360598977337555
6.83150e-06	0.0023111227753719365
6.83175e-06	0.002286185653010202
6.83200e-06	0.0022612485306483833
6.83225e-06	0.002236311408286649
6.83250e-06	0.0022113742859249143
6.83275e-06	0.002186437163563095
6.83300e-06	0.0021615000412013607
6.83325e-06	0.002132204542273374
6.83350e-06	0.002092648915119054
6.83375e-06	0.0020530932879648674
6.83400e-06	0.002013537660810681
6.83425e-06	0.0019739820336563607
6.83450e-06	0.001934426406502174
6.83475e-06	0.0018948707793479877
6.83500e-06	0.0018553151521936673
6.83525e-06	0.0018141727389990845
6.83550e-06	0.0017692948458628913
6.83575e-06	0.001724416952726546
6.83600e-06	0.0016795390595903525
6.83625e-06	0.0016346611664540072
6.83650e-06	0.0015897832733178137
6.83675e-06	0.0015460215087328675
6.83700e-06	0.0015048872413081845
6.83725e-06	0.0014637529738836409
6.83750e-06	0.0014226187064590972
6.83775e-06	0.001381484439034414
6.83800e-06	0.0013403501716098703
6.83825e-06	0.0013016389406271705
6.83850e-06	0.0012686318208447896
6.83875e-06	0.0012356247010625206
6.83900e-06	0.0012044134291979971
6.83925e-06	0.0011774297933873914
6.83950e-06	0.0011504461575768772
6.83975e-06	0.0011244526769498015
6.84000e-06	0.0011007901374402856
6.84025e-06	0.0010771275979308502
6.84050e-06	0.0010547784625277942
6.84075e-06	0.001035521234016719
6.84100e-06	0.001016264005505644
6.84125e-06	0.0009979250168127153
6.84150e-06	0.0009817476720558934
6.84175e-06	0.0009655703272990716
6.84200e-06	0.0009507935562625137
6.84225e-06	0.0009393138995848206
6.84250e-06	0.0009278342429071275
6.84275e-06	0.0009163545862293954
6.84300e-06	0.0009048749295517023
6.84325e-06	0.0008933952728740091
6.84350e-06	0.0008819156161962772
6.84375e-06	0.0008704359595185841
6.84400e-06	0.000858956302840891
6.84425e-06	0.0008489457203487494
6.84450e-06	0.0008423935103228461
6.84475e-06	0.0008358413002969207
6.84500e-06	0.0008292890902710175
6.84525e-06	0.0008227368802451142
6.84550e-06	0.0008161846702191888
6.84575e-06	0.0008096324601932855
6.84600e-06	0.0008030802501673823
6.84625e-06	0.0007965280401414568
6.84650e-06	0.0007906485962751284
6.84675e-06	0.0007863529226398559
6.84700e-06	0.0007820572490045689
6.84725e-06	0.0007777615753692963
6.84750e-06	0.0007734659017340239
6.84775e-06	0.0007698135671117386
6.84800e-06	0.0007663239402297629
6.84825e-06	0.0007628343133477874
6.84850e-06	0.0007593446864657999
6.84875e-06	0.0007564142374139162
6.84900e-06	0.0007548001583793339
6.84925e-06	0.0007531860793447571
6.84950e-06	0.0007533617048789787
6.84975e-06	0.000757750504304208
6.85000e-06	0.0007637315331709955
6.85025e-06	0.0007734608563811903
6.85050e-06	0.0007846176058799448
6.85075e-06	0.0007991346838232549
6.85100e-06	0.0008152244504983841
6.85125e-06	0.0008350165104005528
6.85150e-06	0.00085678654654428
6.85175e-06	0.0008832129701181465
6.85200e-06	0.0009114337549428552
6.85225e-06	0.0009438786760321915
6.85250e-06	0.0009778285701788423
6.85275e-06	0.001015321346934213
6.85300e-06	0.0010546030357547335
6.85325e-06	0.0010980960328200672
6.85350e-06	0.0011415890298852537
6.85375e-06	0.0011870782452372097
6.85400e-06	0.0012372667919272279
6.85425e-06	0.001287455338617076
6.85450e-06	0.0013392086513690634
6.85475e-06	0.0013946456064567985
6.85500e-06	0.0014500825615443456
6.85525e-06	0.0015055195166318927
6.85550e-06	0.0015609564717196276
6.85575e-06	0.001616393426807175
6.85600e-06	0.001672496436486445
6.85625e-06	0.0017287678989339169
6.85650e-06	0.0017850393613811982
6.85675e-06	0.0018413108238284795
6.85700e-06	0.0018975822862759514
6.85725e-06	0.001951276127270658
6.85750e-06	0.0019989019458710768
6.85775e-06	0.002046527764471334
6.85800e-06	0.002094153583071591
6.85825e-06	0.00214177940167201
6.85850e-06	0.002189405220272267
6.85875e-06	0.00223103038654813
6.85900e-06	0.002258529315378251
6.85925e-06	0.0022860282442082784
6.85950e-06	0.002313527173038306
6.85975e-06	0.002341026101868427
6.86000e-06	0.0023685250306984544
6.86025e-06	0.002390175051401351
6.86050e-06	0.002398056058248203
6.86075e-06	0.0024059370650950282
6.86100e-06	0.0024097403457808493
6.86125e-06	0.0024039441821274957
6.86150e-06	0.0023981480184741616
6.86175e-06	0.0023884566474503682
6.86200e-06	0.0023695955026692556
6.86225e-06	0.002350734357888143
6.86250e-06	0.0023283392485559263
6.86275e-06	0.0022976247733166094
6.86300e-06	0.002266910298077293
6.86325e-06	0.002233099621091118
6.86350e-06	0.002192000123042693
6.86375e-06	0.0021509006249942684
6.86400e-06	0.0021065972519860106
6.86425e-06	0.0020547515825782904
6.86450e-06	0.00200290591317057
6.86475e-06	0.0019510602437626742
6.86500e-06	0.001899214574354954
6.86525e-06	0.001847368904947234
6.86550e-06	0.0017902323537021332
6.86575e-06	0.001731757678373221
6.86600e-06	0.0016732830030441108
6.86625e-06	0.0016148083277151989
6.86650e-06	0.0015563336523862865
6.86675e-06	0.0014985802777095084
6.86700e-06	0.00144252492913607
6.86725e-06	0.0013864695805626316
6.86750e-06	0.0013304142319890033
6.86775e-06	0.0012743588834155648
6.86800e-06	0.0012263461242341231
6.86825e-06	0.0011803674272171149
6.86850e-06	0.0011343887302002623
6.86875e-06	0.0010884100331834097
6.86900e-06	0.0010458131458068295
6.86925e-06	0.0010111774338798626
6.86950e-06	0.000978774846761254
6.86975e-06	0.0009516292966405402
6.87000e-06	0.000926804604950223
6.87025e-06	0.0009074434854656285
6.87050e-06	0.0008905187332607061
6.87075e-06	0.0008793294746033103
6.87100e-06	0.0008706001500850838
6.87125e-06	0.0008676617982583415
6.87150e-06	0.000867023896447481
6.87175e-06	0.0008718015230476137
6.87200e-06	0.0008787638391799979
6.87225e-06	0.0008908691700048499
6.87250e-06	0.0009050608533887119
6.87275e-06	0.0009241640547277332
6.87300e-06	0.0009451976907686996
6.87325e-06	0.0009707757958924998
6.87350e-06	0.0009980137420083832
6.87375e-06	0.0010291591479639959
6.87400e-06	0.00106202720227023
6.87425e-06	0.0010989505722838644
6.87450e-06	0.0011358739422976237
6.87475e-06	0.001174754952973759
6.87500e-06	0.0012182444787457263
6.87525e-06	0.0012617340045178408
6.87550e-06	0.001305223530289808
6.87575e-06	0.0013487130560617753
6.87600e-06	0.0013922025818338898
6.87625e-06	0.0014369764580431127
6.87650e-06	0.0014820751610590333
6.87675e-06	0.0015271738640751065
6.87700e-06	0.001572272567091027
6.87725e-06	0.0016173712701069475
6.87750e-06	0.0016611356431337828
6.87775e-06	0.0017017588472955064
6.87800e-06	0.0017423820514572298
6.87825e-06	0.0017809854704719517
6.87850e-06	0.001814834079005493
6.87875e-06	0.001848682687539149
6.87900e-06	0.0018795808282214056
6.87925e-06	0.0019035332224796365
6.87950e-06	0.0019235172907839174
6.87975e-06	0.0019341594556363875
6.88000e-06	0.0019407633748903252
6.88025e-06	0.0019378607916712045
6.88050e-06	0.0019310816162386073
6.88075e-06	0.0019151764893093242
6.88100e-06	0.0018951612361242443
6.88125e-06	0.0018654702649918765
6.88150e-06	0.0018311809622329168
6.88175e-06	0.0017860666489804937
6.88200e-06	0.0017367107001485206
6.88225e-06	0.0016773694450387634
6.88250e-06	0.0016142882785590972
6.88275e-06	0.0015424029232765223
6.88300e-06	0.001467031755267499
6.88325e-06	0.0013834545763832015
6.88350e-06	0.0012964862340010758
6.88375e-06	0.001201534696097356
6.88400e-06	0.0011038158049570517
6.88425e-06	0.0009995822406137483
6.88450e-06	0.0008932958952054575
6.88475e-06	0.0007821770630680218
6.88500e-06	0.0006695648851154284
6.88525e-06	0.000553437196444504
6.88550e-06	0.0004362755920726571
6.88575e-06	0.0003166800292080964
6.88600e-06	0.00019684142008815554
6.88625e-06	7.643065165654418e-05
6.88650e-06	-4.363138555667822e-05
6.88675e-06	-0.00016236084114763994
6.88700e-06	-0.00027920112705025993
6.88725e-06	-0.00039360084268772854
6.88750e-06	-0.0005050398587515757
6.88775e-06	-0.0006128648167386064
6.88800e-06	-0.0007163118866887587
6.88825e-06	-0.0008145996481076665
6.88850e-06	-0.0009069467734178647
6.88875e-06	-0.0009925763614178054
6.88900e-06	-0.00107077655094295
6.88925e-06	-0.0011410622715234936
6.88950e-06	-0.0012032206887447057
6.88975e-06	-0.0012571297312372442
6.89000e-06	-0.001302639557944489
6.89025e-06	-0.001339588339278447
6.89050e-06	-0.0013678144560639953
6.89075e-06	-0.0013871589493660943
6.89100e-06	-0.0013975036762191794
6.89125e-06	-0.0013988725048390905
6.89150e-06	-0.001391459915009258
6.89175e-06	-0.0013755172270734225
6.89200e-06	-0.0013512783388898964
6.89225e-06	-0.001318969725258451
6.89250e-06	-0.0012788177669813244
6.89275e-06	-0.001231050708975897
6.89300e-06	-0.0011759223188855046
6.89325e-06	-0.001113775236491983
6.89350e-06	-0.0010450589293103784
6.89375e-06	-0.0009702586872056966
6.89400e-06	-0.0008898486357698279
6.89425e-06	-0.000804298161580131
6.89450e-06	-0.0007140766859220837
6.89475e-06	-0.000619654770388964
6.89500e-06	-0.0005215189093864773
6.89525e-06	-0.0004202112477968724
6.89550e-06	-0.0003163408855623235
6.89575e-06	-0.00021053910398135265
6.89600e-06	-0.00010343031252224337
6.89625e-06	4.364075724574852e-06
