Time(s)	Current(A)
1.45500e-05	0.0014614349529210818
1.45503e-05	0.0014662852728610034
1.45505e-05	0.001471135592800958
1.45508e-05	0.0014759859127409126
1.45510e-05	0.0014808362326808342
1.45513e-05	0.0014856865526207887
1.45515e-05	0.0014905368725607433
1.45518e-05	0.0014953871925006978
1.45520e-05	0.0015002375124406194
1.45523e-05	0.001505087832380574
1.45525e-05	0.0015099381523205285
1.45528e-05	0.0015147884722604501
1.45530e-05	0.0015142446104492446
1.45533e-05	0.0015106550992211362
1.45535e-05	0.0015070655879930522
1.45538e-05	0.0015034760767649437
1.45540e-05	0.0014998865655368352
1.45543e-05	0.001496297054308751
1.45545e-05	0.0014927075430806425
1.45548e-05	0.001489118031852534
1.45550e-05	0.0014855285206244499
1.45553e-05	0.0014819390093963414
1.45555e-05	0.001478349498168233
1.45558e-05	0.0014747599869401487
1.45560e-05	0.001459461396218315
1.45563e-05	0.0014375516543006653
1.45565e-05	0.001415641912383164
1.45568e-05	0.001393732170465514
1.45570e-05	0.0013718224285478643
1.45573e-05	0.001349912686630363
1.45575e-05	0.0013280029447127132
1.45578e-05	0.0013060932027950634
1.45580e-05	0.001284183460877562
1.45583e-05	0.0012622737189599122
1.45585e-05	0.0012403639770422624
1.45588e-05	0.0012184542351247611
1.45590e-05	0.0011907184784666622
1.45593e-05	0.0011596932519282823
1.45595e-05	0.0011286680253901125
1.45598e-05	0.0010976427988517324
1.45600e-05	0.0010666175723133525
1.45603e-05	0.0010355923457749726
1.45605e-05	0.0010046492809274961
1.45608e-05	0.0009737526060082436
1.45610e-05	0.000942855931088991
1.45613e-05	0.0009119592561699477
1.45615e-05	0.0008810625812506951
1.45618e-05	0.0008501659063314426
1.45620e-05	0.0008216362829974402
1.45623e-05	0.0007944431384127446
1.45625e-05	0.0007672499938280492
1.45628e-05	0.000742444306392214
1.45630e-05	0.0007189866190440866
1.45633e-05	0.0006977979609303502
1.45635e-05	0.0006778904364316846
1.45638e-05	0.0006579829119328841
1.45640e-05	0.0006388100571704897
1.45643e-05	0.000620052009798514
1.45645e-05	0.0006012939624264113
1.45648e-05	0.0005825359150543085
1.45650e-05	0.0005637778676823329
1.45653e-05	0.0005457794132321831
1.45655e-05	0.0005282098382390794
1.45658e-05	0.0005106402632460947
1.45660e-05	0.0004930706882529909
1.45663e-05	0.0004755011132598872
1.45665e-05	0.00045764078652890623
1.45668e-05	0.00043961629627820183
1.45670e-05	0.00042159180602749743
1.45673e-05	0.0004035673157769152
1.45675e-05	0.0003855428255262108
1.45678e-05	0.0003675183352755064
1.45680e-05	0.00034945532688393846
1.45683e-05	0.00033115399428166107
1.45685e-05	0.00031285266167938367
1.45688e-05	0.0002945513290772303
1.45690e-05	0.0002762499964749529
1.45693e-05	0.0002579486638726755
1.45695e-05	0.0002396473312703981
1.45698e-05	0.00022155638182768308
1.45700e-05	0.00020358421839850976
1.45703e-05	0.00018561205496933644
1.45705e-05	0.00016794037757109445
1.45708e-05	0.0001504383598444384
1.45710e-05	0.0001335056540886284
1.45713e-05	0.00011689439183502251
1.45715e-05	0.00010079111790402245
1.45718e-05	8.527376175827673e-05
1.45720e-05	7.0245688378408e-05
1.45723e-05	5.5785588357781815e-05
1.45725e-05	4.1999707391135207e-05
1.45728e-05	2.899538550632669e-05
1.45730e-05	1.6879946079248125e-05
1.45733e-05	5.656329874678143e-06
1.45735e-05	-5.088660040742413e-06
1.45738e-05	-1.612559772571375e-05
1.45740e-05	-2.7958523297885546e-05
1.45743e-05	-4.062243212658505e-05
1.45745e-05	-5.398884816909023e-05
1.45748e-05	-6.792274461526371e-05
1.45750e-05	-8.22891237587827e-05
1.45753e-05	-9.701837013984824e-05
1.45755e-05	-0.00011230153733218853
1.45758e-05	-0.00012855350627370994
1.45760e-05	-0.00014602215892447372
1.45763e-05	-0.00016466155500136702
1.45765e-05	-0.00018432337900452366
1.45768e-05	-0.00020485522347472895
1.45770e-05	-0.0002262882200188061
1.45773e-05	-0.00024806396062490316
1.45775e-05	-0.00027077181417208256
1.45778e-05	-0.00029400595499847176
1.45780e-05	-0.0003186057556887258
1.45783e-05	-0.00034397663183813874
1.45785e-05	-0.00036934750798772357
1.45788e-05	-0.00039576324820312693
1.45790e-05	-0.00042276893695592297
1.45793e-05	-0.000449774625708902
1.45795e-05	-0.000476780314461881
1.45798e-05	-0.0005037860032146771
1.45800e-05	-0.000530980628513839
1.45803e-05	-0.0005582819306935332
1.45805e-05	-0.0005855832328730423
1.45808e-05	-0.0006128845350527366
1.45810e-05	-0.0006401858372324307
1.45813e-05	-0.0006667181342611592
1.45815e-05	-0.0006919081496382952
1.45818e-05	-0.0007165854427029888
1.45820e-05	-0.0007412627357675152
1.45823e-05	-0.0007640418587820504
1.45825e-05	-0.0007857492417665098
1.45828e-05	-0.0008074566247508222
1.45830e-05	-0.000826818242173412
1.45833e-05	-0.0008448553993066336
1.45835e-05	-0.0008597717328826352
1.45838e-05	-0.0008729259948609783
1.45840e-05	-0.00088182237649548
1.45843e-05	-0.0008883146843707634
1.45845e-05	-0.0008905639742954386
1.45848e-05	-0.0008904175820282408
1.45850e-05	-0.0008861358916090461
1.45853e-05	-0.0008795193394814984
1.45855e-05	-0.0008684477338334259
1.45858e-05	-0.0008548607270000677
1.45860e-05	-0.0008365152431690759
1.45863e-05	-0.0008154830399473823
1.45865e-05	-0.0007901105342737167
1.45868e-05	-0.0007622874178764202
1.45870e-05	-0.0007306002652547304
1.45873e-05	-0.000696731410156468
1.45875e-05	-0.0006592070015666665
1.45878e-05	-0.0006196186034993858
1.45880e-05	-0.0005765933653564233
1.45883e-05	-0.0005316276271589395
1.45885e-05	-0.0004838957167046012
1.45888e-05	-0.0004346019769834222
1.45890e-05	-0.0003832490703534935
1.45893e-05	-0.00033073352204883883
1.45895e-05	-0.00027669795456502344
1.45898e-05	-0.0002218041576511383
1.45900e-05	-0.00016593585788825173
1.45903e-05	-0.00010951733676221798
1.45905e-05	-5.288225763953033e-05
1.45908e-05	3.7339244346514745e-06
1.45910e-05	5.9915108523180146e-05
1.45913e-05	0.00011533705177104182
1.45915e-05	0.000169715911805552
1.45918e-05	0.00022279567861428708
1.45920e-05	0.00027428101508444755
1.45923e-05	0.000323821478100174
1.45925e-05	0.0003710482901081609
1.45928e-05	0.0004155919860791207
1.45930e-05	0.00045708317779357636
1.45933e-05	0.000495245458950531
1.45935e-05	0.0005301917173865721
1.45938e-05	0.0005624187060328565
1.45940e-05	0.000592270933379628
1.45943e-05	0.0006188877560619729
1.45945e-05	0.0006441472033460158
1.45948e-05	0.000665850464979141
1.45950e-05	0.0006855458419564655
1.45953e-05	0.0007014862976017744
1.45955e-05	0.0007153066589477808
1.45958e-05	0.0007260833732945671
1.45960e-05	0.0007351415912781986
1.45963e-05	0.0007414439606955514
1.45965e-05	0.0007461903297817734
1.45968e-05	0.000748091006297557
1.45970e-05	0.000748384954985171
1.45973e-05	0.0007458794165901443
1.45975e-05	0.0007417932387940328
1.45978e-05	0.0007350608605590174
1.45980e-05	0.0007268343912446521
1.45983e-05	0.0007186079219303425
1.45985e-05	0.0007077187342732664
1.45988e-05	0.0006953261292392529
1.45990e-05	0.0006829335242053232
1.45993e-05	0.0006683347373377889
1.45995e-05	0.0006524903015962849
1.45998e-05	0.0006366458658548882
1.46000e-05	0.0006194466106409257
1.46003e-05	0.0006014824006418644
1.46005e-05	0.0005835181906429248
1.46008e-05	0.0005655539806438635
1.46010e-05	0.0005475897706448023
1.46013e-05	0.0005296255606458628
1.46015e-05	0.0005116613506468014
1.46018e-05	0.0004936971406477402
1.46020e-05	0.00047573293064880057
1.46023e-05	0.0004591626771375802
1.46025e-05	0.0004433794758553571
1.46028e-05	0.000427596274573241
1.46030e-05	0.00041345217142769064
1.46033e-05	0.0004002335317763772
1.46035e-05	0.0003884218591490169
1.46038e-05	0.0003774045847271414
1.46040e-05	0.00036638731030519124
1.46043e-05	0.00035665559259364456
1.46045e-05	0.00034764972269972754
1.46048e-05	0.0003386438528057495
1.46050e-05	0.00033094721900459246
1.46053e-05	0.00032398980281480514
1.46055e-05	0.00031814449914452744
1.46058e-05	0.0003129271136662097
1.46060e-05	0.00030770972818792736
1.46063e-05	0.00030351261469169384
1.46065e-05	0.0002998915646126511
1.46068e-05	0.00029627051453363294
1.46070e-05	0.0002937746784496604
1.46073e-05	0.0002919141578800528
1.46075e-05	0.00029005363731045774
1.46078e-05	0.00028901643876126903
1.46080e-05	0.000288444102234058
1.46083e-05	0.00028787176570685077
1.46085e-05	0.00028830263332880974
1.46088e-05	0.00028929992757080307
1.46090e-05	0.00029029722181278967
1.46093e-05	0.00029129451605478305
1.46095e-05	0.0002922918102967764
1.46098e-05	0.000293289104538763
1.46100e-05	0.0002944512431794133
1.46103e-05	0.00029663332749422724
1.46105e-05	0.00029881541180902646
1.46108e-05	0.0003009974961238404
1.46110e-05	0.0003031795804386544
1.46113e-05	0.00030536166475345354
1.46115e-05	0.0003075437490682675
1.46118e-05	0.0003097625550986348
1.46120e-05	0.0003120020948522838
1.46123e-05	0.0003142416346059177
1.46125e-05	0.00031648117435956674
1.46128e-05	0.00031856308547834457
1.46130e-05	0.00031966969719003614
1.46133e-05	0.0003207763089017353
1.46135e-05	0.0003218829206134344
1.46138e-05	0.000322989532325126
1.46140e-05	0.00032214839134039614
1.46143e-05	0.0003202075150948909
1.46145e-05	0.0003168192854266454
1.46148e-05	0.00031261385468520927
1.46150e-05	0.00030708486179365847
1.46153e-05	0.0003008085625480455
1.46155e-05	0.00029300480362635527
1.46158e-05	0.0002843386142389146
1.46160e-05	0.00027387264297695465
1.46163e-05	0.00026239048336984224
1.46165e-05	0.00024968036270139757
1.46168e-05	0.00023554324349757598
1.46170e-05	0.00022032186446657736
1.46173e-05	0.00020409588768436514
1.46175e-05	0.0001868671292543536
1.46178e-05	0.00016857548489145004
1.46180e-05	0.0001492204256768393
1.46183e-05	0.00012889613850219534
1.46185e-05	0.00010772919255313203
1.46188e-05	8.584743165635802e-05
1.46190e-05	6.337868276153114e-05
1.46193e-05	4.0438231341060276e-05
1.46195e-05	1.7092602376168503e-05
1.46198e-05	-6.630467156736691e-06
1.46200e-05	-3.070366901901424e-05
1.46203e-05	-5.4899063890654266e-05
1.46205e-05	-7.909445876229428e-05
1.46208e-05	-0.00010328985363377035
1.46210e-05	-0.00012709991561717522
1.46213e-05	-0.00015069241190797817
1.46215e-05	-0.00017361816524203368
1.46218e-05	-0.0001961674638339455
1.46220e-05	-0.00021777963645032045
1.46223e-05	-0.00023886269133963675
1.46225e-05	-0.00025900213772035935
1.46228e-05	-0.0002778465086802236
1.46230e-05	-0.0002953981938825266
1.46233e-05	-0.0003114570659188354
1.46235e-05	-0.00032566229591201196
1.46238e-05	-0.0003375513424989344
1.46240e-05	-0.0003468361435519598
1.46243e-05	-0.000353461337805681
1.46245e-05	-0.00035744799759961424
1.46248e-05	-0.0003588201788951037
1.46250e-05	-0.0003576018866575075
1.46253e-05	-0.00035378980391698097
1.46255e-05	-0.0003472798930085482
1.46258e-05	-0.00033790444606343346
1.46260e-05	-0.00032560505004621877
1.46263e-05	-0.0003104690710288044
1.46265e-05	-0.0002926317711050686
1.46268e-05	-0.0002722302479178502
1.46270e-05	-0.0002494015724096719
1.46273e-05	-0.00022426566277341538
1.46275e-05	-0.00019687938805205515
1.46278e-05	-0.00016725971446088746
1.46280e-05	-0.00013549208080167923
1.46283e-05	-0.00010175322572726084
1.46285e-05	-6.624987623903379e-05
1.46288e-05	-2.9189891182499976e-05
1.46290e-05	9.218877161176222e-06
1.46293e-05	4.8779341979985686e-05
1.46295e-05	8.93339421953687e-05
1.46298e-05	0.00013094610187369758
1.46300e-05	0.00017296301814145236
1.46303e-05	0.00021542401583619228
1.46305e-05	0.0002581357496765982
1.46308e-05	0.00030084748351671476
1.46310e-05	0.000342824226439773
1.46313e-05	0.000384385980627342
1.46315e-05	0.0004259477348146294
1.46318e-05	0.0004659315827552391
1.46320e-05	0.0005050245172128243
1.46323e-05	0.0005421069177119345
1.46325e-05	0.0005780541355507732
1.46328e-05	0.000611276234077715
1.46330e-05	0.0006429596825467666
1.46333e-05	0.0006712689089264974
1.46335e-05	0.0006976729904598499
1.46338e-05	0.0007240770719930235
1.46340e-05	0.0007487276143424258
1.46343e-05	0.000772388077778622
1.46345e-05	0.000796048541214658
1.46348e-05	0.0008175032568471336
1.46350e-05	0.0008377125686652168
1.46353e-05	0.000857921880483163
1.46355e-05	0.0008753237190859934
1.46358e-05	0.0008911404091757954
1.46360e-05	0.0009069570992654902
1.46363e-05	0.0009227737893552921
1.46365e-05	0.0009385904794450941
1.46368e-05	0.0009544071695347888
1.46370e-05	0.0009702238596245908
1.46373e-05	0.0009860405497143926
1.46375e-05	0.0010018572398041946
1.46378e-05	0.0010150275930469947
1.46380e-05	0.0010267037781904855
1.46383e-05	0.001038379963333976
1.46385e-05	0.0010500561484773875
1.46388e-05	0.0010617323336208782
1.46390e-05	0.0010734085187643688
1.46393e-05	0.0010850847039077802
1.46395e-05	0.001096760889051271
1.46398e-05	0.0011084370741947615
1.46400e-05	0.0011184881078418307
1.46403e-05	0.0011276215525109856
1.46405e-05	0.0011367549971801406
1.46408e-05	0.0011458884418492337
1.46410e-05	0.0011550218865183886
1.46413e-05	0.0011641553311875436
1.46415e-05	0.001172966399522937
1.46418e-05	0.0011797828210867458
1.46420e-05	0.0011865992426505546
1.46423e-05	0.0011934156642143172
1.46425e-05	0.0012002320857781258
1.46428e-05	0.0012070485073419346
1.46430e-05	0.0012138649289056972
1.46433e-05	0.0012182513870977866
1.46435e-05	0.001221265845441187
1.46438e-05	0.0012242803037845668
1.46440e-05	0.001221799210876801
1.46443e-05	0.0012162152335500377
1.46445e-05	0.001210631256223312
1.46448e-05	0.0012004922808997232
1.46450e-05	0.0011877814739860062
1.46453e-05	0.0011715349799930775
1.46455e-05	0.0011532921751938486
1.46458e-05	0.0011305792684711624
1.46460e-05	0.001105342463967215
1.46463e-05	0.0010756781171841613
1.46465e-05	0.0010435139025395802
1.46468e-05	0.001007558010508652
1.46470e-05	0.0009694612710640286
1.46473e-05	0.0009280325281514546
1.46475e-05	0.0008847224777645191
1.46478e-05	0.0008379223133441721
1.46480e-05	0.0007891515694563006
1.46483e-05	0.0007373447678779284
1.46485e-05	0.0006838237549909324
1.46488e-05	0.0006280921331753265
1.46490e-05	0.0005711123628688287
1.46493e-05	0.0005123248865592615
1.46495e-05	0.00045251674780131737
1.46498e-05	0.00039270860904337326
1.46500e-05	0.00033170731215074345
1.46503e-05	0.0002700323372919826
1.46505e-05	0.00020835736243322178
1.46508e-05	0.00014668238757487885
1.46510e-05	8.561730097306929e-05
1.46513e-05	2.5593942508799248e-05
1.46515e-05	-3.318559998504143e-05
1.46518e-05	-9.050564115879793e-05
1.46520e-05	-0.00014609224771562837
1.46523e-05	-0.00019957945138860967
1.46525e-05	-0.0002505699346614627
1.46528e-05	-0.00029866516018212824
1.46530e-05	-0.00034346663589976574
1.46533e-05	-0.0003846330442908983
1.46535e-05	-0.0004220738033793637
1.46538e-05	-0.00045597510713081947
1.46540e-05	-0.0004864831375896588
1.46543e-05	-0.0005135483560834148
1.46545e-05	-0.0005370451352634694
1.46548e-05	-0.0005568445985605715
1.46550e-05	-0.000572817932421396
1.46553e-05	-0.0005848720748814037
1.46555e-05	-0.0005930711295029064
1.46558e-05	-0.0005976524861137941
1.46560e-05	-0.0005988284655920457
1.46563e-05	-0.000596688820192486
1.46565e-05	-0.000591275639095625
1.46568e-05	-0.0005826289481669782
1.46570e-05	-0.0005707887942773735
1.46573e-05	-0.0005558176945990119
1.46575e-05	-0.0005378765679578699
1.46578e-05	-0.0005172348111178319
1.46580e-05	-0.000494146209089365
1.46583e-05	-0.0004681261040143309
1.46585e-05	-0.0004409327654042833
1.46588e-05	-0.0004112794403008974
1.46590e-05	-0.00038023716376850815
1.46593e-05	-0.00034716252471996115
1.46595e-05	-0.0003129403782237844
1.46598e-05	-0.00027736248942763163
1.46600e-05	-0.00024101912480077736
1.46603e-05	-0.00020384865125060853
1.46605e-05	-0.00016621117752629172
1.46608e-05	-0.00012857370380222997
1.46610e-05	-9.093623007791317e-05
1.46613e-05	-5.340891321550056e-05
1.46615e-05	-1.630638014277914e-05
1.46618e-05	2.0027408102117604e-05
1.46620e-05	5.5296819658432457e-05
1.46623e-05	8.923640350978583e-05
1.46625e-05	0.0001215924463551969
1.46628e-05	0.0001521117660963459
1.46630e-05	0.0001805412071133327
1.46633e-05	0.00020663041447513303
1.46635e-05	0.00023015726422066953
1.46638e-05	0.00025096908193138803
1.46640e-05	0.0002689839936844417
1.46643e-05	0.00028415230107087594
1.46645e-05	0.00029642977721428
1.46648e-05	0.0003057722238987572
1.46650e-05	0.00031213546960839065
1.46653e-05	0.00031547711234917417
1.46655e-05	0.00031577245988787087
1.46658e-05	0.00031304033929462207
1.46660e-05	0.00030734385565281966
1.46663e-05	0.00029876631453377983
1.46665e-05	0.0002873944453521838
1.46668e-05	0.0002733150333265923
1.46670e-05	0.00025661480217713847
1.46673e-05	0.00023738164149212092
1.46675e-05	0.00021571448967202178
1.46678e-05	0.00019173954508933181
1.46680e-05	0.00016561075684080195
1.46683e-05	0.00013749472115645055
1.46685e-05	0.00010756015879391907
1.46688e-05	7.597578203231486e-05
1.46690e-05	4.291031042730156e-05
1.46693e-05	8.533142780446847e-06
1.46695e-05	-2.6979393802450566e-05
1.46698e-05	-6.343390485402905e-05
1.46700e-05	-0.0001007580623275175
1.46703e-05	-0.00013839608174865537
1.46705e-05	-0.0001762582678501207
1.46708e-05	-0.00021424702238247368
1.46710e-05	-0.00025223577691508404
1.46713e-05	-0.000289357149283385
1.46715e-05	-0.00032598878250052107
1.46718e-05	-0.00036262041571740887
1.46720e-05	-0.000397522926983006
1.46723e-05	-0.00043144914573109867
1.46725e-05	-0.0004632431969932362
1.46728e-05	-0.0004938333891752257
1.46730e-05	-0.0005224219201927974
1.46733e-05	-0.0005482937038574597
1.46735e-05	-0.0005713761104918763
1.46738e-05	-0.0005911910054246845
1.46740e-05	-0.0006074466128608475
1.46743e-05	-0.000620071601702181
1.46745e-05	-0.0006290648548930636
1.46748e-05	-0.0006344278696352677
1.46750e-05	-0.000636162138322904
1.46753e-05	-0.0006342456623838685
1.46755e-05	-0.0006285752362360356
1.46758e-05	-0.0006190107869474581
1.46760e-05	-0.0006055288559300206
1.46763e-05	-0.0005882441207626062
1.46765e-05	-0.000567315209737057
1.46768e-05	-0.0005429024429489046
1.46770e-05	-0.000515166033694217
1.46773e-05	-0.0004842515836769669
1.46775e-05	-0.0004502537836268501
1.46778e-05	-0.0004132441589963783
1.46780e-05	-0.00037336737152092583
1.46783e-05	-0.00033085457317573685
1.46785e-05	-0.0002859644281867216
1.46788e-05	-0.00023895660213057502
1.46790e-05	-0.00019009076343225428
1.46793e-05	-0.00013961735550217653
1.46795e-05	-8.775490978098725e-05
1.46798e-05	-3.470746981094367e-05
1.46800e-05	1.9275145378747432e-05
1.46803e-05	7.386912957054091e-05
1.46805e-05	0.00012863801648245652
1.46808e-05	0.00018340690339437214
1.46810e-05	0.00023817579030591663
1.46813e-05	0.0002918967030979895
1.46815e-05	0.00034502590566782437
1.46818e-05	0.0003964330795599448
1.46820e-05	0.0004468679659214171
1.46823e-05	0.0004947112991981587
1.46825e-05	0.0005410913962443388
1.46828e-05	0.000584951954918629
1.46830e-05	0.0006254030277512769
1.46833e-05	0.0006625403973336023
1.46835e-05	0.0006961531077936995
1.46838e-05	0.000726197207340154
1.46840e-05	0.0007526680106552599
1.46843e-05	0.0007743081008734543
1.46845e-05	0.0007939499268027384
1.46848e-05	0.0008086875536010761
1.46850e-05	0.0008206561837343134
1.46853e-05	0.0008275644386999307
1.46855e-05	0.0008316155172765116
1.46858e-05	0.0008308135501406207
1.46860e-05	0.0008272714684548719
1.46863e-05	0.0008191571826243323
1.46865e-05	0.0008084613503084637
1.46868e-05	0.0007934095905008034
1.46870e-05	0.0007758983977917145
1.46873e-05	0.0007542883839722804
1.46875e-05	0.0007303641040142707
1.46878e-05	0.0007028257513403156
1.46880e-05	0.0006732468299552062
1.46883e-05	0.000640584585122146
1.46885e-05	0.0006061814419043588
1.46888e-05	0.0005691852482021453
1.46890e-05	0.0005307249728110286
1.46893e-05	0.0004901873570983915
1.46895e-05	0.0004484768386817256
1.46898e-05	0.00040513670566324643
1.46900e-05	0.0003608764637182827
1.46903e-05	0.00031661622177361887
1.46905e-05	0.00027175410560748047
1.46908e-05	0.00022655216072170505
1.46910e-05	0.00018135021583623592
1.46913e-05	0.00013652246750671946
1.46915e-05	9.239132213487442e-05
1.46918e-05	4.92217505428112e-05
1.46920e-05	7.327038302207041e-06
1.46923e-05	-3.2987941222550814e-05
1.46925e-05	-7.14224488486056e-05
1.46928e-05	-0.00010767599365242858
1.46930e-05	-0.0001414481046077212
1.46933e-05	-0.00017258090159729108
1.46935e-05	-0.00020149549750033305
1.46938e-05	-0.00022913805136229025
1.46940e-05	-0.00025613850013884423
1.46943e-05	-0.00028251347400498383
