Time(s)	Current(A)
8.75000e-06	0.014693832695089537
8.75025e-06	0.014686026989553425
8.75050e-06	0.014678221284017263
8.75075e-06	0.014670415578481099
8.75100e-06	0.014662609872944989
8.75125e-06	0.014654804167408825
8.75150e-06	0.014646998461872661
8.75175e-06	0.014639192756336497
8.75200e-06	0.014631387050800387
8.75225e-06	0.014623581345264224
8.75250e-06	0.01461577563972806
8.75275e-06	0.01460796993419195
8.75300e-06	0.014597551143036932
8.75325e-06	0.01458669813063408
8.75350e-06	0.0145758451182313
8.75375e-06	0.014565655222661346
8.75400e-06	0.014555575518436283
8.75425e-06	0.014545495814211287
8.75450e-06	0.01452988064173124
8.75475e-06	0.014513345630300658
8.75500e-06	0.014496810618870188
8.75525e-06	0.014470591720354085
8.75550e-06	0.014442763632493198
8.75575e-06	0.014414935544632499
8.75600e-06	0.014387107456771612
8.75625e-06	0.014359279368910722
8.75650e-06	0.014325395454490204
8.75675e-06	0.014280628302310831
8.75700e-06	0.01423586115013146
8.75725e-06	0.014191093997952393
8.75750e-06	0.014146326845773022
8.75775e-06	0.014101559693593651
8.75800e-06	0.014042143247294688
8.75825e-06	0.01398029250082201
8.75850e-06	0.013918441754349335
8.75875e-06	0.013856591007877077
8.75900e-06	0.013794740261404401
8.75925e-06	0.013732889514931724
8.75950e-06	0.013671038768459466
8.75975e-06	0.013605674736544098
8.76000e-06	0.013533996798440423
8.76025e-06	0.013462318860336747
8.76050e-06	0.013390640922233557
8.76075e-06	0.01331896298412988
8.76100e-06	0.013247285046026205
8.76125e-06	0.013175607107923015
8.76150e-06	0.01310392916981934
8.76175e-06	0.013034258098507898
8.76200e-06	0.012964920511946528
8.76225e-06	0.01289558292538469
8.76250e-06	0.01283107216917735
8.76275e-06	0.01276736349625692
8.76300e-06	0.012703654823336057
8.76325e-06	0.012650739328552714
8.76350e-06	0.012599617356051782
8.76375e-06	0.012548495383550504
8.76400e-06	0.012497373411049225
8.76425e-06	0.012446251438548295
8.76450e-06	0.012405065676818556
8.76475e-06	0.012365531033526129
8.76500e-06	0.01232599639023397
8.76525e-06	0.012286461746941544
8.76550e-06	0.012246927103649117
8.76575e-06	0.012217879944793947
8.76600e-06	0.012190575510535942
8.76625e-06	0.012163271076277937
8.76650e-06	0.012135966642020117
8.76675e-06	0.012108662207762112
8.76700e-06	0.012081357773504107
8.76725e-06	0.012054053339246288
8.76750e-06	0.012026748904988283
8.76775e-06	0.011999444470730277
8.76800e-06	0.011972140036472458
8.76825e-06	0.011944835602214453
8.76850e-06	0.011920886330200766
8.76875e-06	0.011902966793034875
8.76900e-06	0.011885047255869106
8.76925e-06	0.011867127718703217
8.76950e-06	0.011849208181537325
8.76975e-06	0.011831288644371557
8.77000e-06	0.011813369107205665
8.77025e-06	0.011795449570039775
8.77050e-06	0.011777530032874005
8.77075e-06	0.011759610495708115
8.77100e-06	0.011741690958542224
8.77125e-06	0.011723771421376455
8.77150e-06	0.011711206134475152
8.77175e-06	0.011699530573198386
8.77200e-06	0.011687855011921698
8.77225e-06	0.011676179450644933
8.77250e-06	0.011664503889368167
8.77275e-06	0.01165282832809148
8.77300e-06	0.011641152766814714
8.77325e-06	0.011629477205537949
8.77350e-06	0.011617801644261261
8.77375e-06	0.011606126082984496
8.77400e-06	0.01159445052170773
8.77425e-06	0.011582774960431043
8.77450e-06	0.011571099399154277
8.77475e-06	0.011558849019219193
8.77500e-06	0.011546503120609381
8.77525e-06	0.011534157221999486
8.77550e-06	0.011521811323389591
8.77575e-06	0.01150946542477978
8.77600e-06	0.011497119526169886
8.77625e-06	0.01148477362755999
8.77650e-06	0.011472427728950178
8.77675e-06	0.011460081830340285
8.77700e-06	0.01144773593173039
8.77725e-06	0.011435390033120494
8.77750e-06	0.011423044134510682
8.77775e-06	0.011410698235900787
8.77800e-06	0.011393968582985428
8.77825e-06	0.011376510473545699
8.77850e-06	0.011359052364105851
8.77875e-06	0.011341594254666002
8.77900e-06	0.011324136145226272
8.77925e-06	0.011306678035786425
8.77950e-06	0.011289219926346577
8.77975e-06	0.011271761816906846
8.78000e-06	0.011254303707466998
8.78025e-06	0.011236845598027151
8.78050e-06	0.011219803404203949
8.78075e-06	0.011203056177680344
8.78100e-06	0.011186308951156741
8.78125e-06	0.01116956172463325
8.78150e-06	0.011152814498109648
8.78175e-06	0.011136067271586043
8.78200e-06	0.011119320045062553
8.78225e-06	0.01110257281853895
8.78250e-06	0.011085825592015345
8.78275e-06	0.011069078365491855
8.78300e-06	0.011057411171139847
8.78325e-06	0.011040789962679291
8.78350e-06	-0.053480243146702126
8.78375e-06	-0.028795096205041462
8.78400e-06	0.0005232223268412696
8.78425e-06	0.015914357132314726
8.78450e-06	0.02931015630450484
8.78475e-06	0.031058118332651825
8.78500e-06	0.021942192102666958
8.78525e-06	0.010228084571041149
8.78550e-06	-0.0019696100556282174
8.78575e-06	-0.003455670015786256
8.78600e-06	0.005385904071666657
8.78625e-06	0.014910445359079177
8.78650e-06	0.023256854685579243
8.78675e-06	0.024330986124889802
8.78700e-06	0.01860977672749795
8.78725e-06	0.01126659346527638
8.78750e-06	0.003624527658327455
8.78775e-06	0.002695313424250439
8.78800e-06	0.008237447926731176
8.78825e-06	0.014208935186023773
8.78850e-06	0.019443756611700936
8.78875e-06	0.02012455430370197
8.78900e-06	0.016550255102969945
8.78925e-06	0.011961466801763927
8.78950e-06	0.007186804827069161
8.78975e-06	0.006618007139549642
8.79000e-06	0.010103203820053017
8.79025e-06	0.013857284804702715
8.79050e-06	0.017149654252009303
8.79075e-06	0.017589066287425632
8.79100e-06	0.015362814026302319
8.79125e-06	0.012500754460570354
8.79150e-06	0.009521761960854181
8.79175e-06	0.009176498935063152
8.79200e-06	0.011369396548593149
8.79225e-06	0.013729145536407248
8.79250e-06	0.015797909550478762
8.79275e-06	0.01607771598458701
8.79300e-06	0.01468584733574378
8.79325e-06	0.01289370534339268
8.79350e-06	0.011026142092920136
8.79375e-06	0.010805915428477794
8.79400e-06	0.012173188064958186
8.79425e-06	0.013643443908987668
8.79450e-06	0.014931083842232826
8.79475e-06	0.015098445971601098
8.79500e-06	0.014219189501104191
8.79525e-06	0.013089752015192411
8.79550e-06	0.011913610812901024
8.79575e-06	0.011769830837345152
8.79600e-06	0.012620814618580146
8.79625e-06	0.013536593530677139
8.79650e-06	0.0143382493645827
8.79675e-06	0.014438448265721313
8.79700e-06	0.013883373231549903
8.79725e-06	0.013171929493741356
8.79750e-06	0.012431564154419941
8.79775e-06	0.012338156018921952
8.79800e-06	0.012868077925601084
8.79825e-06	0.013438751262056818
8.79850e-06	0.013938087443924647
8.79875e-06	0.013998187802474912
8.79900e-06	0.013648003214046146
8.79925e-06	0.013200056266300506
8.79950e-06	0.012734169958035892
8.79975e-06	0.012673679876308698
8.80000e-06	0.013003736124265353
8.80025e-06	0.013359379249312036
8.80050e-06	0.013670383769077038
8.80075e-06	0.013706299657448287
8.80100e-06	0.013485272783613559
8.80125e-06	0.013203067905957612
8.80150e-06	0.012909676866318002
8.80175e-06	0.012870253715372735
8.80200e-06	0.013075460126127873
8.80225e-06	0.013296662458085397
8.80250e-06	0.013489860494070563
8.80275e-06	0.013510697509310231
8.80300e-06	0.013370544593277559
8.80325e-06	0.013192026316022207
8.80350e-06	0.013006447433904295
8.80375e-06	0.012979886732384508
8.80400e-06	0.013106631961429105
8.80425e-06	0.013243938074428094
8.80450e-06	0.013364782390901546
8.80475e-06	0.013378977135815281
8.80500e-06	0.01329363461883632
8.80525e-06	0.013185497479997288
8.80550e-06	0.013074101738829561
8.80575e-06	0.013063398581421028
8.80600e-06	0.013149726687820218
8.80625e-06	0.013243591643320719
8.80650e-06	0.01332799034267675
8.80675e-06	0.013346358316854996
8.80700e-06	0.013303083604927917
8.80725e-06	0.013246165527419619
8.80750e-06	0.01318776805870032
8.80775e-06	0.013192928833820339
8.80800e-06	0.013259274055622532
8.80825e-06	0.013330667251003568
8.80850e-06	0.013396384053224446
8.80875e-06	0.013420921560162379
8.80900e-06	0.013406956414723024
8.80925e-06	0.013384483772726797
8.80950e-06	0.013361050193972988
8.80975e-06	0.01337731969287803
8.81000e-06	0.013431727378759535
8.81025e-06	0.013489034005783716
8.81050e-06	0.01354244793043041
8.81075e-06	0.013569657208535693
8.81100e-06	0.013572268434821776
8.81125e-06	0.013568997874751269
8.81150e-06	0.013564498798243152
8.81175e-06	0.013584169213388795
8.81200e-06	0.013626952258909544
8.81225e-06	0.013670699835879638
8.81250e-06	0.013711084342155996
8.81275e-06	0.013734057462555837
8.81300e-06	0.013740552632522083
8.81325e-06	0.013742221592052899
8.81350e-06	0.013749119780074346
8.81375e-06	0.013760729647289463
8.81400e-06	0.013782005605824517
8.81425e-06	0.013807431990207276
8.81450e-06	0.013822963752047546
8.81475e-06	0.013832819473193448
8.81500e-06	0.013833052893260808
8.81525e-06	0.013824152271153465
8.81550e-06	0.013816303810915833
8.81575e-06	0.01381034427776085
8.81600e-06	0.013809123224836612
8.81625e-06	0.01380874799907315
8.81650e-06	0.013800548200258757
8.81675e-06	0.013788024239936659
8.81700e-06	0.013768558586073064
8.81725e-06	0.013742181481931327
8.81750e-06	0.013715436193836781
8.81775e-06	0.013689400139940742
8.81800e-06	0.013665819563383993
8.81825e-06	0.013642140822819004
8.81850e-06	0.013613130915251476
8.81875e-06	0.013581232651409609
8.81900e-06	0.013544875573848222
8.81925e-06	0.013504124153237776
8.81950e-06	0.013463311827894101
8.81975e-06	0.013423059600558205
8.82000e-06	0.013384637160547743
8.82025e-06	0.01334664958380431
8.82050e-06	0.013306089475297706
8.82075e-06	0.013264130599343837
8.82100e-06	0.013220071941017413
8.82125e-06	0.013174385070003528
8.82150e-06	0.013128633382864565
8.82175e-06	0.013085567944949975
8.82200e-06	0.013045402477511327
8.82225e-06	0.013006446689071704
8.82250e-06	0.012967877827289153
8.82275e-06	0.01292909834250509
8.82300e-06	0.012890164402273554
8.82325e-06	0.01285312230793032
8.82350e-06	0.012817467554483741
8.82375e-06	0.012785937143281217
8.82400e-06	0.012757431221917387
8.82425e-06	0.012728725423623553
8.82450e-06	0.012699873050262161
8.82475e-06	0.012667852197717213
8.82500e-06	0.012633507815133118
8.82525e-06	0.012597540238448387
8.82550e-06	0.012560382330366378
8.82575e-06	0.012523355793008522
8.82600e-06	0.012486425593296257
8.82625e-06	0.012447273105996482
8.82650e-06	0.012406490956115358
8.82675e-06	0.012361983411895512
8.82700e-06	0.012314743936943292
8.82725e-06	0.012265103252313279
8.82750e-06	0.012213701696775449
8.82775e-06	0.01216135368098948
8.82800e-06	0.012108311600736117
8.82825e-06	0.012053204662843476
8.82850e-06	0.011996583509935866
8.82875e-06	0.011937312107143399
8.82900e-06	0.011876097205636498
8.82925e-06	0.011813418151887507
8.82950e-06	0.011749665396364779
8.82975e-06	0.011685714913126366
8.83000e-06	0.011621619430896613
8.83025e-06	0.0115569823466626
8.83050e-06	0.011491948091277201
8.83075e-06	0.011426360681861555
8.83100e-06	0.01136036762988559
8.83125e-06	0.011294920746993835
8.83150e-06	0.011229874384415407
8.83175e-06	0.011166522945964544
8.83200e-06	0.0111044144404473
8.83225e-06	0.011044141095291593
8.83250e-06	0.010985213522027948
8.83275e-06	0.010928470087797513
8.83300e-06	0.010873328340800055
8.83325e-06	0.010821414176378445
8.83350e-06	0.010771866884086326
8.83375e-06	0.010726569931726111
8.83400e-06	0.010684389866660489
8.83425e-06	0.01064711475638221
8.83450e-06	0.01061343657988005
8.83475e-06	0.010579758403377664
8.83500e-06	0.010551855344802578
8.83525e-06	0.010528187333773177
8.83550e-06	0.010504519322743617
8.83575e-06	0.010487333162943827
8.83600e-06	0.010474900317013624
8.83625e-06	0.010462467471083337
8.83650e-06	0.01045568992438303
8.83675e-06	0.01045305955899147
8.83700e-06	0.010450429193599892
8.83725e-06	0.010453089835614321
8.83750e-06	0.010459630514055861
8.83775e-06	0.010466171192497356
8.83800e-06	0.010477613512354088
8.83825e-06	0.010492650336203006
8.83850e-06	0.01050768716005182
8.83875e-06	0.01052645161700413
8.83900e-06	0.010547949646434837
8.83925e-06	0.010569447675865398
8.83950e-06	0.010594021230960404
8.83975e-06	0.010620850150808209
8.84000e-06	0.010647679070655834
8.84025e-06	0.010676523774416479
8.84050e-06	0.010706846706123384
8.84075e-06	0.010737169637830085
8.84100e-06	0.010768290823548488
8.84125e-06	0.010799997390160415
8.84150e-06	0.010831703956772125
8.84175e-06	0.010863223004436321
8.84200e-06	0.010894604539469707
8.84225e-06	0.010925986074502878
8.84250e-06	0.010955818205126725
8.84275e-06	0.010984514116295778
8.84300e-06	0.011013210027464635
8.84325e-06	0.011039112139144137
8.84350e-06	0.011062965483366046
8.84375e-06	0.011086818827587795
8.84400e-06	0.011108662477337503
8.84425e-06	0.011129032364689493
8.84450e-06	0.011149402252041344
8.84475e-06	0.01117083259754945
8.84500e-06	0.011193040605222871
8.84525e-06	0.011215248612896144
8.84550e-06	0.011237837031500754
8.84575e-06	0.011260704415557004
8.84600e-06	0.011283571799613255
8.84625e-06	0.011307829725321754
8.84650e-06	0.011333107372201109
8.84675e-06	0.011358385019080463
8.84700e-06	0.011385662868068596
8.84725e-06	0.011414407518452385
8.84750e-06	0.011443152168836176
8.84775e-06	0.011473005276495214
8.84800e-06	0.011503671245350434
8.84825e-06	0.011534337214205657
8.84850e-06	0.011566671510661352
8.84875e-06	0.011600229236110756
8.84900e-06	0.011633786961560158
8.84925e-06	0.011668336191206571
8.84950e-06	0.011703612517246997
8.84975e-06	0.011738888843287425
8.85000e-06	0.011774412328972153
8.85025e-06	0.011810117063396902
8.85050e-06	0.011845821797821652
8.85075e-06	0.011881591904181128
8.85100e-06	0.011917409949519123
8.85125e-06	0.011953227994857119
8.85150e-06	0.011988007253283061
8.85175e-06	0.012022024741643466
8.85200e-06	0.012056042230003871
8.85225e-06	0.012088332824673781
8.85250e-06	0.012119357042279372
8.85275e-06	0.012150381259884963
8.85300e-06	0.012178892329568593
8.85325e-06	0.012205560441051849
8.85350e-06	0.012232228552535104
8.85375e-06	0.012251212120733738
8.85400e-06	0.01226456040899474
8.85425e-06	0.01227790869725574
8.85450e-06	0.012291256985516742
8.85475e-06	0.012304605273777653
8.85500e-06	0.012317953562038655
8.85525e-06	0.012329350942629014
8.85550e-06	0.012317338170940096
8.85575e-06	0.012305325399251095
8.85600e-06	0.012293312627562095
8.85625e-06	0.012281299855873177
8.85650e-06	0.012269287084184177
8.85675e-06	0.012257274312495178
8.85700e-06	0.01222863611853781
8.85725e-06	0.012187806060327775
8.85750e-06	0.012146976002117739
8.85775e-06	0.012106145943907978
8.85800e-06	0.012065315885697942
8.85825e-06	0.012024485827487906
8.85850e-06	0.011983655769278146
8.85875e-06	0.01194282571106811
8.85900e-06	0.01190041163344777
8.85925e-06	0.01183898992354604
8.85950e-06	0.011777568213643893
8.85975e-06	0.011716146503741746
8.86000e-06	0.011654724793840016
8.86025e-06	0.01159330308393787
8.86050e-06	0.011531881374035723
8.86075e-06	0.011470459664133993
8.86100e-06	0.011409037954231848
8.86125e-06	0.011345592611571066
8.86150e-06	0.01128066328519618
8.86175e-06	0.011215733958820855
8.86200e-06	0.01115262770347556
8.86225e-06	0.011090858354596325
8.86250e-06	0.011029089005716669
8.86275e-06	0.010976627008464532
8.86300e-06	0.010930990339663224
8.86325e-06	0.010885353670862227
8.86350e-06	0.01083971700206092
8.86375e-06	0.010794080333259612
8.86400e-06	0.010748443664458613
8.86425e-06	0.010702806995657305
8.86450e-06	0.010657170326855998
8.86475e-06	0.010611533658054999
8.86500e-06	0.010565896989253691
8.86525e-06	0.01053102466027376
8.86550e-06	0.010504046107932482
8.86575e-06	0.01047706755559102
8.86600e-06	0.01045008900324956
8.86625e-06	0.01042311045090828
8.86650e-06	0.01039613189856682
8.86675e-06	0.010369153346225358
8.86700e-06	0.010342174793884079
8.86725e-06	0.010315196241542618
8.86750e-06	0.010288217689201157
8.86775e-06	0.01026723184715865
8.86800e-06	0.010250640618937877
8.86825e-06	0.010234049390717103
8.86850e-06	0.010217458162496442
8.86875e-06	0.010200866934275668
8.86900e-06	0.010184275706054895
8.86925e-06	0.010167684477834232
8.86950e-06	0.010151093249613458
8.86975e-06	0.010134502021392685
8.87000e-06	0.010117910793172024
8.87025e-06	0.01010131956495125
8.87050e-06	0.010085201275505122
8.87075e-06	0.01007475807203003
8.87100e-06	0.010064314868554865
8.87125e-06	0.0100538716650797
8.87150e-06	0.010043428461604536
8.87175e-06	0.010032985258129443
8.87200e-06	0.010022542054654278
8.87225e-06	0.010012098851179114
8.87250e-06	0.01000165564770402
8.87275e-06	0.009991212444228856
8.87300e-06	0.009980769240753692
8.87325e-06	0.009970326037278598
8.87350e-06	0.009961733829045014
8.87375e-06	0.009954499004844526
8.87400e-06	0.009947264180644087
8.87425e-06	0.009945193022899805
8.87450e-06	0.009946908519082254
8.87475e-06	0.009948624015264692
8.87500e-06	0.009963262583516017
8.87525e-06	0.009987377984170969
8.87550e-06	0.010011493384825758
8.87575e-06	0.01003560878548071
8.87600e-06	0.010059724186135663
8.87625e-06	0.010083839586790452
8.87650e-06	0.010107954987445404
8.87675e-06	0.010151005656899472
8.87700e-06	0.010207942062498204
8.87725e-06	0.010264878468097321
8.87750e-06	0.010321814873696438
8.87775e-06	0.010378751279295169
8.87800e-06	0.010435687684894286
8.87825e-06	0.010492624090493403
8.87850e-06	0.010566190579038957
8.87875e-06	0.010651952349644998
8.87900e-06	0.010737714120251039
8.87925e-06	0.010823475890856499
8.87950e-06	0.01090923766146254
8.87975e-06	0.01099499943206858
8.88000e-06	0.011080761202674622
8.88025e-06	0.011166522973280081
8.88050e-06	0.011252284743886122
8.88075e-06	0.011338236389178137
8.88100e-06	0.011426466458708177
8.88125e-06	0.011514696528238815
8.88150e-06	0.011602926597769453
8.88175e-06	0.011691156667299493
8.88200e-06	0.01177938673683013
8.88225e-06	0.011867616806360767
8.88250e-06	0.011955846875890807
8.88275e-06	0.012044076945421445
8.88300e-06	0.012132307014952083
8.88325e-06	0.012200508625552251
8.88350e-06	0.01225402283461084
8.88375e-06	0.01230753704366943
8.88400e-06	0.012361051252727658
8.88425e-06	0.012414565461786247
8.88450e-06	0.012468079670844838
8.88475e-06	0.012521593879903065
8.88500e-06	0.012575108088961656
8.88525e-06	0.012628622298020245
8.88550e-06	0.012658970066444718
8.88575e-06	0.012672329267895872
8.88600e-06	0.012685688469347024
8.88625e-06	0.012699047670798085
8.88650e-06	0.012712406872249239
8.88675e-06	0.01272576607370039
8.88700e-06	0.012739125275151454
8.88725e-06	0.012752484476602606
8.88750e-06	0.012765843678053758
8.88775e-06	0.012759146017640565
8.88800e-06	0.01273774012705656
8.88825e-06	0.012716334236472558
8.88850e-06	0.012694928345888555
8.88875e-06	0.012673522455304696
8.88900e-06	0.012652116564720692
8.88925e-06	0.012630710674136689
8.88950e-06	0.01260930478355283
8.88975e-06	0.012587898892968826
8.89000e-06	0.012566493002384823
8.89025e-06	0.012545087111800964
8.89050e-06	0.01252368122121696
8.89075e-06	0.012501476284140412
8.89100e-06	0.01246968309211161
8.89125e-06	0.012437889900082594
8.89150e-06	0.012406096708053578
8.89175e-06	0.012374303516024776
8.89200e-06	0.01234251032399576
8.89225e-06	0.012310717131966742
8.89250e-06	0.012278923939937942
8.89275e-06	0.012247130747908924
8.89300e-06	0.012215337555879908
8.89325e-06	0.012183544363851107
8.89350e-06	0.01215175117182209
8.89375e-06	0.012119957979793074
8.89400e-06	0.012098765507897256
8.89425e-06	0.012085346825977663
8.89450e-06	0.01207192814405807
8.89475e-06	0.012058509462138569
8.89500e-06	0.012045090780218976
8.89525e-06	0.012031672098299383
8.89550e-06	0.012018253416379882
8.89575e-06	0.012004834734460288
8.89600e-06	0.011991416052540695
8.89625e-06	0.011977997370621192
8.89650e-06	0.011976677851789939
8.89675e-06	0.011984230971002338
8.89700e-06	0.011991784090214737
8.89725e-06	0.011999337209427084
8.89750e-06	0.012006890328639483
8.89775e-06	0.012014443447851884
8.89800e-06	0.01202199656706423
8.89825e-06	0.01202954968627663
8.89850e-06	0.012037102805489029
8.89875e-06	0.012044655924701378
8.89900e-06	0.012060252225696693
8.89925e-06	0.01208174680578454
8.89950e-06	0.012103241385872245
8.89975e-06	0.012124735965960094
8.90000e-06	0.012146230546047944
8.90025e-06	0.012167725126135646
8.90050e-06	0.012189219706223496
8.90075e-06	0.012210714286311345
8.90100e-06	0.012232208866399048
8.90125e-06	0.012253703446486897
8.90150e-06	0.012275198026574747
8.90175e-06	0.012296692606662451
