Time(s)	Current(A)
9.75000e-06	-0.005157284290503404
9.75025e-06	-0.005156971055677474
9.75050e-06	-0.005143254524800929
9.75075e-06	-0.005128553784225219
9.75100e-06	-0.0051138530436494085
9.75125e-06	-0.0050991523030735975
9.75150e-06	-0.005084451562497787
9.75175e-06	-0.005054363351961278
9.75200e-06	-0.005023145232995652
9.75225e-06	-0.004991927114030026
9.75250e-06	-0.004960708995064612
9.75275e-06	-0.004929490876098986
9.75300e-06	-0.004886575670953453
9.75325e-06	-0.004842801543821387
9.75350e-06	-0.004799027416689024
9.75375e-06	-0.004755253289556662
9.75400e-06	-0.0047083027585117145
9.75425e-06	-0.004657168906473596
9.75450e-06	-0.0046060350544354775
9.75475e-06	-0.0045549012023977055
9.75500e-06	-0.004503767350359587
9.75525e-06	-0.004450421132457744
9.75550e-06	-0.004396684277281547
9.75575e-06	-0.004342991833322961
9.75600e-06	-0.004289653529047621
9.75625e-06	-0.004236973823531794
9.75650e-06	-0.00418523250042133
9.75675e-06	-0.004134696714338131
9.75700e-06	-0.0040856696971066095
9.75725e-06	-0.004038492092726193
9.75750e-06	-0.003993509262599369
9.75775e-06	-0.0039510684626283205
9.75800e-06	-0.003912999935814287
9.75825e-06	-0.0038752395784418235
9.75850e-06	-0.003842871546544879
9.75875e-06	-0.0038108994753889734
9.75900e-06	-0.0037830242745122956
9.75925e-06	-0.003755449908553911
9.75950e-06	-0.003732277921228427
9.75975e-06	-0.003709429202428776
9.76000e-06	-0.003692795884977185
9.76025e-06	-0.0036766189670766527
9.76050e-06	-0.003660442049176011
9.76075e-06	-0.003653423043328961
9.76100e-06	-0.0036470765068391652
9.76125e-06	-0.0036407299703493266
9.76150e-06	-0.0036343834338594875
9.76175e-06	-0.003628036897369692
9.76200e-06	-0.0036216903608798532
9.76225e-06	-0.0036255039383244606
9.76250e-06	-0.003630063577234436
9.76275e-06	-0.0036346232161444413
9.76300e-06	-0.0036391828550544473
9.76325e-06	-0.0036437424939644225
9.76350e-06	-0.003648302132874428
9.76375e-06	-0.0036598310846480435
9.76400e-06	-0.003671871796014175
9.76425e-06	-0.0036839125073803883
9.76450e-06	-0.0036959532187466016
9.76475e-06	-0.0037079939301127335
9.76500e-06	-0.0037200346414789465
9.76525e-06	-0.003733333431908782
9.76550e-06	-0.003748289111293242
9.76575e-06	-0.003763244790677804
9.76600e-06	-0.0037782004700623656
9.76625e-06	-0.003793156149446826
9.76650e-06	-0.0038081118288313875
9.76675e-06	-0.0038230675082159492
9.76700e-06	-0.0038368995949313576
9.76725e-06	-0.0038506491757616932
9.76750e-06	-0.003864398756592029
9.76775e-06	-0.00387340268515408
9.76800e-06	-0.003882058138461854
9.76825e-06	-0.003890713591769628
9.76850e-06	-0.003899369045077402
9.76875e-06	-0.003908024498385117
9.76900e-06	-0.003916679951692892
9.76925e-06	-0.003925335405000666
9.76950e-06	-0.003933990858308381
9.76975e-06	-0.003942646311616156
9.77000e-06	-0.003944227631204383
9.77025e-06	-0.003945289494159867
9.77050e-06	-0.003946351357115358
9.77075e-06	-0.00394741322007085
9.77100e-06	-0.003948475083026334
9.77125e-06	-0.003949536945981826
9.77150e-06	-0.003950598808937317
9.77175e-06	-0.003951660671892802
9.77200e-06	-0.003952722534848293
9.77225e-06	-0.003948333752975096
9.77250e-06	-0.003943544727945414
9.77275e-06	-0.003938755702915698
9.77300e-06	-0.003933966677885983
9.77325e-06	-0.0039291776528563
9.77350e-06	-0.003924388627826585
9.77375e-06	-0.00391959960279687
9.77400e-06	-0.003914810577767187
9.77425e-06	-0.003908827790552384
9.77450e-06	-0.003901272819651576
9.77475e-06	-0.0038937178487508193
9.77500e-06	-0.0038861628778500113
9.77525e-06	-0.0038786079069492033
9.77550e-06	-0.0038710529360484465
9.77575e-06	-0.0038634979651476385
9.77600e-06	-0.00385594299424683
9.77625e-06	-0.0038483880233460732
9.77650e-06	-0.003840758369648334
9.77675e-06	-0.0038331232319612075
9.77700e-06	-0.003825488094274081
9.77725e-06	-0.003818571774254508
9.77750e-06	-0.00381170823732045
9.77775e-06	-0.003804844700386392
9.77800e-06	-0.00379891887274011
9.77825e-06	-0.003793061901483675
9.77850e-06	-0.003789299348874589
9.77875e-06	-0.003785690590313288
9.77900e-06	-0.003786112438060444
9.77925e-06	-0.0037868302549348316
9.77950e-06	-0.0037915487454568283
9.77975e-06	-0.003796561007138104
9.78000e-06	-0.0038062262431103663
9.78025e-06	-0.0038162331489541355
9.78050e-06	-0.0038262400547979724
9.78075e-06	-0.0038456921808862734
9.78100e-06	-0.00386583787349471
9.78125e-06	-0.003885983566103283
9.78150e-06	-0.0039061292587118566
9.78175e-06	-0.003926274951320293
9.78200e-06	-0.00395135076878715
9.78225e-06	-0.003982919556101824
9.78250e-06	-0.004014488343416285
9.78275e-06	-0.00404605713073096
9.78300e-06	-0.004077625918045636
9.78325e-06	-0.004109194705360097
9.78350e-06	-0.004147211397969967
9.78375e-06	-0.004185701562994963
9.78400e-06	-0.004224191728019698
9.78425e-06	-0.004265231085694048
9.78450e-06	-0.004306457631663692
9.78475e-06	-0.0043476841776330585
9.78500e-06	-0.004390329126841533
9.78525e-06	-0.004433078230000245
9.78550e-06	-0.004475827333158958
9.78575e-06	-0.004518010318601
9.78600e-06	-0.004560151733779776
9.78625e-06	-0.004602293148958552
9.78650e-06	-0.00464196519191672
9.78675e-06	-0.004681455907827711
9.78700e-06	-0.0047209466237387015
9.78725e-06	-0.00475554922664552
9.78750e-06	-0.004789792893345473
9.78775e-06	-0.004824036560045428
9.78800e-06	-0.004855127774073151
9.78825e-06	-0.004882067210866478
9.78850e-06	-0.004909006647659806
9.78875e-06	-0.004935946084452951
9.78900e-06	-0.004959787755950808
9.78925e-06	-0.0049834019572316144
9.78950e-06	-0.00500701615851226
9.78975e-06	-0.0050306303597930655
9.79000e-06	-0.005052754078132897
9.79025e-06	-0.005072914831826606
9.79050e-06	-0.005093075585520451
9.79075e-06	-0.0051132363392142974
9.79100e-06	-0.005133397092908006
9.79125e-06	-0.005151915523372616
9.79150e-06	-0.005170313357347204
9.79175e-06	-0.005188711191321668
9.79200e-06	-0.005207109025296257
9.79225e-06	-0.005225506859270845
9.79250e-06	-0.005243904693245309
9.79275e-06	-0.005262302527219898
9.79300e-06	-0.005280700361194486
9.79325e-06	-0.00529909819516895
9.79350e-06	-0.005317496029143538
9.79375e-06	-0.005334855716621435
9.79400e-06	-0.005350848166129262
9.79425e-06	-0.00536684061563698
9.79450e-06	-0.005382833065144807
9.79475e-06	-0.005398825514652634
9.79500e-06	-0.005414817964160353
9.79525e-06	-0.00543081041366818
9.79550e-06	-0.005446802863176006
9.79575e-06	-0.005462795312683725
9.79600e-06	-0.005478787762191552
9.79625e-06	-0.005494780211699379
9.79650e-06	-0.005505015906103715
9.79675e-06	-0.005514828879543408
9.79700e-06	-0.005524641852983102
9.79725e-06	-0.005534454826422728
9.79750e-06	-0.005544267799862422
9.79775e-06	-0.005554080773302115
9.79800e-06	-0.0055638937467417425
9.79825e-06	-0.005573706720181436
9.79850e-06	-0.00558351969362113
9.79875e-06	-0.005593332667060757
9.79900e-06	-0.00560314564050045
9.79925e-06	-0.005612958613940143
9.79950e-06	-0.00562277158737977
9.79975e-06	-0.005632584560819463
9.80000e-06	-0.005642397534259157
9.80025e-06	-0.00564791368146216
9.80050e-06	-0.005653114310895157
9.80075e-06	-0.005658314940328152
9.80100e-06	-0.005663515569761113
9.80125e-06	-0.00566871619919411
9.80150e-06	-0.0056739168286271055
9.80175e-06	-0.0056791174580600665
9.80200e-06	-0.005684318087493063
9.80225e-06	-0.005689518716926059
9.80250e-06	-0.005694719346359055
9.80275e-06	-0.005699919975792016
9.80300e-06	-0.005705120605225012
9.80325e-06	-0.005710321234658008
9.80350e-06	-0.005715521864090969
9.80375e-06	-0.005720722493523965
9.80400e-06	-0.005724808774819793
9.80425e-06	-0.005728813229059969
9.80450e-06	-0.005732817683300172
9.80475e-06	-0.005736822137540375
9.80500e-06	-0.00574082659178055
9.80525e-06	-0.005744831046020753
9.80550e-06	-0.005748835500260956
9.80575e-06	-0.005752839954501132
9.80600e-06	-0.005755844592797594
9.80625e-06	-0.005758775814185875
9.80650e-06	-0.005761707035574135
9.80675e-06	-0.005764638256962416
9.80700e-06	-0.005767569478350696
9.80725e-06	-0.0057705006997389565
9.80750e-06	-0.005773431921127237
9.80775e-06	-0.005776363142515517
9.80800e-06	-0.005777960661419363
9.80825e-06	-0.0057794602459849305
9.80850e-06	-0.005780959830550497
9.80875e-06	-0.005777553784586205
9.80900e-06	-0.005773787516094452
9.80925e-06	-0.005770021247602699
9.80950e-06	-0.00575655788150902
9.80975e-06	-0.005742382453431425
9.81000e-06	-0.005728207025353831
9.81025e-06	-0.005714031597276332
9.81050e-06	-0.005699856169198738
9.81075e-06	-0.005685680741121143
9.81100e-06	-0.005657554017941614
9.81125e-06	-0.005628402845254201
9.81150e-06	-0.005599251672566591
9.81175e-06	-0.005570100499878981
9.81200e-06	-0.005540949327191569
9.81225e-06	-0.005511798154503958
9.81250e-06	-0.005471052210042374
9.81275e-06	-0.005429454856578833
9.81300e-06	-0.00538785750311501
9.81325e-06	-0.005346260149651187
9.81350e-06	-0.005304662796187645
9.81375e-06	-0.005259858669101959
9.81400e-06	-0.005210831224137853
9.81425e-06	-0.00516180377917408
9.81450e-06	-0.005112776334209974
9.81475e-06	-0.005063748889245869
9.81500e-06	-0.005014721444282096
9.81525e-06	-0.004963804830385916
9.81550e-06	-0.004912749494014852
9.81575e-06	-0.004862179587318056
9.81600e-06	-0.004811645325927489
9.81625e-06	-0.004762653030377813
9.81650e-06	-0.0047137739620333125
9.81675e-06	-0.004667173246367142
9.81700e-06	-0.004620739831103251
9.81725e-06	-0.0045775608335462984
9.81750e-06	-0.00453462080925979
9.81775e-06	-0.0044961312076941895
9.81800e-06	-0.0044579684025544295
9.81825e-06	-0.004425287178611506
9.81850e-06	-0.004393008469497908
9.81875e-06	-0.004366128050699196
9.81900e-06	-0.004339644030644856
9.81925e-06	-0.004319914091379585
9.81950e-06	-0.004300680107127767
9.81975e-06	-0.00428144612287608
9.82000e-06	-0.004270982552857685
9.82025e-06	-0.004261162998071775
9.82050e-06	-0.004251343443285933
9.82075e-06	-0.00425369115363301
9.82100e-06	-0.004256932311413105
9.82125e-06	-0.004260173469193178
9.82150e-06	-0.004263414626973273
9.82175e-06	-0.004266655784753368
9.82200e-06	-0.00426989694253344
9.82225e-06	-0.0042867777053152735
9.82250e-06	-0.004304660030070506
9.82275e-06	-0.004322542354825617
9.82300e-06	-0.004340424679580849
9.82325e-06	-0.0043583070043360815
9.82350e-06	-0.004376189329091193
9.82375e-06	-0.004401485699196479
9.82400e-06	-0.0044273264857926185
9.82425e-06	-0.004453167272388582
9.82450e-06	-0.004482195236655969
9.82475e-06	-0.0045114572367299585
9.82500e-06	-0.004540719236803749
9.82525e-06	-0.004571423065676784
9.82550e-06	-0.0046022327686493555
9.82575e-06	-0.004633042471621718
9.82600e-06	-0.0046637495070135735
9.82625e-06	-0.0046944490034814814
9.82650e-06	-0.004725148499949182
9.82675e-06	-0.0047539243529998365
9.82700e-06	-0.004782558952099393
9.82725e-06	-0.004811193551198756
9.82750e-06	-0.004836007325671258
9.82775e-06	-0.004860540535372637
9.82800e-06	-0.004885073745074016
9.82825e-06	-0.004905719323919625
9.82850e-06	-0.004926079432384581
9.82875e-06	-0.004946950420515257
9.82900e-06	-0.004967858922756091
9.82925e-06	-0.004988767424997066
9.82950e-06	-0.005011327091860056
9.82975e-06	-0.0050340080044406574
9.83000e-06	-0.005056688917021413
9.83025e-06	-0.005079369829602168
9.83050e-06	-0.0051034856217528944
9.83075e-06	-0.005129491148964454
9.83100e-06	-0.005155496676176014
9.83125e-06	-0.005181502203387398
9.83150e-06	-0.005207507730598959
9.83175e-06	-0.005237809091987232
9.83200e-06	-0.0052684258982990655
9.83225e-06	-0.005299042704611106
9.83250e-06	-0.005329659510923147
9.83275e-06	-0.00536027631723498
9.83300e-06	-0.005392626194711902
9.83325e-06	-0.00542725852530293
9.83350e-06	-0.005461890855893724
9.83375e-06	-0.005496523186484753
9.83400e-06	-0.005531155517075781
9.83425e-06	-0.005565787847666574
9.83450e-06	-0.005601356976196968
9.83475e-06	-0.005636994894197006
9.83500e-06	-0.005672632812196802
9.83525e-06	-0.00570827073019684
9.83550e-06	-0.005743908648196878
9.83575e-06	-0.005779546566196675
9.83600e-06	-0.005813411319015594
9.83625e-06	-0.005844940814938014
9.83650e-06	-0.005876470310860432
9.83675e-06	-0.005907999806782637
9.83700e-06	-0.005939529302705056
9.83725e-06	-0.0059710587986274745
9.83750e-06	-0.0060025882945496795
9.83775e-06	-0.00602940184469459
9.83800e-06	-0.0060540605608977
9.83825e-06	-0.006074886971879981
9.83850e-06	-0.006095441726763032
9.83875e-06	-0.006107235755763117
9.83900e-06	-0.00611838648094895
9.83925e-06	-0.006116761454835167
9.83950e-06	-0.0061141982998893845
9.83975e-06	-0.006111635144943619
9.84000e-06	-0.006102477037233275
9.84025e-06	-0.008132771087078066
9.84050e-06	-0.014085376397191426
9.84075e-06	-0.017125902116784858
9.84100e-06	-0.01595822090157284
9.84125e-06	-0.0134844607040377
9.84150e-06	-0.009373615054094876
9.84175e-06	-0.006296830853499445
9.84200e-06	-0.0058190974553686825
9.84225e-06	-0.007231567530958509
9.84250e-06	-0.010016538706620948
9.84275e-06	-0.012307190657312488
9.84300e-06	-0.012040730489791145
9.84325e-06	-0.010149795052011036
9.84350e-06	-0.007709447766727668
9.84375e-06	-0.005696945208502546
9.84400e-06	-0.00510525846002504
9.84425e-06	-0.005870700970480783
9.84450e-06	-0.006824638876442438
9.84475e-06	-0.008180121765896092
9.84500e-06	-0.007996009245666123
9.84525e-06	-0.0067747074465765635
9.84550e-06	-0.005318493133700474
9.84575e-06	-0.0041065043230145626
9.84600e-06	-0.0038563191262276013
9.84625e-06	-0.0043492201662015985
9.84650e-06	-0.0051690386284896925
9.84675e-06	-0.005848053978105472
9.84700e-06	-0.005668261327725683
9.84725e-06	-0.004882114709858668
9.84750e-06	-0.003953111377009968
9.84775e-06	-0.003181661810220865
9.84800e-06	-0.0030174973779774667
9.84825e-06	-0.0033237866789186414
9.84850e-06	-0.0038397189501343247
9.84875e-06	-0.004271826147287284
9.84900e-06	-0.004169913268032777
9.84925e-06	-0.0036918935336893665
9.84950e-06	-0.003127910562434501
9.84975e-06	-0.002665929559743499
9.85000e-06	-0.0025874282456746106
9.85025e-06	-0.0028064533113744666
9.85050e-06	-0.0031594020722882686
9.85075e-06	-0.0034622312915591077
9.85100e-06	-0.003432746064956768
9.85125e-06	-0.0031696761467864326
9.85150e-06	-0.002854568985899565
9.85175e-06	-0.0026049533504208604
9.85200e-06	-0.002596920917803878
9.85225e-06	-0.0027763990408659735
9.85250e-06	-0.0030406827944713453
9.85275e-06	-0.0032742733284866323
9.85300e-06	-0.003300202945699604
9.85325e-06	-0.0031801200663265426
9.85350e-06	-0.0030275417980489268
9.85375e-06	-0.0029158758109177276
9.85400e-06	-0.0029552043469199315
9.85425e-06	-0.0031114322526643737
9.85450e-06	-0.0033200054258160495
9.85475e-06	-0.003508361771761815
9.85500e-06	-0.003565443605517806
9.85525e-06	-0.0035296653253842317
9.85550e-06	-0.0034719271289871496
9.85575e-06	-0.0034379986956196013
9.85600e-06	-0.0034966181063859915
9.85625e-06	-0.003626208307235683
9.85650e-06	-0.003786115745240668
9.85675e-06	-0.0039306741760024065
9.85700e-06	-0.003990109991976267
9.85725e-06	-0.003988279939059878
9.85750e-06	-0.003969386527863684
9.85775e-06	-0.0039618884533718125
9.85800e-06	-0.004008627490458414
9.85825e-06	-0.004095879107676452
9.85850e-06	-0.0041980354299489585
9.85875e-06	-0.004286504430179688
9.85900e-06	-0.0043177410680255435
9.85925e-06	-0.004306902222037989
9.85950e-06	-0.004281888384042325
9.85975e-06	-0.004260735939373152
9.86000e-06	-0.004270489109393477
9.86025e-06	-0.004302758428285313
9.86050e-06	-0.004341711621860835
9.86075e-06	-0.004369648879993728
9.86100e-06	-0.004359505474558926
9.86125e-06	-0.004320988057256711
9.86150e-06	-0.004271785233468814
9.86175e-06	-0.004223405432451029
9.86200e-06	-0.004192998357358867
9.86225e-06	-0.0041755170606979355
9.86250e-06	-0.004161253133051267
9.86275e-06	-0.0041393295552473435
9.86300e-06	-0.004093004157461357
9.86325e-06	-0.004028569529666125
9.86350e-06	-0.003957316710924088
9.86375e-06	-0.0038866641716393427
9.86400e-06	-0.0038275642738166103
9.86425e-06	-0.0037770642016299
9.86450e-06	-0.0037292922581011524
9.86475e-06	-0.0036776451117766858
9.86500e-06	-0.0036118461323647847
9.86525e-06	-0.0035360480018283573
9.86550e-06	-0.0034575338531824124
9.86575e-06	-0.003381160838612059
9.86600e-06	-0.0033139985365121145
9.86625e-06	-0.003254406702745671
9.86650e-06	-0.0031989169395696734
9.86675e-06	-0.003143602451410296
9.86700e-06	-0.0030822363768173507
9.86725e-06	-0.003017630217245522
9.86750e-06	-0.002954555982094419
9.86775e-06	-0.0028962665088516906
9.86800e-06	-0.0028473966422546924
9.86825e-06	-0.002807070504130608
9.86850e-06	-0.0027729537637437517
9.86875e-06	-0.002742069305904309
9.86900e-06	-0.0027100781406374065
9.86925e-06	-0.0026785385107373563
9.86950e-06	-0.0026502979353338865
9.86975e-06	-0.002627251302819051
9.87000e-06	-0.002612159483504681
9.87025e-06	-0.002604589496281169
9.87050e-06	-0.0026039436240756753
9.87075e-06	-0.0026036450582775355
9.87100e-06	-0.0026059195825564206
9.87125e-06	-0.0026104153672786993
9.87150e-06	-0.0026217695864470722
9.87175e-06	-0.002633123805615523
9.87200e-06	-0.0026458455492915055
9.87225e-06	-0.0026688403058880224
9.87250e-06	-0.002697640913236504
9.87275e-06	-0.002726441520584986
9.87300e-06	-0.0027555790064011263
9.87325e-06	-0.002787659147996629
9.87350e-06	-0.002824010763559664
9.87375e-06	-0.0028603623791224526
9.87400e-06	-0.002897506999679574
9.87425e-06	-0.002940484354563823
9.87450e-06	-0.002985970381938378
9.87475e-06	-0.003031489816067592
9.87500e-06	-0.0030772396405617155
9.87525e-06	-0.0031230272503650594
9.87550e-06	-0.0031690754473290253
9.87575e-06	-0.0032152849579320385
9.87600e-06	-0.003262606971347114
9.87625e-06	-0.00330986734590994
9.87650e-06	-0.003356702626864778
9.87675e-06	-0.003403075314201542
9.87700e-06	-0.0034462577151880944
9.87725e-06	-0.003488782350056807
9.87750e-06	-0.003526770687434257
9.87775e-06	-0.003564759024811964
9.87800e-06	-0.0036018671988852597
9.87825e-06	-0.0036329053087190448
9.87850e-06	-0.0036639434185530406
9.87875e-06	-0.0036939093671579707
9.87900e-06	-0.003716481133906842
9.87925e-06	-0.0037390529006558664
9.87950e-06	-0.0037600112974011833
9.87975e-06	-0.003769843054900825
9.88000e-06	-0.0037796748124004007
9.88025e-06	-0.0037895065699000423
9.88050e-06	-0.0037993383273996844
9.88075e-06	-0.0038091700848992597
9.88100e-06	-0.0038190018423989018
9.88125e-06	-0.003818751670437296
9.88150e-06	-0.0038124945080795797
9.88175e-06	-0.003806237345721821
9.88200e-06	-0.0037999801833640623
9.88225e-06	-0.003793723021006346
9.88250e-06	-0.0037874658586485874
9.88275e-06	-0.0037797612598271866
9.88300e-06	-0.003762074385814251
9.88325e-06	-0.0037443875118011957
9.88350e-06	-0.00372670063778814
9.88375e-06	-0.0037090137637752043
9.88400e-06	-0.003691326889762149
9.88425e-06	-0.0036698693356170538
9.88450e-06	-0.003646165144116724
9.88475e-06	-0.0036224609526162334
9.88500e-06	-0.003598756761115743
9.88525e-06	-0.0035750525696154134
9.88550e-06	-0.0035511530010053664
9.88575e-06	-0.003525906010160759
9.88600e-06	-0.0035007010947253493
9.88625e-06	-0.003475786353209236
9.88650e-06	-0.003450996068806999
9.88675e-06	-0.003427064105437911
9.88700e-06	-0.0034033495513387676
9.88725e-06	-0.003381134364720499
9.88750e-06	-0.0033592446801892074
9.88775e-06	-0.003339599827461556
9.88800e-06	-0.0033203725591629705
9.88825e-06	-0.003304025170426067
9.88850e-06	-0.003288218516054085
9.88875e-06	-0.003276141047296257
9.88900e-06	-0.0032640635785384287
9.88925e-06	-0.003252660112425908
9.88950e-06	-0.0032459049193513637
9.88975e-06	-0.0032391497262768193
9.89000e-06	-0.0032334578046368523
9.89025e-06	-0.003235098756208221
9.89050e-06	-0.00323673970777959
9.89075e-06	-0.003238380659350948
9.89100e-06	-0.0032400216109223167
9.89125e-06	-0.0032416625624936855
9.89150e-06	-0.003244548738792522
9.89175e-06	-0.0032560226329117975
9.89200e-06	-0.0032674965270310732
9.89225e-06	-0.0032789704211502713
9.89250e-06	-0.003290444315269547
9.89275e-06	-0.0033019182093888227
9.89300e-06	-0.003314347534154213
9.89325e-06	-0.003333366005927395
9.89350e-06	-0.0033523844777005765
9.89375e-06	-0.0033714029494736294
9.89400e-06	-0.0033904214212468107
9.89425e-06	-0.0034094398930199924
9.89450e-06	-0.0034284583647930453
9.89475e-06	-0.0034478669260274643
9.89500e-06	-0.0034699657472161867
9.89525e-06	-0.003492064568404759
9.89550e-06	-0.0035141633895934814
