Time(s)	Current(A)
1.40000e-05	-0.008285001824795683
1.40003e-05	-0.008287328002494895
1.40005e-05	-0.008289654180194122
1.40008e-05	-0.00829198035789335
1.40010e-05	-0.008294306535592561
1.40013e-05	-0.008296632713291788
1.40015e-05	-0.008298958890991017
1.40018e-05	-0.008293504725835489
1.40020e-05	-0.008281208258962234
1.40023e-05	-0.008268911792088978
1.40025e-05	-0.008256615325215808
1.40028e-05	-0.008244318858342552
1.40030e-05	-0.008232022391469297
1.40033e-05	-0.008219453247257891
1.40035e-05	-0.008198655524643161
1.40038e-05	-0.008177857802028433
1.40040e-05	-0.008157060079413846
1.40043e-05	-0.008136262356799118
1.40045e-05	-0.008115464634184388
1.40048e-05	-0.008094666911569801
1.40050e-05	-0.008072554233872825
1.40053e-05	-0.008049285139346057
1.40055e-05	-0.00802601604481929
1.40058e-05	-0.008002891646048603
1.40060e-05	-0.007979894497713623
1.40063e-05	-0.007956897349378643
1.40065e-05	-0.007934873924195838
1.40068e-05	-0.007913706824719978
1.40070e-05	-0.007892626904049016
1.40073e-05	-0.007874177776375037
1.40075e-05	-0.007855728648700934
1.40078e-05	-0.007838393529687404
1.40080e-05	-0.007822038108293405
1.40083e-05	-0.007804864561238257
1.40085e-05	-0.007786971526273457
1.40088e-05	-0.0077677909303300345
1.40090e-05	-0.007747478008875525
1.40093e-05	-0.007727165087421016
1.40095e-05	-0.007705844085831535
1.40098e-05	-0.007683636543819401
1.40100e-05	-0.007661429001807265
1.40103e-05	-0.007636507120479095
1.40105e-05	-0.0076091981555842176
1.40108e-05	-0.00758188919068934
1.40110e-05	-0.007554580225794648
1.40113e-05	-0.007527110777895754
1.40115e-05	-0.007494798437689184
1.40118e-05	-0.007462486097482833
1.40120e-05	-0.007430173757276263
1.40123e-05	-0.0073978614170696925
1.40125e-05	-0.007363393974530808
1.40128e-05	-0.0073270312607070925
1.40130e-05	-0.007290668546883376
1.40133e-05	-0.007253444926347823
1.40135e-05	-0.0072154641947711415
1.40138e-05	-0.00717727434809517
1.40140e-05	-0.007138752186135514
1.40143e-05	-0.007099912936992406
1.40145e-05	-0.007060789941910129
1.40148e-05	-0.007021565668012036
1.40150e-05	-0.006982472480280757
1.40153e-05	-0.006943742495931421
1.40155e-05	-0.00690560736651867
1.40158e-05	-0.006868269041464611
1.40160e-05	-0.006831837882558433
1.40163e-05	-0.006796364279625511
1.40165e-05	-0.006761961824083449
1.40168e-05	-0.006728836844263082
1.40170e-05	-0.006697227322954584
1.40173e-05	-0.006667370687670432
1.40175e-05	-0.006639504237644286
1.40178e-05	-0.0066137536874766685
1.40180e-05	-0.006589896048916746
1.40183e-05	-0.006567446853273478
1.40185e-05	-0.0065461077678346
1.40188e-05	-0.006526250820357686
1.40190e-05	-0.006507260221738702
1.40193e-05	-0.006489813952993839
1.40195e-05	-0.006473725821178753
1.40198e-05	-0.006459519890434779
1.40200e-05	-0.006446969232198832
1.40203e-05	-0.00643441857396297
1.40205e-05	-0.006423946959186684
1.40208e-05	-0.006415303726900708
1.40210e-05	-0.00640666049461479
1.40213e-05	-0.006398017262328813
1.40215e-05	-0.006389374030042837
1.40218e-05	-0.006383137702638741
1.40220e-05	-0.0063790180903621875
1.40223e-05	-0.006374898478085633
1.40225e-05	-0.006370778865809079
1.40228e-05	-0.006366659253532553
1.40230e-05	-0.006364332225109823
1.40233e-05	-0.006363581656724896
1.40235e-05	-0.006362831088339974
1.40238e-05	-0.006362080519955046
1.40240e-05	-0.006361329951570119
1.40243e-05	-0.006360579383185197
1.40245e-05	-0.006360945210279822
1.40248e-05	-0.006362292834045294
1.40250e-05	-0.006363640457810757
1.40253e-05	-0.006364988081576228
1.40255e-05	-0.0063663357053417
1.40258e-05	-0.006367683329107162
1.40260e-05	-0.006369304652493067
1.40263e-05	-0.006371166676760582
1.40265e-05	-0.006373028701028083
1.40268e-05	-0.0063747751008331344
1.40270e-05	-0.006376339540087395
1.40273e-05	-0.006377740221215885
1.40275e-05	-0.006378954664198619
1.40278e-05	-0.006380163596375754
1.40280e-05	-0.006382151270010286
1.40283e-05	-0.006386074733912699
1.40285e-05	-0.006392625969997937
1.40288e-05	-0.006401847181474716
1.40290e-05	-0.006413567718417426
1.40293e-05	-0.006427616405494742
1.40295e-05	-0.0064443928875972285
1.40298e-05	-0.006462643317600037
1.40300e-05	-0.00648378134466937
1.40303e-05	-0.0065074588241449466
1.40305e-05	-0.006535335536330384
1.40308e-05	-0.006566905198523841
1.40310e-05	-0.006598474860717299
1.40313e-05	-0.006635349422801301
1.40315e-05	-0.006676889296729133
1.40318e-05	-0.006718429170656965
1.40320e-05	-0.006759969044584515
1.40323e-05	-0.006801508918512346
1.40325e-05	-0.006848591482296795
1.40328e-05	-0.006900548478618121
1.40330e-05	-0.0069525054749398
1.40333e-05	-0.007004462471261477
1.40335e-05	-0.007056419467582804
1.40338e-05	-0.007110829651606507
1.40340e-05	-0.007167397253466077
1.40343e-05	-0.007223964855325263
1.40345e-05	-0.007281300533971099
1.40348e-05	-0.007339311685821323
1.40350e-05	-0.007397322837671153
1.40353e-05	-0.007454511486648868
1.40355e-05	-0.00751097679824566
1.40358e-05	-0.0075674421098420675
1.40360e-05	-0.007622201960617783
1.40363e-05	-0.007675461970353605
1.40365e-05	-0.007726738483730286
1.40368e-05	-0.007776270642030567
1.40370e-05	-0.007822162983547551
1.40373e-05	-0.007864854344706348
1.40375e-05	-0.007907545705865434
1.40378e-05	-0.007944896290515382
1.40380e-05	-0.007977550012185471
1.40383e-05	-0.008010203733855782
1.40385e-05	-0.008037986031745633
1.40388e-05	-0.008061484231625596
1.40390e-05	-0.00808498243150572
1.40393e-05	-0.008100176368139554
1.40395e-05	-0.008108067249393693
1.40398e-05	-0.008115958130647779
1.40400e-05	-0.008123849011901918
1.40403e-05	-0.008131739893156057
1.40405e-05	-0.008139630774410142
1.40408e-05	-0.008146923045890642
1.40410e-05	-0.008136151082431825
1.40413e-05	-0.00812537911897308
1.40415e-05	-0.008114607155514264
1.40418e-05	-0.008103835192055446
1.40420e-05	-0.008093063228596702
1.40423e-05	-0.008082291265137884
1.40425e-05	-0.008064745512429954
1.40428e-05	-0.008041242655937118
1.40430e-05	-0.008017739799444121
1.40433e-05	-0.007994236942951125
1.40435e-05	-0.007970734086458289
1.40438e-05	-0.00794702161999289
1.40440e-05	-0.007916983757659507
1.40443e-05	-0.007886945895326326
1.40445e-05	-0.007856908032992941
1.40448e-05	-0.007826870170659557
1.40450e-05	-0.007796832308326377
1.40453e-05	-0.007766083186617178
1.40455e-05	-0.007734708558892888
1.40458e-05	-0.0077035690617720575
1.40460e-05	-0.007672636346609423
1.40463e-05	-0.007642479636767514
1.40465e-05	-0.007613005372756927
1.40468e-05	-0.007585180202641563
1.40470e-05	-0.007558805302548882
1.40473e-05	-0.007532430402456379
1.40475e-05	-0.007510820469049323
1.40478e-05	-0.007493401011613715
1.40480e-05	-0.0074759815541781075
1.40483e-05	-0.007458562096742618
1.40485e-05	-0.00744114263930701
1.40488e-05	-0.007423723181871402
1.40490e-05	-0.007406303724435912
1.40493e-05	-0.007388884267000304
1.40495e-05	-0.007371464809564696
1.40498e-05	-0.007354379740675029
1.40500e-05	-0.007347385508139667
1.40503e-05	-0.007340391275604305
1.40505e-05	-0.00733339704306899
1.40508e-05	-0.007326402810533628
1.40510e-05	-0.007319408577998266
1.40513e-05	-0.0073124143454629505
1.40515e-05	-0.007305420112927588
1.40518e-05	-0.007298425880392226
1.40520e-05	-0.0072914316478569115
1.40523e-05	-0.0072880686059106576
1.40525e-05	-0.0072878989581511445
1.40528e-05	-0.007287729310391632
1.40530e-05	-0.007287559662632119
1.40533e-05	-0.007287390014872606
1.40535e-05	-0.007287220367113095
1.40538e-05	-0.007287050719353582
1.40540e-05	-0.007286881071594069
1.40543e-05	-0.007286711423834556
1.40545e-05	-0.007286627106580674
1.40548e-05	-0.007289117806264043
1.40550e-05	-0.007291608505947395
1.40553e-05	-0.007294099205630763
1.40555e-05	-0.007296589905314132
1.40558e-05	-0.007299080604997484
1.40560e-05	-0.007301571304680852
1.40563e-05	-0.007304062004364221
1.40565e-05	-0.007306552704047589
1.40568e-05	-0.007309043403730941
1.40570e-05	-0.007311240812837138
1.40573e-05	-0.007313180292098775
1.40575e-05	-0.007315119771360398
1.40578e-05	-0.007315475079862468
1.40580e-05	-0.007314437213985315
1.40583e-05	-0.007313399348108168
1.40585e-05	-0.007312361482231015
1.40588e-05	-0.007311323616353862
1.40590e-05	-0.007310285750476715
1.40593e-05	-0.007309247884599562
1.40595e-05	-0.0073080141750922305
1.40598e-05	-0.007300870496327771
1.40600e-05	-0.007293726817563262
1.40603e-05	-0.007286583138798753
1.40605e-05	-0.007279439460034293
1.40608e-05	-0.007272295781269784
1.40610e-05	-0.0072651521025052755
1.40613e-05	-0.007258008423740816
1.40615e-05	-0.007247954743901533
1.40618e-05	-0.007235341908796557
1.40620e-05	-0.007222729073691666
1.40623e-05	-0.007210116238586689
1.40625e-05	-0.007197503403481713
1.40628e-05	-0.007184890568376822
1.40630e-05	-0.007172277733271846
1.40633e-05	-0.007157993393183337
1.40635e-05	-0.007142239073988208
1.40638e-05	-0.007126484754792971
1.40640e-05	-0.007110730435597735
1.40643e-05	-0.007094976116402605
1.40645e-05	-0.007079221797207369
1.40648e-05	-0.007063467478012132
1.40650e-05	-0.00704747071319669
1.40653e-05	-0.00703126073334476
1.40655e-05	-0.007015050753492719
1.40658e-05	-0.006999062442252891
1.40660e-05	-0.006983659719537793
1.40663e-05	-0.006968600543947118
1.40665e-05	-0.006953541368356445
1.40668e-05	-0.006939386541239668
1.40670e-05	-0.006926027029347667
1.40673e-05	-0.006912667517455667
1.40675e-05	-0.006900642807393281
1.40678e-05	-0.006889791968076436
1.40680e-05	-0.006878941128759591
1.40683e-05	-0.006870573301176027
1.40685e-05	-0.006864389119711446
1.40688e-05	-0.006858204938246864
1.40690e-05	-0.006852020756782324
1.40693e-05	-0.006845836575317742
1.40695e-05	-0.00683965239385316
1.40698e-05	-0.00683346821238862
1.40700e-05	-0.0068307856469773465
1.40703e-05	-0.0068311825234402155
1.40705e-05	-0.006831579399903082
1.40708e-05	-0.006831976276365951
1.40710e-05	-0.00683237315282882
1.40713e-05	-0.006832770029291686
1.40715e-05	-0.0068331669057545555
1.40718e-05	-0.006836575656407172
1.40720e-05	-0.006842633153055412
1.40723e-05	-0.006848690649703694
1.40725e-05	-0.006854748146351976
1.40728e-05	-0.006860805643000217
1.40730e-05	-0.0068668631396484985
1.40733e-05	-0.00687292063629678
1.40735e-05	-0.006878978132945062
1.40738e-05	-0.006886630596786763
1.40740e-05	-0.006895685729764427
1.40743e-05	-0.006904740862742092
1.40745e-05	-0.006913795995719695
1.40748e-05	-0.00692285112869736
1.40750e-05	-0.006931906261675024
1.40753e-05	-0.006940961394652627
1.40755e-05	-0.006950016527630292
1.40758e-05	-0.006958918162251721
1.40760e-05	-0.006967684805126803
1.40763e-05	-0.006976451448001945
1.40765e-05	-0.006985218090877087
1.40768e-05	-0.006993918341299385
1.40770e-05	-0.0070006150680123
1.40773e-05	-0.007007311794725216
1.40775e-05	-0.007014008521438086
1.40778e-05	-0.007020705248151002
1.40780e-05	-0.007025627813842293
1.40783e-05	-0.007028990121167287
1.40785e-05	-0.007030023958292048
1.40788e-05	-0.007029010058449145
1.40790e-05	-0.0070279961586062496
1.40793e-05	-0.007024307039059248
1.40795e-05	-0.007018265239076845
1.40798e-05	-0.007012223439094484
1.40800e-05	-0.007003249402745882
1.40803e-05	-0.006991696656648635
1.40805e-05	-0.006980143910551467
1.40808e-05	-0.006964957197719889
1.40810e-05	-0.006946574649261843
1.40813e-05	-0.006928192100803921
1.40815e-05	-0.006909809552345875
1.40818e-05	-0.006891207244636867
1.40820e-05	-0.006865973266438233
1.40823e-05	-0.006840739288239769
1.40825e-05	-0.0068155053100411355
1.40828e-05	-0.006790271331842501
1.40830e-05	-0.006762907193161685
1.40833e-05	-0.006733669717915494
1.40835e-05	-0.006703579181903614
1.40838e-05	-0.0066727384348454315
1.40840e-05	-0.00664140314544365
1.40843e-05	-0.006609355191979369
1.40845e-05	-0.006576865013091281
1.40848e-05	-0.006544102125283162
1.40850e-05	-0.00651125375426485
1.40853e-05	-0.006478507313768648
1.40855e-05	-0.006446050247398311
1.40858e-05	-0.00641405956268453
1.40860e-05	-0.006382683076354537
1.40863e-05	-0.0063520534034686976
1.40865e-05	-0.0063223298968097695
1.40868e-05	-0.006293706334720664
1.40870e-05	-0.006266387608167407
1.40873e-05	-0.006240578112583202
1.40875e-05	-0.006216482798678869
1.40878e-05	-0.0061943451492822415
1.40880e-05	-0.006174508168675114
1.40883e-05	-0.006157335100814671
1.40885e-05	-0.006143034723740006
1.40888e-05	-0.006131655469792745
1.40890e-05	-0.006123198022528781
1.40893e-05	-0.0061176630953760375
1.40895e-05	-0.006115051371890449
1.40898e-05	-0.00611538759887039
1.40900e-05	-0.006119603147220577
1.40903e-05	-0.006126008318227517
1.40905e-05	-0.006136475128830994
1.40908e-05	-0.006150513885320685
1.40910e-05	-0.0061645526418104704
1.40913e-05	-0.006183951142724003
1.40915e-05	-0.00620806318766092
1.40918e-05	-0.006232175232598001
1.40920e-05	-0.006256287277535082
1.40923e-05	-0.006280718668741858
1.40925e-05	-0.006314786965922722
1.40928e-05	-0.006348855263103587
1.40930e-05	-0.0063829235602842205
1.40933e-05	-0.006416991857465085
1.40935e-05	-0.006454041916823053
1.40938e-05	-0.006493714240635825
1.40940e-05	-0.0065333865644488665
1.40943e-05	-0.006574369987076272
1.40945e-05	-0.006616506435201032
1.40948e-05	-0.006658642883326076
1.40950e-05	-0.006701031475367984
1.40953e-05	-0.00674364181146279
1.40955e-05	-0.006785817812523896
1.40958e-05	-0.00682761184438234
1.40960e-05	-0.006868462256744251
1.40963e-05	-0.006908482817589984
1.40965e-05	-0.006947014548304967
1.40968e-05	-0.006984236950475015
1.40970e-05	-0.007014333706091019
1.40973e-05	-0.007038163922468993
1.40975e-05	-0.007061994138846805
1.40978e-05	-0.0070858243552247785
1.40980e-05	-0.007109654571602752
1.40983e-05	-0.007133484787980564
1.40985e-05	-0.007157315004358538
1.40988e-05	-0.007181145220736511
1.40990e-05	-0.007204975437114485
1.40993e-05	-0.007228805653492296
1.40995e-05	-0.00725263586987027
1.40998e-05	-0.0072764660862482435
1.41000e-05	-0.007300296302626056
1.41003e-05	-0.007316979955222497
1.41005e-05	-0.007327378673249465
1.41008e-05	-0.007337777391276362
1.41010e-05	-0.007348176109303331
1.41013e-05	-0.0073585748273302986
1.41015e-05	-0.007368973545357196
1.41018e-05	-0.007379372263384165
1.41020e-05	-0.007389770981411132
1.41023e-05	-0.007400169699438031
1.41025e-05	-0.0074105684174649985
1.41028e-05	-0.007420967135491967
1.41030e-05	-0.007431365853518865
1.41033e-05	-0.007441764571545832
1.41035e-05	-0.007449202997645553
1.41038e-05	-0.007454038040967158
1.41040e-05	-0.007458873084288795
1.41043e-05	-0.007463708127610433
1.41045e-05	-0.007468543170932038
1.41048e-05	-0.007473378214253676
1.41050e-05	-0.007478213257575313
1.41053e-05	-0.007483048300896918
1.41055e-05	-0.007487806435802756
1.41058e-05	-0.007490243706980525
1.41060e-05	-0.007492680978158277
1.41063e-05	-0.007495118249336046
1.41065e-05	-0.007497555520513815
1.41068e-05	-0.007499992791691567
1.41070e-05	-0.007502430062869336
1.41073e-05	-0.007504867334047104
1.41075e-05	-0.007507304605224873
1.41078e-05	-0.00750772257775671
1.41080e-05	-0.007506364709442918
1.41083e-05	-0.007505006841129126
1.41085e-05	-0.007503648972815344
1.41088e-05	-0.007502291104501553
1.41090e-05	-0.007500933236187761
1.41093e-05	-0.007499575367873978
1.41095e-05	-0.007498217499560186
1.41098e-05	-0.0074933209342527805
1.41100e-05	-0.007485312316810727
1.41103e-05	-0.007477303699368619
1.41105e-05	-0.0074692950819265115
1.41108e-05	-0.007461286464484457
1.41110e-05	-0.00745327784704235
1.41113e-05	-0.007445269229600242
1.41115e-05	-0.007437260612158187
1.41118e-05	-0.007426208389281965
1.41120e-05	-0.007412479514856872
1.41123e-05	-0.0073987506404318715
1.41125e-05	-0.007385021766006778
1.41128e-05	-0.007371292891581685
1.41130e-05	-0.0073575640171566845
1.41133e-05	-0.007343835142731591
1.41135e-05	-0.007330017986226524
1.41138e-05	-0.0073135367431526955
1.41140e-05	-0.0072970555000787555
1.41143e-05	-0.007280574257004815
1.41145e-05	-0.007264093013930987
1.41148e-05	-0.007247611770857046
1.41150e-05	-0.007231130527783106
1.41153e-05	-0.007214649284709277
1.41155e-05	-0.007198323027968204
1.41158e-05	-0.007182133071551517
1.41160e-05	-0.00716594311513494
1.41163e-05	-0.007150401811951931
1.41165e-05	-0.0071354309567854156
1.41168e-05	-0.007120460101618901
1.41170e-05	-0.007108001987704902
1.41173e-05	-0.007097753665076849
1.41175e-05	-0.007087505342448795
1.41178e-05	-0.007077257019820811
1.41180e-05	-0.007067008697192757
1.41183e-05	-0.0070567603745647035
1.41185e-05	-0.007046512051936719
1.41188e-05	-0.007036263729308666
1.41190e-05	-0.007026015406680612
1.41193e-05	-0.007016004042307327
1.41195e-05	-0.00701314336247695
1.41198e-05	-0.007010282682646573
1.41200e-05	-0.007007422002816214
1.41203e-05	-0.007004561322985836
1.41205e-05	-0.007001700643155459
1.41208e-05	-0.006998839963325101
1.41210e-05	-0.006995979283494724
1.41213e-05	-0.0069931186036643455
1.41215e-05	-0.006990257923833988
1.41218e-05	-0.006990472589547578
1.41220e-05	-0.0069933918201577116
1.41223e-05	-0.0069963110507678256
1.41225e-05	-0.00699923028137796
1.41228e-05	-0.007002149511988094
1.41230e-05	-0.007005068742598208
1.41233e-05	-0.007007987973208343
1.41235e-05	-0.007010907203818477
1.41238e-05	-0.007013826434428591
1.41240e-05	-0.007016745665038726
1.41243e-05	-0.007020820157464137
1.41245e-05	-0.007025910626958568
1.41248e-05	-0.007031001096453033
1.41250e-05	-0.007036091565947499
1.41253e-05	-0.0070411820354419645
1.41255e-05	-0.007046272504936396
1.41258e-05	-0.007051362974430861
1.41260e-05	-0.007056453443925327
1.41263e-05	-0.007061543913419757
1.41265e-05	-0.007066634382914223
1.41268e-05	-0.00707111542064448
1.41270e-05	-0.007075060503070525
1.41273e-05	-0.007079005585496596
1.41275e-05	-0.007082950667922667
1.41278e-05	-0.007086895750348712
1.41280e-05	-0.007090840832774783
1.41283e-05	-0.0070947859152008545
1.41285e-05	-0.007098730997626899
1.41288e-05	-0.00710267608005297
1.41290e-05	-0.007108179642582854
1.41293e-05	-0.007115053786246188
1.41295e-05	-0.007121927929909568
1.41298e-05	-0.007128802073572947
1.41300e-05	-0.007135676217236281
1.41303e-05	-0.00714255036089966
1.41305e-05	-0.00714942450456304
1.41308e-05	-0.007156298648226374
1.41310e-05	-0.007163172791889753
1.41313e-05	-0.007172528979814396
1.41315e-05	-0.007184067963033518
1.41318e-05	-0.007195606946252717
1.41320e-05	-0.007207145929471917
1.41323e-05	-0.007218684912691039
1.41325e-05	-0.007230223895910238
1.41328e-05	-0.007241762879129438
1.41330e-05	-0.00725330186234856
1.41333e-05	-0.007264840845567759
1.41335e-05	-0.007277519473040773
1.41338e-05	-0.007291200342961159
1.41340e-05	-0.007304881212881452
1.41343e-05	-0.007318562082801838
1.41345e-05	-0.007332242952722225
1.41348e-05	-0.007345923822642518
1.41350e-05	-0.007359604692562904
1.41353e-05	-0.00737328556248329
1.41355e-05	-0.007386966432403584
1.41358e-05	-0.007400000335280542
1.41360e-05	-0.007412465273034518
1.41363e-05	-0.007424930210788409
1.41365e-05	-0.007437395148542384
1.41368e-05	-0.007448629367131318
1.41370e-05	-0.007458781248855846
1.41373e-05	-0.007468933130580442
1.41375e-05	-0.007479085012305038
1.41378e-05	-0.00748910176826287
1.41380e-05	-0.0074989996899629
1.41383e-05	-0.007508897611662931
1.41385e-05	-0.007518795533362895
1.41388e-05	-0.007528693455062925
1.41390e-05	-0.007538591376762956
1.41393e-05	-0.007548489298462919
1.41395e-05	-0.007558387220162949
1.41398e-05	-0.007571244033794725
1.41400e-05	-0.007586702999003002
1.41403e-05	-0.007602161964211383
1.41405e-05	-0.0076176209294197645
1.41408e-05	-0.007633079894628042
1.41410e-05	-0.007648538859836423
1.41413e-05	-0.007663997825044805
1.41415e-05	-0.007679456790253081
1.41418e-05	-0.007698078776187097
1.41420e-05	-0.00771948243159691
1.41423e-05	-0.007740886087006723
1.41425e-05	-0.007762289742416391
1.41428e-05	-0.007783693397826204
1.41430e-05	-0.007805097053236017
1.41433e-05	-0.007826500708645684
1.41435e-05	-0.007847904364055497
1.41438e-05	-0.00786937189309192
1.41440e-05	-0.007892766935300827
1.41443e-05	-0.00791616197750989
1.41445e-05	-0.007939557019718955
1.41448e-05	-0.007962952061927861
1.41450e-05	-0.007986347104136924
1.41453e-05	-0.00800974214634599
1.41455e-05	-0.008033137188554895
1.41458e-05	-0.00805653223076396
1.41460e-05	-0.008077196767289083
1.41463e-05	-0.008095460002977199
1.41465e-05	-0.00811372323866544
