Time(s)	Current(A)
1.02500e-05	0.0033741234461081506
1.02503e-05	0.0033811133224572764
1.02505e-05	0.0033881031988064027
1.02508e-05	0.0033950930751554817
1.02510e-05	0.003402575937557527
1.02513e-05	0.0034102035004877134
1.02515e-05	0.0034178310634178483
1.02518e-05	0.0034254586263480352
1.02520e-05	0.0034330861892782217
1.02522e-05	0.0034407137522083566
1.02525e-05	0.003448341315138543
1.02528e-05	0.00345596887806873
1.02530e-05	0.003463596440998865
1.02533e-05	0.0034712240039290513
1.02535e-05	0.0034788515668592378
1.02537e-05	0.0034864791297893726
1.02540e-05	0.0034941066927195595
1.02543e-05	0.003501734255649746
1.02545e-05	0.003509361818579881
1.02548e-05	0.003516419316088598
1.02550e-05	0.0035233094888482896
1.02553e-05	0.0035301996616079814
1.02555e-05	0.003537089834367627
1.02558e-05	0.0035439800071273187
1.02560e-05	0.0035508701798870105
1.02563e-05	0.0035577603526466555
1.02565e-05	0.0035646505254063477
1.02568e-05	0.0035715406981660395
1.02570e-05	0.0035784308709256845
1.02573e-05	0.0035853210436853763
1.02575e-05	0.003592211216445068
1.02578e-05	0.0035991013892047135
1.02580e-05	0.0036059915619644054
1.02583e-05	0.003612881734724097
1.02585e-05	0.003623829974367934
1.02588e-05	0.0036359693317282796
1.02590e-05	0.0036481086890886257
1.02593e-05	0.0036602480464488895
1.02595e-05	0.0036723874038092352
1.02598e-05	0.0036845267611695814
1.02600e-05	0.003696666118529845
1.02603e-05	0.003708805475890191
1.02605e-05	0.003720944833250537
1.02607e-05	0.003733084190610801
1.02610e-05	0.0037452235479711465
1.02613e-05	0.0037573629053314927
1.02615e-05	0.0037695022626917565
1.02618e-05	0.0037816416200521026
1.02620e-05	0.0037933941875903025
1.02622e-05	0.003805033225158878
1.02625e-05	0.003816672262727532
1.02628e-05	0.0038283113002961864
1.02630e-05	0.003839950337864762
1.02633e-05	0.0038515893754334164
1.02635e-05	0.0038632284130020707
1.02638e-05	0.003874867450570725
1.02640e-05	0.0038865064881393003
1.02643e-05	0.003898145525707955
1.02645e-05	0.003909784563276609
1.02648e-05	0.003921423600845185
1.02650e-05	0.003933062638413839
1.02653e-05	0.003944701675982493
1.02655e-05	0.003947508152050959
1.02658e-05	0.003947722107890434
1.02660e-05	0.00394793606372991
1.02663e-05	0.0039481500195693835
1.02665e-05	0.003948363975408859
1.02668e-05	0.003948577931248334
1.02670e-05	0.003948791887087808
1.02673e-05	0.003949005842927283
1.02675e-05	0.003949219798766758
1.02678e-05	0.003949433754606232
1.02680e-05	0.003949647710445707
1.02683e-05	0.003949861666285182
1.02685e-05	0.0039500756221246556
1.02688e-05	0.0039502895779641315
1.02690e-05	0.0039505035338036065
1.02692e-05	0.003942249067369561
1.02695e-05	0.003931508962306828
1.02698e-05	0.003920768857244096
1.02700e-05	0.0039100287521814355
1.02703e-05	0.0038992886471187027
1.02705e-05	0.00388854854205597
1.02707e-05	0.00387780843699331
1.02710e-05	0.0038670683319305768
1.02713e-05	0.003856328226867844
1.02715e-05	0.003845588121805184
1.02718e-05	0.0038348480167424513
1.02720e-05	0.003824107911679718
1.02723e-05	0.0038133678066169852
1.02725e-05	0.0038026277015543253
1.02728e-05	0.0037918875964915925
1.02730e-05	0.003781202311596236
1.02733e-05	0.003770533117434416
1.02735e-05	0.003759863923272524
1.02738e-05	0.003749194729110632
1.02740e-05	0.0037385255349488126
1.02743e-05	0.0037278563407869207
1.02745e-05	0.0037171871466250284
1.02748e-05	0.003706517952463209
1.02750e-05	0.003695848758301317
1.02753e-05	0.003685179564139425
1.02755e-05	0.0036745103699776056
1.02758e-05	0.0036638411758157133
1.02760e-05	0.0036529894588961773
1.02763e-05	0.0036416518917754635
1.02765e-05	0.0036303143246546733
1.02768e-05	0.0036189767575338827
1.02770e-05	0.003607639190413169
1.02773e-05	0.0035963016232923783
1.02775e-05	0.003584964056171588
1.02777e-05	0.0035736264890508743
1.02780e-05	0.0035622889219300838
1.02783e-05	0.0035509513548092936
1.02785e-05	0.0035396137876885798
1.02788e-05	0.003528276220567789
1.02790e-05	0.0035169386534469986
1.02792e-05	0.0035020267439749187
1.02795e-05	0.0034860656988860515
1.02798e-05	0.003470104653797184
1.02800e-05	0.0034541436087084246
1.02803e-05	0.0034381825636195574
1.02805e-05	0.00342222151853069
1.02808e-05	0.0034062604734418226
1.02810e-05	0.0033902994283530634
1.02813e-05	0.003374338383264196
1.02815e-05	0.003358377338175329
1.02818e-05	0.0033424162930865697
1.02820e-05	0.003326455247997702
1.02823e-05	0.0033114568168000507
1.02825e-05	0.0032967409305909904
1.02828e-05	0.0032820250443818303
1.02830e-05	0.00326730915817267
1.02833e-05	0.00325259327196361
1.02835e-05	0.0032378773857544498
1.02838e-05	0.0032231614995452897
1.02840e-05	0.0032084456133362293
1.02843e-05	0.0031937297271270692
1.02845e-05	0.003179013840917909
1.02848e-05	0.003164297954708849
1.02850e-05	0.0031495820684996887
1.02853e-05	0.0031471332009259012
1.02855e-05	0.0031482849303010184
1.02858e-05	0.003149436659676144
1.02860e-05	0.003150588389051269
1.02862e-05	0.0031517401184263864
1.02865e-05	0.0031528918478015114
1.02868e-05	0.003154043577176637
1.02870e-05	0.0031551953065517544
1.02873e-05	0.0031563470359268794
1.02875e-05	0.003157498765302005
1.02877e-05	0.003158650494677122
1.02880e-05	0.0031598022240522474
1.02883e-05	0.0031673019436603183
1.02885e-05	0.0031916991305951273
1.02888e-05	0.003216096317530102
1.02890e-05	0.003240493504465076
1.02893e-05	0.003264890691400051
1.02895e-05	0.00328928787833486
1.02898e-05	0.003313685065269834
1.02900e-05	0.0033380822522048087
1.02903e-05	0.0033624794391396177
1.02905e-05	0.003386876626074592
1.02908e-05	0.0034112738130095666
1.02910e-05	0.0034356709999443756
1.02913e-05	0.00346006818687935
1.02915e-05	0.0034911171354509883
1.02918e-05	0.003524118499142121
1.02920e-05	0.0035571198628334775
1.02923e-05	0.003590121226524834
1.02925e-05	0.0036231225902159667
1.02928e-05	0.003656123953907323
1.02930e-05	0.0036891253175986797
1.02933e-05	0.0037221266812898124
1.02935e-05	0.003755128044981169
1.02938e-05	0.003781686863021596
1.02940e-05	0.003806354674704911
1.02943e-05	0.003831022486388394
1.02945e-05	0.0038556902980718764
1.02947e-05	0.003880358109755192
1.02950e-05	0.0039050259214386744
1.02953e-05	0.0039296937331221565
1.02955e-05	0.003954361544805472
1.02958e-05	0.003979029356488955
1.02960e-05	0.003990140757951512
1.02962e-05	0.0039972731021753055
1.02965e-05	0.004004405446399148
1.02968e-05	0.00401153779062299
1.02970e-05	0.004018670134846783
1.02973e-05	0.004025802479070625
1.02975e-05	0.0040329348232944675
1.02978e-05	0.00404006716751831
1.02980e-05	0.004047199511742103
1.02983e-05	0.004054331855965945
1.02985e-05	0.0040614642001897865
1.02988e-05	0.004068596544413581
1.02990e-05	0.004075728888637423
1.02993e-05	0.004078973434693866
1.02995e-05	0.004071869202614454
1.02998e-05	0.004064764970534994
1.03000e-05	0.004057660738455534
1.03003e-05	0.004050556506376122
1.03005e-05	0.004043452274296662
1.03008e-05	0.0040363480422172015
1.03010e-05	0.00402924381013779
1.03013e-05	0.00402213957805833
1.03015e-05	0.00401503534597887
1.03018e-05	0.004007931113899458
1.03020e-05	0.004000826881819998
1.03023e-05	0.003993722649740537
1.03025e-05	0.003986618417661126
1.03028e-05	0.00397776494758675
1.03030e-05	0.003968398043794023
1.03032e-05	0.003959031140001358
1.03035e-05	0.00394966423620863
1.03038e-05	0.003940297332415902
1.03040e-05	0.003930930428623237
1.03043e-05	0.003921563524830509
1.03045e-05	0.003912196621037781
1.03047e-05	0.003902829717245116
1.03050e-05	0.0038934628134523882
1.03053e-05	0.0038840959096596603
1.03055e-05	0.0038728040917176965
1.03058e-05	0.0038609472758553117
1.03060e-05	0.003849090459992927
1.03063e-05	0.0038372336441305425
1.03065e-05	0.003825376828268238
1.03068e-05	0.003813520012405853
1.03070e-05	0.0038016631965434684
1.03073e-05	0.0037898063806811643
1.03075e-05	0.0037779495648187795
1.03078e-05	0.0037660927489563947
1.03080e-05	0.0037542359330940906
1.03083e-05	0.003734705085793531
1.03085e-05	0.0037129217682696073
1.03088e-05	0.003691138450745831
1.03090e-05	0.0036693551332219075
1.03093e-05	0.0036475718156979836
1.03095e-05	0.003625788498174207
1.03098e-05	0.0036040051806502833
1.03100e-05	0.00358222186312636
1.03103e-05	0.0035604385456025835
1.03105e-05	0.0035386552280786596
1.03108e-05	0.003516871910554736
1.03110e-05	0.0034918374869139586
1.03113e-05	0.003465848803470781
1.03115e-05	0.0034398601200276028
1.03117e-05	0.003413871436584601
1.03120e-05	0.0033878827531414234
1.03123e-05	0.0033618940696982457
1.03125e-05	0.003335905386255244
1.03128e-05	0.003309916702812066
1.03130e-05	0.003283928019368888
1.03132e-05	0.0032579393359258866
1.03135e-05	0.0032319506524827084
1.03138e-05	0.0032138780998650896
1.03140e-05	0.0031981290781214473
1.03143e-05	0.0031823800563776984
1.03145e-05	0.0031666310346339494
1.03148e-05	0.0031508820128902004
1.03150e-05	0.0031351329911465586
1.03153e-05	0.0031193839694028096
1.03155e-05	0.0031036349476590607
1.03158e-05	0.0030878859259154184
1.03160e-05	0.0030721369041716694
1.03163e-05	0.0030563878824279205
1.03165e-05	0.003040638860684278
1.03168e-05	0.0030248898389405297
1.03170e-05	0.0030091408171967807
1.03173e-05	0.0029933917954531384
1.03175e-05	0.0029894833010632726
1.03178e-05	0.002989050220544033
1.03180e-05	0.0029886171400247963
1.03183e-05	0.002988184059505557
1.03185e-05	0.0029877509789863173
1.03188e-05	0.002987317898467081
1.03190e-05	0.0029868848179478414
1.03193e-05	0.002986451737428602
1.03195e-05	0.0029860186569093655
1.03198e-05	0.002985585576390126
1.03200e-05	0.0029851524958708865
1.03202e-05	0.0029847194153516496
1.03205e-05	0.00298428633483241
1.03208e-05	0.0029838532543131706
1.03210e-05	0.002983420173793934
1.03213e-05	0.0029877275305673448
1.03215e-05	0.002993426293401417
1.03217e-05	0.0029991250562354504
1.03220e-05	0.0030048238190695225
1.03223e-05	0.0030105225819035946
1.03225e-05	0.003016221344737628
1.03228e-05	0.0030219201075717002
1.03230e-05	0.0030276188704057723
1.03232e-05	0.003033317633239806
1.03235e-05	0.003039016396073878
1.03238e-05	0.00304471515890795
1.03240e-05	0.003051060916093503
1.03243e-05	0.003057596578092934
1.03245e-05	0.0030641322400924084
1.03248e-05	0.0030706679020918834
1.03250e-05	0.003077203564091314
1.03253e-05	0.003083739226090789
1.03255e-05	0.0030902748880902637
1.03258e-05	0.0030968105500896945
1.03260e-05	0.0031033462120891695
1.03263e-05	0.003109881874088644
1.03265e-05	0.0031164175360880748
1.03268e-05	0.0031325530941761544
1.03270e-05	0.0031515063993998683
1.03273e-05	0.003170459704623454
1.03275e-05	0.0031894130098471677
1.03278e-05	0.003208366315070881
1.03280e-05	0.0032273196202944666
1.03283e-05	0.0032462729255181805
1.03285e-05	0.003265226230741894
1.03287e-05	0.0032841795359654794
1.03290e-05	0.0033031328411891932
1.03293e-05	0.0033220861464129067
1.03295e-05	0.003344569375182764
1.03298e-05	0.0033764487696194244
1.03300e-05	0.0034083281640560842
1.03302e-05	0.0034402075584925285
1.03305e-05	0.0034720869529291883
1.03308e-05	0.003503966347365848
1.03310e-05	0.0035358457418022925
1.03313e-05	0.0035677251362389523
1.03315e-05	0.0035996045306756126
1.03317e-05	0.0036314839251120564
1.03320e-05	0.0036633633195487163
1.03323e-05	0.0036952427139853765
1.03325e-05	0.0037254387265846216
1.03328e-05	0.0037551406354654525
1.03330e-05	0.003784842544346485
1.03333e-05	0.003814544453227517
1.03335e-05	0.0038442463621083485
1.03338e-05	0.0038739482709893806
1.03340e-05	0.003903650179870413
1.03343e-05	0.003933352088751244
1.03345e-05	0.0039630539976322765
1.03348e-05	0.003992755906513309
1.03350e-05	0.0040224578153941395
1.03353e-05	0.00403762168478187
1.03355e-05	0.0040485183705691
1.03358e-05	0.004059415056356255
1.03360e-05	0.004070311742143484
1.03363e-05	0.004081208427930714
1.03365e-05	0.004092105113717869
1.03368e-05	0.004103001799505099
1.03370e-05	0.0041138984852923275
1.03373e-05	0.004124795171079483
1.03375e-05	0.0041356918568667125
1.03378e-05	0.004146588542653941
1.03380e-05	0.004141388570572158
1.03383e-05	0.004131463931555762
1.03385e-05	0.0041215392925393664
1.03387e-05	0.004111614653523037
1.03390e-05	0.004101690014506641
1.03393e-05	0.0040917653754902455
1.03395e-05	0.004081840736473917
1.03398e-05	0.004071916097457521
1.03400e-05	0.004061991458441125
1.03402e-05	0.004052066819424796
1.03405e-05	0.0040421421804084
1.03408e-05	0.004023773626113954
1.03410e-05	0.0040029266264402594
1.03413e-05	0.0039820796267667075
1.03415e-05	0.003961232627093013
1.03418e-05	0.00394038562741932
1.03420e-05	0.003919538627745767
1.03423e-05	0.0038986916280720737
1.03425e-05	0.0038778446283983803
1.03428e-05	0.003856997628724828
1.03430e-05	0.003836150629051134
1.03433e-05	0.0038153036293774403
1.03435e-05	0.0038004645378010423
1.03438e-05	0.0037873888784207923
1.03440e-05	0.0037743132190405423
1.03443e-05	0.0037612375596603807
1.03445e-05	0.0037481619002801307
1.03448e-05	0.0037350862408998806
1.03450e-05	0.0037220105815197195
1.03453e-05	0.0037089349221394695
1.03455e-05	0.0036958592627592195
1.03458e-05	0.003682783603379058
1.03460e-05	0.003669707943998808
1.03463e-05	0.003656632284618558
1.03465e-05	0.0036435566252383963
1.03468e-05	0.0036304809658581462
1.03470e-05	0.003617405306477896
1.03472e-05	0.003604329647097735
1.03475e-05	0.003591253987717485
1.03478e-05	0.00359175098699181
1.03480e-05	0.003596231812728902
1.03483e-05	0.0036007126384660242
1.03485e-05	0.0036051934642031464
1.03487e-05	0.0036096742899402383
1.03490e-05	0.003614155115677361
1.03493e-05	0.003618635941414483
1.03495e-05	0.0036231167671516053
1.03498e-05	0.003627597592888697
1.03500e-05	0.0036320784186258197
1.03503e-05	0.003636559244362942
1.03505e-05	0.0036410400701000338
1.03508e-05	0.003645520895837156
1.03510e-05	0.003650001721574278
1.03513e-05	0.0036544825473113704
1.03515e-05	0.0036589633730484926
1.03518e-05	0.0036634441987856148
1.03520e-05	0.003672256731373232
1.03523e-05	0.003682340700075355
1.03525e-05	0.0036924246687774775
1.03528e-05	0.003702508637479532
1.03530e-05	0.0037125926061816546
1.03533e-05	0.003722676574883777
1.03535e-05	0.0037327605435858316
1.03538e-05	0.003742844512287954
1.03540e-05	0.003752928480990077
1.03543e-05	0.003761372152448547
1.03545e-05	0.003765449580714175
1.03548e-05	0.0037695270089798025
1.03550e-05	0.0037736044372454025
1.03553e-05	0.00377768186551103
1.03555e-05	0.0037817592937766575
1.03557e-05	0.0037858367220422575
1.03560e-05	0.003789914150307885
1.03563e-05	0.003793991578573513
1.03565e-05	0.003798069006839113
1.03568e-05	0.0037883524966912225
1.03570e-05	0.003774587210375643
1.03572e-05	0.0037608219240601566
1.03575e-05	0.0037470566377445767
1.03578e-05	0.003733291351428997
1.03580e-05	0.0037195260651134176
1.03583e-05	0.0037057607787979313
1.03585e-05	0.0036919954924823513
1.03588e-05	0.003678230206166772
1.03590e-05	0.0036644649198512855
1.03593e-05	0.003650699633535706
1.03595e-05	0.003624346748855916
1.03598e-05	0.003594299171134968
1.03600e-05	0.003564251593413817
1.03603e-05	0.0035342040156926655
1.03605e-05	0.0035041564379717175
1.03608e-05	0.003474108860250566
1.03610e-05	0.003444061282529415
1.03613e-05	0.003414013704808467
1.03615e-05	0.0033839661270873155
1.03618e-05	0.003353918549366164
1.03620e-05	0.003323870971645216
1.03623e-05	0.0032913388168774468
1.03625e-05	0.0032580773927716605
1.03628e-05	0.0032248159686661
1.03630e-05	0.0031915545445603136
1.03633e-05	0.0031582931204545274
1.03635e-05	0.0031250316963489667
1.03638e-05	0.0030926418687664864
1.03640e-05	0.0030676847756630167
1.03642e-05	0.0030427276825597156
1.03645e-05	0.0030177705894562454
1.03648e-05	0.0029928134963527753
1.03650e-05	0.0029678564032494742
1.03653e-05	0.0029428993101460045
1.03655e-05	0.0029287864226072873
1.03657e-05	0.0029078150328576847
1.03660e-05	-0.0029441451934033268
1.03663e-05	-0.006279045290218591
1.03665e-05	0.0017067727977214042
1.03668e-05	0.009275873277993911
1.03670e-05	0.013726470859982048
1.03673e-05	0.014758750237950286
1.03675e-05	0.009215512007226907
1.03678e-05	0.003637893467238463
1.03680e-05	-0.0008283758834371428
1.03683e-05	-0.002282459043592034
1.03685e-05	0.0026668549807595246
1.03688e-05	0.007370025522149385
1.03690e-05	0.010123722652513257
1.03693e-05	0.010739087224963525
1.03695e-05	0.007238415905745196
1.03698e-05	0.0037190355561561076
1.03700e-05	0.0008983945395816674
1.03703e-05	-3.313461913602759e-05
1.03705e-05	0.0030482491987252596
1.03708e-05	0.005976936694958713
1.03710e-05	0.007685867505235333
1.03713e-05	0.008056706934237214
1.03715e-05	0.005850661191769513
1.03718e-05	0.0036342737806231854
1.03720e-05	0.0018568058557107497
1.03723e-05	0.001263711068503406
1.03725e-05	0.0031850517949732864
1.03727e-05	0.005011276674396902
1.03730e-05	0.006073916677030035
1.03733e-05	0.006298821167251031
1.03735e-05	0.004910030163144849
1.03738e-05	0.0035152068624070805
1.03740e-05	0.0023956708517675626
1.03742e-05	0.0020182446513903616
1.03745e-05	0.003215893266428971
1.03748e-05	0.004353852853535428
1.03750e-05	0.005013361378022092
1.03753e-05	0.0051480652624713115
1.03755e-05	0.004272260816635699
1.03758e-05	0.0033933915180716285
1.03760e-05	0.0026878001331540856
1.03763e-05	0.0024478396764416465
1.03765e-05	0.0031951651342661566
1.03768e-05	0.0039056736313624846
1.03770e-05	0.004317025025138402
1.03773e-05	0.004400170209075929
1.03775e-05	0.0038508680402648413
1.03778e-05	0.0033001696517753597
1.03780e-05	0.002858492842542052
1.03783e-05	0.0027089117709437325
1.03785e-05	0.0031781129109540447
1.03788e-05	0.0036245376366998193
1.03790e-05	0.0038838318531536626
1.03793e-05	0.00393778414446962
1.03795e-05	0.003595813559582206
1.03798e-05	0.0032531963828237274
1.03800e-05	0.002979063624605355
1.03803e-05	0.0028880513271258962
1.03805e-05	0.00318473973885085
1.03808e-05	0.0034672111357197683
1.03810e-05	0.003632491900599457
1.03812e-05	0.003669157446101608
1.03815e-05	0.0034578175518308225
1.03818e-05	0.0032460567274006907
1.03820e-05	0.0030771502029746864
1.03823e-05	0.0030228719338332008
1.03825e-05	0.003211327900041143
1.03827e-05	0.0033907211417949644
1.03830e-05	0.0034965271235828203
1.03833e-05	0.0035215712891185106
1.03835e-05	0.003391053531810314
1.03838e-05	0.0032600427639562883
1.03840e-05	0.003155620329592402
1.03843e-05	0.003122716700445471
1.03845e-05	0.0032415429681526544
1.03848e-05	0.003354342712074979
1.03850e-05	0.003420666570388939
1.03853e-05	0.0034359151812628132
1.03855e-05	0.003352971941396713
1.03858e-05	0.0032686893163629198
1.03860e-05	0.003199945028945704
1.03863e-05	0.0031749317457837813
1.03865e-05	0.003243949643802386
1.03868e-05	0.0033082387678378747
1.03870e-05	0.003342525534429347
1.03873e-05	0.003343994680557848
1.03875e-05	0.003283199381596432
1.03878e-05	0.003220873735139449
1.03880e-05	0.00316765214795657
1.03883e-05	0.003141255833840122
1.03885e-05	0.0031732517375107814
1.03888e-05	0.0032018374468253236
1.03890e-05	0.0032112456139980383
1.03893e-05	0.0031997777102058277
1.03895e-05	0.003149054182702571
1.03897e-05	0.003097184020319103
1.03900e-05	0.0030508913892760814
1.03903e-05	0.003021339341920631
1.03905e-05	0.0030283622222653365
1.03908e-05	0.0030333087577612897
1.03910e-05	0.00302636650907276
1.03912e-05	0.003006535798222531
1.03915e-05	0.0029623688906885545
1.03918e-05	0.002917801845962617
1.03920e-05	0.002877110169649007
1.03923e-05	0.0028473491619961204
1.03925e-05	0.002841004710998454
1.03928e-05	0.0028339284058866835
1.03930e-05	0.0028200376266973655
1.03933e-05	0.0027987706214378993
1.03935e-05	0.002763020876568623
1.03938e-05	0.0027278464310242483
1.03940e-05	0.002695988475756709
1.03943e-05	0.0026719299908323567
1.03945e-05	0.0026635544962278074
1.03948e-05	0.0026557984957898046
1.03950e-05	0.002644915574652568
1.03953e-05	0.0026306155356774267
1.03955e-05	0.002608488069122147
1.03958e-05	0.00258796036628005
1.03960e-05	0.00257070033950025
1.03963e-05	0.0025594504933537884
1.03965e-05	0.002559083062243248
1.03968e-05	0.002560095834518965
1.03970e-05	0.0025600768365924716
1.03973e-05	0.0025587785265484683
1.03975e-05	0.0025533731696038625
1.03978e-05	0.002549700346497888
1.03980e-05	0.002548739300156121
1.03982e-05	0.002552141790630223
1.03985e-05	0.002562893753713274
1.03988e-05	0.0025749773074474143
1.03990e-05	0.002586815846633581
