Time(s)	Current(A)
5.55000e-06	-0.0003480661637582526
5.55025e-06	-0.0003340177836018945
5.55050e-06	-0.0003184941932912467
5.55075e-06	-0.0003028583253000724
5.55100e-06	-0.00028722245730884515
5.55125e-06	-0.0002706356004291478
5.55150e-06	-0.0002539763641489002
5.55175e-06	-0.00023731712786859618
5.55200e-06	-0.0002206578915883486
5.55225e-06	-0.00020377618987195133
5.55250e-06	-0.00018687755639624584
5.55275e-06	-0.0001699789229205976
5.55300e-06	-0.00015308028944494936
5.55325e-06	-0.00013688103686080596
5.55350e-06	-0.00012073501388885361
5.55375e-06	-0.00010516742133495547
5.55400e-06	-9.012910848391802e-05
5.55425e-06	-7.571439737728563e-05
5.55450e-06	-6.203255533033242e-05
5.55475e-06	-4.9192853189068934e-05
5.55500e-06	-3.730453423962051e-05
5.55525e-06	-2.6309124333981175e-05
5.55550e-06	-1.5723995928859136e-05
5.55575e-06	-4.956949871295971e-06
5.55600e-06	6.1814692455623885e-06
5.55625e-06	1.7604271265621795e-05
5.55650e-06	2.9203789600687397e-05
5.55675e-06	4.0872217502707066e-05
5.55700e-06	5.2501773174757485e-05
5.55725e-06	6.420188114082009e-05
5.55750e-06	7.590760909758317e-05
5.55775e-06	8.826133165867821e-05
5.55800e-06	0.00010125577491613925
5.55825e-06	0.00011498545219748856
5.55850e-06	0.00012876766205974498
5.55875e-06	0.00014313894471060484
5.55900e-06	0.00015755506146610942
5.55925e-06	0.0001725728305085059
5.55950e-06	0.00018763639107635316
5.55975e-06	0.0002026999516441494
5.56000e-06	0.00021908208975074237
5.56025e-06	0.00023556458428944813
5.56050e-06	0.00025204707882809806
5.56075e-06	0.00026852957336674795
5.56100e-06	0.00028501206790545374
5.56125e-06	0.00030194055214439477
5.56150e-06	0.0003189029804888084
5.56175e-06	0.0003358654088332795
5.56200e-06	0.00035282783717769316
5.56225e-06	0.00036979026552210674
5.56250e-06	0.0003859455342943734
5.56275e-06	0.000402039370460333
5.56300e-06	0.0004181332066262927
5.56325e-06	0.00043422704279230684
5.56350e-06	0.0004503208789582665
5.56375e-06	0.00046514458966193984
5.56400e-06	0.00047827964575798833
5.56425e-06	0.0004914147018540368
5.56450e-06	0.0005045497579501298
5.56475e-06	0.0005176848140461784
5.56500e-06	0.0005308198701422268
5.56525e-06	0.0005403493823998609
5.56550e-06	0.0005496044780953168
5.56575e-06	0.0005588595737907727
5.56600e-06	0.0005650896939853968
5.56625e-06	0.0005710895844519279
5.56650e-06	0.0005770894749184591
5.56675e-06	0.0005798840690917262
5.56700e-06	0.0005824347093904008
5.56725e-06	0.0005849853496890752
5.56750e-06	0.0005842989784386028
5.56775e-06	0.0005833662394775719
5.56800e-06	0.0005824335005165377
5.56825e-06	0.0005785067620691453
5.56850e-06	0.0005743521514663392
5.56875e-06	0.0005701975408635192
5.56900e-06	0.0005632901217792501
5.56925e-06	0.0005561731874946824
5.56950e-06	0.0005490562532100904
5.56975e-06	0.0005395946077158695
5.57000e-06	0.0005299545071485784
5.57025e-06	0.0005203144065812545
5.57050e-06	0.0005082740959750034
5.57075e-06	0.0004960511063010269
5.57100e-06	0.000483828116627009
5.57125e-06	0.0004716051269530325
5.57150e-06	0.000459382137279056
5.57175e-06	0.00044650560130978634
5.57200e-06	0.0004327601638065824
5.57225e-06	0.0004190147263033319
5.57250e-06	0.000405269288800128
5.57275e-06	0.0003915238512969241
5.57300e-06	0.0003777784137936736
5.57325e-06	0.00036507409771033994
5.57350e-06	0.0003524490209799148
5.57375e-06	0.00033982394424944686
5.57400e-06	0.0003271988675190217
5.57425e-06	0.00031457379078859656
5.57450e-06	0.0003019487140581286
5.57475e-06	0.0002924912593589669
5.57500e-06	0.0002832748911605721
5.57525e-06	0.0002740585229621461
5.57550e-06	0.00026484215476375134
5.57575e-06	0.00025562578656535657
5.57600e-06	0.00024640941836693057
5.57625e-06	0.0002386461822497472
5.57650e-06	0.00023099354345921318
5.57675e-06	0.00022334090466870506
5.57700e-06	0.0002168891125977187
5.57725e-06	0.00021052871651103746
5.57750e-06	0.00020416832042437777
5.57775e-06	0.00019780792433771806
5.57800e-06	0.00019144752825103682
5.57825e-06	0.0001854503215903345
5.57850e-06	0.0001799359817924567
5.57875e-06	0.00017442164199456023
5.57900e-06	0.00016890730219668243
5.57925e-06	0.00016339296239880463
5.57950e-06	0.00015787862260090813
5.57975e-06	0.00015302911657664832
5.58000e-06	0.00014823021079649385
5.58025e-06	0.00014343130501632311
5.58050e-06	0.00013863239923616864
5.58075e-06	0.0001338334934559979
5.58100e-06	0.00012903458767584344
5.58125e-06	0.00012423568189568897
5.58150e-06	0.00011943677611551823
5.58175e-06	0.00011502472308331632
5.58200e-06	0.00011112699772536757
5.58225e-06	0.00010722927236740559
5.58250e-06	0.00010333154700945685
5.58275e-06	9.943382165150808e-05
5.58300e-06	9.553609629354612e-05
5.58325e-06	9.163837093559736e-05
5.58350e-06	8.77406455776486e-05
5.58375e-06	8.384292021968665e-05
5.58400e-06	8.056882015584973e-05
5.58425e-06	7.734218397449707e-05
5.58450e-06	7.441692498696016e-05
5.58475e-06	7.15146037023233e-05
5.58500e-06	6.901134426736103e-05
5.58525e-06	6.65384572770709e-05
5.58550e-06	6.449948015281994e-05
5.58575e-06	6.288805272384647e-05
5.58600e-06	6.172526812447539e-05
5.58625e-06	6.100759813548177e-05
5.58650e-06	6.072902951374781e-05
5.58675e-06	6.0883540632444865e-05
5.58700e-06	6.146509035258413e-05
5.58725e-06	6.24790559175684e-05
5.58750e-06	6.395709290376027e-05
5.58775e-06	6.593111057312287e-05
5.58800e-06	6.839898212031605e-05
5.58825e-06	7.133752122141188e-05
5.58850e-06	7.472199991260963e-05
5.58875e-06	7.852767993803406e-05
5.58900e-06	8.290528016719375e-05
5.58925e-06	8.732415112524267e-05
5.58950e-06	9.244452265931632e-05
5.58975e-06	9.761828513375822e-05
5.59000e-06	0.00010344188806222552
5.59025e-06	0.00010931495009892421
5.59050e-06	0.0001158101321668416
5.59075e-06	0.0001223526635522607
5.59100e-06	0.00012889519493765761
5.59125e-06	0.00013603981764731982
5.59150e-06	0.00014323026529726267
5.59175e-06	0.00015042071294718118
5.59200e-06	0.00015761116059709966
5.59225e-06	0.00016480160824704253
5.59250e-06	0.00017202987079526833
5.59275e-06	0.00017926101142093145
5.59300e-06	0.00018649215204661905
5.59325e-06	0.00019372329267228214
5.59350e-06	0.00020095443329796976
5.59375e-06	0.00020756731304764838
5.59400e-06	0.0002141331371986875
5.59425e-06	0.00022069896134974885
5.59450e-06	0.000226352007274924
5.59475e-06	0.00023193558199868677
5.59500e-06	0.00023751915672246845
5.59525e-06	0.00024185900750041875
5.59550e-06	0.00024610419892488294
5.59575e-06	0.0002503493903493615
5.59600e-06	0.00025328705318804895
5.59625e-06	0.0002561252005265287
5.59650e-06	0.0002589633478650181
5.59675e-06	0.0002604072950799453
5.59700e-06	0.00026174513025710363
5.59725e-06	0.0002630829654342665
5.59750e-06	0.0002630231476899717
5.59775e-06	0.0002628569551167864
5.59800e-06	0.0002626907625436016
5.59825e-06	0.0002612465208862395
5.59850e-06	0.0002597050074022629
5.59875e-06	0.0002581634939182915
5.59900e-06	0.00025543527272945017
5.59925e-06	0.00025261673167141193
5.59950e-06	0.0002497981906133832
5.59975e-06	0.00024597853649871383
5.60000e-06	0.00024208268805248545
5.60025e-06	0.00023818683960627026
5.60050e-06	0.00023321918815171958
5.60075e-06	0.00022816996218044455
5.60100e-06	0.0002231207362091866
5.60125e-06	0.00021807151023792867
5.60150e-06	0.0002130222842666536
5.60175e-06	0.0002079730582953957
5.60200e-06	0.00020234138002743235
5.60225e-06	0.000196665371538139
5.60250e-06	0.00019098936304884562
5.60275e-06	0.00018531335455953304
5.60300e-06	0.0001796373460702397
5.60325e-06	0.00017396133758094633
5.60350e-06	0.00016938478648689323
5.60375e-06	0.00016489191467434846
5.60400e-06	0.0001603990428618037
5.60425e-06	0.0001559061710492437
5.60450e-06	0.00015141329923669896
5.60475e-06	0.00014692042742415419
5.60500e-06	0.0001424275556115942
5.60525e-06	0.00013793468379904943
5.60550e-06	0.00013344181198650468
5.60575e-06	0.0001289489401739447
5.60600e-06	0.00012688676415574028
5.60625e-06	0.0001250095874639559
5.60650e-06	0.0001231324107721779
5.60675e-06	0.0001212552340803999
5.60700e-06	0.00011937805738861553
5.60725e-06	0.00011750088069683753
5.60750e-06	0.00011562370400505952
5.60775e-06	0.00011374652731327516
5.60800e-06	0.00011186935062149715
5.60825e-06	0.00010999217392971915
5.60850e-06	0.00010947114356210339
5.60875e-06	0.00010905332897206652
5.60900e-06	0.00010863551438202965
5.60925e-06	0.00010877131491567579
5.60950e-06	0.00010894925088444984
5.60975e-06	0.00010912718685322391
5.61000e-06	0.00010989909039733193
5.61025e-06	0.00011071620058621065
5.61050e-06	0.00011153331077509212
5.61075e-06	0.00011235042096397084
5.61100e-06	0.00011316753115284955
5.61125e-06	0.00011398464134173104
5.61150e-06	0.00011502670467017596
5.61175e-06	0.00011636784723647712
5.61200e-06	0.00011770898980278282
5.61225e-06	0.00011905013236908396
5.61250e-06	0.00012039127493538512
5.61275e-06	0.00012173241750169082
5.61300e-06	0.00012307356006799198
5.61325e-06	0.00012436639965433233
5.61350e-06	0.00012565556291936473
5.61375e-06	0.00012694472618439277
5.61400e-06	0.0001282338894494208
5.61425e-06	0.00012952305271445323
5.61450e-06	0.00013081221597948127
5.61475e-06	0.00013210137924451367
5.61500e-06	0.0001333905425095417
5.61525e-06	0.00013397325081660095
5.61550e-06	0.00013450219110728104
5.61575e-06	0.00013503113139795933
5.61600e-06	0.00013556007168863762
5.61625e-06	0.0001360890119793177
5.61650e-06	0.000136617952269996
5.61675e-06	0.0001371468925606743
5.61700e-06	0.0001376758328513544
5.61725e-06	0.00013717321521264513
5.61750e-06	0.00013659208609487978
5.61775e-06	0.00013601095697711243
5.61800e-06	0.00013542982785934708
5.61825e-06	0.00013484869874158173
5.61850e-06	0.0001342675696238144
5.61875e-06	0.00013368644050604903
5.61900e-06	0.0001331053113882817
5.61925e-06	0.00013252418227051635
5.61950e-06	0.00013108596894748572
5.61975e-06	0.00012958252327374667
5.62000e-06	0.00012807907760001272
5.62025e-06	0.00012657563192627877
5.62050e-06	0.00012507218625253973
5.62075e-06	0.00012356874057880578
5.62100e-06	0.00012206529490507183
5.62125e-06	0.00012056184923133278
5.62150e-06	0.00011905840355759883
5.62175e-06	0.00011724546481189825
5.62200e-06	0.00011540897066698604
5.62225e-06	0.00011357247652208006
5.62250e-06	0.00011173598237717407
5.62275e-06	0.00010989948823226188
5.62300e-06	0.0001080629940873559
5.62325e-06	0.00010636831369936475
5.62350e-06	0.00010468442670211825
5.62375e-06	0.00010300053970487176
5.62400e-06	0.00010131665270761956
5.62425e-06	9.963276571037306e-05
5.62450e-06	9.794887871312657e-05
5.62475e-06	9.65045509808553e-05
5.62500e-06	9.518794411359436e-05
5.62525e-06	9.387967034378225e-05
5.62550e-06	9.257139657396569e-05
5.62575e-06	9.126312280415358e-05
5.62600e-06	8.980486041314718e-05
5.62625e-06	8.814718545742066e-05
5.62650e-06	8.648951050169976e-05
5.62675e-06	8.483183554597884e-05
5.62700e-06	8.317416059025232e-05
5.62725e-06	8.120720629645451e-05
5.62750e-06	7.921671287065879e-05
5.62775e-06	7.722621944486981e-05
5.62800e-06	7.480852566948475e-05
5.62825e-06	7.235831783906972e-05
5.62850e-06	6.9908110008663e-05
5.62875e-06	6.714105162668868e-05
5.62900e-06	6.434987787055663e-05
5.62925e-06	6.155870411443404e-05
5.62950e-06	5.8469368188043895e-05
5.62975e-06	5.53573392530405e-05
5.63000e-06	5.224531031804765e-05
5.63025e-06	4.8847646874081734e-05
5.63050e-06	4.542824389700652e-05
5.63075e-06	4.2008840919942886e-05
5.63100e-06	3.8451183394677254e-05
5.63125e-06	3.4883003368679296e-05
5.63150e-06	3.1314823342693433e-05
5.63175e-06	2.7716063692859303e-05
5.63200e-06	2.4076647884137027e-05
5.63225e-06	2.043723207541475e-05
5.63250e-06	1.6797816266680145e-05
5.63275e-06	1.3233983516733228e-05
5.63300e-06	9.675903364444916e-06
5.63325e-06	6.2235466948502305e-06
5.63350e-06	2.861589885681663e-06
5.63375e-06	-4.0706140946738386e-07
5.63400e-06	-3.5669292081126344e-06
5.63425e-06	-6.595555410892779e-06
5.63450e-06	-9.469963076356882e-06
5.63475e-06	-1.2167176764001769e-05
5.63500e-06	-1.4664222963738124e-05
5.63525e-06	-1.6754971254716633e-05
5.63550e-06	-1.778683164113299e-05
5.63575e-06	-1.703324958678961e-05
5.63600e-06	-1.4249623841953781e-05
5.63625e-06	-9.507294669607507e-06
5.63650e-06	-2.9010931147817033e-06
5.63675e-06	5.47398283766727e-06
5.63700e-06	1.5522931753331193e-05
5.63725e-06	2.726548619468464e-05
5.63750e-06	4.1001016016780725e-05
5.63775e-06	5.7075188944762754e-05
5.63800e-06	7.553175445323332e-05
5.63825e-06	9.621655512536209e-05
5.63850e-06	0.00011896073831970755
5.63875e-06	0.00014359534200591824
5.63900e-06	0.0001699514377031352
5.63925e-06	0.0001979319253623631
5.63950e-06	0.000227614922116536
5.63975e-06	0.0002591075026781275
5.64000e-06	0.00029232758972858866
5.64025e-06	0.00032766908534756446
5.64050e-06	0.0003631627781963959
5.64075e-06	0.0004010042113421402
5.64100e-06	0.0004390243301028349
5.64125e-06	0.0004770444488634008
5.64150e-06	0.0005170668117679689
5.64175e-06	0.0005572415647076126
5.64200e-06	0.0005974163176471202
5.64225e-06	0.0006375910705866278
5.64250e-06	0.0006774318334265895
5.64275e-06	0.0007168285504327083
5.64300e-06	0.0007562252674388272
5.64325e-06	0.0007956219844450794
5.64350e-06	0.0008350187014511983
5.64375e-06	0.0008709640209125588
5.64400e-06	0.0009066466558288362
5.64425e-06	0.0009423292907449927
5.64450e-06	0.000973058143330205
5.64475e-06	0.001003409965439477
5.64500e-06	0.001033761787548749
5.64525e-06	0.0010586665730604712
5.64550e-06	0.0010831567867029888
5.64575e-06	0.0011076470003455066
5.64600e-06	0.0011272913078602428
5.64625e-06	0.0011465667953156216
5.64650e-06	0.0011658422827710005
5.64675e-06	0.0011851177702264448
5.64700e-06	0.0012043932576818236
5.64725e-06	0.0012236687451372026
5.64750e-06	0.0012429442325926467
5.64775e-06	0.0012622197200480257
5.64800e-06	0.0012790385387534272
5.64825e-06	0.0012925911722511153
5.64850e-06	0.0013061438057487575
5.64875e-06	0.0013196964392464456
5.64900e-06	0.0013332490727440878
5.64925e-06	0.00134680170624173
5.64950e-06	0.001360354339739418
5.64975e-06	0.0013739069732370602
5.65000e-06	0.0013874596067347024
5.65025e-06	0.0013956389715930975
5.65050e-06	0.001403409379033549
5.65075e-06	0.0014111797864740001
5.65100e-06	0.0014189501939144778
5.65125e-06	0.001426720601354929
5.65150e-06	0.0014344910087953802
5.65175e-06	0.0014422614162358579
5.65200e-06	0.001450031823676309
5.65225e-06	0.0014578022311167605
5.65250e-06	0.0014655726385572382
5.65275e-06	0.0014733430459976894
5.65300e-06	0.001481113453438167
5.65325e-06	0.0014888838608786183
5.65350e-06	0.0014966542683190695
5.65375e-06	0.0015044246757595471
5.65400e-06	0.0015121950831999984
5.65425e-06	0.0015199654906404498
5.65450e-06	0.0015277358980809275
5.65475e-06	0.0015355063055213787
5.65500e-06	0.0015432767129618299
5.65525e-06	0.0015510471204023075
5.65550e-06	0.0015588175278427588
5.65575e-06	0.0015665879352832102
5.65600e-06	0.0015743583427236876
5.65625e-06	0.0015739684229413996
5.65650e-06	0.0015729574237802705
5.65675e-06	0.0015719464246191377
5.65700e-06	0.0015709354254580085
5.65725e-06	0.001569924426296876
5.65750e-06	0.0015689134271357468
5.65775e-06	0.0015679024279746175
5.65800e-06	0.0015668914288134849
5.65825e-06	0.0015658804296523558
5.65850e-06	0.0015648694304912264
5.65875e-06	0.0015638584313300938
5.65900e-06	0.0015628474321689647
5.65925e-06	0.0015618364330078356
5.65950e-06	0.001560825433846703
5.65975e-06	0.0015598144346855736
5.66000e-06	0.0015588034355244445
5.66025e-06	0.001557792436363312
5.66050e-06	0.0015567814372021826
5.66075e-06	0.0015557704380410535
5.66100e-06	0.0015547594388799209
5.66125e-06	0.0015537484397187917
5.66150e-06	0.0015527374405576591
5.66175e-06	0.0015517264413965298
5.66200e-06	0.0015507154422354007
5.66225e-06	0.001546986659463647
5.66250e-06	0.0015430510272225252
5.66275e-06	0.001539115394981403
5.66300e-06	0.0015351797627402677
5.66325e-06	0.0015312441304991455
5.66350e-06	0.0015273084982580234
5.66375e-06	0.001523372866016888
5.66400e-06	0.0015194372337757659
5.66425e-06	0.0015154053339796556
5.66450e-06	0.0015112454447409186
5.66475e-06	0.0015070855555021955
5.66500e-06	0.0015029256662634726
5.66525e-06	0.0014987657770247356
5.66550e-06	0.0014946058877860124
5.66575e-06	0.0014904459985472754
5.66600e-06	0.0014862861093085523
5.66625e-06	0.0014821262200698294
5.66650e-06	0.0014709791671287848
5.66675e-06	0.0014593003238354458
5.66700e-06	0.0014476214805421068
5.66725e-06	0.0014359426372487281
5.66750e-06	0.0014242637939553891
5.66775e-06	0.00141258495066205
5.66800e-06	0.0014009061073686716
5.66825e-06	0.0013892272640753326
5.66850e-06	0.0013775484207819936
5.66875e-06	0.0013658695774886151
5.66900e-06	0.0013454557144552425
5.66925e-06	0.0013243770324163095
5.66950e-06	0.0013032983503773051
5.66975e-06	0.001282219668338372
5.67000e-06	0.0012611409862993675
5.67025e-06	0.0012400623042604344
5.67050e-06	0.0012189836222215014
5.67075e-06	0.001197904940182497
5.67100e-06	0.001176826258143564
5.67125e-06	0.001155747576104631
5.67150e-06	0.0011314643245294328
5.67175e-06	0.0011069371743947988
5.67200e-06	0.0010824100242601649
5.67225e-06	0.0010578828741254476
5.67250e-06	0.0010333557239908136
5.67275e-06	0.0010088285738561796
5.67300e-06	0.0009853603150434369
5.67325e-06	0.0009632998712529565
5.67350e-06	0.0009412394274624761
5.67375e-06	0.0009191789836719208
5.67400e-06	0.0008971185398814404
5.67425e-06	0.0008750580960908851
5.67450e-06	0.0008529976523004046
5.67475e-06	0.0008355195782470955
5.67500e-06	0.0008183902665985295
5.67525e-06	0.0008012609549500215
5.67550e-06	0.0007867255870206773
5.67575e-06	0.0007723876431537798
5.67600e-06	0.0007580496992869309
5.67625e-06	0.0007437117554200819
5.67650e-06	0.0007293738115531844
5.67675e-06	0.0007150358676863355
5.67700e-06	0.0007006979238194865
5.67725e-06	0.0006874357692622419
5.67750e-06	0.0006742554926171605
5.67775e-06	0.0006610752159720791
5.67800e-06	0.0006478949393269531
5.67825e-06	0.0006347146626818717
5.67850e-06	0.0006215343860367457
5.67875e-06	0.0006083541093916643
5.67900e-06	0.0005952090117851872
5.67925e-06	0.0005820665916418127
5.67950e-06	0.0005689241714984828
5.67975e-06	0.0005557817513551529
5.68000e-06	0.0005426393312117784
5.68025e-06	0.0005294969110684485
5.68050e-06	0.0005163544909251186
5.68075e-06	0.0005032120707817441
5.68100e-06	0.0004902635820806826
5.68125e-06	0.00047757292871360754
5.68150e-06	0.00046488227534648944
5.68175e-06	0.0004521916219794144
5.68200e-06	0.0004395009686123393
5.68225e-06	0.0004268103152452212
5.68250e-06	0.00041411966187814616
5.68275e-06	0.00040142900851102806
5.68300e-06	0.000388738355143953
5.68325e-06	0.00037897881696455783
5.68350e-06	0.0003694423648387676
5.68375e-06	0.00035990591271300965
5.68400e-06	0.0003503694605872517
5.68425e-06	0.0003408330084614615
5.68450e-06	0.00033129655633570355
5.68475e-06	0.0003217601042099456
5.68500e-06	0.00031222365208415537
5.68525e-06	0.00030268719995839744
5.68550e-06	0.0002931507478326395
5.68575e-06	0.00028818879495133234
5.68600e-06	0.000283575005454389
5.68625e-06	0.00027896121595744565
5.68650e-06	0.00027434742646048664
5.68675e-06	0.0002697336369635433
5.68700e-06	0.0002651198474665843
5.68725e-06	0.00026050605796964094
5.68750e-06	0.0002558922684726976
5.68775e-06	0.0002512784789757386
5.68800e-06	0.00024666468947879525
5.68825e-06	0.000244471142724579
5.68850e-06	0.00024246179971792412
5.68875e-06	0.000240452456711276
5.68900e-06	0.00023946210378060514
5.68925e-06	0.00023854930579407228
5.68950e-06	0.00023763650780754252
5.68975e-06	0.0002379159591318343
5.69000e-06	0.00023828615209422384
5.69025e-06	0.00023865634505661215
5.69050e-06	0.00023902653801900043
5.69075e-06	0.00023939673098138996
5.69100e-06	0.00023976692394377824
5.69125e-06	0.00024013711690616652
5.69150e-06	0.0002409742635596591
5.69175e-06	0.00024243223352817637
5.69200e-06	0.0002438902034966986
5.69225e-06	0.0002453481734652159
5.69250e-06	0.0002468061434337332
5.69275e-06	0.0002482641134022554
5.69300e-06	0.0002497220833707727
5.69325e-06	0.00025118005333929
5.69350e-06	0.0002527712296362933
5.69375e-06	0.00025437254421589565
5.69400e-06	0.000255973858795498
5.69425e-06	0.0002575751733751058
5.69450e-06	0.0002589235727625277
5.69475e-06	0.0002602527228716139
5.69500e-06	0.0002615818729807046
