Time(s)	Current(A)
1.22500e-05	-0.0006273575905871942
1.22503e-05	-0.0006238258213587359
1.22505e-05	-0.0006202940521302536
1.22508e-05	-0.0006167622829017713
1.22510e-05	-0.0006132305136733131
1.22513e-05	-0.0006083094185581156
1.22515e-05	-0.0006030918390542616
1.22518e-05	-0.0005978742595504427
1.22520e-05	-0.0005926566800465886
1.22523e-05	-0.0005874391005427345
1.22525e-05	-0.0005822215210389157
1.22528e-05	-0.0005775620320455863
1.22530e-05	-0.0005730216404687995
1.22532e-05	-0.0005684812488920435
1.22535e-05	-0.0005636991332235847
1.22538e-05	-0.000558865433243455
1.22540e-05	-0.0005540317332633251
1.22543e-05	-0.0005459688571807962
1.22545e-05	-0.000537216869701169
1.22548e-05	-0.0005257523819708026
1.22550e-05	-0.0005137090423049051
1.22553e-05	-0.0004993574270475541
1.22555e-05	-0.0004845132220499103
1.22558e-05	-0.00046685547862582974
1.22560e-05	-0.00044859732155603485
1.22563e-05	-0.0004275349323652759
1.22565e-05	-0.00040330702628360126
1.22568e-05	-0.00037853129921366457
1.22570e-05	-0.0003515087589442265
1.22573e-05	-0.00032272240298331
1.22575e-05	-0.00029249090689630053
1.22578e-05	-0.0002607618362673596
1.22580e-05	-0.00022734321005358184
1.22583e-05	-0.0001922165563573554
1.22585e-05	-0.00015556649311192206
1.22588e-05	-0.00011762282340022461
1.22590e-05	-7.861764771039187e-05
1.22593e-05	-3.878302111991909e-05
1.22595e-05	1.6783605723280106e-06
1.22598e-05	4.268898993215156e-05
1.22600e-05	8.4439490823361e-05
1.22603e-05	0.00012632761172740915
1.22605e-05	0.00016843017241836508
1.22608e-05	0.00021057849490623595
1.22610e-05	0.0002527268173938212
1.22613e-05	0.0002938730610428568
1.22615e-05	0.0003348054594487142
1.22617e-05	0.00037418780631402
1.22620e-05	0.00041323936967661097
1.22623e-05	0.00045022149130815225
1.22625e-05	0.00048676199073085147
1.22628e-05	0.0005203819172202286
1.22630e-05	0.0005533785887273636
1.22633e-05	0.0005826172157411956
1.22635e-05	0.0006110538699883465
1.22638e-05	0.0006362661531934127
1.22640e-05	0.0006607903504086271
1.22643e-05	0.00068350099331793
1.22645e-05	0.0007058246208084803
1.22648e-05	0.0007253948770570988
1.22650e-05	0.0007443775594340701
1.22653e-05	0.0007633602418111701
1.22655e-05	0.0007786547809232542
1.22658e-05	0.000793162264303692
1.22660e-05	0.0008076697476842283
1.22663e-05	0.0008199899294509887
1.22665e-05	0.0008318433375193269
1.22668e-05	0.0008436967455877454
1.22670e-05	0.0008512439299213084
1.22673e-05	0.0008578721591523197
1.22675e-05	0.000864500388383376
1.22678e-05	0.0008711286176144321
1.22680e-05	0.0008777568468454435
1.22683e-05	0.0008843850760764997
1.22685e-05	0.000891013305307556
1.22688e-05	0.0008976415345385673
1.22690e-05	0.0009042697637696236
1.22693e-05	0.0009069236248737265
1.22695e-05	0.000908729349398091
1.22698e-05	0.0009105350739224679
1.22700e-05	0.0009123407984468448
1.22702e-05	0.0009141465229712093
1.22705e-05	0.0009159522474955861
1.22708e-05	0.000917757972019963
1.22710e-05	0.0009195636965443398
1.22713e-05	0.0009213694210687043
1.22715e-05	0.0009217461470122453
1.22718e-05	0.0009218179223497572
1.22720e-05	0.0009218896976872687
1.22723e-05	0.0009219614730247807
1.22725e-05	0.0009220332483622926
1.22728e-05	0.0009218336536976594
1.22730e-05	0.0009210682017902242
1.22733e-05	0.0009203027498827891
1.22735e-05	0.000919537297975359
1.22738e-05	0.0009187718460679239
1.22740e-05	0.0009180063941604887
1.22743e-05	0.0009128250697325785
1.22745e-05	0.000906701390973838
1.22748e-05	0.0009005777122150975
1.22750e-05	0.0008904908105099913
1.22753e-05	0.0008795581506244557
1.22755e-05	0.00086862549073892
1.22758e-05	0.0008541732324579778
1.22760e-05	0.0008389698861924979
1.22763e-05	0.0008193497944861947
1.22765e-05	0.0007987871621665063
1.22768e-05	0.0007782245298466784
1.22770e-05	0.0007539235369896094
1.22773e-05	0.0007288247719536884
1.22775e-05	0.0007005590247600735
1.22778e-05	0.0006716174384568593
1.22780e-05	0.0006426758521538412
1.22783e-05	0.0006098943274678444
1.22785e-05	0.0005762933537263826
1.22787e-05	0.0005426923799851485
1.22790e-05	0.0005071654007458626
1.22793e-05	0.0004700443327328906
1.22795e-05	0.0004326707943710283
1.22798e-05	0.0003952972560094192
1.22800e-05	0.00035666568742281397
1.22803e-05	0.000317765653153496
1.22805e-05	0.00027886561888444157
1.22808e-05	0.00024002799042967176
1.22810e-05	0.00020120367947656378
1.22813e-05	0.0001623793685237189
1.22815e-05	0.00012448482865360115
1.22818e-05	8.749433966367358e-05
1.22820e-05	5.144863662163793e-05
1.22823e-05	1.6518368759750525e-05
1.22825e-05	-1.706049180251236e-05
1.22828e-05	-4.903749556193986e-05
1.22830e-05	-7.916149916782957e-05
1.22833e-05	-0.00010718140528290874
1.22835e-05	-0.00013292977060509634
1.22838e-05	-0.00015661409558430606
1.22840e-05	-0.00017875130565401438
1.22843e-05	-0.00019961915684764246
1.22845e-05	-0.00021916662055728998
1.22848e-05	-0.0002372672066576158
1.22850e-05	-0.0002537904863323179
1.22853e-05	-0.00026860605475076003
1.22855e-05	-0.00028163596810325015
1.22858e-05	-0.00029253811324656974
1.22860e-05	-0.00030305364733272265
1.22863e-05	-0.0003122059275794282
1.22865e-05	-0.00031969784520091785
1.22868e-05	-0.0003268975216754742
1.22870e-05	-0.0003321206275925885
1.22872e-05	-0.000336921930158749
1.22875e-05	-0.0003397017256636933
1.22878e-05	-0.0003420501282951703
1.22880e-05	-0.00034294439669595373
1.22883e-05	-0.0003435283505021509
1.22885e-05	-0.00034262396300860213
1.22888e-05	-0.00034140196107665887
1.22890e-05	-0.00034017995914472385
1.22893e-05	-0.00033718353896048335
1.22895e-05	-0.0003338084550538997
1.22898e-05	-0.0003304333711473389
1.22900e-05	-0.0003259576966804511
1.22903e-05	-0.0003212471544095374
1.22905e-05	-0.0003165366121386556
1.22908e-05	-0.00031111887592555283
1.22910e-05	-0.000305550223382417
1.22913e-05	-0.0002999815708393189
1.22915e-05	-0.0002944129182961831
1.22918e-05	-0.0002888442657530473
1.22920e-05	-0.0002832756132099492
1.22923e-05	-0.00027770696066681337
1.22925e-05	-0.00027213830812367756
1.22928e-05	-0.0002665696555805795
1.22930e-05	-0.0002616003109939091
1.22933e-05	-0.00025704358947046136
1.22935e-05	-0.0002526879198994703
1.22938e-05	-0.00024763807155434806
1.22940e-05	-0.00024047261944995125
1.22943e-05	-0.00023043403651466118
1.22945e-05	-0.0002175385782797073
1.22948e-05	-0.000201974643053198
1.22950e-05	-0.00018393931510095644
1.22953e-05	-0.00016362968300334712
1.22955e-05	-0.00014113139009406855
1.22957e-05	-0.00011605536048795787
1.22960e-05	-8.768288662754848e-05
1.22963e-05	-5.571127473440285e-05
1.22965e-05	-2.0322499453697933e-05
1.22968e-05	1.819366167090022e-05
1.22970e-05	5.9541981640918947e-05
1.22973e-05	0.00010342724864983516
1.22975e-05	0.0001496241083467928
1.22978e-05	0.00019820455011281614
1.22980e-05	0.00024944700286733443
1.22983e-05	0.0003033693062482987
1.22985e-05	0.0003596856929328436
1.22988e-05	0.0004187110661236062
1.22990e-05	0.00047822691511187007
1.22993e-05	0.0005402211436061619
1.22995e-05	0.0006027442622920929
1.22998e-05	0.0006652673809776001
1.23000e-05	0.0007298074974837442
1.23003e-05	0.0007947780445842732
1.23005e-05	0.000859748591684362
1.23008e-05	0.0009247191387848911
1.23010e-05	0.000988178682452567
1.23013e-05	0.0010513157755453854
1.23015e-05	0.0011144528686386317
1.23018e-05	0.0011775899617318779
1.23020e-05	0.0012361042354794266
1.23023e-05	0.0012936319921083173
1.23025e-05	0.0013511597487372083
1.23028e-05	0.0014018972602456217
1.23030e-05	0.0014511857224722114
1.23033e-05	0.0015004741846988009
1.23035e-05	0.001542006560793038
1.23038e-05	0.0015818837755724945
1.23040e-05	0.001621760990351951
1.23042e-05	0.0016566068492060064
1.23045e-05	0.0016903790085747296
1.23048e-05	0.0017241511679434525
1.23050e-05	0.0017579233273119466
1.23053e-05	0.0017916954866806696
1.23055e-05	0.0018254676460493927
1.23058e-05	0.0018592398054181156
1.23060e-05	0.0018930119647866098
1.23063e-05	0.0019219281372001352
1.23065e-05	0.0019490242104974005
1.23068e-05	0.0019761202837944823
1.23070e-05	0.0020032163570917476
1.23073e-05	0.0020303124303890133
1.23075e-05	0.002057408503686095
1.23078e-05	0.0020845045769833604
1.23080e-05	0.0021116006502806257
1.23083e-05	0.0021215492677653714
1.23085e-05	0.002151061650247081
1.23088e-05	-0.011412155275824124
1.23090e-05	-0.03490721563599428
1.23093e-05	-0.02050165939837593
1.23095e-05	-0.00931215897916799
1.23098e-05	0.005744737894756522
1.23100e-05	0.016481073578741328
1.23103e-05	0.017023350294112043
1.23105e-05	0.010127447850368152
1.23108e-05	-0.0011961074007091916
1.23110e-05	-0.009756613076044106
1.23113e-05	-0.009367378141278878
1.23115e-05	-0.002845224258405
1.23118e-05	0.006124082884703561
1.23120e-05	0.012527326625019802
1.23123e-05	0.012678957839841555
1.23125e-05	0.00823897477302556
1.23127e-05	0.0010663007891971747
1.23130e-05	-0.004351023644391584
1.23133e-05	-0.004147720168664934
1.23135e-05	-9.447797006563192e-05
1.23138e-05	0.005496307960341606
1.23140e-05	0.00948245053182628
1.23143e-05	0.009554444425454538
1.23145e-05	0.006751707823244862
1.23148e-05	0.0022384440170471736
1.23150e-05	-0.0011742739567411073
1.23153e-05	-0.0010656050959540549
1.23155e-05	0.0014549324622309353
1.23158e-05	0.004938651888018815
1.23160e-05	0.007417263814712976
1.23163e-05	0.007444239989032535
1.23165e-05	0.005670858394333509
1.23168e-05	0.0028265038211020333
1.23170e-05	0.0006720477062774712
1.23173e-05	0.0007237736551806041
1.23175e-05	0.0022865163384302245
1.23178e-05	0.00445273017167719
1.23180e-05	0.0059894902766597655
1.23183e-05	0.0059907993172450165
1.23185e-05	0.00486474770312135
1.23188e-05	0.003068312046742145
1.23190e-05	0.0017045201176273982
1.23193e-05	0.001723096933958653
1.23195e-05	0.0026884957094107926
1.23198e-05	0.004032181085979993
1.23200e-05	0.004981862086444464
1.23203e-05	0.004970096475676917
1.23205e-05	0.004252599477549152
1.23208e-05	0.00311568407017824
1.23210e-05	0.0022503043367002092
1.23212e-05	0.002251326880745792
1.23215e-05	0.002845871925359974
1.23218e-05	0.003677784933808126
1.23220e-05	0.004263317542870191
1.23223e-05	0.004247077434974996
1.23225e-05	0.0037893052152651887
1.23228e-05	0.003069393019028841
1.23230e-05	0.0025201725728202806
1.23233e-05	0.0025142494161288663
1.23235e-05	0.0028805291325323624
1.23238e-05	0.0033951713035655132
1.23240e-05	0.0037540082187856954
1.23243e-05	0.0037338228479853854
1.23245e-05	0.003435004931458229
1.23248e-05	0.002970061650164629
1.23250e-05	0.002610243627659485
1.23253e-05	0.002589052877007712
1.23255e-05	0.002799413269862134
1.23258e-05	0.0031012200739887696
1.23260e-05	0.0033040668999359435
1.23263e-05	0.003268269902052863
1.23265e-05	0.0030568555657975007
1.23268e-05	0.0027404350330653
1.23270e-05	0.0024890450028515984
1.23273e-05	0.0024490628008375166
1.23275e-05	0.0025535235849273178
1.23278e-05	0.002714781682575414
1.23280e-05	0.002813691210406724
1.23283e-05	0.002762888746007564
1.23285e-05	0.0026019908727084374
1.23288e-05	0.0023753612209929833
1.23290e-05	0.0021896365153066437
1.23293e-05	0.0021366242407280557
1.23295e-05	0.002174493281638805
1.23297e-05	0.002248461730911589
1.23300e-05	0.0022840221395958892
1.23303e-05	0.0022265818973166932
1.23305e-05	0.0021010897253447114
1.23308e-05	0.001935465143908063
1.23310e-05	0.0017966320972350824
1.23313e-05	0.0017422192939162153
1.23315e-05	0.0017461431616314664
1.23318e-05	0.0017742104997407568
1.23320e-05	0.0017798760608245077
1.23323e-05	0.0017290727291120755
1.23325e-05	0.0016375590132383048
1.23328e-05	0.0015229530124741598
1.23330e-05	0.0014273021801362452
1.23333e-05	0.001386828129141262
1.23335e-05	0.001385144414949511
1.23338e-05	0.0014000147497080164
1.23340e-05	0.0014008681002805024
1.23343e-05	0.0013655303693054595
1.23345e-05	0.0013037636612151387
1.23348e-05	0.0012266521194429691
1.23350e-05	0.001160589304515243
1.23353e-05	0.0011283171843458784
1.23355e-05	0.0011196235893377135
1.23358e-05	0.0011206329612774594
1.23360e-05	0.001112250741713005
1.23363e-05	0.0010806434493860462
1.23365e-05	0.001031983094710975
1.23368e-05	0.0009732690375181938
1.23370e-05	0.0009210894728826503
1.23373e-05	0.0008897437388093887
1.23375e-05	0.0008728886047740655
1.23378e-05	0.000861886744653266
1.23380e-05	0.0008448326021805335
1.23382e-05	0.0008131171617378723
1.23385e-05	0.0007706630182479717
1.23388e-05	0.0007219107129125869
1.23390e-05	0.0006773065041166355
1.23393e-05	0.0006458621566942113
1.23395e-05	0.0006236586437252145
1.23398e-05	0.0006053404220715065
1.23400e-05	0.0005835053988635379
1.23403e-05	0.0005528169303375816
1.23405e-05	0.0005157883683261862
1.23408e-05	0.000475257282449293
1.23410e-05	0.00043782277834034664
1.23413e-05	0.0004091849102694334
1.23415e-05	0.00038694374259921123
1.23418e-05	0.00036779976464036625
1.23420e-05	0.00034717193386871745
1.23423e-05	0.00032177336881086815
1.23425e-05	0.00029323446891632083
1.23428e-05	0.000263388648145231
1.23430e-05	0.0002364252626677508
1.23433e-05	0.00021597013294353553
1.23435e-05	0.0002006908618590622
1.23438e-05	0.00018918939830978506
1.23440e-05	0.00017958045465813616
1.23443e-05	0.00017028667373949357
1.23445e-05	0.00016226545858353386
1.23448e-05	0.0001564860204283936
1.23450e-05	0.00015538725374828833
1.23453e-05	0.00016105487104890382
1.23455e-05	0.00017246865285425859
1.23458e-05	0.00018856744107229696
1.23460e-05	0.00020798489309977936
1.23463e-05	0.00022954776457846313
1.23465e-05	0.0002536705504515485
1.23467e-05	0.0002807751251289356
1.23470e-05	0.00031220387979472133
1.23473e-05	0.00034907787916465573
1.23475e-05	0.00039057264874340074
1.23478e-05	0.0004358380646730866
1.23480e-05	0.00048383297941478345
1.23483e-05	0.0005336373138829062
1.23485e-05	0.000586153602621027
1.23488e-05	0.0006391336917155169
1.23490e-05	0.0006965958332566875
1.23493e-05	0.0007549078022981167
1.23495e-05	0.0008176000816543595
1.23498e-05	0.0008811228975139256
1.23500e-05	0.0009446457133730613
1.23503e-05	0.0010090950546102052
1.23505e-05	0.001073720071334275
1.23508e-05	0.0011383450880579071
1.23510e-05	0.001202970104781977
1.23513e-05	0.0012666742012800145
1.23515e-05	0.0013285955109593416
1.23518e-05	0.0013905168206390882
1.23520e-05	0.0014524381303188348
1.23523e-05	0.0015143594399981619
1.23525e-05	0.0015686706730524435
1.23528e-05	0.001621538984035426
1.23530e-05	0.0016744072950180499
1.23533e-05	0.001719335087631669
1.23535e-05	0.0017627573041811848
1.23538e-05	0.0018061795207304063
1.23540e-05	0.0018447404597106538
1.23543e-05	0.0018823796675382018
1.23545e-05	0.001920018875365495
1.23548e-05	0.0019510487487111733
1.23550e-05	0.001980825447473822
1.23552e-05	0.0020106021462362694
1.23555e-05	0.0020403788449989183
1.23558e-05	0.0020701555437615676
1.23560e-05	0.0020999322425240144
1.23563e-05	0.0021297089412866638
1.23565e-05	0.0021594856400493126
1.23568e-05	0.0021892623388119615
1.23570e-05	0.0022167659499027054
1.23573e-05	0.0022398691464687475
1.23575e-05	0.0022629723430347896
1.23578e-05	0.002286075539600675
1.23580e-05	0.0023091787361667173
1.23583e-05	0.0023322819327327594
1.23585e-05	0.0023553851292986453
1.23588e-05	0.0023784883258646874
1.23590e-05	0.0024015915224307295
1.23593e-05	0.002424694718996615
1.23595e-05	0.0024440537583988566
1.23598e-05	0.0024627028802433116
1.23600e-05	0.00248135200208764
1.23603e-05	0.0025000011239320946
1.23605e-05	0.0025186502457765496
1.23608e-05	0.002537299367620878
1.23610e-05	0.002555948489465333
1.23613e-05	0.0025745976113097876
1.23615e-05	0.002593246733154116
1.23618e-05	0.002609849442903626
1.23620e-05	0.0026224905538022587
1.23623e-05	0.002635131664700806
1.23625e-05	0.002647772775599439
1.23628e-05	0.0026604138864980715
1.23630e-05	0.0026730549973966186
1.23633e-05	0.0026856961082952512
1.23635e-05	0.002698337219193884
1.23637e-05	0.002710978330092431
1.23640e-05	0.002723619440991064
1.23643e-05	0.002731853128253141
1.23645e-05	0.0027392511381415263
1.23648e-05	0.0027466491480299623
1.23650e-05	0.002754047157918398
1.23653e-05	0.0027614451678068335
1.23655e-05	0.0027688431776952188
1.23658e-05	0.002776241187583655
1.23660e-05	0.0027836391974720904
1.23663e-05	0.0027910372073604757
1.23665e-05	0.0027974781602161584
1.23668e-05	0.0028020663698969796
1.23670e-05	0.002806654579577769
1.23673e-05	0.0028112427892585897
1.23675e-05	0.0028158309989394104
1.23678e-05	0.0028204192086202003
1.23680e-05	0.002825007418301021
1.23683e-05	0.0028295956279818417
1.23685e-05	0.0028341838376626316
1.23688e-05	0.0028387720473434523
1.23690e-05	0.002842044272392875
1.23693e-05	0.002845066977842724
1.23695e-05	0.0028480896832925938
1.23698e-05	0.0028511123887424634
1.23700e-05	0.002854135094192313
1.23703e-05	0.0028571577996421827
1.23705e-05	0.0028601805050920523
1.23708e-05	0.0028632032105419015
1.23710e-05	0.0028662259159917716
1.23713e-05	0.0028688266668617022
1.23715e-05	0.0028706105662363894
1.23718e-05	0.002872394465611089
1.23720e-05	0.002874178364985789
1.23723e-05	0.0028759622643604764
1.23725e-05	0.002877746163735176
1.23728e-05	0.0028795300631098753
1.23730e-05	0.002881313962484563
1.23733e-05	0.0028830978618592626
1.23735e-05	0.0028848817612339623
1.23738e-05	0.0028759492530399918
1.23740e-05	0.002864984841386088
1.23743e-05	0.00285402042973211
1.23745e-05	0.0028430560180781315
1.23748e-05	0.002832091606424228
1.23750e-05	0.0028211271947702495
1.23753e-05	0.002810162783116271
1.23755e-05	0.002799198371462367
1.23758e-05	0.002788233959808389
1.23760e-05	0.00276866782214157
1.23763e-05	0.0027324498146054526
1.23765e-05	0.0026962318070690903
1.23768e-05	0.0026600137995327275
1.23770e-05	0.0026237957919966106
1.23773e-05	0.002587577784460248
1.23775e-05	0.0025513597769238855
1.23778e-05	0.002515141769387768
1.23780e-05	0.002478923761851406
1.23783e-05	0.002442705754315043
1.23785e-05	0.002392402678902638
1.23788e-05	0.0023394289792183116
1.23790e-05	0.002286455279533985
1.23793e-05	0.0022334815798500177
1.23795e-05	0.002180507880165691
1.23798e-05	0.002127534180481365
1.23800e-05	0.0020733292224474013
1.23803e-05	0.002016740701650002
1.23805e-05	0.0019601521808526026
1.23808e-05	0.0019035636600555866
1.23810e-05	0.0018469751392581873
1.23813e-05	0.001790386618460788
1.23815e-05	0.001733798097663772
1.23818e-05	0.0016824025839199473
1.23820e-05	0.0016319916994874525
1.23823e-05	0.001581580815054958
1.23825e-05	0.001531169930622805
1.23828e-05	0.0014807590461903102
1.23830e-05	0.0014401146627098902
1.23833e-05	0.0014013220739621153
1.23835e-05	0.0013625294852140774
1.23838e-05	0.0013237368964660397
1.23840e-05	0.0012849443077182646
1.23843e-05	0.001247381608135636
1.23845e-05	0.0012100521038692549
1.23848e-05	0.0011727225996031264
1.23850e-05	0.0011353930953367452
1.23853e-05	0.001097635135074585
1.23855e-05	0.0010590477373860537
1.23858e-05	0.0010204603396972607
1.23860e-05	0.000981872942008468
1.23863e-05	0.0009432855443199367
1.23865e-05	0.0009007327369711642
1.23868e-05	0.0008574280610915864
1.23870e-05	0.0008141233852123021
1.23873e-05	0.0007691524413447911
1.23875e-05	0.000723865561780466
1.23878e-05	0.0006785786822164478
1.23880e-05	0.0006306559018077415
1.23883e-05	0.0005822333367449007
1.23885e-05	0.000533810771682388
1.23888e-05	0.0004833892705650865
1.23890e-05	0.0004325887576322246
1.23893e-05	0.000381788244699707
1.23895e-05	0.00033081736507211
1.23898e-05	0.00027981418276522426
1.23900e-05	0.0002287018544803079
1.23903e-05	0.00017737823317932747
1.23905e-05	0.000126054611878347
1.23908e-05	7.50537266350354e-05
1.23910e-05	2.4714419745398948e-05
1.23913e-05	-2.464222145153048e-05
1.23915e-05	-7.273686782172689e-05
1.23918e-05	-0.00011947017011914787
1.23920e-05	-0.00016487917351476006
1.23923e-05	-0.00020885992461074527
1.23925e-05	-0.0002511356695031464
1.23928e-05	-0.0002913922561724505
1.23930e-05	-0.000329313583277025
1.23933e-05	-0.00036458360304421247
1.23935e-05	-0.0003969732992858056
1.23938e-05	-0.0004266615727214537
1.23940e-05	-0.00045417660031158477
1.23943e-05	-0.0004798003362630509
1.23945e-05	-0.0005034669282706053
1.23948e-05	-0.0005240786582187361
1.23950e-05	-0.0005441708950281686
1.23953e-05	-0.0005602244845877939
1.23955e-05	-0.0005755123192729862
1.23958e-05	-0.000587033656310553
1.23960e-05	-0.0005978408398817129
1.23963e-05	-0.00060572297792778
