Time(s)	Current(A)
4.50000e-06	0.01356828567159347
4.50025e-06	0.013489614380385371
4.50050e-06	0.013408438112160392
4.50075e-06	0.013325091863568936
4.50100e-06	0.013239898786126482
4.50125e-06	0.013153285064814339
4.50150e-06	0.013065772531361949
4.50175e-06	0.012977906837962551
4.50200e-06	0.012890234876638419
4.50225e-06	0.01280330364514906
4.50250e-06	0.012717637181209874
4.50275e-06	0.012633711099569131
4.50300e-06	0.012551995292271278
4.50325e-06	0.012473022549634548
4.50350e-06	0.012397386523868513
4.50375e-06	0.012325695474352251
4.50400e-06	0.012258557346153451
4.50425e-06	0.012198252320347009
4.50450e-06	0.012141702413616166
4.50475e-06	0.012092290005229848
4.50500e-06	0.012048595609657901
4.50525e-06	0.01201844263096501
4.50550e-06	0.011999137990373865
4.50575e-06	0.01197983334978272
4.50600e-06	0.01196052870919151
4.50625e-06	0.011941224068600367
4.50650e-06	0.011941923038213346
4.50675e-06	0.011958647356479318
4.50700e-06	0.011975371674745232
4.50725e-06	0.011992095993011147
4.50750e-06	0.012008820311277119
4.50775e-06	0.012047085603904998
4.50800e-06	0.012102607862697604
4.50825e-06	0.012158130121490396
4.50850e-06	0.012213652380283001
4.50875e-06	0.012269174639075793
4.50900e-06	0.012324696897868399
4.50925e-06	0.012380219156661003
4.50950e-06	0.01245314739864066
4.50975e-06	0.012540019970986053
4.51000e-06	0.012626892543331446
4.51025e-06	0.012713765115677133
4.51050e-06	0.012800637688022526
4.51075e-06	0.01288751026036792
4.51100e-06	0.012974382832713606
4.51125e-06	0.013066969274439554
4.51150e-06	0.013164133227326612
4.51175e-06	0.013261297180214
4.51200e-06	0.013358149162175712
4.51225e-06	0.013454751217109418
4.51250e-06	0.013551353272043452
4.51275e-06	0.01364489939078577
4.51300e-06	0.013735997329303808
4.51325e-06	0.013827095267821537
4.51350e-06	0.013912152690842138
4.51375e-06	0.01399237091904348
4.51400e-06	0.014072589147244552
4.51425e-06	0.014143766078837756
4.51450e-06	0.014207699821381033
4.51475e-06	0.014271633563924096
4.51500e-06	0.014320667299296872
4.51525e-06	0.014357764298882626
4.51550e-06	0.014394861298468254
4.51575e-06	0.014431958298053884
4.51600e-06	0.014469055297639637
4.51625e-06	0.014486329354380736
4.51650e-06	0.014487722799216875
4.51675e-06	0.014489116244053019
4.51700e-06	0.01449050968888916
4.51725e-06	0.014491903133725304
4.51750e-06	0.014477990767884348
4.51775e-06	0.014451816567806496
4.51800e-06	0.014425642367728555
4.51825e-06	0.014389240175008734
4.51850e-06	0.01434464410396413
4.51875e-06	0.014300048032919375
4.51900e-06	0.014247961384833096
4.51925e-06	0.014189873864531754
4.51950e-06	0.014126795498862855
4.51975e-06	0.014059718853071324
4.52000e-06	0.013988544357141343
4.52025e-06	0.013914086979945733
4.52050e-06	0.013837119184779107
4.52075e-06	0.013756790660602423
4.52100e-06	0.013674309572944134
4.52125e-06	0.01359018834908534
4.52150e-06	0.013504951632140555
4.52175e-06	0.01341912448237206
4.52200e-06	0.013333231854303148
4.52225e-06	0.013247798911030426
4.52250e-06	0.013163353606716154
4.52275e-06	0.013080439205120739
4.52300e-06	0.012999628043771857
4.52325e-06	0.012921513475082344
4.52350e-06	0.01284912281709133
4.52375e-06	0.01278026206768746
4.52400e-06	0.012711401318283825
4.52425e-06	0.012650782461537502
4.52450e-06	0.012596766373091338
4.52475e-06	0.012542750284645356
4.52500e-06	0.012495224742683927
4.52525e-06	0.012452898925635234
4.52550e-06	0.012410573108586684
4.52575e-06	0.01236824729153799
4.52600e-06	0.012333643271971576
4.52625e-06	0.012305225360591046
4.52650e-06	0.01227680744921042
4.52675e-06	0.01224838953782989
4.52700e-06	0.012228773343176296
4.52725e-06	0.01221620840466083
4.52750e-06	0.012203643466145405
4.52775e-06	0.01219107852762998
4.52800e-06	0.012178513589114513
4.52825e-06	0.012165948650599088
4.52850e-06	0.012153383712083663
4.52875e-06	0.012140818773568195
4.52900e-06	0.01213687017900072
4.52925e-06	0.0121398243342074
4.52950e-06	0.012142778489414089
4.52975e-06	0.01214573264462077
4.53000e-06	0.01214868679982746
4.53025e-06	0.01215164095503414
4.53050e-06	0.01215459511024082
4.53075e-06	0.012157549265447511
4.53100e-06	0.012164560507741187
4.53125e-06	0.01217482197508873
4.53150e-06	0.012185083442436307
4.53175e-06	0.01219534490978385
4.53200e-06	0.012205606377131393
4.53225e-06	0.01221586784447897
4.53250e-06	0.012227044110548372
4.53275e-06	0.012238953242750837
4.53300e-06	0.012250862374953344
4.53325e-06	0.01226277150715581
4.53350e-06	0.012274680639358278
4.53375e-06	0.012286589771560785
4.53400e-06	0.012297814118964006
4.53425e-06	0.012308489869636858
4.53450e-06	0.012319165620309675
4.53475e-06	0.012332013619365312
4.53500e-06	0.012346601856174137
4.53525e-06	0.012361190092982914
4.53550e-06	0.012381619534884584
4.53575e-06	0.012406728499490441
4.53600e-06	0.012431837464096214
4.53625e-06	0.012456946428701987
4.53650e-06	0.012482055393307845
4.53675e-06	0.012508003848306208
4.53700e-06	0.01254831843192202
4.53725e-06	0.012588633015537967
4.53750e-06	0.012628947599153778
4.53775e-06	0.012669262182769588
4.53800e-06	0.012709576766385535
4.53825e-06	0.012758053722195257
4.53850e-06	0.012813069740645704
4.53875e-06	0.012868085759095964
4.53900e-06	0.012923101777546225
4.53925e-06	0.01297811779599667
4.53950e-06	0.01303313381444693
4.53975e-06	0.01309385631543797
4.54000e-06	0.013159150409821907
4.54025e-06	0.013224444504205624
4.54050e-06	0.01328973859858934
4.54075e-06	0.013355032692973279
4.54100e-06	0.013420326787356995
4.54125e-06	0.01350270129048001
4.54150e-06	0.013556762802286059
4.54175e-06	0.013621172197533362
4.54200e-06	0.013692088969047047
4.54225e-06	0.013755530994336412
4.54250e-06	0.01382138085896769
4.54275e-06	0.013883851432400394
4.54300e-06	0.013943971564220834
4.54325e-06	0.014001659634056604
4.54350e-06	0.01405757205048512
4.54375e-06	0.014111219548630897
4.54400e-06	0.014160670472512085
4.54425e-06	0.014206742454828714
4.54450e-06	0.01424971609969018
4.54475e-06	0.014284842079508352
4.54500e-06	0.014315297569461814
4.54525e-06	0.014345753059415173
4.54550e-06	0.014367753392751908
4.54575e-06	0.014383580599025836
4.54600e-06	0.014399407805299708
4.54625e-06	0.014409664990315655
4.54650e-06	0.014413173655964943
4.54675e-06	0.014408210279260758
4.54700e-06	0.014398490996872038
4.54725e-06	0.01438877171448335
4.54750e-06	0.014370774557257509
4.54775e-06	0.014346733706757162
4.54800e-06	0.014322692856256897
4.54825e-06	0.01429369349897729
4.54850e-06	0.014256313874131479
4.54875e-06	0.014215458925869104
4.54900e-06	0.01417460397760673
4.54925e-06	0.014127668874382219
4.54950e-06	0.014076294637639564
4.54975e-06	0.01402492040089691
4.55000e-06	0.013969082180233598
4.55025e-06	0.013909984795820514
4.55050e-06	0.01385088741140743
4.55075e-06	0.01378904727330748
4.55100e-06	0.013725204645156301
4.55125e-06	0.013660217311424834
4.55150e-06	0.013594394225818736
4.55175e-06	0.013528255693483307
4.55200e-06	0.013461886852848258
4.55225e-06	0.013396169899567057
4.55250e-06	0.013330928890570094
4.55275e-06	0.013266997039330148
4.55300e-06	0.013204021006834649
4.55325e-06	0.01314344473802409
4.55350e-06	0.013084620541566028
4.55375e-06	0.013030217982368867
4.55400e-06	0.012979043669538896
4.55425e-06	0.012927869356708751
4.55450e-06	0.012887268161514106
4.55475e-06	0.012854386421033445
4.55500e-06	0.012821504680552672
4.55525e-06	0.012788622940072011
4.55550e-06	0.012755741199591239
4.55575e-06	0.012722859459110577
4.55600e-06	0.012705354759792847
4.55625e-06	0.012699076869537773
4.55650e-06	0.012692798979282719
4.55675e-06	0.012686521089027665
4.55700e-06	0.01268024319877259
4.55725e-06	0.012673965308517537
4.55750e-06	0.012684702104614701
4.55775e-06	0.012707861357861429
4.55800e-06	0.012731020611108078
4.55825e-06	0.012754179864354726
4.55850e-06	0.012777339117601453
4.55875e-06	0.012800498370848101
4.55900e-06	0.01282365762409475
4.55925e-06	0.012846816877341478
4.55950e-06	0.01287170899077696
4.55975e-06	0.01291708423185335
4.56000e-06	0.012962459472929585
4.56025e-06	0.01300783471400582
4.56050e-06	0.013053209955082211
4.56075e-06	0.013098585196158447
4.56100e-06	0.013143960437234684
4.56125e-06	0.013189335678311074
4.56150e-06	0.01323471091938731
4.56175e-06	0.013282896492537822
4.56200e-06	0.0133331338948579
4.56225e-06	0.013383371297177808
4.56250e-06	0.013432464263070043
4.56275e-06	0.013480721673596482
4.56300e-06	0.013528979084122757
4.56325e-06	0.013571403752945464
4.56350e-06	0.01360956992517491
4.56375e-06	0.013647736097404228
4.56400e-06	0.013685902269633673
4.56425e-06	0.01372406844186299
4.56450e-06	0.013762234614092306
4.56475e-06	0.013798884287374157
4.56500e-06	0.013817608312816212
4.56525e-06	0.013836332338258267
4.56550e-06	0.013855056363700385
4.56575e-06	0.013873780389142441
4.56600e-06	0.013892504414584495
4.56625e-06	0.013911228440026614
4.56650e-06	0.013915906314037533
4.56675e-06	0.01391032906429096
4.56700e-06	0.01390475181454437
4.56725e-06	0.013899174564797796
4.56750e-06	0.013893597315051224
4.56775e-06	0.013888020065304632
4.56800e-06	0.013882442815558059
4.56825e-06	0.013876865565811468
4.56850e-06	0.013871288316064895
4.56875e-06	0.013864088695189836
4.56900e-06	0.013837711973299393
4.56925e-06	0.01381133525140904
4.56950e-06	0.013784958529518686
4.56975e-06	0.013758581807628243
4.57000e-06	0.01373220508573789
4.57025e-06	0.013705828363847535
4.57050e-06	0.013679451641957092
4.57075e-06	0.01365307492006674
4.57100e-06	0.013626698198176385
4.57125e-06	0.013596485257988077
4.57150e-06	0.013563471487010413
4.57175e-06	0.01353045771603275
4.57200e-06	0.013497443945054975
4.57225e-06	0.013464430174077311
4.57250e-06	0.013431416403099536
4.57275e-06	0.013398402632121872
4.57300e-06	0.013365892349866721
4.57325e-06	0.013339333513565468
4.57350e-06	0.013312774677264307
4.57375e-06	0.013286215840963145
4.57400e-06	0.013259657004661893
4.57425e-06	0.013233098168360732
4.57450e-06	0.01320653933205957
4.57475e-06	0.013179980495758317
4.57500e-06	0.013162476270633916
4.57525e-06	0.013151582835563528
4.57550e-06	0.013140689400493103
4.57575e-06	0.013129795965422717
4.57600e-06	0.01311890253035233
4.57625e-06	0.013108009095281904
4.57650e-06	0.013097115660211517
4.57675e-06	0.013086222225141093
4.57700e-06	0.013075328790070706
4.57725e-06	0.013065737894983965
4.57750e-06	0.013071543563846228
4.57775e-06	0.01307734923270847
4.57800e-06	0.013083154901570715
4.57825e-06	0.013088960570432979
4.57850e-06	0.013094766239295222
4.57875e-06	0.013100571908157464
4.57900e-06	0.013106377577019728
4.57925e-06	0.013112183245881972
4.57950e-06	0.013117988914744215
4.57975e-06	0.013129708413118404
4.58000e-06	0.013145745610458505
4.58025e-06	0.013161782807798604
4.58050e-06	0.013177820005138759
4.58075e-06	0.013193857202478858
4.58100e-06	0.013209894399819013
4.58125e-06	0.013225931597159112
4.58150e-06	0.013241968794499213
4.58175e-06	0.013258005991839366
4.58200e-06	0.013274043189179466
4.58225e-06	0.013289923323896455
4.58250e-06	0.013303946913132901
4.58275e-06	0.013317970502369299
4.58300e-06	0.013331994091605697
4.58325e-06	0.013346017680842141
4.58350e-06	0.01336004127007854
4.58375e-06	0.013374064859314938
4.58400e-06	0.013388088448551383
4.58425e-06	0.01340211203778778
4.58450e-06	0.01341613562702418
4.58475e-06	0.013430159216260625
4.58500e-06	0.013435243938258942
4.58525e-06	0.013433802375089777
4.58550e-06	0.013432360811920617
4.58575e-06	0.013430919248751455
4.58600e-06	0.01342947768558229
4.58625e-06	0.013428036122413127
4.58650e-06	0.013426594559243967
4.58675e-06	0.013423774044081694
4.58700e-06	0.013404653743272148
4.58725e-06	0.013385533442462601
4.58750e-06	0.013366413141652989
4.58775e-06	0.013347292840843442
4.58800e-06	0.013328172540033895
4.58825e-06	0.013309052239224285
4.58850e-06	0.013289931938414738
4.58875e-06	0.013261359781548993
4.58900e-06	0.013225886805335721
4.58925e-06	0.013190413829122569
4.58950e-06	0.013154940852909297
4.58975e-06	0.013119467876696145
4.59000e-06	0.013083994900482994
4.59025e-06	0.013048521924269722
4.59050e-06	0.01301304894805657
4.59075e-06	0.012977575971843418
4.59100e-06	0.012942102995630147
4.59125e-06	0.012906630019416995
4.59150e-06	0.012870067220264887
4.59175e-06	0.012832708739166455
4.59200e-06	0.012795350258068149
4.59225e-06	0.012757991776969844
4.59250e-06	0.012720633295871413
4.59275e-06	0.012683274814773108
4.59300e-06	0.012645916333674803
4.59325e-06	0.012608557852576372
4.59350e-06	0.012571199371478065
4.59375e-06	0.012533840890379634
4.59400e-06	0.012496482409281329
4.59425e-06	0.012464974781529947
4.59450e-06	0.012437738873716943
4.59475e-06	0.012410502965904029
4.59500e-06	0.012384031271754768
4.59525e-06	0.012358117531556863
4.59550e-06	0.012332203791359046
4.59575e-06	0.012306770219220385
4.59600e-06	0.012281687218759038
4.59625e-06	0.012256604218297778
4.59650e-06	0.012232236984050264
4.59675e-06	0.012207585197656712
4.59700e-06	0.012182344120710453
4.59725e-06	0.012157103043764194
4.59750e-06	0.01213186196681785
4.59775e-06	0.012106620889871593
4.59800e-06	0.012081379812925248
4.59825e-06	0.01205613873597899
4.59850e-06	0.012030897659032732
4.59875e-06	0.012005656582086388
4.59900e-06	0.011980415505140129
4.59925e-06	0.011954510052164018
4.59950e-06	0.011928119536896079
4.59975e-06	0.01190172902162823
4.60000e-06	0.011875338506360382
4.60025e-06	0.011848947991092443
4.60050e-06	0.011822557475824594
4.60075e-06	0.011796166960556746
4.60100e-06	0.011769776445288807
4.60125e-06	0.011743385930020958
4.60150e-06	0.01171699541475311
4.60175e-06	0.011691591612548489
4.60200e-06	0.01166690821155991
4.60225e-06	0.011642224810571249
4.60250e-06	0.011617541409582668
4.60275e-06	0.01159285800859409
4.60300e-06	0.01157030037404683
4.60325e-06	0.011549294765905407
4.60350e-06	0.011528289157763985
4.60375e-06	0.011507283549622492
4.60400e-06	0.01148627794148107
4.60425e-06	0.01146836539797743
4.60450e-06	0.011452711107261523
4.60475e-06	0.01143705681654567
4.60500e-06	0.011430215296405003
4.60525e-06	0.011429807997999036
4.60550e-06	0.01142940069959307
4.60575e-06	0.011428993401187106
4.60600e-06	0.011428586102781139
4.60625e-06	0.011428178804375175
4.60650e-06	0.011440993173922215
4.60675e-06	0.011463460710153098
4.60700e-06	0.011485928246383979
4.60725e-06	0.011508395782614938
4.60750e-06	0.01153086331884582
4.60775e-06	0.011553330855076701
4.60800e-06	0.011590384757428573
4.60825e-06	0.011638088195374005
4.60850e-06	0.011685791633319438
4.60875e-06	0.01173349507126503
4.60900e-06	0.011781198509210462
4.60925e-06	0.011828901947155893
4.60950e-06	0.011876605385101486
4.60975e-06	0.011924308823046919
4.61000e-06	0.011973264057434275
4.61025e-06	0.012037016045985675
4.61050e-06	0.012100768034536859
4.61075e-06	0.012164520023088257
4.61100e-06	0.012228272011639441
4.61125e-06	0.012292024000190624
4.61150e-06	0.012355775988742023
4.61175e-06	0.012419527977293206
4.61200e-06	0.01248327996584439
4.61225e-06	0.012546581477551524
4.61250e-06	0.012609554095197583
4.61275e-06	0.012672526712843642
4.61300e-06	0.012731936802372064
4.61325e-06	0.012788745882870595
4.61350e-06	0.012845554963369126
4.61375e-06	0.012901491800442276
4.61400e-06	0.012947118357741368
4.61425e-06	0.012992744915040459
4.61450e-06	0.013038371472339704
4.61475e-06	0.013079804715928223
4.61500e-06	0.013118176412642192
4.61525e-06	0.01315654810935603
4.61550e-06	0.013194919806069868
4.61575e-06	0.013233291502783837
4.61600e-06	0.013269920946965405
4.61625e-06	0.013304796973784715
4.61650e-06	0.013339673000604145
4.61675e-06	0.013374549027423455
4.61700e-06	0.013409425054242767
4.61725e-06	0.0134325304285378
4.61750e-06	0.013466773585133946
4.61775e-06	-0.011105576869880961
4.61800e-06	-0.009186846419343357
4.61825e-06	-0.003269191329906716
4.61850e-06	0.0011516862873878052
4.61875e-06	0.020192944240769714
4.61900e-06	0.021735383221808662
4.61925e-06	0.020823719477187645
4.61950e-06	0.01680562648722158
4.61975e-06	0.00893502101660389
4.62000e-06	0.0046054580293929
4.62025e-06	0.005504570037125702
4.62050e-06	0.009603180905978611
4.62075e-06	0.01573657378103398
4.62100e-06	0.019414309567125806
4.62125e-06	0.019644207161570747
4.62150e-06	0.016917757376476585
4.62175e-06	0.011876732026834773
4.62200e-06	0.009083069230237897
4.62225e-06	0.00958596389413093
4.62250e-06	0.012108384542428777
4.62275e-06	0.015916344488907587
4.62300e-06	0.018193871654722898
4.62325e-06	0.0183172564963633
4.62350e-06	0.016592768174845007
4.62375e-06	0.013421219958923267
4.62400e-06	0.011659189509236053
4.62425e-06	0.011962959437614721
4.62450e-06	0.013531613396753215
4.62475e-06	0.01590395045182927
4.62500e-06	0.017314579812230415
4.62525e-06	0.01737215668827791
4.62550e-06	0.01626857246912535
4.62575e-06	0.014255117277659022
4.62600e-06	0.013121306802449495
4.62625e-06	0.013278316922935757
4.62650e-06	0.014224555882778088
4.62675e-06	0.015671277465362052
4.62700e-06	0.01651286538815524
4.62725e-06	0.016504472472314534
4.62750e-06	0.01576660150667226
4.62775e-06	0.014456953197663582
4.62800e-06	0.013696713613034935
4.62825e-06	0.013743618990321874
4.62850e-06	0.014283653066655843
4.62875e-06	0.015136148992818895
4.62900e-06	0.015608795816232734
4.62925e-06	0.015548504702702835
4.62950e-06	0.015031045722678169
4.62975e-06	0.014155483245994686
4.63000e-06	0.013624371240289505
4.63025e-06	0.013599358928516337
4.63050e-06	0.013883953535544396
4.63075e-06	0.014365207091005017
4.63100e-06	0.01460970131237317
4.63125e-06	0.014521812800291991
4.63150e-06	0.014149276132030911
4.63175e-06	0.013554411813447912
4.63200e-06	0.013177542734450792
4.63225e-06	0.013120145825524723
4.63250e-06	0.013259359598307062
4.63275e-06	0.01352466256238943
4.63300e-06	0.013644807847596967
4.63325e-06	0.013560157134997771
4.63350e-06	0.013300873482352902
4.63375e-06	0.012906252295711018
4.63400e-06	0.012652356182793633
4.63425e-06	0.012602978932586951
4.63450e-06	0.012681022651248177
4.63475e-06	0.012841124870597692
4.63500e-06	0.012911595196876983
4.63525e-06	0.012854023250283106
4.63550e-06	0.012687095579043925
4.63575e-06	0.012435435685959397
4.63600e-06	0.012271968408293657
4.63625e-06	0.01223664651659554
4.63650e-06	0.012281167838197313
4.63675e-06	0.012377111848293822
4.63700e-06	0.012416933731143026
4.63725e-06	0.012376580699265997
4.63750e-06	0.012267765992338963
4.63775e-06	0.012105920526601331
4.63800e-06	0.011999365210547541
4.63825e-06	0.01197312108771387
4.63850e-06	0.011996928049126913
4.63875e-06	0.012052980704338507
4.63900e-06	0.01207391406673392
4.63925e-06	0.012044667285654558
4.63950e-06	0.011972582647008893
4.63975e-06	0.011867330446441346
4.64000e-06	0.011796765769516541
4.64025e-06	0.011776558747314935
4.64050e-06	0.011787750579884862
4.64075e-06	0.01181918869001683
4.64100e-06	0.011828676857659459
4.64125e-06	0.011806784417947528
4.64150e-06	0.011758115173074558
4.64175e-06	0.011688729835293496
4.64200e-06	0.01164113414604618
4.64225e-06	0.011625143133487986
4.64250e-06	0.0116288807064374
4.64275e-06	0.01164535974359722
4.64300e-06	0.011648151173913397
4.64325e-06	0.011631350226752917
4.64350e-06	0.01159784321871649
4.64375e-06	0.011551431278845472
4.64400e-06	0.011518740335673011
4.64425e-06	0.011505918378241872
4.64450e-06	0.01150595644448105
4.64475e-06	0.011512428789211784
4.64500e-06	0.011520289151741565
4.64525e-06	0.011520731317612446
4.64550e-06	0.01151439132428248
4.64575e-06	0.011511928979334
4.64600e-06	0.011511841435011987
4.64625e-06	0.011529445629001982
4.64650e-06	0.01156223393971841
4.64675e-06	0.011603995437190606
4.64700e-06	0.011648259336517081
4.64725e-06	0.011691187545875642
4.64750e-06	0.011733243450707965
4.64775e-06	0.011781039609080545
4.64800e-06	0.0118314036712706
4.64825e-06	0.011894896620107964
4.64850e-06	0.01197306788636166
4.64875e-06	0.012055148759711962
4.64900e-06	0.012137229633062265
4.64925e-06	0.012220849810289392
4.64950e-06	0.01230761244623036
4.64975e-06	0.012395455722790964
4.65000e-06	0.01248329899935127
4.65025e-06	0.012580087900768592
4.65050e-06	0.012684900431374583
4.65075e-06	0.012791511099576824
4.65100e-06	0.012898121767779066
4.65125e-06	0.013003507945550469
4.65150e-06	0.013106734158568582
4.65175e-06	0.01320924949096938
4.65200e-06	0.013311764823370528
