Time(s)	Current(A)
2.00000e-06	0.0054345936954426875
2.00025e-06	0.005425849042128351
2.00050e-06	0.005417104388813999
2.00075e-06	0.005408359735499647
2.00100e-06	0.00539961508218531
2.00125e-06	0.005390870428870958
2.00150e-06	0.005382125775556606
2.00175e-06	0.005373381122242268
2.00200e-06	0.005364636468927916
2.00225e-06	0.005355891815613564
2.00250e-06	0.005347147162299212
2.00275e-06	0.005338402508984875
2.00300e-06	0.005329657855670523
2.00325e-06	0.005320913202356171
2.00350e-06	0.005312168549041834
2.00375e-06	0.005303423895727482
2.00400e-06	0.0052946792424131296
2.00425e-06	0.005288978034653513
2.00450e-06	0.005291119837092178
2.00475e-06	0.005293261639530846
2.00500e-06	0.0052954034419695145
2.00525e-06	0.005297545244408179
2.00550e-06	0.0052996870468468476
2.00575e-06	0.005301828849285516
2.00600e-06	0.0053039706517241806
2.00625e-06	0.005306112454162849
2.00650e-06	0.005308254256601517
2.00675e-06	0.005310396059040185
2.00700e-06	0.00531253786147885
2.00725e-06	0.005314679663917519
2.00750e-06	0.005316821466356187
2.00775e-06	0.005318963268794852
2.00800e-06	0.00532110507123352
2.00825e-06	0.005323246873672189
2.00850e-06	0.005325388676110857
2.00875e-06	0.005329620142203921
2.00900e-06	0.005334442503886064
2.00925e-06	0.005339264865568206
2.00950e-06	0.005344087227250342
2.00975e-06	0.005348909588932485
2.01000e-06	0.005353731950614628
2.01025e-06	0.005358554312296764
2.01050e-06	0.005363376673978907
2.01075e-06	0.00536819903566105
2.01100e-06	0.0053730213973431935
2.01125e-06	0.005377843759025328
2.01150e-06	0.005382666120707471
2.01175e-06	0.0053874884823896145
2.01200e-06	0.00539231084407175
2.01225e-06	0.005397133205753893
2.01250e-06	0.0054019555674360365
2.01275e-06	0.005406777929118171
2.01300e-06	0.005411371412743579
2.01325e-06	0.005415375073781081
2.01350e-06	0.005419378734818583
2.01375e-06	0.005423382395856078
2.01400e-06	0.00542738605689358
2.01425e-06	0.005431389717931082
2.01450e-06	0.005435393378968577
2.01475e-06	0.0054393970400060795
2.01500e-06	0.005443400701043581
2.01525e-06	0.005447404362081083
2.01550e-06	0.005451408023118579
2.01575e-06	0.00545541168415608
2.01600e-06	0.0054594153451935825
2.01625e-06	0.005463419006231078
2.01650e-06	0.005467422667268579
2.01675e-06	0.005471426328306082
2.01700e-06	0.005475429989343577
2.01725e-06	0.0054794336503810786
2.01750e-06	0.005483437311418581
2.01775e-06	0.005487440972456083
2.01800e-06	0.005491444633493578
2.01825e-06	0.00549544829453108
2.01850e-06	0.005499451955568582
2.01875e-06	0.005503455616606077
2.01900e-06	0.005507459277643579
2.01925e-06	0.005511462938681082
2.01950e-06	0.005515466599718583
2.01975e-06	0.0055194702607560785
2.02000e-06	0.005523473921793581
2.02025e-06	0.005527477582831082
2.02050e-06	0.00552953515440437
2.02075e-06	0.005531042428958307
2.02100e-06	0.0055325497035122444
2.02125e-06	0.00553405697806618
2.02150e-06	0.005535564252620117
2.02175e-06	0.005537071527174055
2.02200e-06	0.005538578801727993
2.02225e-06	0.0055400860762819274
2.02250e-06	0.005541593350835865
2.02275e-06	0.005543100625389802
2.02300e-06	0.005544607899943738
2.02325e-06	0.005546115174497675
2.02350e-06	0.005547622449051612
2.02375e-06	0.00554912972360555
2.02400e-06	0.005550636998159485
2.02425e-06	0.005552144272713422
2.02450e-06	0.0055536515472673605
2.02475e-06	0.005555158821821295
2.02500e-06	0.0055566660963752325
2.02525e-06	0.005558173370929171
2.02550e-06	0.005559680645483105
2.02575e-06	0.005561187920037043
2.02600e-06	0.005562695194590981
2.02625e-06	0.005564202469144918
2.02650e-06	0.005565709743698853
2.02675e-06	0.005567217018252791
2.02700e-06	0.005568724292806728
2.02725e-06	0.005570231567360663
2.02750e-06	0.005571738841914601
2.02775e-06	0.005572694114836269
2.02800e-06	0.0055722268703005855
2.02825e-06	0.005571759625764902
2.02850e-06	0.005571292381229217
2.02875e-06	0.005570825136693532
2.02900e-06	0.005570357892157848
2.02925e-06	0.0055698906476221634
2.02950e-06	0.0055694234030864796
2.02975e-06	0.005568956158550796
2.03000e-06	0.005568488914015111
2.03025e-06	0.005568021669479426
2.03050e-06	0.005567554424943741
2.03075e-06	0.0055670871804080575
2.03100e-06	0.005566619935872374
2.03125e-06	0.005566152691336689
2.03150e-06	0.005564215298821336
2.03175e-06	0.005558489310323999
2.03200e-06	0.005552763321826662
2.03225e-06	0.005547037333329325
2.03250e-06	0.005541311344831998
2.03275e-06	0.005535585356334662
2.03300e-06	0.0055298593678373255
2.03325e-06	0.005524133379339998
2.03350e-06	0.0055184073908426615
2.03375e-06	0.005512681402345325
2.03400e-06	0.0055069554138479975
2.03425e-06	0.005501229425350661
2.03450e-06	0.005495503436853324
2.03475e-06	0.005489777448355987
2.03500e-06	0.005484051459858661
2.03525e-06	0.005475895990136033
2.03550e-06	0.005461479706579668
2.03575e-06	0.005447063423023328
2.03600e-06	0.0054326471394669645
2.03625e-06	0.005421351129049861
2.03650e-06	0.005403803642162773
2.03675e-06	-0.0016795856627175184
2.03700e-06	-0.009402540385286085
2.03725e-06	-0.007535655105741126
2.03750e-06	-0.00549938527328512
2.03775e-06	0.0004069757795506397
2.03800e-06	0.006433881218696677
2.03825e-06	0.006753185171662466
2.03850e-06	0.006019528990494569
2.03875e-06	0.0020348931317828046
2.03900e-06	-0.0026661703431447126
2.03925e-06	-0.0023961175992618833
2.03950e-06	-0.001048075102017963
2.03975e-06	0.002499883114583024
2.04000e-06	0.005938990726568498
2.04025e-06	0.0073471194396623135
2.04050e-06	0.006600438194801984
2.04075e-06	0.004269952658298591
2.04100e-06	0.0018495083727719083
2.04125e-06	0.0010898942553407712
2.04150e-06	0.0020333471323945806
2.04175e-06	0.0039924111058348396
2.04200e-06	0.005986592190984748
2.04225e-06	0.006843895335606695
2.04250e-06	0.006354795542024551
2.04275e-06	0.0048763280087133435
2.04300e-06	0.0033438103204736897
2.04325e-06	0.0028535760315965535
2.04350e-06	0.0034317244737002164
2.04375e-06	0.0046473327533853494
2.04400e-06	0.005885999411624628
2.04425e-06	0.006413456484096698
2.04450e-06	0.0060983882342354094
2.04475e-06	0.0051643879698793655
2.04500e-06	0.004197264513485244
2.04525e-06	0.003883643015160427
2.04550e-06	0.004239735991223428
2.04575e-06	0.00499550030580739
2.04600e-06	0.005766000984132975
2.04625e-06	0.0060912650843289945
2.04650e-06	0.005889040383236863
2.04675e-06	0.005299391627581027
2.04700e-06	0.004689256555546813
2.04725e-06	0.0044886923072688335
2.04750e-06	0.004707793454336063
2.04775e-06	0.005177355193653725
2.04800e-06	0.005656226060363744
2.04825e-06	0.005856276613471561
2.04850e-06	0.005725998895449687
2.04875e-06	0.005353144245555246
2.04900e-06	0.004967563912074324
2.04925e-06	0.004838624787985258
2.04950e-06	0.004972618719557242
2.04975e-06	0.005263530130967506
2.05000e-06	0.005560287855564387
2.05025e-06	0.005682410634531186
2.05050e-06	0.005597646839051334
2.05075e-06	0.005360975450773565
2.05100e-06	0.005116377810451281
2.05125e-06	0.005032574247390681
2.05150e-06	0.005113487782521004
2.05175e-06	0.005292695091148926
2.05200e-06	0.005475633648060378
2.05225e-06	0.0055497352316791855
2.05250e-06	0.005495777214131154
2.05275e-06	0.005348991381824178
2.05300e-06	0.0051997433989983965
2.05325e-06	0.00515359703768159
2.05350e-06	0.005212860015303192
2.05375e-06	0.005335777533561058
2.05400e-06	0.005462972973922062
2.05425e-06	0.005523796486944984
2.05450e-06	0.005506074670833076
2.05475e-06	0.005431743352624863
2.05500e-06	0.005357270392054384
2.05525e-06	0.005348638289565662
2.05550e-06	0.005407147099497148
2.05575e-06	0.005506497390404637
2.05600e-06	0.005609354136946018
2.05625e-06	0.005671324680420753
2.05650e-06	0.005684648392050868
2.05675e-06	0.005669842687938258
2.05700e-06	0.005647277207616631
2.05725e-06	0.0056612593087747584
2.05750e-06	0.005723167939944731
2.05775e-06	0.005806751936917589
2.05800e-06	0.005896571712811797
2.05825e-06	0.005962985735077286
2.05850e-06	0.005995169220461386
2.05875e-06	0.006008789778335415
2.05900e-06	0.006016992867572635
2.05925e-06	0.0060472819009982325
2.05950e-06	0.00610626507802615
2.05975e-06	0.006177168986692259
2.06000e-06	0.006251034042730162
2.06025e-06	0.006308975286325162
2.06050e-06	0.006343461015172839
2.06075e-06	0.006363959090479199
2.06100e-06	0.0063797377903689915
2.06125e-06	0.006407639226337757
2.06150e-06	0.0064508177789801766
2.06175e-06	0.006498413076556039
2.06200e-06	0.006546168271383994
2.06225e-06	0.006578553759744838
2.06250e-06	0.006597879867321344
2.06275e-06	0.006609228585933288
2.06300e-06	0.006613799051468209
2.06325e-06	0.006626373717547179
2.06350e-06	0.0066457494180507835
2.06375e-06	0.006665794275157678
2.06400e-06	0.006686407703362948
2.06425e-06	0.006696529118550839
2.06450e-06	0.006697735646946254
2.06475e-06	0.006694476264115713
2.06500e-06	0.006687422271715143
2.06525e-06	0.006680368279314571
2.06550e-06	0.006676712686081916
2.06575e-06	0.006675944655398716
2.06600e-06	0.006675176624715515
2.06625e-06	0.006667309273805951
2.06650e-06	0.0066534097500411254
2.06675e-06	0.0066373761811954115
2.06700e-06	0.006619529350178338
2.06725e-06	0.006601682519161294
2.06750e-06	0.00658383568814422
2.06775e-06	0.006565844004244995
2.06800e-06	0.006544432277372901
2.06825e-06	0.006523020550500771
2.06850e-06	0.00650160882362864
2.06875e-06	0.00648019709675651
2.06900e-06	0.006458841818259367
2.06925e-06	0.006437534502995885
2.06950e-06	0.0064162271877324034
2.06975e-06	0.006394919872468957
2.07000e-06	0.006373612557205475
2.07025e-06	0.006352305241941993
2.07050e-06	0.006330997926678511
2.07075e-06	0.006309690611415066
2.07100e-06	0.006288383296151584
2.07125e-06	0.006267075980888102
2.07150e-06	0.006245768665624656
2.07175e-06	0.006224461350361174
2.07200e-06	0.006203154035097692
2.07225e-06	0.0061822357861259945
2.07250e-06	0.006170503570719276
2.07275e-06	0.006158771355312557
2.07300e-06	0.006147039139905838
2.07325e-06	0.006135306924499139
2.07350e-06	0.00612357470909242
2.07375e-06	0.006111842493685701
2.07400e-06	0.006100110278279002
2.07425e-06	0.006088378062872284
2.07450e-06	0.006076645847465565
2.07475e-06	0.006064913632058846
2.07500e-06	0.006053181416652147
2.07525e-06	0.006041449201245428
2.07550e-06	0.006029716985838709
2.07575e-06	0.006022668967435274
2.07600e-06	0.006019601032351499
2.07625e-06	0.006016533097267724
2.07650e-06	0.006013465162183954
2.07675e-06	0.006010397227100179
2.07700e-06	0.006007329292016403
2.07725e-06	0.006004261356932628
2.07750e-06	0.006001193421848857
2.07775e-06	0.005998125486765082
2.07800e-06	0.005995057551681307
2.07825e-06	0.005991989616597537
2.07850e-06	0.005988921681513762
2.07875e-06	0.005985853746429986
2.07900e-06	0.005982785811346211
2.07925e-06	0.00597971787626244
2.07950e-06	0.005976649941178665
2.07975e-06	0.00597358200609489
2.08000e-06	0.005970514071011119
2.08025e-06	0.005967446135927344
2.08050e-06	0.0059643782008435686
2.08075e-06	0.005961310265759799
2.08100e-06	0.005958242330676023
2.08125e-06	0.005955174395592248
2.08150e-06	0.005952124815756827
2.08175e-06	0.0059495086117524925
2.08200e-06	0.0059468924077481534
2.08225e-06	0.005944276203743814
2.08250e-06	0.00594165999973948
2.08275e-06	0.005939043795735141
2.08300e-06	0.005936427591730802
2.08325e-06	0.005933811387726463
2.08350e-06	0.005931195183722128
2.08375e-06	0.005928578979717789
2.08400e-06	0.00592596277571345
2.08425e-06	0.005923346571709115
2.08450e-06	0.005920730367704775
2.08475e-06	0.005918114163700436
2.08500e-06	0.005915497959696102
2.08525e-06	0.005912881755691763
2.08550e-06	0.005910265551687424
2.08575e-06	0.005907649347683085
2.08600e-06	0.00590503314367875
2.08625e-06	0.005902416939674411
2.08650e-06	0.005899800735670072
2.08675e-06	0.005897184531665737
2.08700e-06	0.005894568327661398
2.08725e-06	0.005891952123657059
2.08750e-06	0.005889099889042706
2.08775e-06	0.005886047103193364
2.08800e-06	0.005882994317344022
2.08825e-06	0.0058799415314946795
2.08850e-06	0.005876888745645343
2.08875e-06	0.0058738359597960005
2.08900e-06	0.005870783173946658
2.08925e-06	0.0058677303880973215
2.08950e-06	0.005864677602247979
2.08975e-06	0.005861624816398637
2.09000e-06	0.005858572030549295
2.09025e-06	0.005855519244699957
2.09050e-06	0.005852466458850615
2.09075e-06	0.005849413673001273
2.09100e-06	0.005846360887151936
2.09125e-06	0.005843308101302594
2.09150e-06	0.005840255315453252
2.09175e-06	0.005837202529603915
2.09200e-06	0.005834149743754573
2.09225e-06	0.005831096957905231
2.09250e-06	0.005828044172055889
2.09275e-06	0.005824991386206552
2.09300e-06	0.005821938600357209
2.09325e-06	0.005818885814507867
2.09350e-06	0.00581583302865853
2.09375e-06	0.005812780242809188
2.09400e-06	0.005812714609683468
2.09425e-06	0.005815187109928626
2.09450e-06	0.005817659610173781
2.09475e-06	0.00582013211041894
2.09500e-06	0.005822604610664099
2.09525e-06	0.005825077110909254
2.09550e-06	0.005827549611154412
2.09575e-06	0.005830022111399571
2.09600e-06	0.005832494611644726
2.09625e-06	0.0058349671118898844
2.09650e-06	0.005837439612135043
2.09675e-06	0.0058399121123802016
2.09700e-06	0.005842384612625357
2.09725e-06	0.005844857112870515
2.09750e-06	0.005847329613115675
2.09775e-06	0.005849802113360829
2.09800e-06	0.005852274613605987
2.09825e-06	0.005854747113851147
2.09850e-06	0.005857219614096305
2.09875e-06	0.00585969211434146
2.09900e-06	0.005862164614586619
2.09925e-06	0.005864637114831778
2.09950e-06	0.005867109615076932
2.09975e-06	0.005869582115322091
2.10000e-06	0.00587205461556725
2.10025e-06	0.005874527115812404
2.10050e-06	0.0058756293056123525
2.10075e-06	0.005875567165700569
2.10100e-06	0.005875505025788785
2.10125e-06	0.005875442885877001
2.10150e-06	0.005875380745965216
2.10175e-06	0.005875318606053432
2.10200e-06	0.005875256466141648
2.10225e-06	0.0058751943262298646
2.10250e-06	0.005875132186318081
2.10275e-06	0.005875070046406296
2.10300e-06	0.005875007906494512
2.10325e-06	0.005874945766582728
2.10350e-06	0.005874883626670944
2.10375e-06	0.0058748214867591604
2.10400e-06	0.005874759346847376
2.10425e-06	0.005874697206935592
2.10450e-06	0.005874635067023808
2.10475e-06	0.005874572927112024
2.10500e-06	0.005868855278221828
2.10525e-06	0.005858332238581176
2.10550e-06	0.00584780919894054
2.10575e-06	0.005837286159299887
2.10600e-06	0.005826763119659234
2.10625e-06	0.0058162400800186
2.10650e-06	0.005805717040377947
2.10675e-06	0.005795194000737294
2.10700e-06	0.005784670961096641
2.10725e-06	0.005774147921456006
2.10750e-06	0.0057636248818153536
2.10775e-06	0.005753101842174701
2.10800e-06	0.005742578802534066
2.10825e-06	0.005732055762893413
2.10850e-06	0.00572153272325276
2.10875e-06	0.005711009683612125
2.10900e-06	0.005700486643971473
2.10925e-06	0.00568996360433082
2.10950e-06	0.0056791215793759245
2.10975e-06	0.005668008517970663
2.11000e-06	0.005656895456565384
2.11025e-06	0.005645782395160104
2.11050e-06	0.0056346693337548425
2.11075e-06	0.005623556272349562
2.11100e-06	0.005612443210944282
2.11125e-06	0.005601330149539002
2.11150e-06	0.0055902170881337405
2.11175e-06	0.005579104026728461
2.11200e-06	0.005567990965323181
2.11225e-06	0.00555687790391792
2.11250e-06	0.005545764842512639
2.11275e-06	0.005534651781107359
2.11300e-06	0.005523538719702098
2.11325e-06	0.005512425658296818
2.11350e-06	0.005501312596891538
2.11375e-06	0.00548946031780459
2.11400e-06	0.005476979937900593
2.11425e-06	0.005464499557996575
2.11450e-06	0.005452019178092557
2.11475e-06	0.005439538798188561
2.11500e-06	0.0054270584182845435
2.11525e-06	0.005414578038380525
2.11550e-06	0.0054020976584765075
2.11575e-06	0.005389617278572511
2.11600e-06	0.005377136898668493
2.11625e-06	0.005364656518764476
2.11650e-06	0.005352176138860479
2.11675e-06	0.005339695758956461
2.11700e-06	0.005327215379052444
2.11725e-06	0.005314734999148447
2.11750e-06	0.005302254619244429
2.11775e-06	0.005289774239340412
2.11800e-06	0.005277186628667878
2.11825e-06	0.00526450790581692
2.11850e-06	0.0052518291829659405
2.11875e-06	0.005239150460114961
2.11900e-06	0.005226471737264002
2.11925e-06	0.005213793014413023
2.11950e-06	0.005201114291562044
2.11975e-06	0.005188435568711064
2.12000e-06	0.005175756845860106
2.12025e-06	0.005163078123009127
2.12050e-06	0.005150399400158148
2.12075e-06	0.00513772067730719
2.12100e-06	0.00512504195445621
2.12125e-06	0.005112363231605231
2.12150e-06	0.005099684508754272
2.12175e-06	0.005087005785903293
2.12200e-06	0.005074327063052313
2.12225e-06	0.005061648340201334
2.12250e-06	0.005048969617350376
2.12275e-06	0.005036290894499397
2.12300e-06	0.0050291603056353915
2.12325e-06	0.005026743872800233
2.12350e-06	0.005024327439965072
2.12375e-06	0.00502191100712991
2.12400e-06	0.005019494574294747
2.12425e-06	0.005017078141459589
2.12450e-06	0.0050146617086244275
2.12475e-06	0.005012245275789265
2.12500e-06	0.005009828842954108
2.12525e-06	0.005007412410118945
2.12550e-06	0.005004995977283783
2.12575e-06	0.005002579544448625
2.12600e-06	0.005000163111613463
2.12625e-06	0.004997746678778301
2.12650e-06	0.004995330245943138
2.12675e-06	0.004992913813107981
2.12700e-06	0.004990497380272818
2.12725e-06	0.004988080947437657
2.12750e-06	0.0049856645146024985
2.12775e-06	0.004983248081767337
2.12800e-06	0.004983450223869793
2.12825e-06	0.004985877325005047
2.12850e-06	0.0049883044261402965
2.12875e-06	0.00499073152727555
2.12900e-06	0.004993158628410804
2.12925e-06	0.004995585729546053
2.12950e-06	0.004998012830681307
2.12975e-06	0.005000439931816561
2.13000e-06	0.005002867032951811
2.13025e-06	0.005005294134087064
2.13050e-06	0.005007721235222318
2.13075e-06	0.005010148336357572
2.13100e-06	0.0050126920213150825
2.13125e-06	0.0050179883037853095
2.13150e-06	0.005023284586255536
2.13175e-06	0.005028580868725754
2.13200e-06	0.00503387715119598
2.13225e-06	0.005039173433666207
2.13250e-06	0.005044469716136433
2.13275e-06	0.005049765998606652
2.13300e-06	0.005055062281076878
2.13325e-06	0.005060358563547105
2.13350e-06	0.005065654846017322
2.13375e-06	0.005070951128487549
2.13400e-06	0.0050762474109577755
2.13425e-06	0.0050898946268547645
2.13450e-06	0.0051106374902714375
2.13475e-06	0.0051313803536881105
2.13500e-06	0.005152123217104784
2.13525e-06	0.005172866080521422
2.13550e-06	0.005193608943938095
2.13575e-06	0.005214351807354768
2.13600e-06	0.005235094670771406
2.13625e-06	0.005255837534188079
2.13650e-06	0.005276580397604752
2.13675e-06	0.0052973232610214254
2.13700e-06	0.005318066124438064
2.13725e-06	0.0053392125302393475
2.13750e-06	0.005369886756821396
2.13775e-06	0.005400560983403392
2.13800e-06	0.005431235209985441
2.13825e-06	0.005461909436567489
2.13850e-06	0.0054925836631494855
2.13875e-06	0.005523257889731533
2.13900e-06	0.005553932116313581
2.13925e-06	0.00558460634289563
2.13950e-06	0.005615280569477626
2.13975e-06	0.005645954796059675
2.14000e-06	0.005676629022641723
2.14025e-06	0.005707303249223719
2.14050e-06	0.005732313504193327
2.14075e-06	0.005752511177853592
2.14100e-06	0.005772708851513857
2.14125e-06	0.005792906525174088
2.14150e-06	0.005813104198834353
2.14175e-06	0.005833301872494618
2.14200e-06	0.005853499546154849
2.14225e-06	0.005873697219815114
2.14250e-06	0.005893894893475379
2.14275e-06	0.0059140925671356094
2.14300e-06	0.005934290240795875
2.14325e-06	0.0059533302153444495
2.14350e-06	0.005945036382894638
2.14375e-06	0.005936742550444841
2.14400e-06	0.00592844871799503
2.14425e-06	0.005920154885545218
2.14450e-06	0.005911861053095421
2.14475e-06	0.0059035672206456105
2.14500e-06	0.005895273388195799
2.14525e-06	0.005886979555745988
2.14550e-06	0.00587868572329619
2.14575e-06	0.005870391890846379
2.14600e-06	0.0058620980583965684
2.14625e-06	0.0058409129591224795
2.14650e-06	0.005808774367490232
2.14675e-06	0.005776635775857985
2.14700e-06	0.005744497184225793
2.14725e-06	0.005712358592593546
2.14750e-06	0.0056802200009612985
2.14775e-06	0.005648081409329052
2.14800e-06	0.0056159428176968595
2.14825e-06	0.005583804226064613
2.14850e-06	0.005551665634432365
2.14875e-06	0.005516525455009269
2.14900e-06	0.0054788348769807095
2.14925e-06	0.00544114429895215
2.14950e-06	0.005403453720923591
2.14975e-06	0.005365763142895094
2.15000e-06	0.005328072564866535
2.15025e-06	0.005290381986837975
2.15050e-06	0.00525269140880948
