Time(s)	Current(A)
1.37500e-05	0.010935802060144212
1.37503e-05	0.010956396085795827
1.37505e-05	0.01097699011144744
1.37508e-05	0.010997584137098915
1.37510e-05	0.011018178162750528
1.37513e-05	0.011038772188402143
1.37515e-05	0.011059366214053616
1.37518e-05	0.01107948748054708
1.37520e-05	0.011098835906603849
1.37523e-05	0.011118184332660487
1.37525e-05	0.011137532758717256
1.37528e-05	0.011156881184774025
1.37530e-05	0.011176229610830663
1.37533e-05	0.011195578036887432
1.37535e-05	0.011214926462944202
1.37538e-05	0.011234274889000839
1.37540e-05	0.01125362331505761
1.37543e-05	0.011272971741114378
1.37545e-05	0.011292320167171015
1.37548e-05	0.011311668593227785
1.37550e-05	0.011331017019284554
1.37553e-05	0.011345348490447105
1.37555e-05	0.011351478522156268
1.37558e-05	0.011357608553865431
1.37560e-05	0.011363738585574552
1.37563e-05	0.011369868617283715
1.37565e-05	0.011375998648992879
1.37568e-05	0.011382128680702
1.37570e-05	0.011388258712411163
1.37573e-05	0.011394388744120326
1.37575e-05	0.01140051877582949
1.37578e-05	0.01140664880753861
1.37580e-05	0.011412778839247774
1.37583e-05	0.011418908870956937
1.37585e-05	0.011425038902666058
1.37588e-05	0.011425533748421477
1.37590e-05	0.01141681650489393
1.37593e-05	0.01140809926136644
1.37595e-05	0.011399382017838893
1.37598e-05	0.011390664774311344
1.37600e-05	0.011381947530783856
1.37603e-05	0.011373230287256307
1.37605e-05	0.01136451304372876
1.37608e-05	0.01135579580020127
1.37610e-05	0.011347078556673723
1.37613e-05	0.011338361313146174
1.37615e-05	0.011329644069618686
1.37618e-05	0.011320926826091138
1.37620e-05	0.01131220958256359
1.37623e-05	0.011303492339036101
1.37625e-05	0.011291581754045295
1.37628e-05	0.011279233829747042
1.37630e-05	0.011266885905448871
1.37633e-05	0.011254537981150618
1.37635e-05	0.011242190056852364
1.37638e-05	0.011229842132554194
1.37640e-05	0.01121749420825594
1.37643e-05	0.011205146283957686
1.37645e-05	0.011192798359659518
1.37648e-05	0.011180450435361264
1.37650e-05	0.01116810251106301
1.37653e-05	0.01115575458676484
1.37655e-05	0.011143406662466587
1.37658e-05	0.011131058738168333
1.37660e-05	0.01111845425520538
1.37663e-05	0.011105430364374615
1.37665e-05	0.011092406473543764
1.37668e-05	0.011079382582712911
1.37670e-05	0.011066358691882147
1.37673e-05	0.011053334801051294
1.37675e-05	0.011040310910220442
1.37678e-05	0.011027287019389678
1.37680e-05	0.011014263128558825
1.37683e-05	0.011001239237727974
1.37685e-05	0.01098821534689721
1.37688e-05	0.010975191456066357
1.37690e-05	0.010962167565235504
1.37693e-05	0.01094914367440474
1.37695e-05	0.010930519969641514
1.37698e-05	0.010911129350730018
1.37700e-05	0.010891738731818654
1.37703e-05	0.010872348112907158
1.37705e-05	0.010852957493995662
1.37708e-05	0.010833566875084296
1.37710e-05	0.010814176256172802
1.37713e-05	0.010794785637261306
1.37715e-05	0.01077539501834994
1.37718e-05	0.010756004399438445
1.37720e-05	0.01073661378052695
1.37723e-05	0.010717223161615583
1.37725e-05	0.010697832542704087
1.37728e-05	0.010679114080660407
1.37730e-05	0.010661494423364788
1.37733e-05	0.01064387476606905
1.37735e-05	0.01062625510877331
1.37738e-05	0.01060863545147769
1.37740e-05	0.01059101579418195
1.37743e-05	0.010573396136886211
1.37745e-05	0.010555776479590473
1.37748e-05	0.010538156822294852
1.37750e-05	0.010520537164999113
1.37753e-05	0.010502917507703373
1.37755e-05	0.010485297850407754
1.37758e-05	0.010467678193112015
1.37760e-05	0.010450058535816275
1.37763e-05	0.010444577299969716
1.37765e-05	0.010440758463492647
1.37768e-05	0.010436939627015576
1.37770e-05	0.010433120790538533
1.37773e-05	0.010429301954061464
1.37775e-05	0.010425483117584393
1.37778e-05	0.01042166428110735
1.37780e-05	0.01041784544463028
1.37783e-05	0.01041402660815321
1.37785e-05	0.010410207771676167
1.37788e-05	0.010406388935199098
1.37790e-05	0.010402570098722027
1.37793e-05	0.010398751262244984
1.37795e-05	0.010400063382724126
1.37798e-05	0.010409763306907873
1.37800e-05	0.010419463231091556
1.37803e-05	0.010429163155275303
1.37805e-05	0.010438863079459052
1.37808e-05	0.010448563003642735
1.37810e-05	0.010458262927826482
1.37813e-05	0.01046796285201023
1.37815e-05	0.010477662776193912
1.37818e-05	0.01048736270037766
1.37820e-05	0.01049706262456141
1.37823e-05	0.01050676254874509
1.37825e-05	0.01051646247292884
1.37828e-05	0.010526162397112586
1.37830e-05	0.010535853484361939
1.37833e-05	0.010545530125481256
1.37835e-05	0.01055520676660064
1.37838e-05	0.010564883407720022
1.37840e-05	0.010574560048839339
1.37843e-05	0.010584236689958722
1.37845e-05	0.010593913331078104
1.37848e-05	0.010603589972197422
1.37850e-05	0.010613266613316805
1.37853e-05	0.010622943254436187
1.37855e-05	0.010632619895555504
1.37858e-05	0.010642296536674886
1.37860e-05	0.01065197317779427
1.37863e-05	0.010661649818913587
1.37865e-05	0.010664000027774543
1.37868e-05	0.010654373391735882
1.37870e-05	0.010644746755697284
1.37873e-05	0.010635120119658623
1.37875e-05	0.010625493483619962
1.37878e-05	0.010615866847581366
1.37880e-05	0.010606240211542705
1.37883e-05	0.010596613575504042
1.37885e-05	0.010586986939465446
1.37888e-05	0.010577360303426785
1.37890e-05	0.010567733667388123
1.37893e-05	0.010558107031349526
1.37895e-05	0.010530924829172424
1.37898e-05	0.01050133833066829
1.37900e-05	0.010471751832164356
1.37903e-05	0.01044216533366022
1.37905e-05	0.010412578835156087
1.37908e-05	0.010382992336652153
1.37910e-05	0.010353405838148018
1.37913e-05	0.010323819339643884
1.37915e-05	0.010294232841139749
1.37918e-05	0.010264646342635816
1.37920e-05	0.01023505984413168
1.37923e-05	0.01020323685392867
1.37925e-05	0.010167757771202969
1.37928e-05	0.010132278688477027
1.37930e-05	0.010096799605751085
1.37933e-05	0.010061320523025382
1.37935e-05	0.01002584144029944
1.37938e-05	0.009990362357573498
1.37940e-05	0.009954883274847797
1.37943e-05	0.009922371369583075
1.37945e-05	0.009894710041379099
1.37948e-05	0.00986704871317531
1.37950e-05	0.009839387384971334
1.37953e-05	0.009811726056767358
1.37955e-05	0.00978406472856357
1.37958e-05	0.009756403400359593
1.37960e-05	0.009728742072155617
1.37963e-05	0.009706625585742205
1.37965e-05	0.009693573498997216
1.37968e-05	0.009680521412252225
1.37970e-05	0.009667469325507324
1.37973e-05	0.009654417238762335
1.37975e-05	0.009641365152017346
1.37978e-05	0.009628313065272443
1.37980e-05	0.009615260978527454
1.37983e-05	0.009602208891782465
1.37985e-05	0.009589156805037562
1.37988e-05	0.009576104718292573
1.37990e-05	0.009563052631547584
1.37993e-05	0.009550000544802683
1.37995e-05	0.009536948458057692
1.37998e-05	0.009523896371312703
1.38000e-05	0.009510844284567714
1.38003e-05	0.009497792197822812
1.38005e-05	0.009484740111077822
1.38008e-05	0.009471688024332833
1.38010e-05	0.009458635937587933
1.38013e-05	0.009445583850842942
1.38015e-05	0.009432531764097953
1.38018e-05	0.009419479677353052
1.38020e-05	0.009406427590608061
1.38023e-05	0.009393375503863072
1.38025e-05	0.009386706245882712
1.38028e-05	0.009380911138678625
1.38030e-05	0.009375116031474538
1.38033e-05	0.00936932092427049
1.38035e-05	0.009363525817066403
1.38038e-05	0.009357730709862316
1.38040e-05	0.00935193560265827
1.38043e-05	0.009346140495454182
1.38045e-05	0.009340345388250095
1.38048e-05	0.009334550281046048
1.38050e-05	0.009328755173841961
1.38053e-05	0.009322960066637874
1.38055e-05	0.009317164959433825
1.38058e-05	0.00931136985222974
1.38060e-05	0.009305574745025653
1.38063e-05	0.009299779637821604
1.38065e-05	0.009293984530617517
1.38068e-05	0.00928818942341343
1.38070e-05	0.009282394316209383
1.38073e-05	0.009276599209005296
1.38075e-05	0.009270804101801209
1.38078e-05	0.009265008994597161
1.38080e-05	0.009259213887393074
1.38083e-05	0.009253418780188987
1.38085e-05	0.009246813308066794
1.38088e-05	0.009238883096343943
1.38090e-05	0.00923001885600378
1.38093e-05	0.009219627717509761
1.38095e-05	0.009209236579015814
1.38098e-05	0.009198845440521795
1.38100e-05	0.009188454302027776
1.38103e-05	0.009178063163533829
1.38105e-05	0.00916767202503981
1.38108e-05	0.009157280886545792
1.38110e-05	0.009146889748051844
1.38113e-05	0.009136498609557826
1.38115e-05	0.009126107471063807
1.38118e-05	0.00911571633256986
1.38120e-05	0.009105325194075841
1.38123e-05	0.009094934055581825
1.38125e-05	0.009084542917087875
1.38128e-05	0.009074151778593857
1.38130e-05	0.00906376064009984
1.38133e-05	0.00905336950160589
1.38135e-05	0.009042978363111874
1.38138e-05	0.009032587224617855
1.38140e-05	0.009024296978905619
1.38143e-05	0.00901944115613383
1.38145e-05	0.009014585333362038
1.38148e-05	0.00900972951059028
1.38150e-05	0.00900487368781849
1.38153e-05	0.009000017865046698
1.38155e-05	0.00899516204227494
1.38158e-05	0.008990306219503148
1.38160e-05	0.008985450396731359
1.38163e-05	0.0089805945739596
1.38165e-05	0.008975738751187809
1.38168e-05	0.008970882928416019
1.38170e-05	0.00896602710564426
1.38173e-05	0.008961171282872469
1.38175e-05	0.00895631546010068
1.38178e-05	0.008951459637328888
1.38180e-05	0.00894660381455713
1.38183e-05	0.008941747991785338
1.38185e-05	0.008936892169013548
1.38188e-05	0.00893203634624179
1.38190e-05	0.008931646504569487
1.38193e-05	0.008938557400981139
1.38195e-05	0.008945468297392744
1.38198e-05	0.008952379193804396
1.38200e-05	0.008959290090216048
1.38203e-05	0.008966200986627653
1.38205e-05	0.008973111883039306
1.38208e-05	0.008980022779450958
1.38210e-05	0.008986933675862563
1.38213e-05	0.008993844572274215
1.38215e-05	0.009000755468685867
1.38218e-05	0.009007666365097472
1.38220e-05	0.009014577261509123
1.38223e-05	0.009021488157920775
1.38225e-05	0.009029983086475476
1.38228e-05	0.009038694953785857
1.38230e-05	0.00904740682109624
1.38233e-05	0.009056118688406565
1.38235e-05	0.009064830555716948
1.38238e-05	0.00907354242302733
1.38240e-05	0.009082254290337653
1.38243e-05	0.009090966157648036
1.38245e-05	0.009099678024958419
1.38248e-05	0.009108389892268743
1.38250e-05	0.009117101759579126
1.38253e-05	0.009125813626889507
1.38255e-05	0.009134525494199831
1.38258e-05	0.009144387286115318
1.38260e-05	0.009156128910966295
1.38263e-05	0.00916787053581727
1.38265e-05	0.009179612160668166
1.38268e-05	0.009191353785519142
1.38270e-05	0.009203095410370118
1.38273e-05	0.009214837035221014
1.38275e-05	0.00922657866007199
1.38278e-05	0.009238320284922967
1.38280e-05	0.009250061909773863
1.38283e-05	0.009274392230044766
1.38285e-05	0.009300446616290342
1.38288e-05	0.009326501002535742
1.38290e-05	0.00935255538878132
1.38293e-05	0.009378609775026896
1.38295e-05	0.009404664161272296
1.38298e-05	0.009430718547517874
1.38300e-05	0.00945677293376345
1.38303e-05	0.00948282732000885
1.38305e-05	0.009513120902988339
1.38308e-05	0.009550344489558
1.38310e-05	0.00958756807612741
1.38313e-05	0.009624791662697071
1.38315e-05	0.009662015249266733
1.38318e-05	0.009699238835836142
1.38320e-05	0.009736462422405804
1.38323e-05	0.009773686008975466
1.38325e-05	0.009810909595544875
1.38328e-05	0.009848133182114537
1.38330e-05	0.0098853567686842
1.38333e-05	0.009922580355253608
1.38335e-05	0.009953865898812888
1.38338e-05	0.009984338206562304
1.38340e-05	0.010014810514311514
1.38343e-05	0.01004528282206093
1.38345e-05	0.010075755129810347
1.38348e-05	0.010106227437559763
1.38350e-05	0.010136699745308973
1.38353e-05	0.01016717205305839
1.38355e-05	0.010197644360807806
1.38358e-05	0.010228116668557016
1.38360e-05	0.010258588976306432
1.38363e-05	0.010282308687073709
1.38365e-05	0.01029498962698973
1.38368e-05	0.010307670566905838
1.38370e-05	0.010320351506821944
1.38373e-05	0.010333032446737967
1.38375e-05	0.010345713386654073
1.38378e-05	0.01035839432657018
1.38380e-05	0.010371075266486202
1.38383e-05	0.01038375620640231
1.38385e-05	0.010396437146318417
1.38388e-05	0.010409118086234438
1.38390e-05	0.010421799026150546
1.38393e-05	0.010434479966066654
1.38395e-05	0.010447160905982675
1.38398e-05	0.010459841845898783
1.38400e-05	0.01047252278581489
1.38403e-05	0.010485203725730911
1.38405e-05	0.01049788466564702
1.38408e-05	0.010506960155971919
1.38410e-05	0.01051014165736707
1.38413e-05	0.010513323158762241
1.38415e-05	0.010516504660157414
1.38418e-05	0.010519686161552565
1.38420e-05	0.010522867662947738
1.38423e-05	0.01052604916434291
1.38425e-05	0.01052923066573806
1.38428e-05	0.010532412167133234
1.38430e-05	0.010535593668528406
1.38433e-05	0.010538775169923579
1.38435e-05	0.01054195667131873
1.38438e-05	0.010545138172713903
1.38440e-05	0.010548319674109075
1.38443e-05	0.010551501175504225
1.38445e-05	0.010554682676899399
1.38448e-05	0.010557864178294572
1.38450e-05	0.010561045679689723
1.38453e-05	0.010562982717248948
1.38455e-05	0.01056288537438259
1.38458e-05	0.010562788031516232
1.38460e-05	0.010562690688649875
1.38463e-05	0.01055471920999097
1.38465e-05	0.010546533659296396
1.38468e-05	0.010538348108601764
1.38470e-05	0.010528560829073648
1.38473e-05	0.007309019375231827
1.38475e-05	0.0014538723031968623
1.38478e-05	-0.0001911042981705618
1.38480e-05	0.0011581466176981844
1.38483e-05	0.004081887411250707
1.38485e-05	0.008002594841514056
1.38488e-05	0.010193898534159756
1.38490e-05	0.010015388981683597
1.38493e-05	0.008066384389607701
1.38495e-05	0.005016472503972674
1.38498e-05	0.003398963958424822
1.38500e-05	0.004060623330713095
1.38503e-05	0.005983438254277249
1.38505e-05	0.00823181188785314
1.38508e-05	0.009712416092540985
1.38510e-05	0.009703446470348858
1.38513e-05	0.008493987871920836
1.38515e-05	0.0073432067116216415
1.38518e-05	0.006077259876581772
1.38520e-05	0.006362675125266302
1.38523e-05	0.007593973420701119
1.38525e-05	0.00887910458059212
1.38528e-05	0.009787769680418697
1.38530e-05	0.009672610202279124
1.38533e-05	0.008839384894965108
1.38535e-05	0.007824385114281239
1.38538e-05	0.0070950574794889755
1.38540e-05	0.007280470271416032
1.38543e-05	0.008028311150763403
1.38545e-05	0.008812383548085377
1.38548e-05	0.009363348572577692
1.38550e-05	0.00927593262775644
1.38553e-05	0.008741903637551025
1.38555e-05	0.008097401445797972
1.38558e-05	0.007635309671659082
1.38560e-05	0.007749375892924883
1.38563e-05	0.008218363242325163
1.38565e-05	0.008712319436461289
1.38568e-05	0.009062398041297336
1.38570e-05	0.009014636109127613
1.38573e-05	0.008689061868756976
1.38575e-05	0.008296123021048638
1.38578e-05	0.008019154674389113
1.38580e-05	0.008104651506461355
1.38583e-05	0.008413879395659065
1.38585e-05	0.008740020143684912
1.38588e-05	0.008977184935595116
1.38590e-05	0.00896618171891976
1.38593e-05	0.00878208899575706
1.38595e-05	0.00855661609426747
1.38598e-05	0.008404475659056899
1.38600e-05	0.008479931356905944
1.38603e-05	0.00869593772979414
1.38605e-05	0.008922810053564222
1.38608e-05	0.009094096599854079
1.38610e-05	0.009109963825572895
1.38613e-05	0.009017326788953901
1.38615e-05	0.008898566746797568
1.38618e-05	0.008825411360910787
1.38620e-05	0.00889435885031599
1.38623e-05	0.009050745464926558
1.38625e-05	0.009213207501019713
1.38628e-05	0.009339993640181113
1.38630e-05	0.009368449608335393
1.38633e-05	0.009327841754208923
1.38635e-05	0.009269653135298884
1.38638e-05	0.00923868684897606
1.38640e-05	0.009295256971040215
1.38643e-05	0.00940498968500936
1.38645e-05	0.009516789703813694
1.38648e-05	0.009604378940922002
1.38650e-05	0.009628387817570324
1.38653e-05	0.00960702887345137
1.38655e-05	0.009572429937907755
1.38658e-05	0.009552601029890178
1.38660e-05	0.009585478572763807
1.38663e-05	0.009649845487551274
1.38665e-05	0.009713906179714092
1.38668e-05	0.009761296090109403
1.38670e-05	0.009767444544632069
1.38673e-05	0.009743851009744937
1.38675e-05	0.009712383054616433
1.38678e-05	0.009700652581127824
1.38680e-05	0.009692652204429964
1.38683e-05	0.009718339903483607
1.38685e-05	0.00974159265224603
1.38688e-05	0.009744064382359068
1.38690e-05	0.009743133101556731
1.38693e-05	0.009710702827183188
1.38695e-05	0.00967278885841877
1.38698e-05	0.009646665725862182
1.38700e-05	0.0096228329368624
1.38703e-05	0.009618697825051656
1.38705e-05	0.009605558415728183
1.38708e-05	0.00959241900640462
1.38710e-05	0.009576670365289284
1.38713e-05	0.009537464308798023
1.38715e-05	0.009499325407603999
1.38718e-05	0.009461186506409976
1.38720e-05	0.009424827514149954
1.38723e-05	0.009403666991487421
1.38725e-05	0.00937452125151483
1.38728e-05	0.009345375511542436
1.38730e-05	0.009316229771569845
1.38733e-05	0.009286554866137586
1.38735e-05	0.00925209872484477
1.38738e-05	0.00921764258355172
1.38740e-05	0.009183186442258672
1.38743e-05	0.009149496440119084
1.38745e-05	0.009122728832340773
1.38748e-05	0.009095961224562462
1.38750e-05	0.009069193616784332
1.38753e-05	0.009042664838769294
1.38755e-05	0.009018293989636756
1.38758e-05	0.008993923140504383
1.38760e-05	0.008969552291371845
1.38763e-05	0.008945947418986334
1.38765e-05	0.008929263473554142
1.38768e-05	0.008912579528121837
1.38770e-05	0.008895895582689531
1.38773e-05	0.008879582709405722
1.38775e-05	0.008866622631418034
1.38778e-05	0.008853662553430256
1.38780e-05	0.00884070247544248
1.38783e-05	0.008827742397454789
1.38785e-05	0.008817993491895621
1.38788e-05	0.008810388518711871
1.38790e-05	0.008802783545528173
1.38793e-05	0.008795178572344424
1.38795e-05	0.008788165348134844
1.38798e-05	0.0087864988285631
1.38800e-05	0.008784832308991344
1.38803e-05	0.00878316578941959
1.38805e-05	0.008781499269847844
1.38808e-05	0.008779832750276089
1.38810e-05	0.008778166230704333
1.38813e-05	0.008776499711132589
1.38815e-05	0.008774833191560832
1.38818e-05	0.008775376681339056
1.38820e-05	0.00877739567911345
1.38823e-05	0.008779414676887858
1.38825e-05	0.008781433674662265
1.38828e-05	0.00878345267243666
1.38830e-05	0.008785471670211068
1.38833e-05	0.008787490667985476
1.38835e-05	0.00878950966575987
1.38838e-05	0.008791594539615134
1.38840e-05	0.00879427463198781
1.38843e-05	0.00879695472436047
1.38845e-05	0.008799634816733149
1.38848e-05	0.008802314909105826
1.38850e-05	0.008804995001478485
1.38853e-05	0.008807675093851162
1.38855e-05	0.00881035518622384
1.38858e-05	0.008813035278596518
1.38860e-05	0.008815715370969177
1.38863e-05	0.008818395463341854
1.38865e-05	0.008822292631208768
1.38868e-05	0.008837186595818993
1.38870e-05	0.00885208056042932
1.38873e-05	0.008866974525039645
1.38875e-05	0.008881868489649869
1.38878e-05	0.008896762454260194
1.38880e-05	0.00891165641887052
1.38883e-05	0.008926550383480746
1.38885e-05	0.008941444348091071
1.38888e-05	0.008956338312701397
1.38890e-05	0.008971232277311622
1.38893e-05	0.008988066551831032
1.38895e-05	0.009022432354834343
1.38898e-05	0.00905679815783742
1.38900e-05	0.009091163960840731
1.38903e-05	0.009125529763844042
1.38905e-05	0.00915989556684712
1.38908e-05	0.009194261369850432
1.38910e-05	0.009228627172853743
1.38913e-05	0.009262992975856822
1.38915e-05	0.009297358778860133
1.38918e-05	0.009331724581863444
1.38920e-05	0.009366090384866523
1.38923e-05	0.009400456187869834
1.38925e-05	0.0094355591643697
1.38928e-05	0.009471154313171262
1.38930e-05	0.009506749461973066
1.38933e-05	0.00954234461077487
1.38935e-05	0.009577939759576432
1.38938e-05	0.009613534908378235
1.38940e-05	0.009649130057180039
1.38943e-05	0.009684725205981843
1.38945e-05	0.009720320354783405
1.38948e-05	0.009755915503585209
1.38950e-05	0.009791510652387012
1.38953e-05	0.009827105801188575
1.38955e-05	0.009860140231223514
1.38958e-05	0.009870037473834173
1.38960e-05	0.009879934716444766
1.38963e-05	0.009889831959055424
1.38965e-05	0.009899729201666083
1.38968e-05	0.009909626444276676
1.38970e-05	0.009919523686887333
1.38973e-05	0.009929420929497992
1.38975e-05	0.009939318172108585
1.38978e-05	0.009949215414719242
1.38980e-05	0.009959112657329901
1.38983e-05	0.009969009899940495
1.38985e-05	0.009976066412476432
1.38988e-05	0.009957455715857655
1.38990e-05	0.009938845019239004
1.38993e-05	0.009920234322620227
1.38995e-05	0.009901623626001452
1.38998e-05	0.0098830129293828
1.39000e-05	0.009864402232764025
1.39003e-05	0.009845791536145248
1.39005e-05	0.009827180839526597
1.39008e-05	0.00980857014290782
1.39010e-05	0.009789959446289043
1.39013e-05	0.009771348749670393
1.39015e-05	0.009751473572983385
1.39018e-05	0.00972017327897285
1.39020e-05	0.009688872984962526
