Time(s)	Current(A)
1.50000e-06	0.010346271939106118
1.50025e-06	0.010336459664158347
1.50050e-06	0.010326647389210585
1.50075e-06	0.010316835114262821
1.50100e-06	0.01030702283931505
1.50125e-06	0.010297210564367288
1.50150e-06	0.010287398289419518
1.50175e-06	0.010277586014471755
1.50200e-06	0.010267773739523985
1.50225e-06	0.010257961464576222
1.50250e-06	0.01024814918962846
1.50275e-06	0.01023833691468069
1.50300e-06	0.010228524639732926
1.50325e-06	0.010218712364785157
1.50350e-06	0.010208900089837393
1.50375e-06	0.01019908781488963
1.50400e-06	0.01018927553994186
1.50425e-06	0.010182296019065753
1.50450e-06	0.010177600800958277
1.50475e-06	0.010172905582850805
1.50500e-06	0.010168210364743333
1.50525e-06	0.010163515146635858
1.50550e-06	0.010158819928528386
1.50575e-06	0.01015412471042091
1.50600e-06	0.010149429492313438
1.50625e-06	0.010144734274205962
1.50650e-06	0.01014003905609849
1.50675e-06	0.010135343837991018
1.50700e-06	0.010130648619883543
1.50725e-06	0.01012595340177607
1.50750e-06	0.010121258183668595
1.50775e-06	0.010116562965561123
1.50800e-06	0.010111867747453651
1.50825e-06	0.010107172529346176
1.50850e-06	0.010102477311238704
1.50875e-06	0.010097782093131228
1.50900e-06	0.010093086875023758
1.50925e-06	0.010088391656916286
1.50950e-06	0.01008369643880881
1.50975e-06	0.010079001220701338
1.51000e-06	0.010074306002593863
1.51025e-06	0.01006961078448639
1.51050e-06	0.010064915566378915
1.51075e-06	0.010060220348271443
1.51100e-06	0.01005552513016397
1.51125e-06	0.010050829912056495
1.51150e-06	0.010046134693949023
1.51175e-06	0.010041439475841548
1.51200e-06	0.010036744257734076
1.51225e-06	0.010032049039626604
1.51250e-06	0.010027353821519128
1.51275e-06	0.010022658603411656
1.51300e-06	0.01001796338530418
1.51325e-06	0.010013490798817314
1.51350e-06	0.010012949891769115
1.51375e-06	0.010012408984720915
1.51400e-06	0.010011868077672716
1.51425e-06	0.010011327170624517
1.51450e-06	0.010010786263576316
1.51475e-06	0.010010245356528117
1.51500e-06	0.010009704449479918
1.51525e-06	0.010009163542431719
1.51550e-06	0.010008622635383518
1.51575e-06	0.01000808172833532
1.51600e-06	0.01000754082128712
1.51625e-06	0.01000699991423892
1.51650e-06	0.01000645900719072
1.51675e-06	0.010005918100142522
1.51700e-06	0.010005377193094323
1.51725e-06	0.010004836286046122
1.51750e-06	0.010004295378997923
1.51775e-06	0.010003754471949724
1.51800e-06	0.010003213564901524
1.51825e-06	0.010002672657853325
1.51850e-06	0.010002131750805126
1.51875e-06	0.010001590843756927
1.51900e-06	0.010001049936708726
1.51925e-06	0.010000509029660527
1.51950e-06	0.009999968122612328
1.51975e-06	0.009999427215564127
1.52000e-06	0.009998886308515928
1.52025e-06	0.00999834540146773
1.52050e-06	0.00999780449441953
1.52075e-06	0.00999726358737133
1.52100e-06	0.00999672268032313
1.52125e-06	0.009996181773274932
1.52150e-06	0.009995640866226731
1.52175e-06	0.009995099959178532
1.52200e-06	0.009994559052130333
1.52225e-06	0.009994018145082134
1.52250e-06	0.009997131749939867
1.52275e-06	0.010003192314347467
1.52300e-06	0.010009252878755065
1.52325e-06	0.010015313443162666
1.52350e-06	0.010021374007570262
1.52375e-06	0.010027434571977857
1.52400e-06	0.010033495136385458
1.52425e-06	0.010039555700793054
1.52450e-06	0.010045616265200657
1.52475e-06	0.010051676829608253
1.52500e-06	0.010057737394015848
1.52525e-06	0.01006379795842345
1.52550e-06	0.010069858522831045
1.52575e-06	0.010076365253469464
1.52600e-06	0.010090751289799263
1.52625e-06	0.010105137326129061
1.52650e-06	0.010119523362458872
1.52675e-06	0.01013390939878867
1.52700e-06	0.010148295435118483
1.52725e-06	0.010162681471448281
1.52750e-06	0.010177067507778092
1.52775e-06	0.01019145354410789
1.52800e-06	0.010205839580437689
1.52825e-06	0.010220225616767501
1.52850e-06	0.0102346116530973
1.52875e-06	0.01024899768942711
1.52900e-06	0.010263383725756909
1.52925e-06	0.010278545754228355
1.52950e-06	0.010292393137356252
1.52975e-06	0.010304675804845138
1.53000e-06	0.010316958472334036
1.53025e-06	0.010329241139822922
1.53050e-06	0.01034152380731181
1.53075e-06	0.010353806474800708
1.53100e-06	0.010366089142289594
1.53125e-06	0.010378371809778492
1.53150e-06	0.010390654477267378
1.53175e-06	0.010402937144756276
1.53200e-06	0.010415219812245163
1.53225e-06	0.01042750247973405
1.53250e-06	0.010439785147222947
1.53275e-06	0.010452067814711835
1.53300e-06	0.010464476561859936
1.53325e-06	0.010479111878630588
1.53350e-06	0.010493747195401242
1.53375e-06	0.010508382512171906
1.53400e-06	0.01052301782894256
1.53425e-06	0.010537653145713224
1.53450e-06	0.010552288462483876
1.53475e-06	0.01056692377925453
1.53500e-06	0.010581559096025194
1.53525e-06	0.010596194412795848
1.53550e-06	0.010610829729566512
1.53575e-06	0.010625465046337164
1.53600e-06	0.01064010036310783
1.53625e-06	0.010654735679878482
1.53650e-06	0.010669370996649136
1.53675e-06	0.010687130470562467
1.53700e-06	0.01070740923158254
1.53725e-06	0.010727687992602632
1.53750e-06	0.010747966753622705
1.53775e-06	0.010768245514642779
1.53800e-06	0.010788524275662868
1.53825e-06	0.010808803036682942
1.53850e-06	0.010829081797703033
1.53875e-06	0.010849360558723107
1.53900e-06	0.01086963931974318
1.53925e-06	0.010889918080763271
1.53950e-06	0.010910196841783345
1.53975e-06	0.010930475602803436
1.54000e-06	0.010947088136075492
1.54025e-06	0.010960744262267475
1.54050e-06	0.01097440038845947
1.54075e-06	0.010988056514651453
1.54100e-06	0.011001712640843446
1.54125e-06	0.01101536876703543
1.54150e-06	0.011029024893227424
1.54175e-06	0.011042681019419407
1.54200e-06	0.011056337145611389
1.54225e-06	0.011069993271803384
1.54250e-06	0.011083649397995367
1.54275e-06	0.011097305524187362
1.54300e-06	0.011110961650379343
1.54325e-06	0.011118443988327198
1.54350e-06	0.011120947849069054
1.54375e-06	0.011123451709810907
1.54400e-06	0.011125955570552763
1.54425e-06	0.011128459431294617
1.54450e-06	0.01113096329203647
1.54475e-06	0.011133467152778328
1.54500e-06	0.011135971013520181
1.54525e-06	0.011138474874262037
1.54550e-06	0.01114097873500389
1.54575e-06	0.011143482595745746
1.54600e-06	0.0111459864564876
1.54625e-06	0.011148490317229453
1.54650e-06	0.011150994177971309
1.54675e-06	0.011153498038713162
1.54700e-06	0.011156001899455018
1.54725e-06	0.011158505760196872
1.54750e-06	0.011161009620938725
1.54775e-06	0.011160670392208282
1.54800e-06	0.011158038526352563
1.54825e-06	0.01115540666049684
1.54850e-06	0.01115277479464112
1.54875e-06	0.0111501429287854
1.54900e-06	0.011147511062929676
1.54925e-06	0.011144879197073956
1.54950e-06	0.011142247331218234
1.54975e-06	0.011139615465362513
1.55000e-06	0.011136983599506791
1.55025e-06	0.011134351733651071
1.55050e-06	0.01113171986779535
1.55075e-06	0.011129088001939628
1.55100e-06	0.011126456136083908
1.55125e-06	0.011123824270228184
1.55150e-06	0.011121192404372465
1.55175e-06	0.011118560538516745
1.55200e-06	0.011115928672661021
1.55225e-06	0.011109608638632673
1.55250e-06	0.01110031450499929
1.55275e-06	0.011091020371365915
1.55300e-06	0.01108172623773254
1.55325e-06	0.011072432104099156
1.55350e-06	0.011063137970465781
1.55375e-06	0.0110538438368324
1.55400e-06	0.011044549703199024
1.55425e-06	0.01103525556956564
1.55450e-06	0.011025961435932265
1.55475e-06	0.01101666730229889
1.55500e-06	0.011007373168665506
1.55525e-06	0.01099807903503213
1.55550e-06	0.010988784901398749
1.55575e-06	0.010974265783745274
1.55600e-06	0.01095553329452554
1.55625e-06	0.01093680080530579
1.55650e-06	0.010918068316086056
1.55675e-06	0.010899335826866308
1.55700e-06	0.010880603337646573
1.55725e-06	0.01086187084842684
1.55750e-06	0.01084313835920709
1.55775e-06	0.010824405869987357
1.55800e-06	0.010805673380767607
1.55825e-06	0.010786940891547874
1.55850e-06	0.010768208402328124
1.55875e-06	0.01074947591310839
1.55900e-06	0.010730743423888656
1.55925e-06	0.010712014212229523
1.55950e-06	0.010693287643560442
1.55975e-06	0.010674561074891346
1.56000e-06	0.010655834506222265
1.56025e-06	0.010637107937553184
1.56050e-06	0.010618381368884088
1.56075e-06	0.010599654800215007
1.56100e-06	0.01058092823154591
1.56125e-06	0.010564138471035265
1.56150e-06	0.01054891053203305
1.56175e-06	0.01053368259303082
1.56200e-06	0.010518454654028604
1.56225e-06	0.010503226715026376
1.56250e-06	0.01048799877602416
1.56275e-06	0.01047277083702193
1.56300e-06	0.010457542898019714
1.56325e-06	0.01043928575435298
1.56350e-06	0.010418585892248767
1.56375e-06	0.010397886030144571
1.56400e-06	0.010377186168040358
1.56425e-06	0.010356486305936162
1.56450e-06	0.010335786443831966
1.56475e-06	0.010315086581727752
1.56500e-06	0.010294386719623556
1.56525e-06	0.010273686857519343
1.56550e-06	0.010252986995415148
1.56575e-06	0.010232287133310952
1.56600e-06	0.010211587271206739
1.56625e-06	0.010190887409102543
1.56650e-06	0.01016647725773077
1.56675e-06	0.010139075168538451
1.56700e-06	0.010111673079346111
1.56725e-06	0.010084270990153795
1.56750e-06	0.010056868900961477
1.56775e-06	0.010029466811769137
1.56800e-06	0.010002064722576821
1.56825e-06	0.00997466263338448
1.56850e-06	0.009947260544192163
1.56875e-06	0.009919858454999845
1.56900e-06	0.009892456365807505
1.56925e-06	0.009865054276615189
1.56950e-06	0.009837652187422849
1.56975e-06	0.00981614957235039
1.57000e-06	0.00979940423048966
1.57025e-06	0.009782658888628917
1.57050e-06	0.009765913546768187
1.57075e-06	0.009749168204907442
1.57100e-06	0.009732422863046713
1.57125e-06	0.00971567752118597
1.57150e-06	0.009698932179325239
1.57175e-06	0.00968218683746451
1.57200e-06	0.009665441495603767
1.57225e-06	0.009648696153743036
1.57250e-06	0.009631950811882293
1.57275e-06	0.009615205470021563
1.57300e-06	0.009598460128160832
1.57325e-06	0.009581714786300089
1.57350e-06	0.00956496944443936
1.57375e-06	0.009548224102578615
1.57400e-06	0.009531478760717886
1.57425e-06	0.009514733418857156
1.57450e-06	0.009497988076996412
1.57475e-06	0.009481242735135682
1.57500e-06	0.00946449739327494
1.57525e-06	0.009447752051414208
1.57550e-06	0.009437829847821681
1.57575e-06	0.009433409750390266
1.57600e-06	0.009428989652958854
1.57625e-06	0.00942456955552744
1.57650e-06	0.009420149458096029
1.57675e-06	0.009415729360664614
1.57700e-06	0.009411309263233204
1.57725e-06	0.009406889165801792
1.57750e-06	0.009402469068370377
1.57775e-06	0.009398048970938967
1.57800e-06	0.009393628873507552
1.57825e-06	0.009389208776076142
1.57850e-06	0.00938478867864473
1.57875e-06	0.009380368581213315
1.57900e-06	0.009375948483781905
1.57925e-06	0.00937152838635049
1.57950e-06	0.009367108288919079
1.57975e-06	0.009362688191487669
1.58000e-06	0.009358268094056254
1.58025e-06	0.009353847996624844
1.58050e-06	0.009349427899193428
1.58075e-06	0.009345007801762017
1.58100e-06	0.009340587704330603
1.58125e-06	0.009339519186693542
1.58150e-06	0.009341153347371135
1.58175e-06	0.009342787508048728
1.58200e-06	0.00934442166872632
1.58225e-06	0.009346055829403913
1.58250e-06	0.009347689990081506
1.58275e-06	0.009349324150759097
1.58300e-06	0.00935095831143669
1.58325e-06	0.009352592472114282
1.58350e-06	0.009363653969185794
1.58375e-06	0.009382317570100801
1.58400e-06	0.00940098117101581
1.58425e-06	0.009419644771930833
1.58450e-06	0.009438308372845842
1.58475e-06	0.009456971973760865
1.58500e-06	0.009475635574675874
1.58525e-06	0.009494299175590897
1.58550e-06	0.009512962776505906
1.58575e-06	0.009541622030959445
1.58600e-06	0.009578341674159913
1.58625e-06	0.00961506131736035
1.58650e-06	0.009651780960560819
1.58675e-06	0.009688500603761255
1.58700e-06	0.009725220246961692
1.58725e-06	0.00976193989016216
1.58750e-06	0.009798659533362598
1.58775e-06	0.009835379176563066
1.58800e-06	0.009872098819763503
1.58825e-06	0.009908818462963941
1.58850e-06	0.00994553810616441
1.58875e-06	0.009982508359996927
1.58900e-06	0.010019680703578875
1.58925e-06	0.01005685304716079
1.58950e-06	0.010094025390742736
1.58975e-06	0.010131197734324651
1.59000e-06	0.010168370077906566
1.59025e-06	0.010205542421488512
1.59050e-06	0.010242714765070427
1.59075e-06	0.010279887108652373
1.59100e-06	0.010317059452234288
1.59125e-06	0.010354231795816203
1.59150e-06	0.01039140413939815
1.59175e-06	0.010418071277319516
1.59200e-06	0.010436267129080282
1.59225e-06	0.010454462980841035
1.59250e-06	0.010472658832601787
1.59275e-06	0.010490854684362554
1.59300e-06	0.010509050536123306
1.59325e-06	0.010527246387884074
1.59350e-06	0.010545442239644825
1.59375e-06	0.010563638091405593
1.59400e-06	0.010581833943166346
1.59425e-06	0.010600029794927097
1.59450e-06	0.010618225646687865
1.59475e-06	0.010636421498448618
1.59500e-06	0.010654617350209384
1.59525e-06	0.010672813201970137
1.59550e-06	0.010691009053730889
1.59575e-06	0.010709204905491656
1.59600e-06	0.010722204162149083
1.59625e-06	0.01073101293976189
1.59650e-06	0.010739821717374688
1.59675e-06	0.010748630494987485
1.59700e-06	0.010757439272600292
1.59725e-06	0.01076624805021309
1.59750e-06	0.010775056827825896
1.59775e-06	0.010783865605438694
1.59800e-06	0.0107926743830515
1.59825e-06	0.010801483160664298
1.59850e-06	0.010810291938277096
1.59875e-06	0.010819100715889903
1.59900e-06	0.0108279094935027
1.59925e-06	0.010836718271115507
1.59950e-06	0.010845527048728305
1.59975e-06	0.010854335826341103
1.60000e-06	0.01086314460395391
1.60025e-06	0.010867561851706276
1.60050e-06	0.010868437816467057
1.60075e-06	0.010869313781227838
1.60100e-06	0.010870189745988617
1.60125e-06	0.0108710657107494
1.60150e-06	0.010871941675510179
1.60175e-06	0.01087281764027096
1.60200e-06	0.01087369360503174
1.60225e-06	0.010874569569792521
1.60250e-06	0.010875445534553302
1.60275e-06	0.010876321499314083
1.60300e-06	0.010877197464074864
1.60325e-06	0.010878073428835644
1.60350e-06	0.010878949393596425
1.60375e-06	0.010879825358357204
1.60400e-06	0.010880701323117985
1.60425e-06	0.010881577287878766
1.60450e-06	0.010882453252639547
1.60475e-06	0.010883329217400328
1.60500e-06	0.010884205182161108
1.60525e-06	0.01088508114692189
1.60550e-06	0.01088595711168267
1.60575e-06	0.010886833076443449
1.60600e-06	0.010887709041204232
1.60625e-06	0.01088858500596501
1.60650e-06	0.010886247373361786
1.60675e-06	0.01088131833000918
1.60700e-06	0.010876389286656577
1.60725e-06	0.01087146024330397
1.60750e-06	0.010866531199951365
1.60775e-06	0.010861602156598758
1.60800e-06	0.010856673113246153
1.60825e-06	0.01085174406989355
1.60850e-06	0.010846815026540942
1.60875e-06	0.010841885983188337
1.60900e-06	0.01083695693983573
1.60925e-06	0.010832027896483125
1.60950e-06	0.010827098853130521
1.60975e-06	0.010822169809777914
1.61000e-06	0.01081724076642531
1.61025e-06	0.010812311723072702
1.61050e-06	0.010807382679720097
1.61075e-06	0.01080245363636749
1.61100e-06	0.010797524593014887
1.61125e-06	0.010792595549662281
1.61150e-06	0.010787666506309674
1.61175e-06	0.010782737462957069
1.61200e-06	0.010777808419604462
1.61225e-06	0.010772879376251857
1.61250e-06	0.010767950332899253
1.61275e-06	0.010759758615218759
1.61300e-06	0.010748935911647063
1.61325e-06	0.010738113208075358
1.61350e-06	0.010727290504503662
1.61375e-06	0.010716467800931965
1.61400e-06	0.01070564509736026
1.61425e-06	0.010694822393788564
1.61450e-06	0.010683999690216859
1.61475e-06	0.010673176986645163
1.61500e-06	0.010662354283073466
1.61525e-06	0.010651531579501761
1.61550e-06	0.010640708875930065
1.61575e-06	0.01062988617235836
1.61600e-06	0.010619063468786664
1.61625e-06	0.010608240765214959
1.61650e-06	0.010597418061643262
1.61675e-06	0.010586595358071566
1.61700e-06	0.010575772654499861
1.61725e-06	0.010564949950928165
1.61750e-06	0.010552267608693778
1.61775e-06	0.010538085673612422
1.61800e-06	0.010523903738531066
1.61825e-06	0.010509721803449697
1.61850e-06	0.01049553986836834
1.61875e-06	0.010481357933286972
1.61900e-06	0.010467175998205616
1.61925e-06	0.01045299406312426
1.61950e-06	0.010438812128042891
1.61975e-06	0.010424630192961535
1.62000e-06	0.010410448257880166
1.62025e-06	0.01039626632279881
1.62050e-06	0.010382084387717441
1.62075e-06	0.010367902452636085
1.62100e-06	0.010353720517554729
1.62125e-06	0.01033953858247336
1.62150e-06	0.010325356647392004
1.62175e-06	0.010311174712310635
1.62200e-06	0.010296992777229279
1.62225e-06	0.010281854383517149
1.62250e-06	0.010265944711733688
1.62275e-06	0.01025003503995024
1.62300e-06	0.010234125368166778
1.62325e-06	0.01021821569638333
1.62350e-06	0.010202306024599882
1.62375e-06	0.010186396352816422
1.62400e-06	0.010170486681032974
1.62425e-06	0.010154577009249512
1.62450e-06	0.010138667337466064
1.62475e-06	0.010122757665682604
1.62500e-06	0.010106847993899156
1.62525e-06	0.010090439728745073
1.62550e-06	0.010065226293452807
1.62575e-06	0.010040012858160564
1.62600e-06	0.0100147994228683
1.62625e-06	0.009989585987576056
1.62650e-06	0.009964372552283813
1.62675e-06	0.00993915911699155
1.62700e-06	0.009913945681699307
1.62725e-06	0.009888732246407041
1.62750e-06	0.009863518811114799
1.62775e-06	0.009838305375822556
1.62800e-06	0.00981309194053029
1.62825e-06	0.009787878505238047
1.62850e-06	0.009762311759222717
1.62875e-06	0.00973646010719654
1.62900e-06	0.009710608455170341
1.62925e-06	0.009684756803144165
1.62950e-06	0.009658905151117989
1.62975e-06	0.009633053499091791
1.63000e-06	0.009607201847065615
1.63025e-06	0.009581350195039416
1.63050e-06	0.00955549854301324
1.63075e-06	0.009529646890987063
1.63100e-06	0.009503795238960866
1.63125e-06	0.00948337995855017
1.63150e-06	0.00946734851041348
1.63175e-06	0.009451317062276803
1.63200e-06	0.009435285614140127
1.63225e-06	0.009419254166003437
1.63250e-06	0.00940322271786676
1.63275e-06	0.009387191269730071
1.63300e-06	0.009371159821593394
1.63325e-06	0.009355128373456704
1.63350e-06	0.009339096925320027
1.63375e-06	0.00932306547718335
1.63400e-06	0.009313067121751232
1.63425e-06	0.009307933788135273
1.63450e-06	0.009302800454519311
1.63475e-06	0.009297667120903352
1.63500e-06	0.009292533787287394
1.63525e-06	0.00928740045367143
1.63550e-06	0.009282267120055471
1.63575e-06	0.009277133786439509
1.63600e-06	0.00927200045282355
1.63625e-06	0.009266867119207592
1.63650e-06	0.009261733785591628
1.63675e-06	0.009256600451975669
1.63700e-06	0.009251467118359707
1.63725e-06	0.009246333784743748
1.63750e-06	0.009241200451127784
1.63775e-06	0.009236067117511826
1.63800e-06	0.009230933783895867
1.63825e-06	0.009225800450279905
1.63850e-06	0.009220667116663946
1.63875e-06	0.009215533783047982
1.63900e-06	0.009210400449432023
1.63925e-06	0.009205267115816065
1.63950e-06	0.009200133782200103
1.63975e-06	0.009195000448584144
1.64000e-06	0.0091908931878494
1.64025e-06	0.009187613341377356
1.64050e-06	0.00918433349490531
1.64075e-06	0.009181053648433263
1.64100e-06	0.009177773801961218
1.64125e-06	0.009174493955489171
1.64150e-06	0.009171214109017126
1.64175e-06	0.009167934262545079
1.64200e-06	0.009164654416073033
1.64225e-06	0.00916137456960099
1.64250e-06	0.00915809472312894
1.64275e-06	0.009154814876656897
1.64300e-06	0.009151535030184848
1.64325e-06	0.009148255183712805
1.64350e-06	0.00914497533724076
1.64375e-06	0.009141695490768712
1.64400e-06	0.009138415644296667
1.64425e-06	0.00913513579782462
1.64450e-06	0.009131855951352574
1.64475e-06	0.009128576104880529
1.64500e-06	0.009125296258408482
1.64525e-06	0.009122016411936438
1.64550e-06	0.00911873656546439
1.64575e-06	0.009115456718992346
1.64600e-06	0.009109722921763428
1.64625e-06	0.009102010284733484
1.64650e-06	0.009094297647703541
1.64675e-06	0.009086585010673592
1.64700e-06	0.009078872373643649
1.64725e-06	0.0090711597366137
1.64750e-06	0.009063447099583757
1.64775e-06	0.009055734462553814
1.64800e-06	0.009048021825523864
1.64825e-06	0.009040309188493922
1.64850e-06	0.009032596551463972
1.64875e-06	0.00902488391443403
1.64900e-06	0.009017171277404085
1.64925e-06	0.009009458640374135
1.64950e-06	0.009001746003344193
1.64975e-06	0.008994033366314243
1.65000e-06	0.0089863207292843
1.65025e-06	0.008978608092254358
1.65050e-06	0.008970895455224408
1.65075e-06	0.008963182818194465
1.65100e-06	0.008955470181164516
1.65125e-06	0.008951555831797913
1.65150e-06	0.008950704381221244
1.65175e-06	0.008949852930644576
1.65200e-06	0.008949001480067907
