Time(s)	Current(A)
1.32500e-05	-0.006567357142574374
1.32503e-05	-0.006573128222821855
1.32505e-05	-0.006579344579263947
1.32508e-05	-0.006585560935705997
1.32510e-05	-0.006591777292148089
1.32513e-05	-0.0065979936485901815
1.32515e-05	-0.006604210005032231
1.32518e-05	-0.0066104263614743235
1.32520e-05	-0.006616642717916415
1.32523e-05	-0.006622859074358466
1.32525e-05	-0.0066290754308005575
1.32528e-05	-0.006635162580556547
1.32530e-05	-0.006640984019269713
1.32533e-05	-0.00664680545798292
1.32535e-05	-0.006652626896696126
1.32538e-05	-0.006658448335409332
1.32540e-05	-0.006664269774122499
1.32543e-05	-0.006670091212835705
1.32545e-05	-0.006675912651548911
1.32548e-05	-0.006681734090262078
1.32550e-05	-0.0066892275934521085
1.32553e-05	-0.006700159664793517
1.32555e-05	-0.006711091736134852
1.32558e-05	-0.00672202380747626
1.32560e-05	-0.0067329558788176685
1.32563e-05	-0.006743887950159003
1.32565e-05	-0.006754820021500412
1.32568e-05	-0.006765752092841821
1.32570e-05	-0.006776684164183155
1.32573e-05	-0.006789280531582262
1.32575e-05	-0.006805299491529869
1.32578e-05	-0.006821318451477368
1.32580e-05	-0.006837337411424976
1.32583e-05	-0.006853356371372583
1.32585e-05	-0.006869375331320083
1.32588e-05	-0.006885394291267691
1.32590e-05	-0.006901413251215298
1.32593e-05	-0.006917432211162798
1.32595e-05	-0.0069334511711104056
1.32598e-05	-0.006949470131058013
1.32600e-05	-0.006965142725394161
1.32603e-05	-0.006980103025571497
1.32605e-05	-0.006995063325748833
1.32608e-05	-0.007010023625926067
1.32610e-05	-0.007024983926103403
1.32613e-05	-0.007039944226280738
1.32615e-05	-0.0070549045264579726
1.32618e-05	-0.007069864826635308
1.32620e-05	-0.007084825126812644
1.32623e-05	-0.00709978542698998
1.32625e-05	-0.007114745727167214
1.32628e-05	-0.00712825934243213
1.32630e-05	-0.007138797878245621
1.32633e-05	-0.00714933641405904
1.32635e-05	-0.0071613589407398
1.32638e-05	-0.007176433265844354
1.32640e-05	-0.007191507590948806
1.32643e-05	-0.007206581916053361
1.32645e-05	-0.007221656241157916
1.32648e-05	-0.007236730566262368
1.32650e-05	-0.007251804891366922
1.32653e-05	-0.0072668792164714766
1.32655e-05	-0.00728888482830466
1.32658e-05	-0.007312338635142059
1.32660e-05	-0.007335792441979459
1.32663e-05	-0.0073592462488167
1.32665e-05	-0.0073827000556541
1.32668e-05	-0.0074061538624915
1.32670e-05	-0.00742960766932874
1.32673e-05	-0.007455699862319288
1.32675e-05	-0.007487217845240467
1.32678e-05	-0.007518735828161434
1.32680e-05	-0.007550253811082613
1.32683e-05	-0.007581771794003793
1.32685e-05	-0.0076132897769247585
1.32688e-05	-0.007644807759845938
1.32690e-05	-0.007676325742767118
1.32693e-05	-0.007707843725688084
1.32695e-05	-0.007740525459016069
1.32698e-05	-0.007773450341645408
1.32700e-05	-0.0078063752242745225
1.32703e-05	-0.007839300106903861
1.32705e-05	-0.007872224989533199
1.32708e-05	-0.007905149872162539
1.32710e-05	-0.007938074754791653
1.32713e-05	-0.007970999637420992
1.32715e-05	-0.008002455493148482
1.32718e-05	-0.008030890323555593
1.32720e-05	-0.008059325153962894
1.32723e-05	-0.008086479109344675
1.32725e-05	-0.008110998970088986
1.32728e-05	-0.00813396895275468
1.32730e-05	-0.008153751641223375
1.32733e-05	-0.0081694464684924
1.32735e-05	-0.008176734688520516
1.32738e-05	-0.008184022908548631
1.32740e-05	-0.008185689437054514
1.32743e-05	-0.008175795066021776
1.32745e-05	-0.00816590069498904
1.32748e-05	-0.008150505295310275
1.32750e-05	-0.00812379713695625
1.32753e-05	-0.008097088978602226
1.32755e-05	-0.008062604463529915
1.32758e-05	-0.008012128021749188
1.32760e-05	-0.007961651579968462
1.32763e-05	-0.007911175138188078
1.32765e-05	-0.007860698696407351
1.32768e-05	-0.007790197202111699
1.32770e-05	-0.007715511754366353
1.32773e-05	-0.0076408263066205
1.32775e-05	-0.007566140858874647
1.32778e-05	-0.007485878934329986
1.32780e-05	-0.00739414909344538
1.32783e-05	-0.0073024192525607745
1.32785e-05	-0.007208158436753499
1.32788e-05	-0.0071086927201232785
1.32790e-05	-0.007007848597721249
1.32793e-05	-0.006904169810594112
1.32795e-05	-0.0067996796722725825
1.32798e-05	-0.00669321371174141
1.32800e-05	-0.006586014644807025
1.32803e-05	-0.006478712511191881
1.32805e-05	-0.006371937350616247
1.32808e-05	-0.006266314784591208
1.32810e-05	-0.006162422498872211
1.32813e-05	-0.006060726443781685
1.32815e-05	-0.005961666851929763
1.32818e-05	-0.00586581204466349
1.32820e-05	-0.00577383381633026
1.32823e-05	-0.005687355026975394
1.32825e-05	-0.005606180718541815
1.32828e-05	-0.0055296124970299395
1.32830e-05	-0.005462516603905201
1.32833e-05	-0.005395420710780916
1.32835e-05	-0.005331546963346473
1.32838e-05	-0.005274299496007434
1.32840e-05	-0.005217052028668783
1.32843e-05	-0.005165193372874808
1.32845e-05	-0.005124416703468833
1.32848e-05	-0.0050836400340631355
1.32850e-05	-0.005042863364657162
1.32853e-05	-0.005002086695251188
1.32855e-05	-0.004961310025845491
1.32858e-05	-0.004920533356439516
1.32860e-05	-0.004893974078995129
1.32863e-05	-0.004870385325904834
1.32865e-05	-0.004846796572814379
1.32868e-05	-0.004823207819723924
1.32870e-05	-0.004799619066633629
1.32873e-05	-0.004776030313543174
1.32875e-05	-0.004756375471232806
1.32878e-05	-0.004744810640116436
1.32880e-05	-0.004733245809000144
1.32883e-05	-0.004721680977883775
1.32885e-05	-0.004710116146767405
1.32888e-05	-0.004698551315651113
1.32890e-05	-0.004686986484534744
1.32893e-05	-0.004677963430831509
1.32895e-05	-0.004674167493063484
1.32898e-05	-0.004670371555295433
1.32900e-05	-0.004666575617527383
1.32903e-05	-0.004662779679759358
1.32905e-05	-0.004658983741991307
1.32908e-05	-0.004655187804223257
1.32910e-05	-0.004652367942934573
1.32913e-05	-0.004651555363988221
1.32915e-05	-0.0046507427850418686
1.32918e-05	-0.00464996113357511
1.32920e-05	-0.004649243083870082
1.32923e-05	-0.004648519854193103
1.32925e-05	-0.004647781401440823
1.32928e-05	-0.004647055640470253
1.32930e-05	-0.004646660207786792
1.32933e-05	-0.004647613033242767
1.32935e-05	-0.004651154721673752
1.32938e-05	-0.004657805693291476
1.32940e-05	-0.0046679309391993535
1.32943e-05	-0.0046809317366797425
1.32945e-05	-0.004695611759184913
1.32948e-05	-0.004713745075373841
1.32950e-05	-0.004734354621291537
1.32953e-05	-0.00476005648560363
1.32955e-05	-0.004785758349915548
1.32958e-05	-0.004815835228694017
1.32960e-05	-0.0048549092398410395
1.32963e-05	-0.004893983250988061
1.32965e-05	-0.004933057262134818
1.32968e-05	-0.004972131273281841
1.32970e-05	-0.005015630107880337
1.32973e-05	-0.005068228506058797
1.32975e-05	-0.005120826904237612
1.32978e-05	-0.005173425302416428
1.32980e-05	-0.0052260237005948874
1.32983e-05	-0.005281274874134382
1.32985e-05	-0.005341981428735971
1.32988e-05	-0.00540268798333715
1.32990e-05	-0.005464422152962406
1.32993e-05	-0.005528269592946887
1.32995e-05	-0.005592117032930934
1.32998e-05	-0.005656370542089078
1.33000e-05	-0.005721459124624662
1.33003e-05	-0.005786547707159806
1.33005e-05	-0.005850922266110901
1.33008e-05	-0.005913828449413304
1.33010e-05	-0.0059767346327152795
1.33013e-05	-0.0060380419313424616
1.33015e-05	-0.006096061154654999
1.33018e-05	-0.006154080377967143
1.33020e-05	-0.006208062537971505
1.33023e-05	-0.006253742555605377
1.33025e-05	-0.006299422573238939
1.33028e-05	-0.006345102590872811
1.33030e-05	-0.006390782608506682
1.33033e-05	-0.006436462626140244
1.33035e-05	-0.006470554525494786
1.33038e-05	-0.006502225250298537
1.33040e-05	-0.006533895975102073
1.33043e-05	-0.006565566699905824
1.33045e-05	-0.006597237424709575
1.33048e-05	-0.0066232858157564585
1.33050e-05	-0.006637771986509659
1.33053e-05	-0.006652258157262959
1.33055e-05	-0.006666744328016258
1.33058e-05	-0.00668123049876946
1.33060e-05	-0.006695716669522758
1.33063e-05	-0.006710202840276058
1.33065e-05	-0.006724689011029259
1.33068e-05	-0.006739175181782558
1.33070e-05	-0.0067536613525358575
1.33073e-05	-0.006768147523289058
1.33075e-05	-0.006782633694042358
1.33078e-05	-0.006797119864795657
1.33080e-05	-0.0068116060355488586
1.33083e-05	-0.00681516020600181
1.33085e-05	-0.0068164302885395855
1.33088e-05	-0.0068177003710773515
1.33090e-05	-0.006818970453615127
1.33093e-05	-0.0068202405361529024
1.33095e-05	-0.006821510618690669
1.33098e-05	-0.006822780701228445
1.33100e-05	-0.00682405078376622
1.33103e-05	-0.006825320866303986
1.33105e-05	-0.006826590948841762
1.33108e-05	-0.006827861031379537
1.33110e-05	-0.006829131113917304
1.33113e-05	-0.0068304011964550795
1.33115e-05	-0.006830923629039426
1.33118e-05	-0.006829908533999229
1.33120e-05	-0.006828893438959026
1.33123e-05	-0.006827878343918822
1.33125e-05	-0.006826863248878626
1.33128e-05	-0.006825848153838422
1.33130e-05	-0.006824833058798219
1.33133e-05	-0.0068238179637580155
1.33135e-05	-0.006822802868717818
1.33138e-05	-0.006821787773677615
1.33140e-05	-0.0068223955790841775
1.33143e-05	-0.006826340847774742
1.33145e-05	-0.0068302861164653336
1.33148e-05	-0.006834231385155925
1.33150e-05	-0.00683817665384649
1.33153e-05	-0.006842121922537081
1.33155e-05	-0.0068460671912276725
1.33158e-05	-0.006850012459918237
1.33160e-05	-0.006853957728608829
1.33163e-05	-0.00685790299729942
1.33165e-05	-0.006863930996978615
1.33168e-05	-0.0068742420925306255
1.33170e-05	-0.006884553188082637
1.33173e-05	-0.006894864283634578
1.33175e-05	-0.006905175379186589
1.33178e-05	-0.0069154864747386
1.33180e-05	-0.006925797570290541
1.33183e-05	-0.006936108665842552
1.33185e-05	-0.006946419761394563
1.33188e-05	-0.006956730856946504
1.33190e-05	-0.006967041952498515
1.33193e-05	-0.006977932415447764
1.33195e-05	-0.006990014336209636
1.33198e-05	-0.007002096256971589
1.33200e-05	-0.0070141781777335425
1.33203e-05	-0.007026260098495414
1.33205e-05	-0.007038342019257369
1.33208e-05	-0.007050423940019322
1.33210e-05	-0.007062505860781194
1.33213e-05	-0.007074587781543148
1.33215e-05	-0.0070866697023051015
1.33218e-05	-0.007098751623067055
1.33220e-05	-0.007108676720711142
1.33223e-05	-0.007114166353455358
1.33225e-05	-0.007119655986199574
1.33228e-05	-0.007125145618943753
1.33230e-05	-0.00713063525168797
1.33233e-05	-0.007136124884432185
1.33235e-05	-0.007141614517176364
1.33238e-05	-0.007147104149920581
1.33240e-05	-0.007152593782664797
1.33243e-05	-0.007158083415408976
1.33245e-05	-0.007163573048153192
1.33248e-05	-0.007169062680897408
1.33250e-05	-0.007174552313641587
1.33253e-05	-0.007180041946385804
1.33255e-05	-0.007185531579130019
1.33258e-05	-0.007184428875351837
1.33260e-05	-0.0071819487954502045
1.33263e-05	-0.007179468715548573
1.33265e-05	-0.007176988635646957
1.33268e-05	-0.007174508555745326
1.33270e-05	-0.007172028475843694
1.33273e-05	-0.007169548395942079
1.33275e-05	-0.007167068316040448
1.33278e-05	-0.0071645882361388155
1.33280e-05	-0.007162108156237201
1.33283e-05	-0.007159628076335568
1.33285e-05	-0.007157147996433937
1.33288e-05	-0.007154667916532322
1.33290e-05	-0.00715218783663069
1.33293e-05	-0.007148743662031379
1.33295e-05	-0.007143316845389131
1.33298e-05	-0.007137890028746847
1.33300e-05	-0.0071324632121045626
1.33303e-05	-0.007127036395462278
1.33305e-05	-0.00712160957882003
1.33308e-05	-0.007116182762177746
1.33310e-05	-0.007110833558056314
1.33313e-05	-0.007105643962578428
1.33315e-05	-0.007100454367100506
1.33318e-05	-0.007095264771622584
1.33320e-05	-0.007090075176144698
1.33323e-05	-0.007084885580666776
1.33325e-05	-0.0070796959851888545
1.33328e-05	-0.00707393686267773
1.33330e-05	-0.007067006518870986
1.33333e-05	-0.007060076175064243
1.33335e-05	-0.007053145831257546
1.33338e-05	-0.007046215487450803
1.33340e-05	-0.007039285143644059
1.33343e-05	-0.007032354799837362
1.33345e-05	-0.007025424456030618
1.33348e-05	-0.007011725269908378
1.33350e-05	-0.0069966118292557914
1.33353e-05	-0.006981498388603103
1.33355e-05	-0.006966384947950414
1.33358e-05	-0.006951271507297829
1.33360e-05	-0.00693615806664514
1.33363e-05	-0.006921044625992452
1.33365e-05	-0.006903108842076209
1.33368e-05	-0.006879368963987973
1.33370e-05	-0.006855629085899737
1.33373e-05	-0.006831889207811662
1.33375e-05	-0.006808149329723426
1.33378e-05	-0.00678440945163519
1.33380e-05	-0.006760669573547116
1.33383e-05	-0.00673692969545888
1.33385e-05	-0.006711619505066447
1.33388e-05	-0.00668307999788227
1.33390e-05	-0.006654540490698285
1.33393e-05	-0.006626000983514108
1.33395e-05	-0.00659746147632993
1.33398e-05	-0.006568921969145946
1.33400e-05	-0.006540382461961768
1.33403e-05	-0.006511842954777591
1.33405e-05	-0.0064842079721886955
1.33408e-05	-0.006458433126883084
1.33410e-05	-0.006432658281577473
1.33413e-05	-0.006406883436272037
1.33415e-05	-0.006381108590966426
1.33418e-05	-0.006355333745660815
1.33420e-05	-0.006329558900355379
1.33423e-05	-0.0063037840550497675
1.33425e-05	-0.006278009209744156
1.33428e-05	-0.006263135444378515
1.33430e-05	-0.0062505393065568305
1.33433e-05	-0.006237943168735146
1.33435e-05	-0.006225347030913547
1.33438e-05	-0.006212750893091863
1.33440e-05	-0.006200154755270178
1.33443e-05	-0.006187558617448579
1.33445e-05	-0.006174962479626895
1.33448e-05	-0.006168365866566527
1.33450e-05	-0.00617410715979814
1.33453e-05	-0.006179848453029791
1.33455e-05	-0.006185589746261442
1.33458e-05	-0.006191331039493055
1.33460e-05	-0.006197072332724706
1.33463e-05	-0.006202813625956358
1.33465e-05	-0.00620855491918797
1.33468e-05	-0.0062267424945389605
1.33470e-05	-0.006247530545726991
1.33473e-05	-0.00626831859691502
1.33475e-05	-0.006289106648102909
1.33478e-05	-0.0063098946992909384
1.33480e-05	-0.006330682750478968
1.33483e-05	-0.006351470801666857
1.33485e-05	-0.0063746817818885046
1.33488e-05	-0.0064028754686677744
1.33490e-05	-0.0064310691554468535
1.33493e-05	-0.006459262842226123
1.33495e-05	-0.00648925002625939
1.33498e-05	-0.006519618093511021
1.33500e-05	-0.006549986160762857
1.33503e-05	-0.006571127236314797
1.33505e-05	-0.007210472110011431
1.33508e-05	-0.013481199756382976
1.33510e-05	-0.018975504604096603
1.33513e-05	-0.01805075608812914
1.33515e-05	-0.016036808449887634
1.33518e-05	-0.011395675817913833
1.33520e-05	-0.006475350731612232
1.33523e-05	-0.006071549168774344
1.33525e-05	-0.006909145703235507
1.33528e-05	-0.010023466401913353
1.33530e-05	-0.013925351317745907
1.33533e-05	-0.013945241720717155
1.33535e-05	-0.012230981848939084
1.33538e-05	-0.010075248784090395
1.33540e-05	-0.006647045929996312
1.33543e-05	-0.005468394689695647
1.33545e-05	-0.005724235315392202
1.33548e-05	-0.00715180812707107
1.33550e-05	-0.00909325789750469
1.33553e-05	-0.010279222527340183
1.33555e-05	-0.009882140763267705
1.33557e-05	-0.008498656644688345
1.33560e-05	-0.006877120251128018
1.33563e-05	-0.005694077241482947
1.33565e-05	-0.005633844135799639
1.33568e-05	-0.006513437176783264
1.33570e-05	-0.007713006839034807
1.33573e-05	-0.008437706400469773
1.33575e-05	-0.00816947547804956
1.33578e-05	-0.007282367607924733
1.33580e-05	-0.006245412289501035
1.33583e-05	-0.005482610364385816
1.33585e-05	-0.005422782237286501
1.33588e-05	-0.005951448644008224
1.33590e-05	-0.006680495217866832
1.33593e-05	-0.00711222336660095
1.33595e-05	-0.006922344542640789
1.33598e-05	-0.006345389085358087
1.33600e-05	-0.005675351448956361
1.33603e-05	-0.005177991402468565
1.33605e-05	-0.005122059414059734
1.33608e-05	-0.005435972467607755
1.33610e-05	-0.005876754082051908
1.33613e-05	-0.006132808054524204
1.33615e-05	-0.006001183588074955
1.33618e-05	-0.005628974165338668
1.33620e-05	-0.0052005053055832915
1.33623e-05	-0.004882397951164126
1.33625e-05	-0.004843130820539972
1.33628e-05	-0.005038003525293911
1.33630e-05	-0.00531506858850546
1.33633e-05	-0.005479655550809092
1.33635e-05	-0.00540516518477871
1.33638e-05	-0.00518386491302216
1.33640e-05	-0.004931044871050161
1.33642e-05	-0.004750860811102331
1.33645e-05	-0.004748621337549428
1.33648e-05	-0.004896096279992114
1.33650e-05	-0.0050978811465580455
1.33653e-05	-0.005231819530597607
1.33655e-05	-0.0052184042181730944
1.33658e-05	-0.005115225848657371
1.33660e-05	-0.004994291053472653
1.33663e-05	-0.004920625176958944
1.33665e-05	-0.0049599694595571665
1.33668e-05	-0.005094414081239356
1.33670e-05	-0.005263975670555903
1.33673e-05	-0.005391918757887915
1.33675e-05	-0.005428229421483681
1.33678e-05	-0.005408772135423606
1.33680e-05	-0.005378437569317693
1.33683e-05	-0.005377739400374327
1.33685e-05	-0.005447636345664472
1.33688e-05	-0.005576686315095471
1.33690e-05	-0.005727094686052458
1.33693e-05	-0.005850577946495269
1.33695e-05	-0.005915593410342316
1.33698e-05	-0.0059443934760908925
1.33700e-05	-0.005964882735408336
1.33703e-05	-0.0060022207041297015
1.33705e-05	-0.00608184328425319
1.33708e-05	-0.006196362624549377
1.33710e-05	-0.006321884416390587
1.33713e-05	-0.006427946350151235
1.33715e-05	-0.006494575673606038
1.33718e-05	-0.006535496797528577
1.33720e-05	-0.00656797230966839
1.33723e-05	-0.006607544910625748
1.33725e-05	-0.006669928494655737
1.33727e-05	-0.006750269502052631
1.33730e-05	-0.0068333270091489534
1.33733e-05	-0.006899661623879986
1.33735e-05	-0.0069365052810479244
1.33738e-05	-0.006952507353496401
1.33740e-05	-0.006958721703000967
1.33743e-05	-0.00696514387431636
1.33745e-05	-0.006981876849476761
1.33748e-05	-0.007006139107735962
1.33750e-05	-0.007028642659770932
1.33753e-05	-0.0070374715830479485
1.33755e-05	-0.007024889281361288
1.33758e-05	-0.006996575457002828
1.33760e-05	-0.006960313764731738
1.33763e-05	-0.006922543046395504
1.33765e-05	-0.0068865045070774225
1.33768e-05	-0.006855260587436708
1.33770e-05	-0.006819578145868843
1.33773e-05	-0.00677252400410897
1.33775e-05	-0.006720462279317002
1.33778e-05	-0.006652341835265193
1.33780e-05	-0.006578924068908011
1.33783e-05	-0.006504500917817775
1.33785e-05	-0.006431276063210932
1.33788e-05	-0.006361029741101571
1.33790e-05	-0.006289493689992623
1.33793e-05	-0.006214516734297994
1.33795e-05	-0.0061296928055245906
1.33798e-05	-0.006043469206166996
1.33800e-05	-0.005953240114001168
1.33803e-05	-0.005864088735025205
1.33805e-05	-0.0057791641379089115
1.33808e-05	-0.005698253137030824
1.33810e-05	-0.005619597206346211
1.33812e-05	-0.0055407926461229435
1.33815e-05	-0.005460463316592192
1.33818e-05	-0.005380530983514126
1.33820e-05	-0.0053041719972946105
1.33823e-05	-0.005233391714454957
1.33825e-05	-0.0051653875605000505
1.33828e-05	-0.005107519626306356
1.33830e-05	-0.005055923657181077
1.33833e-05	-0.005005078198477044
1.33835e-05	-0.004956380505203619
1.33838e-05	-0.00490919321817339
1.33840e-05	-0.004866328320574567
1.33843e-05	-0.004823463422975744
1.33845e-05	-0.0047835616387567085
1.33848e-05	-0.004752139513581113
1.33850e-05	-0.004722379146779469
1.33853e-05	-0.004697374299804431
1.33855e-05	-0.004672369452829224
1.33858e-05	-0.0046473646058540164
1.33860e-05	-0.0046245755673427
1.33863e-05	-0.004608127595767738
1.33865e-05	-0.004591679624192776
1.33868e-05	-0.004575231652617925
1.33870e-05	-0.004560825126063586
1.33873e-05	-0.004552260683667422
1.33875e-05	-0.004543696241271316
1.33878e-05	-0.004535131798875152
1.33880e-05	-0.004526567356478988
1.33883e-05	-0.004522764499332245
1.33885e-05	-0.004520473963200118
1.33888e-05	-0.004518183427067991
1.33890e-05	-0.004515892890935879
1.33893e-05	-0.004514699046463959
1.33895e-05	-0.004516643647999758
1.33897e-05	-0.004518588249535545
1.33900e-05	-0.0045205328510713435
1.33903e-05	-0.004522477452607143
1.33905e-05	-0.004524422054142942
1.33908e-05	-0.004526954760500456
1.33910e-05	-0.004531170469744672
1.33913e-05	-0.004535386178988889
1.33915e-05	-0.004539601888233076
1.33918e-05	-0.004543817597477293
1.33920e-05	-0.004548033306721508
1.33923e-05	-0.0045521820721403485
1.33925e-05	-0.004556152043589046
1.33928e-05	-0.004560170048717965
1.33930e-05	-0.004564460073511379
1.33933e-05	-0.00457054771684663
1.33935e-05	-0.004579820430060789
1.33938e-05	-0.004590903580849854
1.33940e-05	-0.004607167732631651
1.33943e-05	-0.004625124632693547
1.33945e-05	-0.0046479257376264155
1.33948e-05	-0.004672762610116266
1.33950e-05	-0.004703425319342477
1.33953e-05	-0.00473408802856848
1.33955e-05	-0.00476908351113345
1.33958e-05	-0.004816478262958565
1.33960e-05	-0.004863873014783361
1.33963e-05	-0.004911267766608477
1.33965e-05	-0.004958662518433592
