Time(s)	Current(A)
0.00000e+00	-6.444713897133111e-22
2.50000e-10	-1.0069840159540524e-15
5.00000e-10	-4.577541664002795e-16
7.50000e-10	1.4938052894345506e-07
1.00000e-09	1.0323543552438292e-06
1.25000e-09	3.1518299943433954e-06
1.50000e-09	6.211909061331389e-06
1.75000e-09	9.695798001660799e-06
2.00000e-09	1.3438240684896895e-05
2.25000e-09	1.7414363229991904e-05
2.50000e-09	2.1599293261439168e-05
2.75000e-09	2.6061723134576193e-05
3.00000e-09	3.114270998401838e-05
3.25000e-09	3.71323461531892e-05
3.50000e-09	4.382035035599868e-05
3.75000e-09	5.08580974682461e-05
4.00000e-09	5.81171858598295e-05
4.25000e-09	6.555715393045642e-05
4.50000e-09	7.319696987077954e-05
4.75000e-09	8.090330037784191e-05
5.00000e-09	8.896279931345767e-05
5.25000e-09	9.76431944961851e-05
5.50000e-09	0.00010653171532044238
5.75000e-09	0.00011551030362280802
6.00000e-09	0.00012452949336985846
6.25000e-09	0.00013354868311690887
6.50000e-09	0.0001424133102709518
6.75000e-09	0.00015120826228029067
7.00000e-09	0.00016000048603593555
7.25000e-09	0.00016879147992433232
7.50000e-09	0.00017740990173623777
7.75000e-09	0.00018595052992313044
8.00000e-09	0.0001941416557723711
8.25000e-09	0.00020189048833046437
8.50000e-09	0.0002091874237466706
8.75000e-09	0.00021599917479274094
9.00000e-09	0.00022235937328427487
9.25000e-09	0.0002282090162861007
9.50000e-09	0.0002331466253415472
9.75000e-09	0.000236648597474426
1.00000e-08	0.00023846278091570333
1.02500e-08	0.00023858054526150393
1.05000e-08	0.00023704955405523187
1.07500e-08	0.00023393227033876215
1.10000e-08	0.0002293330782934356
1.12500e-08	0.0002232983429590002
1.15000e-08	0.00021565988560528482
1.17500e-08	0.00020617307565728367
1.20000e-08	0.0001947633356074419
1.22500e-08	0.0001815086268622037
1.25000e-08	0.0001665221675269861
1.27500e-08	0.0001499264306557237
1.30000e-08	0.00013187016236431313
1.32500e-08	0.00011246574373509767
1.35000e-08	9.169116980511718e-05
1.37500e-08	6.947654569768362e-05
1.40000e-08	4.585851365806047e-05
1.42500e-08	2.0969259014511965e-05
1.45000e-08	-5.036962477471973e-06
1.47500e-08	-3.200009815574439e-05
1.50000e-08	-5.9743659947521565e-05
1.52500e-08	-8.811394183909203e-05
1.55000e-08	-0.00011721551589653642
1.57500e-08	-0.00014656508454573194
1.60000e-08	-0.0001764325065057755
1.62500e-08	-0.00020653337113565756
1.65000e-08	-0.00023663423576554006
1.67500e-08	-0.0002665333232993017
1.70000e-08	-0.00029634145190117315
1.72500e-08	-0.0003254210665543298
1.75000e-08	-0.00035417227500124973
1.77500e-08	-0.0003818553620966155
1.80000e-08	-0.00040905695164278224
1.82500e-08	-0.00043470903351556644
1.85000e-08	-0.00045966261409342423
1.87500e-08	-0.00048251942137363715
1.90000e-08	-0.0005044310259364115
1.92500e-08	-0.0005245986545073487
1.95000e-08	-0.000543321725758795
1.97500e-08	-0.0005617018213993141
2.00000e-08	-0.0005800610997280308
2.02500e-08	-0.0005982241978928379
2.05000e-08	-0.0006162988601622415
2.07500e-08	-0.0006343735224316451
2.10000e-08	-0.0006516530859823379
2.12500e-08	-0.0006685742276328656
2.15000e-08	-0.0006854734763848781
2.17500e-08	-0.0007023628560551009
2.20000e-08	-0.0007192522357253235
2.22500e-08	-0.0007367053475019698
2.25000e-08	-0.0007544125836131342
2.27500e-08	-0.0007721198197242982
2.30000e-08	-0.0007897484313086626
2.32500e-08	-0.0008073415998069901
2.35000e-08	-0.0008249347683053174
2.37500e-08	-0.0008430630122159368
2.40000e-08	-0.0008614324623333984
2.42500e-08	-0.0008798019124508598
2.45000e-08	-0.0008981713625683212
2.47500e-08	-0.0009165408126857826
2.50000e-08	-0.0009349102628032442
2.52500e-08	-0.0009532797129207056
2.55000e-08	-0.0009716491630381669
2.57500e-08	-0.000989303539868494
2.60000e-08	-0.00100663556939741
2.62500e-08	-0.0010239675989263258
2.65000e-08	-0.001041299628455242
2.67500e-08	-0.0010586316579841578
2.70000e-08	-0.0010759636875130737
2.72500e-08	-0.0010932957170419898
2.75000e-08	-0.0011106277465709057
2.77500e-08	-0.0011262678041005785
2.80000e-08	-0.0011411451389585592
2.82500e-08	-0.0011560224738165394
2.85000e-08	-0.001169351658441088
2.87500e-08	-0.0011819829536899543
2.90000e-08	-0.0011946142489388204
2.92500e-08	-0.0012049463217608412
2.95000e-08	-0.001214241929988293
2.97500e-08	-0.0012235375382157446
3.00000e-08	-0.0012289181451884095
3.02500e-08	-0.0012325339119520968
3.05000e-08	-0.0012361496787157839
3.07500e-08	-0.0012397654454794711
3.10000e-08	-0.0012433812122431582
3.12500e-08	-0.0012418662411584167
3.15000e-08	-0.0012380383889614253
3.17500e-08	-0.0012342105367644338
3.20000e-08	-0.0012303826845674424
3.22500e-08	-0.001226554832370451
3.25000e-08	-0.0012187802134864469
3.27500e-08	-0.0012092264348802905
3.30000e-08	-0.0011996726562741337
3.32500e-08	-0.0011879464120475628
3.35000e-08	-0.0011752408438233711
3.37500e-08	-0.0011609533699131803
3.40000e-08	-0.0011459527900344925
3.42500e-08	-0.0011296034497965107
3.45000e-08	-0.0011126461029808943
3.47500e-08	-0.0010946046364143048
3.50000e-08	-0.0010760744603931461
3.52500e-08	-0.0010568931144094287
3.55000e-08	-0.00103706283288662
3.57500e-08	-0.0010167804199232037
3.60000e-08	-0.0009961512803361918
3.62500e-08	-0.0009752936442228086
3.65000e-08	-0.0009543286558628858
3.67500e-08	-0.0009333773470697457
3.70000e-08	-0.0009125606513276717
3.72500e-08	-0.0008919975401222439
3.75000e-08	-0.0008718029070872272
3.77500e-08	-0.0008520935691494826
3.80000e-08	-0.0008329965688226407
3.82500e-08	-0.0008149661513458098
3.85000e-08	-0.0007973250682412738
3.87500e-08	-0.0007815717293992166
3.90000e-08	-0.000766669365247043
3.92500e-08	-0.0007517670010948698
3.95000e-08	-0.000738909650319464
3.97500e-08	-0.0007269741694491575
4.00000e-08	-0.000715038688578851
4.02500e-08	-0.000704674093389427
4.05000e-08	-0.0006950176364694189
4.07500e-08	-0.000685361179549411
4.10000e-08	-0.0006775906814905675
4.12500e-08	-0.0006706703532820118
4.15000e-08	-0.000663750025073456
4.17500e-08	-0.0006592457447197793
4.20000e-08	-0.0006558305925996857
4.22500e-08	-0.0006524154404795922
4.25000e-08	-0.0006490002883594987
4.27500e-08	-0.0006455851362394052
4.30000e-08	-0.0006421699841193117
4.32500e-08	-0.0006387548319992182
4.35000e-08	-0.0006360775926025629
4.37500e-08	-0.0006365609645408312
4.40000e-08	-0.0006370443364790996
4.42500e-08	-0.0006375277084173679
4.45000e-08	-0.0006380110803556363
4.47500e-08	-0.0006384944522939046
4.50000e-08	-0.000638977824232173
4.52500e-08	-0.0006394611961704414
4.55000e-08	-0.0006413500092758765
4.57500e-08	-0.0006438723800539007
4.60000e-08	-0.0006463947508319249
4.62500e-08	-0.000648917121609949
4.65000e-08	-0.0006514394923879734
4.67500e-08	-0.0006539618631659975
4.70000e-08	-0.0006565482408093738
4.72500e-08	-0.0006594087712322311
4.75000e-08	-0.0006622693016550882
4.77500e-08	-0.0006651298320779454
4.80000e-08	-0.0006679903625008026
4.82500e-08	-0.0006708508929236598
4.85000e-08	-0.000673711423346517
4.87500e-08	-0.0006762018124548587
4.90000e-08	-0.0006785253458632025
4.92500e-08	-0.0006802193547923391
4.95000e-08	-0.0006816295808971201
4.97500e-08	-0.0006811626480962788
5.00000e-08	-0.0006798495123699014
5.02500e-08	-0.0006759058118176762
5.05000e-08	-0.0006707762811022306
5.07500e-08	-0.0006656467503867848
5.10000e-08	-0.0006581441471616575
5.12500e-08	-0.0006495717885236091
5.15000e-08	-0.0006387806374475175
5.17500e-08	-0.0006269892787456328
5.20000e-08	-0.0006126497110328403
5.22500e-08	-0.000597161438267189
5.25000e-08	-0.0005794366594751721
5.27500e-08	-0.0005607036879633904
5.30000e-08	-0.000540076225110754
5.32500e-08	-0.0005185947460582998
5.35000e-08	-0.000495734455734539
5.37500e-08	-0.0004712620555093124
5.40000e-08	-0.0004454062286866719
5.42500e-08	-0.0004183069359060056
5.45000e-08	-0.0003901325767080371
5.47500e-08	-0.00036105178970397933
5.50000e-08	-0.0003312331914699513
5.52500e-08	-0.0003008194420250066
5.55000e-08	-0.0002698808852042643
5.57500e-08	-0.0002384555614182848
5.60000e-08	-0.00020664756499398225
5.62500e-08	-0.00017463071543081425
5.65000e-08	-0.00014259666581559403
5.67500e-08	-0.00011073717577842729
5.70000e-08	-7.924398587593375e-05
5.72500e-08	-4.8292562924442064e-05
5.75000e-08	-1.8013082421467077e-05
5.77500e-08	1.1484537000727106e-05
5.80000e-08	4.004901399117722e-05
5.82500e-08	6.748538846007632e-05
5.85000e-08	9.358755340234992e-05
5.87500e-08	0.00011814935176336351
5.90000e-08	0.00014096464386637757
5.92500e-08	0.0001618841164576101
5.95000e-08	0.00018093591535132044
5.97500e-08	0.00019827818235442117
6.00000e-08	0.00021399117407449678
6.02500e-08	0.0002280347101565997
6.05000e-08	0.00024033524200342971
6.07500e-08	0.00025081896682251797
6.10000e-08	0.0002594121073908608
6.12500e-08	0.0002660765077730097
6.15000e-08	0.00027088512118421165
6.17500e-08	0.000273992388652727
6.20000e-08	0.0002755039279025667
6.22500e-08	0.00027544989825847946
6.25000e-08	0.00027383956295280417
6.27500e-08	0.00027068201142378505
6.30000e-08	0.0002659864043092799
6.32500e-08	0.0002597841857237334
6.35000e-08	0.000252176388810969
6.37500e-08	0.0002433150689321709
6.40000e-08	0.00023332171299005403
6.42500e-08	0.00022193354977948168
6.45000e-08	0.00021007071206999582
6.47500e-08	0.0001969440960946806
6.50000e-08	0.00018324778255003914
6.52500e-08	0.00016850252567245604
6.55000e-08	0.00015328441648897772
6.57500e-08	0.0001373893092059467
6.60000e-08	0.00012118901850412897
6.62500e-08	0.00010457995950267428
6.65000e-08	8.778663217423572e-05
6.67500e-08	7.099330484579806e-05
6.70000e-08	5.4171493010807736e-05
6.72500e-08	3.7336840668439826e-05
6.75000e-08	2.072098273743731e-05
6.77500e-08	4.487795508229922e-06
6.80000e-08	-1.1243592748402113e-05
6.82500e-08	-2.635423766568466e-05
6.85000e-08	-4.073035381421654e-05
6.87500e-08	-5.425819813489859e-05
6.90000e-08	-6.682404119306053e-05
6.92500e-08	-7.849669197973553e-05
6.95000e-08	-8.986705357476854e-05
6.97500e-08	-0.00010179489448758511
7.00000e-08	-0.00011472164870471481
7.02500e-08	-0.0001286203339443227
7.05000e-08	-0.00014334230272057509
7.07500e-08	-0.00015873799221594032
7.10000e-08	-0.00017465786567594767
7.12500e-08	-0.00019138039195470478
7.15000e-08	-0.00020839783090425532
7.17500e-08	-0.0002266871927593385
7.20000e-08	-0.00024655714079918373
7.22500e-08	-0.0002681566201035305
7.25000e-08	-0.0002903310759110748
7.27500e-08	-0.00031381090080776245
7.30000e-08	-0.00033787917196695686
7.32500e-08	-0.0003630080718103909
7.35000e-08	-0.00038861509158966194
7.37500e-08	-0.0004159947975500726
7.40000e-08	-0.0004441736112621216
7.42500e-08	-0.0004723524249741721
7.45000e-08	-0.0005019916434662866
7.47500e-08	-0.0005322891966330337
7.50000e-08	-0.0005625867497997808
7.52500e-08	-0.0005934899485390135
7.55000e-08	-0.0006246661657498031
7.57500e-08	-0.0006558423829605909
7.60000e-08	-0.0006873296210924987
7.62500e-08	-0.0007189570640906895
7.65000e-08	-0.0007505845070888785
7.67500e-08	-0.0007814487478637524
7.70000e-08	-0.0008119689453334919
7.72500e-08	-0.000842489142803233
7.75000e-08	-0.00087141376657092
7.77500e-08	-0.0008996191229763471
7.80000e-08	-0.0009278244793817741
7.82500e-08	-0.0009536192364154371
7.85000e-08	-0.000978327321332754
7.87500e-08	-0.0010030354062500694
7.90000e-08	-0.0010249001827354767
7.92500e-08	-0.0010454832265417316
7.95000e-08	-0.0010644572426105599
7.97500e-08	-0.001082705926383541
8.00000e-08	-0.0011001468063348246
8.02500e-08	-0.001117223537062974
8.05000e-08	-0.0011343002677911226
8.07500e-08	-0.0011498029298757496
8.10000e-08	-0.0011645960188458346
8.12500e-08	-0.0011793891078159188
8.15000e-08	-0.001192944256130274
8.17500e-08	-0.001205941354190391
8.20000e-08	-0.0012189384522505089
8.22500e-08	-0.0012319355503106263
8.25000e-08	-0.0012446589333199138
8.27500e-08	-0.001256209946122369
8.30000e-08	-0.0012677609589248234
8.32500e-08	-0.0012793119717272785
8.35000e-08	-0.001290862984529733
8.37500e-08	-0.0013013517503017292
8.40000e-08	-0.0013113616666049184
8.42500e-08	-0.0013213715829081072
8.45000e-08	-0.0013313814992112964
8.47500e-08	-0.001341391415514485
8.50000e-08	-0.0013514013318176744
8.52500e-08	-0.001361411248120863
8.55000e-08	-0.0013714211644240521
8.57500e-08	-0.0013814310807272413
8.60000e-08	-0.0013910084318832596
8.62500e-08	-0.0013987330296392753
8.65000e-08	-0.0014064576273952905
8.67500e-08	-0.001414182225151306
8.70000e-08	-0.0014219068229073216
8.72500e-08	-0.0014296314206633368
8.75000e-08	-0.0014373560184193525
8.77500e-08	-0.0014450806161753677
8.80000e-08	-0.0014528052139313832
8.82500e-08	-0.0014605298116873984
8.85000e-08	-0.00146704388412404
8.87500e-08	-0.0014730122648434632
8.90000e-08	-0.0014785278356924353
8.92500e-08	-0.0014833733953111584
8.95000e-08	-0.0014864569217514908
8.97500e-08	-0.0014888408165042019
9.00000e-08	-0.001488406906647529
9.02500e-08	-0.0014867027609589654
9.05000e-08	-0.0014816671366603637
9.07500e-08	-0.0014751297178478505
9.10000e-08	-0.001468592299035337
9.12500e-08	-0.0014580021396031196
9.15000e-08	-0.001445585048546415
9.17500e-08	-0.0014331679574897105
9.20000e-08	-0.0014159805683441914
9.22500e-08	-0.001396642780430412
9.25000e-08	-0.0013773049925166338
9.27500e-08	-0.0013545272244133092
9.30000e-08	-0.0013301987504579164
9.32500e-08	-0.0013040823074198767
9.35000e-08	-0.0012759436278152953
9.37500e-08	-0.0012459897277561785
9.40000e-08	-0.001214269483204336
9.42500e-08	-0.0011809564596839263
9.45000e-08	-0.0011462559493751396
9.47500e-08	-0.0011103736660492696
9.50000e-08	-0.0010735150307815294
9.52500e-08	-0.0010358569580915318
9.55000e-08	-0.0009974969920958205
9.57500e-08	-0.0009584988020287774
9.60000e-08	-0.0009190009927946935
9.62500e-08	-0.0008792203441225149
9.65000e-08	-0.0008393935362591351
9.67500e-08	-0.0007997573980905321
9.70000e-08	-0.0007605486963462028
9.72500e-08	-0.0007219862273271861
9.75000e-08	-0.0006842390567757732
9.77500e-08	-0.0006474549893470177
9.80000e-08	-0.0006118288539998473
9.82500e-08	-0.0005776043855270405
9.85000e-08	-0.0005450378219495657
9.87500e-08	-0.0005143853894419486
9.90000e-08	-0.0004859032599198728
9.92500e-08	-0.0004596401978362034
9.95000e-08	-0.000435040424553126
9.97500e-08	-0.00041120813567667176
1.00000e-07	-0.00038768408725119944
1.00250e-07	-0.00036452254519915773
1.00500e-07	-0.00034218886375077365
1.00750e-07	-0.0003201694585999876
1.01000e-07	-0.00029910939571504866
1.01250e-07	-0.0002791661643470941
1.01500e-07	-0.0002598968652619287
1.01750e-07	-0.000240717429551802
1.02000e-07	-0.0002215042448374857
1.02250e-07	-0.0002022836176075766
1.02500e-07	-0.00018305963537215984
1.02750e-07	-0.0001642380856021275
1.03000e-07	-0.00014559794803354565
1.03250e-07	-0.0001275076563953388
1.03500e-07	-0.00010966522935372438
1.03750e-07	-9.176514036937669e-05
1.04000e-07	-7.383905800509413e-05
1.04250e-07	-5.586523370875155e-05
1.04500e-07	-3.7869887865960785e-05
1.04750e-07	-2.0050489310571607e-05
1.05000e-07	-2.5407690486680767e-06
1.05250e-07	1.4600947867698138e-05
1.05500e-07	3.145120797777192e-05
1.05750e-07	4.817009322904749e-05
1.06000e-07	6.481034304858845e-05
1.06250e-07	8.119785305311047e-05
1.06500e-07	9.748249393154942e-05
1.06750e-07	0.00011321735156926744
1.07000e-07	0.00012870437287020834
1.07250e-07	0.0001436269365364794
1.07500e-07	0.0001579418201973254
1.07750e-07	0.00017179809653091333
1.08000e-07	0.0001851990383093734
1.08250e-07	0.00019806884669558932
1.08500e-07	0.00021031096890313235
1.08750e-07	0.00022182871748565387
1.09000e-07	0.0002325254195487223
1.09250e-07	0.00024227900988729346
1.09500e-07	0.0002509044387692959
1.09750e-07	0.0002582097239418182
1.10000e-07	0.00026409570929995856
1.10250e-07	0.00026854520295640236
1.10500e-07	0.0002715609725783359
1.10750e-07	0.0002731459576526357
1.11000e-07	0.0002733030575447999
1.11250e-07	0.0002720192855291027
1.11500e-07	0.0002692422241063854
1.11750e-07	0.00026491513631411967
1.12000e-07	0.00025903939904932426
1.12250e-07	0.0002516677496830422
1.12500e-07	0.0002428654067794023
1.12750e-07	0.00023269769939463926
1.13000e-07	0.00022122997565847188
1.13250e-07	0.00020851758796876132
1.13500e-07	0.00019459118963391172
1.13750e-07	0.0001794787113394535
1.14000e-07	0.00016324451099215625
1.14250e-07	0.00014598512273858322
1.14500e-07	0.00012780488274456212
1.14750e-07	0.00010880818418915685
1.15000e-07	8.90994174970415e-05
1.15250e-07	6.877671189716376e-05
1.15500e-07	4.792273190911371e-05
1.15750e-07	2.6618428420667467e-05
1.16000e-07	4.9675563814647294e-06
1.16250e-07	-1.6913507849896375e-05
1.16500e-07	-3.885472313484004e-05
1.16750e-07	-6.079593841978486e-05
1.17000e-07	-8.246199020830781e-05
1.17250e-07	-0.00010400400522811207
1.17500e-07	-0.0001249403378975022
1.17750e-07	-0.00014560363551624042
1.18000e-07	-0.00016560191126672102
1.18250e-07	-0.00018472693746990533
1.18500e-07	-0.0002029207066742419
1.18750e-07	-0.0002200391940531429
1.19000e-07	-0.0002359383592409061
1.19250e-07	-0.00025048552723930684
1.19500e-07	-0.0002635924092795965
1.19750e-07	-0.00027522452326107067
1.20000e-07	-0.00028536343403985696
1.20250e-07	-0.00029398195631902496
1.20500e-07	-0.0003010489871469591
1.20750e-07	-0.0003065333342861459
1.21000e-07	-0.0003104038495692599
1.21250e-07	-0.0003126365024247345
1.21500e-07	-0.0003132350489145866
1.21750e-07	-0.00031170819078038824
1.22000e-07	-0.0003094514652148579
1.22250e-07	-0.0003051341357738277
1.22500e-07	-0.0002998879083995268
1.22750e-07	-0.00029269015714576436
1.23000e-07	-0.0002846126800408025
1.23250e-07	-0.00027470933921181433
1.23500e-07	-0.0002639829187701708
1.23750e-07	-0.0002516397422106998
1.24000e-07	-0.00023856774948510025
1.24250e-07	-0.0002241170407764728
1.24500e-07	-0.0002090448218191157
1.24750e-07	-0.00019282499604551028
1.25000e-07	-0.00017608784153517063
1.25250e-07	-0.00015863719351695468
1.25500e-07	-0.00014047964481388552
1.25750e-07	-0.00012184224631298771
1.26000e-07	-0.00010283963956239024
1.26250e-07	-8.358431953735546e-05
1.26500e-07	-6.418779633027269e-05
1.26750e-07	-4.4761568092813053e-05
1.27000e-07	-2.5417118938129477e-05
1.27250e-07	-6.26767216554588e-06
1.27500e-07	1.2566729892917785e-05
1.27750e-07	3.095776779792361e-05
1.28000e-07	4.877467277832801e-05
1.28250e-07	6.58880370267606e-05
1.28500e-07	8.216907739905058e-05
1.28750e-07	9.748903289729039e-05
1.29000e-07	0.00011171915820588571
1.29250e-07	0.00012476200219036437
1.29500e-07	0.00013661918078903328
1.29750e-07	0.00014736805318124274
1.30000e-07	0.00015704775085753175
1.30250e-07	0.00016563329500008167
1.30500e-07	0.0001730817239918809
1.30750e-07	0.00017934993958159474
1.31000e-07	0.00018439484902666128
1.31250e-07	0.00018819299349020425
1.31500e-07	0.00019078296379636682
1.31750e-07	0.00019225077409564212
1.32000e-07	0.00019265848100375824
1.32250e-07	0.00019202802360662356
1.32500e-07	0.00019037005151733557
1.32750e-07	0.00018769511487443457
1.33000e-07	0.00018401380393783946
1.33250e-07	0.00017934896407399676
1.33500e-07	0.00017348665894965915
1.33750e-07	0.00016722107718956865
1.34000e-07	0.00015993702428302115
1.34250e-07	0.00015219385560255816
1.34500e-07	0.00014356190812954685
1.34750e-07	0.0001345293087926135
1.35000e-07	0.00012473353565167417
1.35250e-07	0.0001145937320167177
1.35500e-07	0.00010388578459549826
1.35750e-07	9.292172410221901e-05
1.36000e-07	8.158150897432562e-05
1.36250e-07	7.007172740678934e-05
1.36500e-07	5.8561945839254294e-05
1.36750e-07	4.694301322740767e-05
1.37000e-07	3.5274876505697925e-05
1.37250e-07	2.3680812624055307e-05
1.37500e-07	1.2248898882296411e-05
1.37750e-07	1.0723470788220808e-06
1.38000e-07	-9.757875644047178e-06
1.38250e-07	-2.0160681625127655e-05
1.38500e-07	-3.005776425040849e-05
1.38750e-07	-3.937084211881617e-05
1.39000e-07	-4.802164351532034e-05
1.39250e-07	-5.598803327906898e-05
1.39500e-07	-6.34122282473116e-05
1.39750e-07	-7.053087019506221e-05
1.40000e-07	-7.746522069208698e-05
1.40250e-07	-8.410596283273675e-05
1.40500e-07	-9.063742991192239e-05
1.40750e-07	-9.672410888864069e-05
1.41000e-07	-0.00010261028220096013
1.41250e-07	-0.0001079677368317922
1.41500e-07	-0.00011308685080125411
1.41750e-07	-0.00011820596477071549
1.42000e-07	-0.00012309898307390552
1.42250e-07	-0.00012789007989688557
1.42500e-07	-0.00013268117671986514
1.42750e-07	-0.00013711821241363457
