Time(s)	Current(A)
1.02500e-05	0.008498751794801307
1.02503e-05	0.008490395444792909
1.02505e-05	0.00848203909478451
1.02508e-05	0.008473682744776168
1.02510e-05	0.00846532639476777
1.02513e-05	0.008454876335527947
1.02515e-05	0.008437185630392596
1.02518e-05	0.008419494925257122
1.02520e-05	0.00840180422012165
1.02522e-05	0.008384113514986299
1.02525e-05	0.008366422809850827
1.02528e-05	0.008348732104715354
1.02530e-05	0.008331041399580002
1.02533e-05	0.00831335069444453
1.02535e-05	0.008295659989309057
1.02537e-05	0.008277969284173705
1.02540e-05	0.008260278579038233
1.02543e-05	0.008242587873902762
1.02545e-05	0.008224897168767408
1.02548e-05	0.008207206463631937
1.02550e-05	0.008189515758496465
1.02553e-05	0.008173772804130147
1.02555e-05	0.00816476572951403
1.02558e-05	0.008155758654897854
1.02560e-05	0.008146751580281676
1.02563e-05	0.008137744505665559
1.02565e-05	0.00812873743104938
1.02568e-05	0.008119730356433203
1.02570e-05	0.008110723281817087
1.02573e-05	0.00810171620720091
1.02575e-05	0.008092709132584731
1.02578e-05	0.008083702057968614
1.02580e-05	0.008074694983352438
1.02583e-05	0.00806568790873626
1.02585e-05	0.008056680834120143
1.02588e-05	0.008047673759503965
1.02590e-05	0.008038666684887787
1.02593e-05	0.008029659610271671
1.02595e-05	0.008020652535655494
1.02598e-05	0.008011645461039316
1.02600e-05	0.008002638386423198
1.02603e-05	0.007993631311807022
1.02605e-05	0.007984624237190844
1.02607e-05	0.007977978676557267
1.02610e-05	0.007979499907317214
1.02613e-05	0.00798102113807716
1.02615e-05	0.007982542368837097
1.02618e-05	0.007984063599597043
1.02620e-05	0.00798558483035699
1.02622e-05	0.007987106061116927
1.02625e-05	0.007988627291876873
1.02628e-05	0.00799014852263682
1.02630e-05	0.007991669753396756
1.02633e-05	0.007993190984156703
1.02635e-05	0.00799471221491665
1.02638e-05	0.007996233445676596
1.02640e-05	0.007997754676436533
1.02643e-05	0.00799927590719648
1.02645e-05	0.008000797137956426
1.02648e-05	0.008002318368716364
1.02650e-05	0.008003839599476311
1.02653e-05	0.008005360830236258
1.02655e-05	0.008006882060996194
1.02658e-05	0.00800840329175614
1.02660e-05	0.008009924522516088
1.02663e-05	0.008012042264559847
1.02665e-05	0.008016222913389635
1.02668e-05	0.008020403562219423
1.02670e-05	0.008024584211049183
1.02673e-05	0.00802876485987897
1.02675e-05	0.008032945508708759
1.02678e-05	0.008037126157538519
1.02680e-05	0.008041306806368307
1.02683e-05	0.008045487455198095
1.02685e-05	0.008049668104027853
1.02688e-05	0.008053848752857641
1.02690e-05	0.00805802940168743
1.02692e-05	0.00806221005051719
1.02695e-05	0.008066390699346978
1.02698e-05	0.008070571348176766
1.02700e-05	0.008074751997006526
1.02703e-05	0.00808044119543497
1.02705e-05	0.008091347390237343
1.02707e-05	0.008102253585039642
1.02710e-05	0.008113159779842016
1.02713e-05	0.00812406597464439
1.02715e-05	0.00813497216944669
1.02718e-05	0.008145878364249064
1.02720e-05	0.008156784559051437
1.02723e-05	0.008167690753853811
1.02725e-05	0.00817859694865611
1.02728e-05	0.008189503143458484
1.02730e-05	0.008200409338260857
1.02733e-05	0.008211315533063156
1.02735e-05	0.00822222172786553
1.02738e-05	0.008233127922667904
1.02740e-05	0.008244034117470204
1.02743e-05	0.008254339317889313
1.02745e-05	0.008262566107680329
1.02748e-05	0.00827079289747129
1.02750e-05	0.008279019687262306
1.02753e-05	0.008287246477053322
1.02755e-05	0.008295473266844284
1.02758e-05	0.0083037000566353
1.02760e-05	0.008311926846426315
1.02763e-05	0.008320153636217275
1.02765e-05	0.008328380426008293
1.02768e-05	0.008336607215799308
1.02770e-05	0.008344834005590268
1.02773e-05	0.008353060795381286
1.02775e-05	0.008361287585172301
1.02777e-05	0.008369514374963262
1.02780e-05	0.008366840023898965
1.02783e-05	0.008360016255509322
1.02785e-05	0.008353192487119725
1.02788e-05	0.008346368718730084
1.02790e-05	0.00833954495034044
1.02792e-05	0.008332721181950845
1.02795e-05	0.008325897413561203
1.02798e-05	0.00831907364517156
1.02800e-05	0.008312249876781964
1.02803e-05	0.00830542610839232
1.02805e-05	0.00829860234000268
1.02808e-05	0.008291778571613036
1.02810e-05	0.00828495480322344
1.02813e-05	0.008278131034833798
1.02815e-05	0.008268747752764894
1.02818e-05	0.008250512939662048
1.02820e-05	0.008232278126559078
1.02823e-05	0.008214043313456109
1.02825e-05	0.008195808500353263
1.02828e-05	0.008177573687250294
1.02830e-05	0.008159338874147324
1.02833e-05	0.008141104061044478
1.02835e-05	0.008122869247941509
1.02838e-05	0.00810463443483854
1.02840e-05	0.008086399621735694
1.02843e-05	0.008068164808632724
1.02845e-05	0.008049929995529755
1.02848e-05	0.008031695182426909
1.02850e-05	0.008017641131611707
1.02853e-05	0.008005178448865627
1.02855e-05	0.00799271576611963
1.02858e-05	0.007980253083373549
1.02860e-05	0.007967790400627468
1.02862e-05	0.007955327717881471
1.02865e-05	0.00794286503513539
1.02868e-05	0.007930402352389308
1.02870e-05	0.007917939669643312
1.02873e-05	0.00790547698689723
1.02875e-05	0.00789301430415115
1.02877e-05	0.007880551621405153
1.02880e-05	0.007868088938659073
1.02883e-05	0.00786085360239939
1.02885e-05	0.007871695926766918
1.02888e-05	0.007882538251134519
1.02890e-05	0.007893380575502122
1.02893e-05	0.007904222899869723
1.02895e-05	0.007915065224237251
1.02898e-05	0.007925907548604854
1.02900e-05	0.007936749872972455
1.02903e-05	0.007947592197339983
1.02905e-05	0.007958434521707585
1.02908e-05	0.007969276846075186
1.02910e-05	0.007980119170442715
1.02913e-05	0.007990961494810317
1.02915e-05	0.008001803819177918
1.02918e-05	0.008016066428848594
1.02920e-05	0.008042157364253419
1.02923e-05	0.008068248299658243
1.02925e-05	0.00809433923506289
1.02928e-05	0.008120430170467714
1.02930e-05	0.008146521105872538
1.02933e-05	0.008172612041277186
1.02935e-05	0.00819870297668201
1.02938e-05	0.008224793912086834
1.02940e-05	0.008250884847491482
1.02943e-05	0.008276975782896306
1.02945e-05	0.00830306671830113
1.02947e-05	0.008329157653705777
1.02950e-05	0.008355248589110601
1.02953e-05	0.008378990384491615
1.02955e-05	0.008394608181159825
1.02958e-05	0.008410225977828142
1.02960e-05	0.008425843774496457
1.02962e-05	0.008441461571164667
1.02965e-05	0.008457079367832982
1.02968e-05	0.008472697164501298
1.02970e-05	0.008488314961169507
1.02973e-05	0.008503932757837823
1.02975e-05	0.008519550554506138
1.02978e-05	0.008535168351174453
1.02980e-05	0.008550786147842665
1.02983e-05	0.00856640394451098
1.02985e-05	0.008582021741179295
1.02988e-05	0.00858192088098628
1.02990e-05	0.00857583686104717
1.02993e-05	0.008569752841108058
1.02995e-05	0.008563668821168989
1.02998e-05	0.008557584801229878
1.03000e-05	0.008551500781290767
1.03003e-05	0.008545416761351697
1.03005e-05	0.008539332741412586
1.03008e-05	0.008533248721473475
1.03010e-05	0.008527164701534405
1.03013e-05	0.008521080681595294
1.03015e-05	0.008514996661656183
1.03018e-05	0.008508912641717114
1.03020e-05	0.00850019227215975
1.03023e-05	0.00848235465088814
1.03025e-05	0.00846451702961665
1.03028e-05	0.00844667940834504
1.03030e-05	0.00842884178707343
1.03032e-05	0.008411004165801941
1.03035e-05	0.008393166544530331
1.03038e-05	0.00837532892325872
1.03040e-05	0.00835749130198723
1.03043e-05	0.00833965368071562
1.03045e-05	0.008322106300918822
1.03047e-05	0.008305562659232494
1.03050e-05	0.008289019017546055
1.03053e-05	0.008272475375859616
1.03055e-05	0.008255931734173287
1.03058e-05	0.008239388092486848
1.03060e-05	0.00822284445080041
1.03063e-05	0.008206300809113968
1.03065e-05	0.008189757167427642
1.03068e-05	0.008173213525741203
1.03070e-05	0.008156151544477434
1.03073e-05	0.008137296996564685
1.03075e-05	0.00811844244865181
1.03078e-05	0.008099587900738933
1.03080e-05	0.008080733352826186
1.03083e-05	0.00806187880491331
1.03085e-05	0.008043024257000434
1.03088e-05	0.008024169709087686
1.03090e-05	0.00800531516117481
1.03093e-05	0.007986460613261935
1.03095e-05	0.007967606065349186
1.03098e-05	0.007948751517436311
1.03100e-05	0.007927344944656689
1.03103e-05	0.0078971127392908
1.03105e-05	0.007866880533924705
1.03108e-05	0.00783664832855861
1.03110e-05	0.00780641612319272
1.03113e-05	0.007776183917826625
1.03115e-05	0.00774595171246053
1.03117e-05	0.00771571950709464
1.03120e-05	0.007685487301728545
1.03123e-05	0.00765525509636245
1.03125e-05	0.00762502289099656
1.03128e-05	0.007594790685630465
1.03130e-05	0.007564122442618705
1.03132e-05	0.007531946256598748
1.03135e-05	0.007499770070578572
1.03138e-05	0.007467593884558397
1.03140e-05	0.007435417698538439
1.03143e-05	0.007403241512518264
1.03145e-05	0.007371065326498088
1.03148e-05	0.007338889140477912
1.03150e-05	0.0073067129544579544
1.03153e-05	0.0072745367684377785
1.03155e-05	0.0072423605824176035
1.03158e-05	0.007210184396397645
1.03160e-05	0.007181240995710275
1.03163e-05	0.007163477492193562
1.03165e-05	0.007145713988676968
1.03168e-05	0.007127950485160254
1.03170e-05	0.00711018698164354
1.03173e-05	0.007092423478126947
1.03175e-05	0.007074659974610233
1.03178e-05	0.007056896471093519
1.03180e-05	0.007039132967576926
1.03183e-05	0.0070213694640602125
1.03185e-05	0.0070036059605434985
1.03188e-05	0.006985842457026905
1.03190e-05	0.006972141541132829
1.03193e-05	0.0069724902162877
1.03195e-05	0.0069728388914425685
1.03198e-05	0.006973187566597439
1.03200e-05	0.00697353624175231
1.03202e-05	0.006973884916907178
1.03205e-05	0.006974233592062049
1.03208e-05	0.0069745822672169205
1.03210e-05	0.006974930942371789
1.03213e-05	0.006975279617526659
1.03215e-05	0.00697562829268153
1.03217e-05	0.006975976967836399
1.03220e-05	0.00697632564299127
1.03223e-05	0.006976674318146141
1.03225e-05	0.006977022993301009
1.03228e-05	0.00697737166845588
1.03230e-05	0.006982999871869332
1.03232e-05	0.006990637678346372
1.03235e-05	0.006998275484823464
1.03238e-05	0.0070059132913005565
1.03240e-05	0.007013551097777649
1.03243e-05	0.007021188904254689
1.03245e-05	0.00702882671073178
1.03248e-05	0.007036464517208872
1.03250e-05	0.007044102323685912
1.03253e-05	0.007051740130163004
1.03255e-05	0.007059377936640097
1.03258e-05	0.007067015743117137
1.03260e-05	0.007074653549594228
1.03263e-05	0.00708229135607132
1.03265e-05	0.00708992916254836
1.03268e-05	0.007097797968662077
1.03270e-05	0.007106465637650705
1.03273e-05	0.007115133306639274
1.03275e-05	0.007123800975627902
1.03278e-05	0.00713246864461653
1.03280e-05	0.007141136313605099
1.03283e-05	0.007149803982593727
1.03285e-05	0.0071584716515823545
1.03287e-05	0.007167139320570923
1.03290e-05	0.007175806989559551
1.03293e-05	0.007184474658548179
1.03295e-05	0.007193142327536748
1.03298e-05	0.007201809996525376
1.03300e-05	0.007210477665514003
1.03302e-05	0.007219145334502573
1.03305e-05	0.0072278130034912
1.03308e-05	0.007241157624359033
1.03310e-05	0.007256282483226668
1.03313e-05	0.0072714073420944055
1.03315e-05	0.007286532200962144
1.03317e-05	0.007301657059829779
1.03320e-05	0.007316781918697516
1.03323e-05	0.0073319067775652535
1.03325e-05	0.007347031636432991
1.03328e-05	0.007362156495300626
1.03330e-05	0.007377281354168364
1.03333e-05	0.007392406213036102
1.03335e-05	0.007407531071903737
1.03338e-05	0.007422655930771474
1.03340e-05	0.007437780789639211
1.03343e-05	0.0074529056485068464
1.03345e-05	0.007466455201427485
1.03348e-05	0.007474556895396314
1.03350e-05	0.007482658589365087
1.03353e-05	0.007490760283333915
1.03355e-05	0.007498861977302744
1.03358e-05	0.007506963671271517
1.03360e-05	0.007515065365240345
1.03363e-05	0.007523167059209174
1.03365e-05	0.007531268753177947
1.03368e-05	0.0075393704471467754
1.03370e-05	0.007547472141115604
1.03373e-05	0.007555573835084377
1.03375e-05	0.0075636755290532055
1.03378e-05	0.007571777223022034
1.03380e-05	0.007579878916990807
1.03383e-05	0.0075879806109596356
1.03385e-05	0.007596082304928463
1.03387e-05	0.007604183998897237
1.03390e-05	0.007612285692866066
1.03393e-05	0.007620387386834893
1.03395e-05	0.007628489080803667
1.03398e-05	0.007636590774772495
1.03400e-05	0.007644692468741323
1.03402e-05	0.007652794162710097
1.03405e-05	0.007653646177967165
1.03408e-05	0.00765173867081136
1.03410e-05	0.007649831163655556
1.03413e-05	0.007647923656499764
1.03415e-05	0.00764601614934396
1.03418e-05	0.007644108642188155
1.03420e-05	0.007642201135032364
1.03423e-05	0.007640293627876559
1.03425e-05	0.007638386120720755
1.03428e-05	0.007636478613564963
1.03430e-05	0.007634571106409159
1.03433e-05	0.007632663599253355
1.03435e-05	0.007630756092097563
1.03438e-05	0.007628848584941759
1.03440e-05	0.007626941077785954
1.03443e-05	0.007625033570630163
1.03445e-05	0.007623126063474358
1.03448e-05	0.007621218556318554
1.03450e-05	0.007619311049162762
1.03453e-05	0.0076174035420069576
1.03455e-05	0.0076154960348511535
1.03458e-05	0.0076135885276953615
1.03460e-05	0.007611681020539557
1.03463e-05	0.007610518289911814
1.03465e-05	0.007611931209737783
1.03468e-05	0.007613344129563762
1.03470e-05	0.007614757049389741
1.03472e-05	0.00761616996921571
1.03475e-05	0.007617582889041689
1.03478e-05	0.007618995808867668
1.03480e-05	0.007620408728693637
1.03483e-05	0.007621821648519616
1.03485e-05	0.007623234568345595
1.03487e-05	0.007624647488171564
1.03490e-05	0.0076260604079975425
1.03493e-05	0.007627473327823522
1.03495e-05	0.0076288862476495
1.03498e-05	0.007630299167475469
1.03500e-05	0.007631712087301449
1.03503e-05	0.007633125007127427
1.03505e-05	0.007634537926953396
1.03508e-05	0.007637624082635384
1.03510e-05	0.007646496766933681
1.03513e-05	0.007655369451231918
1.03515e-05	0.007664242135530215
1.03518e-05	0.0076731148198285115
1.03520e-05	0.007681987504126748
1.03523e-05	0.0076908601884250445
1.03525e-05	0.0076997328727233414
1.03528e-05	0.0077086055570215785
1.03530e-05	0.007717478241319875
1.03533e-05	0.007726350925618172
1.03535e-05	0.0077352236099164084
1.03538e-05	0.007744096294214705
1.03540e-05	0.007752968978513002
1.03543e-05	0.007761841662811239
1.03545e-05	0.007770714347109536
1.03548e-05	0.007779587031407833
1.03550e-05	0.007788459715706069
1.03553e-05	0.007796087428762533
1.03555e-05	0.00779940967484457
1.03557e-05	0.007802731920926584
1.03560e-05	0.007806054167008621
1.03563e-05	0.007809376413090658
1.03565e-05	0.007812698659172671
1.03568e-05	0.007816020905254708
1.03570e-05	0.007819343151336745
1.03572e-05	0.007822665397418759
1.03575e-05	0.007825987643500797
1.03578e-05	0.007829309889582834
1.03580e-05	0.00783263213566487
1.03583e-05	0.007835954381746885
1.03585e-05	0.007839276627828922
1.03588e-05	0.007842598873910958
1.03590e-05	0.007845921119992973
1.03593e-05	0.00784924336607501
1.03595e-05	0.007852565612157046
1.03598e-05	0.00785588785823906
1.03600e-05	0.007859210104321097
1.03603e-05	0.007862532350403134
1.03605e-05	0.007865854596485148
1.03608e-05	0.007869176842567185
1.03610e-05	0.007872499088649221
1.03613e-05	0.007875821334731236
1.03615e-05	0.007879143580813272
1.03618e-05	0.007882465826895309
1.03620e-05	0.007885788072977323
1.03623e-05	0.00788911031905936
1.03625e-05	0.007892432565141397
1.03628e-05	0.007895754811223411
1.03630e-05	0.007899077057305448
1.03633e-05	0.007902399303387484
1.03635e-05	0.007905721549469499
1.03638e-05	0.007909043795551535
1.03640e-05	0.007912366041633572
1.03642e-05	0.007915688287715586
1.03645e-05	0.007919010533797623
1.03648e-05	0.00792233277987966
1.03650e-05	0.007925655025961674
1.03653e-05	0.00792897727204371
1.03655e-05	0.007929658847333173
1.03657e-05	0.00792933527597645
1.03660e-05	0.007929011704619722
1.03663e-05	0.007928688133262996
1.03665e-05	0.00792836456190627
1.03668e-05	0.007928040990549544
1.03670e-05	0.007927717419192818
1.03673e-05	0.007927393847836093
1.03675e-05	0.007927070276479369
1.03678e-05	0.007926746705122641
1.03680e-05	0.007926423133765915
1.03683e-05	0.007926099562409191
1.03685e-05	0.007925775991052464
1.03688e-05	0.007925452419695738
1.03690e-05	0.007925128848339014
1.03693e-05	0.007924805276982288
1.03695e-05	0.00792448170562556
1.03698e-05	0.007924158134268836
1.03700e-05	0.00792383456291211
1.03703e-05	0.007923510991555383
1.03705e-05	0.007923187420198659
1.03708e-05	0.007922863848841933
1.03710e-05	0.007922540277485207
1.03713e-05	0.007922216706128481
1.03715e-05	0.007921893134771756
1.03718e-05	0.00792156956341503
1.03720e-05	0.007921245992058306
1.03723e-05	0.007920922420701578
1.03725e-05	0.007920598849344852
1.03727e-05	0.007920275277988128
1.03730e-05	0.0079199517066314
1.03733e-05	0.007919628135274675
1.03735e-05	0.00791930456391795
1.03738e-05	0.007918980992561225
1.03740e-05	0.007918657421204497
1.03742e-05	0.007918333849847773
1.03745e-05	0.007918010278491048
1.03748e-05	0.00791768670713432
1.03750e-05	0.007917363135777594
1.03753e-05	0.00791703956442087
1.03755e-05	0.007916554680311267
1.03758e-05	0.007915511930519892
1.03760e-05	0.007914469180728526
1.03763e-05	0.007913426430937153
1.03765e-05	0.00791238368114578
1.03768e-05	0.007911340931354413
1.03770e-05	0.00791029818156304
1.03773e-05	0.00790724694633486
1.03775e-05	0.007903079343287595
1.03778e-05	0.007898911740240303
1.03780e-05	0.00789474413719301
1.03783e-05	0.007890576534145747
1.03785e-05	0.007886408931098455
1.03788e-05	0.007882474686901635
1.03790e-05	0.00787663172934859
1.03793e-05	-0.003913941354044321
1.03795e-05	-0.010376996076054103
1.03798e-05	-0.0070695175375183805
1.03800e-05	-0.004174263532500558
1.03803e-05	0.004571505607869187
1.03805e-05	0.011503317971054585
1.03808e-05	0.010379263407515282
1.03810e-05	0.009600571672746147
1.03812e-05	0.004541166239054919
1.03815e-05	-0.004688991167483323
1.03818e-05	-6.104705531313238e-05
1.03820e-05	0.0028450616109345433
1.03823e-05	0.007247121683616701
1.03825e-05	0.010751917955992186
1.03827e-05	0.011113442620018647
1.03830e-05	0.009134572799937535
1.03833e-05	0.005675459604782199
1.03835e-05	0.0028980737095821276
1.03838e-05	0.0030647161138236444
1.03840e-05	0.005104677317572652
1.03843e-05	0.007858501150697264
1.03845e-05	0.01000918566055833
1.03848e-05	0.010197037826887329
1.03850e-05	0.008924196894924682
1.03853e-05	0.0067287986811511175
1.03855e-05	0.004964492786967205
1.03858e-05	0.005047765337329024
1.03860e-05	0.006307370571558638
1.03863e-05	0.00801661648237243
1.03865e-05	0.00935026034438532
1.03868e-05	0.00945648350266864
1.03870e-05	0.008649878929259504
1.03873e-05	0.007267610659115843
1.03875e-05	0.0061575163786660855
1.03878e-05	0.0062066367501163325
1.03880e-05	0.00699424528300498
1.03883e-05	0.008064943543398291
1.03885e-05	0.008901658362341417
1.03888e-05	0.008970729936795343
1.03890e-05	0.008469162301925733
1.03893e-05	0.007608086983602248
1.03895e-05	0.006918494494004553
1.03897e-05	0.006955887039625276
1.03900e-05	0.007456575512717262
1.03903e-05	0.00813518078835278
1.03905e-05	0.008667721054327041
1.03908e-05	0.008719858772186364
1.03910e-05	0.008414953129013452
1.03912e-05	0.007885205166029014
1.03915e-05	0.0074631546274430615
1.03918e-05	0.007496663988703763
1.03920e-05	0.007820449787242629
1.03923e-05	0.008255656786784252
1.03925e-05	0.008599269661163988
1.03928e-05	0.008641803713790995
1.03930e-05	0.008460482662318082
1.03933e-05	0.008138061163189155
1.03935e-05	0.007882771828896046
1.03938e-05	0.007912427744015323
1.03940e-05	0.008123402196495736
1.03943e-05	0.008403578373096876
1.03945e-05	0.008625715831276918
1.03948e-05	0.008658532943355762
1.03950e-05	0.008550346981913273
1.03953e-05	0.00835293358772904
1.03955e-05	0.00819666192019673
1.03958e-05	0.008217889401906063
1.03960e-05	0.00835161857482562
1.03963e-05	0.008527543074903861
1.03965e-05	0.008665887808688317
1.03968e-05	0.008684415547633946
1.03970e-05	0.008613602530451153
1.03973e-05	0.008486226431290916
1.03975e-05	0.00838414433628649
1.03978e-05	0.008392809918096846
1.03980e-05	0.008471527695637039
1.03982e-05	0.008576281597871487
1.03985e-05	0.008657125801404014
1.03988e-05	0.00866257843870075
1.03990e-05	0.008611763018890993
1.03993e-05	0.008525242234490367
1.03995e-05	0.00845431966386706
1.03997e-05	0.008452544693992113
1.04000e-05	0.008494450252640545
1.04003e-05	0.00854426070786764
1.04005e-05	0.008594500438494154
1.04008e-05	0.008575761544368503
1.04010e-05	0.008549528515747931
1.04013e-05	0.008494883975195499
1.04015e-05	0.008437152685779143
