Time(s)	Current(A)
3.00000e-07	-7.898726760114135e-05
3.00250e-07	-3.9717863711869217e-05
3.00500e-07	1.0848022682019229e-06
3.00750e-07	4.3179194505726224e-05
3.01000e-07	8.632508789449307e-05
3.01250e-07	0.00013033852357463417
3.01500e-07	0.00017536902737366972
3.01750e-07	0.0002207434124549013
3.02000e-07	0.0002666503787360968
3.02250e-07	0.00031290799134721733
3.02500e-07	0.0003591351222344303
3.02750e-07	0.00040505480380798156
3.03000e-07	0.0004503908974623397
3.03250e-07	0.0004949026101847453
3.03500e-07	0.0005384132373577209
3.03750e-07	0.0005807443882856926
3.04000e-07	0.000621650299987172
3.04250e-07	0.00066084039020698
3.04500e-07	0.0006980156540886198
3.04750e-07	0.0007328770348078053
3.05000e-07	0.0007651253630737163
3.05250e-07	0.0007944608095672057
3.05500e-07	0.0008206162754825894
3.05750e-07	0.0008434167806774847
3.06000e-07	0.000862776445328657
3.06250e-07	0.0008786443320334566
3.06500e-07	0.0008909741837877383
3.06750e-07	0.000898463745828088
3.07000e-07	0.000904268941370141
3.07250e-07	0.0009049953722966936
3.07500e-07	0.0009034323510820145
3.07750e-07	0.0008968476579725192
3.08000e-07	0.0008879992495025899
3.08250e-07	0.000874408454049076
3.08500e-07	0.0008586798418515113
3.08750e-07	0.0008385183189184367
3.09000e-07	0.0008163584877856969
3.09250e-07	0.0007900810197046163
3.09500e-07	0.0007619473654361578
3.09750e-07	0.0007301210398535708
3.10000e-07	0.0006966300979937962
3.10250e-07	0.0006600105512711195
3.10500e-07	0.000621980663324797
3.10750e-07	0.0005814050538930339
3.11000e-07	0.0005396818607579214
3.11250e-07	0.000495642995431072
3.11500e-07	0.00045056025013358005
3.11750e-07	0.00040547750483607855
3.12000e-07	0.00035899418910669966
3.12250e-07	0.0003118795113794872
3.12500e-07	0.00026476483365226475
3.12750e-07	0.00021773292131238033
3.13000e-07	0.0001707383187136747
3.13250e-07	0.00012435854112434697
3.13500e-07	7.892194490013673e-05
3.13750e-07	3.46568513074012e-05
3.14000e-07	-8.130653867139251e-06
3.14250e-07	-4.912914620320778e-05
3.14500e-07	-8.802650378868435e-05
3.14750e-07	-0.00012451064197480243
3.15000e-07	-0.00015828084294885485
3.15250e-07	-0.00018954322145652618
3.15500e-07	-0.0002194749602231407
3.15750e-07	-0.0002493596625097166
3.16000e-07	-0.0002796848467387501
3.16250e-07	-0.00031016381863264926
3.16500e-07	-0.00034026757205741544
3.16750e-07	-0.0003702021810558134
3.17000e-07	-0.0004001367900542114
3.17250e-07	-0.0004297691714001351
3.17500e-07	-0.00045926531179014875
3.17750e-07	-0.0004887614521801562
3.18000e-07	-0.0005204627751166832
3.18250e-07	-0.0005531581704871987
3.18500e-07	-0.0005858535658577072
3.18750e-07	-0.0006185489612282227
3.19000e-07	-0.0006512443565987382
3.19250e-07	-0.0006839397519692468
3.19500e-07	-0.0007171679355917409
3.19750e-07	-0.0007526781459837347
3.20000e-07	-0.0007881883563757208
3.20250e-07	-0.0008236985667677146
3.20500e-07	-0.0008592087771597083
3.20750e-07	-0.0008947189875516945
3.21000e-07	-0.0009302291979436881
3.21250e-07	-0.0009659777252051057
3.21500e-07	-0.001001833683132909
3.21750e-07	-0.0010376896410607122
3.22000e-07	-0.0010735455989885076
3.22250e-07	-0.001109401556916311
3.22500e-07	-0.0011452575148441142
3.22750e-07	-0.0011787106435736964
3.23000e-07	-0.001211080602897053
3.23250e-07	-0.0012434505622204094
3.23500e-07	-0.0012758205215437591
3.23750e-07	-0.0013081904808671157
3.24000e-07	-0.0013405604401904724
3.24250e-07	-0.0013696943027927831
3.24500e-07	-0.0013973693680047348
3.24750e-07	-0.001422583307656455
3.25000e-07	-0.0014466877985326477
3.25250e-07	-0.0014671933215727167
3.25500e-07	-0.0014860764688496505
3.25750e-07	-0.0014996134024063616
3.26000e-07	-0.0015107403206589202
3.26250e-07	-0.0015162694641521128
3.26500e-07	-0.0015192751913463629
3.26750e-07	-0.0015168275807415164
3.27000e-07	-0.001511921664456747
3.27250e-07	-0.0015013778520347589
3.27500e-07	-0.0014882925370307664
3.27750e-07	-0.0014690032132480607
3.28000e-07	-0.0014469171894293592
3.28250e-07	-0.0014189979184846763
3.28500e-07	-0.0013884490828457723
3.28750e-07	-0.001352685711848746
3.29000e-07	-0.001314571684728581
3.29250e-07	-0.0012716559311070183
3.29500e-07	-0.0012265756111287216
3.29750e-07	-0.0011768671297296362
3.30000e-07	-0.0011250723232343273
3.30250e-07	-0.0010702621544651353
3.30500e-07	-0.0010123879356612733
3.30750e-07	-0.0009522696065341018
3.31000e-07	-0.0008902383071510181
3.31250e-07	-0.0008265770951069861
3.31500e-07	-0.0007614864688579378
3.31750e-07	-0.0006951826543311632
3.32000e-07	-0.0006279869313309575
3.32250e-07	-0.0005602865425181327
3.32500e-07	-0.0004924811035455627
3.32750e-07	-0.00042497017892719635
3.33000e-07	-0.00035815262398409154
3.33250e-07	-0.00029239705602267306
3.33500e-07	-0.00022802036430905255
3.33750e-07	-0.00016534929384202153
3.34000e-07	-0.00010477636943761227
3.34250e-07	-4.673540020400551e-05
3.34500e-07	8.332094692443198e-06
3.34750e-07	5.998464800428696e-05
3.35000e-07	0.00010779271383488576
3.35250e-07	0.00015186064508724553
3.35500e-07	0.0001933285196052057
3.35750e-07	0.00023348322656828588
3.36000e-07	0.00027275287403039436
3.36250e-07	0.0003104447088909227
3.36500e-07	0.0003475455880171511
3.36750e-07	0.00038291279231533667
3.37000e-07	0.0004154168573106332
3.37250e-07	0.00044698255168187153
3.37500e-07	0.00047712906264536466
3.37750e-07	0.0005066358210828566
3.38000e-07	0.0005355120486632615
3.38250e-07	0.0005641040397550233
3.38500e-07	0.0005926960308467912
3.38750e-07	0.000619481998235913
3.39000e-07	0.0006454538296793167
3.39250e-07	0.0006714256611227258
3.39500e-07	0.0006958979694426962
3.39750e-07	0.000719694308962013
3.40000e-07	0.0007434906484813349
3.40250e-07	0.0007672869880006568
3.40500e-07	0.0007910833275199737
3.40750e-07	0.0008148796670392957
3.41000e-07	0.0008367861960452204
3.41250e-07	0.0008578408189176425
3.41500e-07	0.0008788954417900647
3.41750e-07	0.0008999500646624823
3.42000e-07	0.0009210046875349044
3.42250e-07	0.0009420593104073267
3.42500e-07	0.0009616079238668882
3.42750e-07	0.0009804776445767088
3.43000e-07	0.0009993473652865294
3.43250e-07	0.0010169201892048566
3.43500e-07	0.0010339083860807566
3.43750e-07	0.0010501046270792306
3.44000e-07	0.0010659438629363562
3.44250e-07	0.0010810958998336319
3.44500e-07	0.0010953736470882538
3.44750e-07	0.0011087526512546502
3.45000e-07	0.0011211151091912823
3.45250e-07	0.0011322479920319291
3.45500e-07	0.0011417761261964296
3.45750e-07	0.0011493580298977566
3.46000e-07	0.001154862157404207
3.46250e-07	0.0011575832253726492
3.46500e-07	0.001159343134000368
3.46750e-07	0.0011583157302659357
3.47000e-07	0.0011560318362746737
3.47250e-07	0.0011500767693409675
3.47500e-07	0.0011424667773633566
3.47750e-07	0.0011348567853857437
3.48000e-07	0.0011226477333600986
3.48250e-07	0.0011083654748221933
3.48500e-07	0.0010940832162842848
3.48750e-07	0.0010758038788516442
3.49000e-07	0.0010557227014977852
3.49250e-07	0.0010356415241439263
3.49500e-07	0.001011955628223147
3.49750e-07	0.000986644764171964
3.50000e-07	0.000961333900120781
3.50250e-07	0.0009330816709902954
3.50500e-07	0.0009035035063047779
3.50750e-07	0.0008739253416192603
3.51000e-07	0.0008423939211481858
3.51250e-07	0.0008099819941013106
3.51500e-07	0.0007775700670544355
3.51750e-07	0.00074402576761286
3.52000e-07	0.0007099710069469168
3.52250e-07	0.0006759162462809735
3.52500e-07	0.0006418723183870576
3.52750e-07	0.000607833273789561
3.53000e-07	0.0005737942291920717
3.53250e-07	0.0005409464284243833
3.53500e-07	0.0005086356274870684
3.53750e-07	0.00047632482654976047
3.54000e-07	0.00044584487776107594
3.54250e-07	0.00041619025731294855
3.54500e-07	0.00038870199066195295
3.54750e-07	0.00036219029286484823
3.55000e-07	0.00033820523883798114
3.55250e-07	0.00031535916848690685
3.55500e-07	0.00029272277245648287
3.55750e-07	0.00027018089534133755
3.56000e-07	0.0002461486594941584
3.56250e-07	0.0002214445860548062
3.56500e-07	0.00019595355184957942
3.56750e-07	0.00016980822806854075
3.57000e-07	0.00014339051105231553
3.57250e-07	0.0001166432665493634
3.57500e-07	8.894819632165085e-05
3.57750e-07	5.9638023649295996e-05
3.58000e-07	2.8551427206872513e-05
3.58250e-07	-4.1215734989376975e-06
3.58500e-07	-3.8122176592376835e-05
3.58750e-07	-7.319161883825939e-05
3.59000e-07	-0.00010907534487411415
3.59250e-07	-0.00014570384708190116
3.59500e-07	-0.00018335912943161657
3.59750e-07	-0.0002223538236535052
3.60000e-07	-0.0002630377820392351
3.60250e-07	-0.00030428380332208553
3.60500e-07	-0.0003466870622235715
3.60750e-07	-0.00038961199132334074
3.61000e-07	-0.0004325369204231191
3.61250e-07	-0.000476072214372436
3.61500e-07	-0.0005198826541923624
3.61750e-07	-0.0005636930940122981
3.62000e-07	-0.0006075035338322339
3.62250e-07	-0.0006508752915218988
3.62500e-07	-0.0006940492960533643
3.62750e-07	-0.0007372233005848298
3.63000e-07	-0.0007803973051162861
3.63250e-07	-0.0008212714820568651
3.63500e-07	-0.000861108921601364
3.63750e-07	-0.0009009463611458544
3.64000e-07	-0.0009378121439707844
3.64250e-07	-0.0009733383360969592
3.64500e-07	-0.0010088645282231264
3.64750e-07	-0.00103987974009948
3.65000e-07	-0.001068861450883611
3.65250e-07	-0.0010978431616677482
3.65500e-07	-0.0011230191457819471
3.65750e-07	-0.0011464795494875789
3.66000e-07	-0.0011699399531932154
3.66250e-07	-0.0011904223610015854
3.66500e-07	-0.0012095623204784695
3.66750e-07	-0.0012287022799553576
3.67000e-07	-0.0012419638109147327
3.67250e-07	-0.0012525754098972612
3.67500e-07	-0.001263187008879792
3.67750e-07	-0.0012737986078623226
3.68000e-07	-0.001284410206844851
3.68250e-07	-0.0012950218058273818
3.68500e-07	-0.0013056334048099105
3.68750e-07	-0.0013162450037924411
3.69000e-07	-0.001325211099666954
3.69250e-07	-0.001327129213293055
3.69500e-07	-0.0013290473269191565
3.69750e-07	-0.001330965440545258
3.70000e-07	-0.0013328835541713592
3.70250e-07	-0.0013348016677974606
3.70500e-07	-0.0013367197814235622
3.70750e-07	-0.0013386378950496635
3.71000e-07	-0.0013405560086757649
3.71250e-07	-0.0013393123718253694
3.71500e-07	-0.0013366434520672152
3.71750e-07	-0.0013339745323090605
3.72000e-07	-0.0013313056125509057
3.72250e-07	-0.0013286366927927513
3.72500e-07	-0.0013259677730345966
3.72750e-07	-0.0013230702306929573
3.73000e-07	-0.0013191934571957242
3.73250e-07	-0.001315316683698491
3.73500e-07	-0.0013114399102012587
3.73750e-07	-0.0013075631367040256
3.74000e-07	-0.0013036863632067924
3.74250e-07	-0.0012998095897095601
3.74500e-07	-0.001296252361383098
3.74750e-07	-0.0012928391805624541
3.75000e-07	-0.0012895222910486552
3.75250e-07	-0.0012862488086142036
3.75500e-07	-0.0012804894858508093
3.75750e-07	-0.0012736095731614825
3.76000e-07	-0.0012624807664362702
3.76250e-07	-0.0012494366042485477
3.76500e-07	-0.0012325770996340062
3.76750e-07	-0.0012139976799317147
3.77000e-07	-0.0011920042920666413
3.77250e-07	-0.001168471924289562
3.77500e-07	-0.0011404112973226192
3.77750e-07	-0.0011103093801042088
3.78000e-07	-0.001075078265698466
3.78250e-07	-0.0010375349646935495
3.78500e-07	-0.0009956373908538347
3.78750e-07	-0.000951776957929132
3.79000e-07	-0.0009043169954690811
3.79250e-07	-0.0008552344040378761
3.79500e-07	-0.0008023575539639102
3.79750e-07	-0.0007477702931439386
3.80000e-07	-0.0006895157177207522
3.80250e-07	-0.0006296079565511547
3.80500e-07	-0.0005675619867310293
3.80750e-07	-0.0005034713459079704
3.81000e-07	-0.0004380687617486741
3.81250e-07	-0.00037161929359035267
3.81500e-07	-0.0003041887091277871
3.81750e-07	-0.0002358385772975953
3.82000e-07	-0.00016682769306317573
3.82250e-07	-9.754777799819554e-05
3.82500e-07	-2.8416205900057956e-05
3.82750e-07	4.0149711682415295e-05
3.83000e-07	0.00010773422463438865
3.83250e-07	0.000173989014163067
3.83500e-07	0.00023869056922728015
3.83750e-07	0.0003016180133149992
3.84000e-07	0.00036242696499716627
3.84250e-07	0.00042068982412723973
3.84500e-07	0.0004759629228706206
3.84750e-07	0.0005278026425571808
3.85000e-07	0.0005757762956178969
3.85250e-07	0.0006191169478850352
3.85500e-07	0.000660929227845167
3.85750e-07	0.0007005820749458881
3.86000e-07	0.0007392614730765136
3.86250e-07	0.0007751332039326597
3.86500e-07	0.000809739268757668
3.86750e-07	0.0008443453335826763
3.87000e-07	0.0008745812843155319
3.87250e-07	0.0009028472348959699
3.87500e-07	0.0009311131854764078
3.87750e-07	0.0009572038886876524
3.88000e-07	0.0009823140139188986
3.88250e-07	0.0010074241391501394
3.88500e-07	0.001030318414177813
3.88750e-07	0.001052213807907023
3.89000e-07	0.0010741092016362283
3.89250e-07	0.001092585421453894
3.89500e-07	0.0011095203146643125
3.89750e-07	0.0011264552078747274
3.90000e-07	0.0011433901010851459
3.90250e-07	0.0011603249942955644
3.90500e-07	0.0011772598875059795
3.90750e-07	0.001194194780716398
3.91000e-07	0.0012111296739268165
3.91250e-07	0.0012247712038362883
3.91500e-07	0.0012369281212006248
3.91750e-07	0.0012490850385649614
3.92000e-07	0.0012612419559292953
3.92250e-07	0.0012733988732936319
3.92500e-07	0.0012855557906579658
3.92750e-07	0.0012977127080223024
3.93000e-07	0.001309869625386639
3.93250e-07	0.0013200005903722244
3.93500e-07	0.0013292182779442666
3.93750e-07	0.0013384359655163088
3.94000e-07	0.0013470392878031018
3.94250e-07	0.0013553656608661297
3.94500e-07	0.0013632417918269081
3.94750e-07	0.0013705557117018813
3.95000e-07	0.0013773016586544622
3.95250e-07	0.0013833071259985873
3.95500e-07	0.0013882117724712216
3.95750e-07	0.0013916730519696876
3.96000e-07	0.0013935628429748604
3.96250e-07	0.001393891920071323
3.96500e-07	0.001392189358790192
3.96750e-07	0.0013897879435315465
3.97000e-07	0.0013853691451517721
3.97250e-07	0.0013800409322870747
3.97500e-07	0.0013718015924882314
3.97750e-07	0.001362249948162975
3.98000e-07	0.0013526983038377187
3.98250e-07	0.0013387693048490122
3.98500e-07	0.001322867041736646
3.98750e-07	0.0013069647786242797
3.99000e-07	0.001291062515511917
3.99250e-07	0.0012751602523995507
3.99500e-07	0.0012547543967204619
3.99750e-07	0.0012323183702366925
4.00000e-07	0.0012098823437529183
4.00250e-07	0.0011874463172691489
4.00500e-07	0.0011650102907853747
4.00750e-07	0.0011400509506057687
4.01000e-07	0.0011139541279118303
4.01250e-07	0.0010878573052178864
4.01500e-07	0.001060710185094548
4.01750e-07	0.0010330896022532172
4.02000e-07	0.0010054690194118805
4.02250e-07	0.0009775830336560569
4.02500e-07	0.0009495774071377834
4.02750e-07	0.0009215717806195041
4.03000e-07	0.0008942931802154771
4.03250e-07	0.0008673423153180628
4.03500e-07	0.0008403914504206427
4.03750e-07	0.0008146696972468086
4.04000e-07	0.0007895020143401959
4.04250e-07	0.0007663250137777452
4.04500e-07	0.0007440453912788502
4.04750e-07	0.0007217657687799505
4.05000e-07	0.0007026075359827153
4.05250e-07	0.0006848563918926726
4.05500e-07	0.000667105247802626
4.05750e-07	0.0006516938888523212
4.06000e-07	0.0006373372797288758
4.06250e-07	0.0006229806706054272
4.06500e-07	0.0006110336979405587
4.06750e-07	0.0006001729633213608
4.07000e-07	0.0005893122287021605
4.07250e-07	0.0005809501197576139
4.07500e-07	0.0005737143642345696
4.07750e-07	0.0005664786087115237
4.08000e-07	0.0005610849326359729
4.08250e-07	0.0005565216460458935
4.08500e-07	0.000551958359455814
4.08750e-07	0.0005493287895402407
4.09000e-07	0.0005475709181806536
4.09250e-07	0.0005458130468210667
4.09500e-07	0.000545642805130641
4.09750e-07	0.0005461882497185075
4.10000e-07	0.000546733694306374
4.10250e-07	0.0005491463897299812
4.10500e-07	0.0005524008216285538
4.10750e-07	0.0005556552535271265
4.11000e-07	0.0005589096854256986
4.11250e-07	0.0005621641173242713
4.11500e-07	0.000565418549222844
4.11750e-07	0.0005686729811214161
4.12000e-07	0.0005732705965076937
4.12250e-07	0.0005784737044783263
4.12500e-07	0.0005836768124489599
4.12750e-07	0.0005888799204195936
4.13000e-07	0.0005940830283902262
4.13250e-07	0.0005992861363608599
4.13500e-07	0.0006044892443314936
4.13750e-07	0.0006095854804147813
4.14000e-07	0.0006146335398075017
4.14250e-07	0.0006196815992002222
4.14500e-07	0.0006242876814945324
4.14750e-07	0.0006286945252946301
4.15000e-07	0.0006325583463062007
4.15250e-07	0.0006361773785196646
4.15500e-07	0.0006379428365108842
4.15750e-07	0.0006388727232965303
4.16000e-07	0.0006398026100821766
4.16250e-07	0.0006379375748177432
4.16500e-07	0.0006348126189313893
4.16750e-07	0.0006316876630450348
4.17000e-07	0.0006259044652691469
4.17250e-07	0.0006189229608089725
4.17500e-07	0.0006119414563487967
4.17750e-07	0.0006022987945122973
4.18000e-07	0.000591456511721609
4.18250e-07	0.000578558168801555
4.18500e-07	0.0005647329762196928
4.18750e-07	0.0005487336329196622
4.19000e-07	0.0005317542059980065
4.19250e-07	0.0005147747790763507
4.19500e-07	0.000495332340889792
4.19750e-07	0.0004747796038723194
4.20000e-07	0.00045422686685485115
4.20250e-07	0.0004316299456358611
4.20500e-07	0.0004081115282948474
4.20750e-07	0.0003845931109538386
4.21000e-07	0.00035981501608622446
4.21250e-07	0.0003344690722180642
4.21500e-07	0.0003091231283499094
4.21750e-07	0.00028304082680370246
4.22000e-07	0.0002566265831828821
4.22250e-07	0.00023021233956206736
4.22500e-07	0.00020391590233696243
4.22750e-07	0.00017767257096049926
4.23000e-07	0.00015142923958404164
4.23250e-07	0.00012575325959659903
4.23500e-07	0.00010074405391738447
4.23750e-07	7.640844317886511e-05
4.24000e-07	5.288919711178545e-05
4.24250e-07	3.0353077631223257e-05
4.24500e-07	8.97142463903111e-06
4.24750e-07	-1.1084449156742934e-05
4.25000e-07	-2.9652141677605798e-05
4.25250e-07	-4.700125990159928e-05
4.25500e-07	-6.401639964854464e-05
4.25750e-07	-8.180005937305154e-05
4.26000e-07	-0.00010072599219437403
4.26250e-07	-0.00012066686789409254
4.26500e-07	-0.00014142008969322107
4.26750e-07	-0.00016278312374924049
4.27000e-07	-0.00018455900235997194
4.27250e-07	-0.00020679793395312357
4.27500e-07	-0.0002300185495723721
4.27750e-07	-0.0002547775050657202
4.28000e-07	-0.0002816999684479063
4.28250e-07	-0.00030936043808888397
4.28500e-07	-0.00033869314669799776
4.28750e-07	-0.0003687796825420183
4.29000e-07	-0.00040000951716928174
4.29250e-07	-0.0004317547385186857
4.29500e-07	-0.000464991060845585
4.29750e-07	-0.0004988995553609295
4.30000e-07	-0.0005347182086150642
4.30250e-07	-0.0005713979407626685
4.30500e-07	-0.0006080776729102727
4.30750e-07	-0.0006461060195211664
4.31000e-07	-0.0006847423069414772
4.31250e-07	-0.000723378594361788
4.31500e-07	-0.0007620148817820906
4.31750e-07	-0.0008006511692024013
4.32000e-07	-0.0008391946488098357
4.32250e-07	-0.0008773406160610336
4.32500e-07	-0.0009154865833122314
4.32750e-07	-0.0009536325505634212
4.33000e-07	-0.000991778517814619
4.33250e-07	-0.001029924485065817
4.33500e-07	-0.0010655353405045185
4.33750e-07	-0.0011000033949655008
4.34000e-07	-0.0011344714494264834
4.34250e-07	-0.0011658382016223373
4.34500e-07	-0.0011958069203100307
4.34750e-07	-0.001225775638997724
4.35000e-07	-0.001251503768774836
4.35250e-07	-0.0012753202869499412
4.35500e-07	-0.0012991368051250415
4.35750e-07	-0.0013198933728017991
4.36000e-07	-0.0013392705478994633
4.36250e-07	-0.0013586477229971235
4.36500e-07	-0.0013716990463228638
4.36750e-07	-0.0013818987441091201
4.37000e-07	-0.0013920984418953745
4.37250e-07	-0.0014022981396816308
4.37500e-07	-0.0014124978374678871
4.37750e-07	-0.0014226975352541413
4.38000e-07	-0.0014328972330403976
4.38250e-07	-0.0014430969308266539
4.38500e-07	-0.0014532966286129082
4.38750e-07	-0.0014615324497358995
4.39000e-07	-0.001461356638091452
4.39250e-07	-0.0014611808264470047
4.39500e-07	-0.001461005014802557
4.39750e-07	-0.0014608292031581096
4.40000e-07	-0.0014606533915136621
4.40250e-07	-0.0014604775798692147
4.40500e-07	-0.0014603017682247672
4.40750e-07	-0.0014601259565803198
4.41000e-07	-0.0014599501449358723
4.41250e-07	-0.0014562748887152462
4.41500e-07	-0.0014510221207401145
4.41750e-07	-0.001445769352764983
4.42000e-07	-0.0014405165847898524
4.42250e-07	-0.0014352638168147207
4.42500e-07	-0.001430011048839589
4.42750e-07	-0.0014247582808644584
4.43000e-07	-0.001419406719276347
4.43250e-07	-0.0014136320070863163
4.43500e-07	-0.0014078572948962842
4.43750e-07	-0.0014020825827062522
4.44000e-07	-0.0013963078705162215
4.44250e-07	-0.0013905331583261894
4.44500e-07	-0.0013847584461361576
