Time(s)	Current(A)
1.17500e-05	-0.0027394131101691446
1.17503e-05	-0.0027438098025511504
1.17505e-05	-0.002747992488649042
1.17508e-05	-0.002750884365055136
1.17510e-05	-0.002753044378011905
1.17513e-05	-0.0027547653600825906
1.17515e-05	-0.0027561057342966287
1.17518e-05	-0.002757049742041617
1.17520e-05	-0.0027573781020791724
1.17523e-05	-0.0027576353799404108
1.17525e-05	-0.0027572844749084273
1.17528e-05	-0.0027565127330906073
1.17530e-05	-0.00275553322598783
1.17533e-05	-0.002754511475368982
1.17535e-05	-0.002753510627227353
1.17538e-05	-0.0027525127150886527
1.17540e-05	-0.0027515454502322796
1.17543e-05	-0.0027506068461766796
1.17545e-05	-0.002749689141206425
1.17548e-05	-0.002748512320910868
1.17550e-05	-0.0027464131919790933
1.17553e-05	-0.0027428776943032957
1.17555e-05	-0.002737813305743918
1.17558e-05	-0.0027312951931603656
1.17560e-05	-0.0027234124008760807
1.17563e-05	-0.0027142542843494382
1.17565e-05	-0.0027039036241082504
1.17568e-05	-0.0026922721598762966
1.17570e-05	-0.0026790313745977336
1.17572e-05	-0.0026631418408694296
1.17575e-05	-0.0026469455592202573
1.17578e-05	-0.0026284640878135664
1.17580e-05	-0.0026083441250396343
1.17583e-05	-0.0025862767365043833
1.17585e-05	-0.002563988091818042
1.17588e-05	-0.00253945556908247
1.17590e-05	-0.002514643971541663
1.17593e-05	-0.002487403369800128
1.17595e-05	-0.0024598606688090935
1.17598e-05	-0.002430761168706594
1.17600e-05	-0.0024006393278563844
1.17603e-05	-0.0023694843349547426
1.17605e-05	-0.0023382136661130558
1.17608e-05	-0.00230604086966676
1.17610e-05	-0.0022737558741257836
1.17613e-05	-0.0022408780193330182
1.17615e-05	-0.0022076945042795023
1.17618e-05	-0.0021744258195497686
1.17620e-05	-0.002141269405529859
1.17623e-05	-0.002108422909681374
1.17625e-05	-0.002076081934458681
1.17628e-05	-0.0020444004095256352
1.17630e-05	-0.002013473273842797
1.17633e-05	-0.001983417967973031
1.17635e-05	-0.0019544172725683468
1.17638e-05	-0.00192667965872703
1.17640e-05	-0.001900415424029327
1.17643e-05	-0.001875835435775318
1.17645e-05	-0.001853126203532443
1.17648e-05	-0.001831852764681447
1.17650e-05	-0.0018106777316538479
1.17653e-05	-0.0017885302638398818
1.17655e-05	-0.0017652459460280677
1.17657e-05	-0.0017410266449072727
1.17660e-05	-0.0017161066787655976
1.17663e-05	-0.0016907202881079229
1.17665e-05	-0.00166508679107324
1.17668e-05	-0.001639036108314343
1.17670e-05	-0.0016118327882137682
1.17673e-05	-0.001582146321128164
1.17675e-05	-0.0015521680951893911
1.17678e-05	-0.001520124697989532
1.17680e-05	-0.0014867433070345705
1.17683e-05	-0.0014520441151688785
1.17685e-05	-0.0014171977497170658
1.17688e-05	-0.0013808336190234472
1.17690e-05	-0.001344280721369221
1.17693e-05	-0.0013054131255944422
1.17695e-05	-0.0012662576470052055
1.17698e-05	-0.0012256617461470698
1.17700e-05	-0.0011842331650126694
1.17703e-05	-0.001142199710702421
1.17705e-05	-0.0011001011363623626
1.17708e-05	-0.001057774985243152
1.17710e-05	-0.0010151618918117797
1.17713e-05	-0.0009722178718868426
1.17715e-05	-0.0009291093946705036
1.17718e-05	-0.0008860928681082504
1.17720e-05	-0.0008434326649576379
1.17723e-05	-0.0008013930608758369
1.17725e-05	-0.0007602347465786856
1.17728e-05	-0.0007201224546064332
1.17730e-05	-0.0006810822040840471
1.17733e-05	-0.000643181030216726
1.17735e-05	-0.0006066254048383035
1.17738e-05	-0.000571678332540447
1.17740e-05	-0.0005386077496252004
1.17742e-05	-0.0005076814306487822
1.17745e-05	-0.000479158563071867
1.17748e-05	-0.00045306425623705256
1.17750e-05	-0.0004290548013539718
1.17753e-05	-0.00040681975447835907
1.17755e-05	-0.0003863395857254113
1.17758e-05	-0.00036772032241532906
1.17760e-05	-0.00035107912356231947
1.17763e-05	-0.00033653323562184986
1.17765e-05	-0.000324194404522281
1.17768e-05	-0.00031402770173721557
1.17770e-05	-0.00030576724516694987
1.17773e-05	-0.0002991679778690872
1.17775e-05	-0.0002941671535145127
1.17778e-05	-0.0002907805521132807
1.17780e-05	-0.00028903109460658654
1.17783e-05	-0.00028894153362115206
1.17785e-05	-0.0002905313377978939
1.17788e-05	-0.00029372806833579253
1.17790e-05	-0.00029831457499431295
1.17793e-05	-0.00030408684035034635
1.17795e-05	-0.0003109549661395075
1.17798e-05	-0.00031887837886479753
1.17800e-05	-0.00032782080214624633
1.17803e-05	-0.0003377460470453429
1.17805e-05	-0.0003486157114312624
1.17808e-05	-0.0003603339373889386
1.17810e-05	-0.00037271414853752046
1.17813e-05	-0.00038557805878231764
1.17815e-05	-0.00039881886982601395
1.17818e-05	-0.00041236062015496337
1.17820e-05	-0.0004261301912890608
1.17823e-05	-0.0004400543967527979
1.17825e-05	-0.00045405869441697663
1.17827e-05	-0.0004680326023296608
1.17830e-05	-0.0004818087474088412
1.17833e-05	-0.0004952250117281326
1.17835e-05	-0.0005079035968296637
1.17838e-05	-0.0005204956310112436
1.17840e-05	-0.0005322205075872649
1.17843e-05	-0.0005431452785015133
1.17845e-05	-0.0005532279688635957
1.17848e-05	-0.0005629618807727124
1.17850e-05	-0.0005736499464877037
1.17853e-05	-0.000586317009168232
1.17855e-05	-0.0006011350680718919
1.17858e-05	-0.0006179347918643393
1.17860e-05	-0.0006365170328216529
1.17863e-05	-0.0006566826625360918
1.17865e-05	-0.000678246116092744
1.17868e-05	-0.0007013776158471457
1.17870e-05	-0.0007267544466539099
1.17873e-05	-0.0007560830560273802
1.17875e-05	-0.0007858711466417803
1.17878e-05	-0.0008190353822564215
1.17880e-05	-0.0008554091938081524
1.17883e-05	-0.0008921299623564518
1.17885e-05	-0.000932748457792233
1.17888e-05	-0.0009738517199360635
1.17890e-05	-0.0010149549820796153
1.17893e-05	-0.0010604832217097125
1.17895e-05	-0.0011065618030726752
1.17898e-05	-0.0011555463369662864
1.17900e-05	-0.0012048922889593048
1.17903e-05	-0.0012560647050865192
1.17905e-05	-0.0013074642815638774
1.17908e-05	-0.001359995995570294
1.17910e-05	-0.0014126685153845171
1.17912e-05	-0.0014663230424589778
1.17915e-05	-0.0015200997033930684
1.17918e-05	-0.001573904009004114
1.17920e-05	-0.0016277117528287679
1.17923e-05	-0.0016803769535444417
1.17925e-05	-0.0017329000542930999
1.17928e-05	-0.001783351978570591
1.17930e-05	-0.0018335463072210831
1.17933e-05	-0.0018810816217475466
1.17935e-05	-0.0019282862303108804
1.17938e-05	-0.001972831410597082
1.17940e-05	-0.0020148637676183296
1.17943e-05	-0.0020513222054813628
1.17945e-05	-0.0020871211587063358
1.17948e-05	-0.0021229201119315508
1.17950e-05	-0.0021508750174936975
1.17953e-05	-0.0021778543459371213
1.17955e-05	-0.0022048336743807277
1.17958e-05	-0.0022255558148388047
1.17960e-05	-0.0022454997385280948
1.17963e-05	-0.0022585243824933625
1.17965e-05	-0.00227068846425063
1.17968e-05	-0.002282852546007815
1.17970e-05	-0.0022895971666756776
1.17973e-05	-0.002293302328251105
1.17975e-05	-0.0022944101953298593
1.17978e-05	-0.0022929399091826492
1.17980e-05	-0.0022889038613423834
1.17983e-05	-0.002282314391833255
1.17985e-05	-0.0022731871538989525
1.17988e-05	-0.002261624770718922
1.17990e-05	-0.0022478731596050857
1.17993e-05	-0.0022321779475178768
1.17995e-05	-0.002214686384862821
1.17997e-05	-0.002195501028199379
1.18000e-05	-0.0021747205719657957
1.18003e-05	-0.0021524433222026365
1.18005e-05	-0.0021287700183564677
1.18008e-05	-0.0021038559628990677
1.18010e-05	-0.0020779456222988517
1.18013e-05	-0.002051283980697079
1.18015e-05	-0.0020240539313656747
1.18018e-05	-0.0019964105023082203
1.18020e-05	-0.001968505990520258
1.18023e-05	-0.0019404930813953912
1.18025e-05	-0.0019125253401404043
1.18028e-05	-0.0018847909131729022
1.18030e-05	-0.0018575335899255494
1.18033e-05	-0.0018309975417138541
1.18035e-05	-0.0018053878838730514
1.18038e-05	-0.0017808923355220275
1.18040e-05	-0.0017576970447600445
1.18043e-05	-0.001735988263224992
1.18045e-05	-0.0017159362070239598
1.18048e-05	-0.001697292769532568
1.18050e-05	-0.0016791952316837651
1.18053e-05	-0.001660944973599305
1.18055e-05	-0.001642441329172011
1.18058e-05	-0.0016238272883178906
1.18060e-05	-0.0016052673458868108
1.18063e-05	-0.001586926100266376
1.18065e-05	-0.001568958223062647
1.18068e-05	-0.0015512561300796669
1.18070e-05	-0.0015333273299384343
1.18073e-05	-0.0015145030202320905
1.18075e-05	-0.001495571269558418
1.18078e-05	-0.0014759359256178656
1.18080e-05	-0.0014559231679000069
1.18082e-05	-0.0014357051209552775
1.18085e-05	-0.0014154660262173603
1.18088e-05	-0.001395150365042719
1.18090e-05	-0.0013745064908536437
1.18093e-05	-0.0013531279292524749
1.18095e-05	-0.0013316629229680591
1.18098e-05	-0.00130968881976766
1.18100e-05	-0.001287481079145282
1.18103e-05	-0.0012652484799159226
1.18105e-05	-0.0012430154235457537
1.18108e-05	-0.0012209132911233155
1.18110e-05	-0.0011988274419275967
1.18113e-05	-0.0011766557596337808
1.18115e-05	-0.001154473402136418
1.18118e-05	-0.0011324160151448184
1.18120e-05	-0.0011106201775041727
1.18123e-05	-0.0010894671052152768
1.18125e-05	-0.0010683901694061712
1.18128e-05	-0.0010483566907292853
1.18130e-05	-0.0010284529885336863
1.18133e-05	-0.0010093226642947947
1.18135e-05	-0.0009908983658481986
1.18138e-05	-0.0009732788224805863
1.18140e-05	-0.0009565980671189889
1.18143e-05	-0.0009409899966994405
1.18145e-05	-0.000926591905599964
1.18148e-05	-0.0009136230494123614
1.18150e-05	-0.0009023966386332313
1.18153e-05	-0.0008931330285866883
1.18155e-05	-0.0008858902723134285
1.18158e-05	-0.0008806675065114472
1.18160e-05	-0.0008783514284198476
1.18163e-05	-0.0008763690792159415
1.18165e-05	-0.0008779764482598938
1.18167e-05	-0.0008800302764713881
1.18170e-05	-0.0008868759263410587
1.18173e-05	-0.0008943175429582187
1.18175e-05	-0.0009017591595753282
1.18178e-05	-0.0009138233906846921
1.18180e-05	-0.0009264625439677815
1.18183e-05	-0.0009424185149096931
1.18185e-05	-0.000958787003923567
1.18188e-05	-0.0009782242073860883
1.18190e-05	-0.0009980430719160407
1.18193e-05	-0.0010207353003541715
1.18195e-05	-0.0010437848937916345
1.18198e-05	-0.001069240557735762
1.18200e-05	-0.0010949954686293257
1.18203e-05	-0.0011226283538694954
1.18205e-05	-0.0011504948058705306
1.18208e-05	-0.0011797641475729305
1.18210e-05	-0.0012092079689770597
1.18213e-05	-0.001239612831173087
1.18215e-05	-0.001270137219594207
1.18218e-05	-0.0013010102208518078
1.18220e-05	-0.001331926579661726
1.18223e-05	-0.0013625413837088447
1.18225e-05	-0.001393118682893942
1.18228e-05	-0.0014227773919146794
1.18230e-05	-0.0014523218543643277
1.18233e-05	-0.001480351709485588
1.18235e-05	-0.0015081931904000914
1.18238e-05	-0.001533817299024096
1.18240e-05	-0.0015591656294063538
1.18243e-05	-0.0015823967606254437
1.18245e-05	-0.0016037331222067998
1.18248e-05	-0.0016236559064653363
1.18250e-05	-0.001643412793913912
1.18252e-05	-0.0016640039493599475
1.18255e-05	-0.0016855820741735813
1.18258e-05	-0.0017082019623805794
1.18260e-05	-0.001730937758317904
1.18263e-05	-0.0017542690537290203
1.18265e-05	-0.0017776744123899864
1.18268e-05	-0.0018014287462706164
1.18270e-05	-0.0018261858669556237
1.18273e-05	-0.0018531509822430272
1.18275e-05	-0.0018803758694054741
1.18278e-05	-0.0019099038066488737
1.18280e-05	-0.001939718178022378
1.18283e-05	-0.0019713003074177896
1.18285e-05	-0.002003102295788291
1.18288e-05	-0.0020349042841590077
1.18290e-05	-0.002069251550033002
1.18293e-05	-0.002103915376259955
1.18295e-05	-0.002138579202487143
1.18298e-05	-0.00217534319585732
1.18300e-05	-0.002212368390472195
1.18303e-05	-0.0022501725368459626
1.18305e-05	-0.0022880735627323
1.18308e-05	-0.00232597458861838
1.18310e-05	-0.0023558485804804747
1.18313e-05	-0.002367734291076293
1.18315e-05	-0.0032522942916440936
1.18318e-05	-0.00793020132782274
1.18320e-05	-0.012212874590362927
1.18323e-05	-0.012647074235287218
1.18325e-05	-0.010921169309129437
1.18328e-05	-0.007346534350147153
1.18330e-05	-0.00378133002811165
1.18333e-05	-0.002593786178747181
1.18335e-05	-0.0034889205708797926
1.18337e-05	-0.006011749986383849
1.18340e-05	-0.00863968976466973
1.18343e-05	-0.009334072915635079
1.18345e-05	-0.008151489034701904
1.18348e-05	-0.006021701359123494
1.18350e-05	-0.003942102981571435
1.18352e-05	-0.002988444537456327
1.18355e-05	-0.00346382895532619
1.18358e-05	-0.0049588444108192055
1.18360e-05	-0.006131100194713271
1.18363e-05	-0.006670147362522583
1.18365e-05	-0.005735090955670594
1.18368e-05	-0.004182294216172177
1.18370e-05	-0.002910515130005784
1.18373e-05	-0.0022803916238802588
1.18375e-05	-0.002723934449336978
1.18378e-05	-0.00373721094863961
1.18380e-05	-0.004644450116848436
1.18383e-05	-0.00499184690731703
1.18385e-05	-0.004402017207337945
1.18388e-05	-0.003422501050886002
1.18390e-05	-0.0026189780911176964
1.18393e-05	-0.0022173626843738524
1.18395e-05	-0.002488254180904267
1.18398e-05	-0.003115981774016945
1.18400e-05	-0.0036772703513190037
1.18403e-05	-0.0038879156103488167
1.18405e-05	-0.0035116093853641713
1.18408e-05	-0.002891409010954542
1.18410e-05	-0.002381703989722171
1.18413e-05	-0.002124032671741267
1.18415e-05	-0.0022879103092796104
1.18418e-05	-0.0026756151536343254
1.18420e-05	-0.0030220434339398752
1.18422e-05	-0.003149226032212351
1.18425e-05	-0.002909210761056568
1.18428e-05	-0.0025169566548298127
1.18430e-05	-0.0021945012114167745
1.18433e-05	-0.002030538650664898
1.18435e-05	-0.0021312783943810477
1.18437e-05	-0.002372894950064167
1.18440e-05	-0.0025893678514585087
1.18443e-05	-0.0026692701543801736
1.18445e-05	-0.0025199785328891117
1.18448e-05	-0.002276071070553629
1.18450e-05	-0.002076340554328396
1.18453e-05	-0.001976059045037653
1.18455e-05	-0.0020416535402175092
1.18458e-05	-0.0021955429521299877
1.18460e-05	-0.002333724017580661
1.18463e-05	-0.0023863990027458344
1.18465e-05	-0.0022955542052523507
1.18468e-05	-0.0021454937108453583
1.18470e-05	-0.002023153767811928
1.18473e-05	-0.0019631479544705258
1.18475e-05	-0.002007073448132709
1.18478e-05	-0.0021063220036056226
1.18480e-05	-0.0021957393450683354
1.18483e-05	-0.002231601966076071
1.18485e-05	-0.0021775726894085862
1.18488e-05	-0.002086460574284376
1.18490e-05	-0.002012718230145803
1.18493e-05	-0.0019780208771105505
1.18495e-05	-0.0020084156483079515
1.18498e-05	-0.0020734446160195225
1.18500e-05	-0.002132290031535775
1.18503e-05	-0.002157560749654413
1.18505e-05	-0.002126494400052115
1.18507e-05	-0.0020721698911521707
1.18510e-05	-0.0020286922772604333
1.18513e-05	-0.0020096327853086253
1.18515e-05	-0.002031299367002851
1.18518e-05	-0.0020746066755512765
1.18520e-05	-0.002113980462478339
1.18522e-05	-0.002132259863436446
1.18525e-05	-0.0021151846232812595
1.18528e-05	-0.0020834732229139358
1.18530e-05	-0.0020584845364731235
1.18533e-05	-0.002048714149587983
1.18535e-05	-0.002064371380749475
1.18538e-05	-0.002093494295040876
1.18540e-05	-0.0021200585208015128
1.18543e-05	-0.002133310675096185
1.18545e-05	-0.002124289838138365
1.18548e-05	-0.002105576308928095
1.18550e-05	-0.0020895907956886774
1.18553e-05	-0.0020808578958532303
1.18555e-05	-0.002085629713656125
1.18558e-05	-0.002096547050444553
1.18560e-05	-0.002103707360176661
1.18563e-05	-0.002100509470173746
1.18565e-05	-0.0020814761658708614
1.18568e-05	-0.0020546238299821522
1.18570e-05	-0.0020278677772285593
1.18573e-05	-0.0020041763862064586
1.18575e-05	-0.0019876004608157818
1.18578e-05	-0.0019736647256891377
1.18580e-05	-0.001956300279016117
1.18583e-05	-0.0019315079982434688
1.18585e-05	-0.0018959923753598033
1.18588e-05	-0.001854910145456027
1.18590e-05	-0.0018133545317678265
1.18592e-05	-0.0017733196408983693
1.18595e-05	-0.0017374773481815277
1.18598e-05	-0.0017031588264643774
1.18600e-05	-0.0016666973683875583
1.18603e-05	-0.0016257228372616088
1.18605e-05	-0.0015783062214111256
1.18607e-05	-0.0015278129864297872
1.18610e-05	-0.0014775683522761098
1.18613e-05	-0.0014289560938268665
1.18615e-05	-0.0013837845592042813
1.18618e-05	-0.0013404631683586938
1.18620e-05	-0.0012962845432556076
1.18623e-05	-0.0012518538755712668
1.18625e-05	-0.0012040365611514286
1.18628e-05	-0.0011557805322929804
1.18630e-05	-0.001109303308717876
1.18633e-05	-0.0010656064735954248
1.18635e-05	-0.0010259571355968912
1.18638e-05	-0.0009895736233254968
1.18640e-05	-0.0009557174283937126
1.18643e-05	-0.000921953123008807
1.18645e-05	-0.0008895448173215848
1.18648e-05	-0.0008592508400221447
1.18650e-05	-0.0008329520658486615
1.18653e-05	-0.0008070026877377508
1.18655e-05	-0.0007858993440403283
1.18658e-05	-0.0007677859704135747
1.18660e-05	-0.0007524367266460152
1.18663e-05	-0.0007372263512472215
1.18665e-05	-0.0007239934163943694
1.18668e-05	-0.0007127183403240255
1.18670e-05	-0.0007038748123579634
1.18673e-05	-0.0006974523234387541
1.18675e-05	-0.0006937580584872466
1.18678e-05	-0.000692377728342956
1.18680e-05	-0.0006927433605813635
1.18683e-05	-0.0006944869820409296
1.18685e-05	-0.0006973020376673098
1.18688e-05	-0.0007016590897106291
1.18690e-05	-0.0007083948220238746
1.18692e-05	-0.0007153694194341489
1.18695e-05	-0.00072551370505903
1.18698e-05	-0.000735816487609423
1.18700e-05	-0.0007482224901067235
1.18703e-05	-0.0007607200578637488
1.18705e-05	-0.0007744326768294044
1.18708e-05	-0.0007882572646378766
1.18710e-05	-0.0008035676547916726
1.18713e-05	-0.0008189798262736727
1.18715e-05	-0.0008357426139826853
1.18718e-05	-0.0008525414873167428
1.18720e-05	-0.0008698192090980264
1.18723e-05	-0.0008870757461515352
1.18725e-05	-0.0009040511664457497
1.18728e-05	-0.0009210028362678626
1.18730e-05	-0.0009376393424565234
1.18733e-05	-0.0009542303852035834
1.18735e-05	-0.0009702181379075332
1.18738e-05	-0.0009860662846083704
1.18740e-05	-0.0010000618898187387
1.18743e-05	-0.001014057495029202
1.18745e-05	-0.0010279114553739307
1.18748e-05	-0.0010398560987485898
1.18750e-05	-0.0010514102038170082
1.18753e-05	-0.0010630152980039699
1.18755e-05	-0.001074622937539871
1.18758e-05	-0.0010862085249108721
1.18760e-05	-0.0010970532815271516
1.18763e-05	-0.0011078980381433576
1.18765e-05	-0.001118742794759637
1.18768e-05	-0.0011295501465747016
1.18770e-05	-0.0011398611447611007
1.18773e-05	-0.0011501721429475699
1.18775e-05	-0.0011606924058718481
1.18777e-05	-0.0011713704848510297
1.18780e-05	-0.0011820293975697345
1.18783e-05	-0.0011924339781529095
1.18785e-05	-0.0012028385587360844
1.18788e-05	-0.0012132484149357415
1.18790e-05	-0.001223728277427031
1.18793e-05	-0.001234208139918321
1.18795e-05	-0.0012446880024095397
1.18798e-05	-0.0012551678649008295
1.18800e-05	-0.0012655896499161538
1.18803e-05	-0.001275967636065739
1.18805e-05	-0.0012863456222153944
1.18808e-05	-0.0012967236083650498
1.18810e-05	-0.0013070850424943224
1.18813e-05	-0.0013172268348910269
1.18815e-05	-0.001327368627287731
1.18818e-05	-0.0013374659195868254
1.18820e-05	-0.001346972705208071
1.18823e-05	-0.001356479490829317
1.18825e-05	-0.0013659862764504982
1.18828e-05	-0.0013754930620717438
1.18830e-05	-0.0013843112948240855
1.18833e-05	-0.0013926102585462847
1.18835e-05	-0.0014009092222685403
1.18838e-05	-0.0014092081859907958
1.18840e-05	-0.0014174381841703372
1.18843e-05	-0.0014247184991269056
1.18845e-05	-0.0014314951880192986
1.18848e-05	-0.001437598109604934
1.18850e-05	-0.001442677600443232
1.18853e-05	-0.001446401154428115
1.18855e-05	-0.001448233997254952
1.18858e-05	-0.0014498392053858883
1.18860e-05	-0.0014484237502928987
1.18862e-05	-0.0014470082951999186
1.18865e-05	-0.0014453112309588201
1.18868e-05	-0.001439877274176797
1.18870e-05	-0.0014344433173947737
1.18873e-05	-0.0014287454261398375
1.18875e-05	-0.0014195451814635158
1.18878e-05	-0.0014101991706861466
1.18880e-05	-0.0013988296656590909
1.18883e-05	-0.0013861931879753516
1.18885e-05	-0.0013723730845199317
1.18888e-05	-0.001357411733815422
1.18890e-05	-0.0013412818356323105
1.18893e-05	-0.0013239805336136413
1.18895e-05	-0.0013055961978761985
1.18898e-05	-0.0012862497023574061
1.18900e-05	-0.0012660609363215865
1.18903e-05	-0.001245151071802568
1.18905e-05	-0.0012236394163691168
1.18908e-05	-0.0012016200240052288
1.18910e-05	-0.0011791428785847108
1.18913e-05	-0.001156273532439365
1.18915e-05	-0.0011331347995961216
1.18918e-05	-0.00110986949718051
1.18920e-05	-0.0010866201420206404
1.18923e-05	-0.0010635296165074012
1.18925e-05	-0.0010407402592808362
1.18928e-05	-0.0010183779222878284
1.18930e-05	-0.0009965412657677063
1.18933e-05	-0.0009753385216645585
1.18935e-05	-0.0009549139272706402
