Time(s)	Current(A)
6.05000e-06	0.00017651741988036862
6.05025e-06	0.00017855804950475774
6.05050e-06	0.00018059867912915376
6.05075e-06	0.00018288062946533328
6.05100e-06	0.00018557033403947067
6.05125e-06	0.00018826003861361718
6.05150e-06	0.00019094974318775457
6.05175e-06	0.000193639447761892
6.05200e-06	0.0001963291523360385
6.05225e-06	0.00019911338323510546
6.05250e-06	0.0002019115154525091
6.05275e-06	0.00020470964766992227
6.05300e-06	0.00020750777988732592
6.05325e-06	0.00021030591210472957
6.05350e-06	0.00021289361763235595
6.05375e-06	0.000215125769863704
6.05400e-06	0.00021735792209505206
6.05425e-06	0.0002198557949183497
6.05450e-06	0.00022280264991422376
6.05475e-06	0.0002257495049101078
6.05500e-06	0.0002292782068841782
6.05525e-06	0.00023379004275264856
6.05550e-06	0.00023868942794398184
6.05575e-06	0.0002442436466040906
6.05600e-06	0.0002501802207162918
6.05625e-06	0.00025676285232944195
6.05650e-06	0.0002639269161324873
6.05675e-06	0.0002720734129713773
6.05700e-06	0.00028091165584751915
6.05725e-06	0.00029091872661303925
6.05750e-06	0.0003009257973785594
6.05775e-06	0.00031157059972891616
6.05800e-06	0.00032329296295006483
6.05825e-06	0.00033501532617121344
6.05850e-06	0.0003473979421779023
6.05875e-06	0.00036089617262713674
6.05900e-06	0.0003743944030764169
6.05925e-06	0.0003885159719568203
6.05950e-06	0.0004036907819165374
6.05975e-06	0.00041886559187630587
6.06000e-06	0.00043404040183602296
6.06025e-06	0.00044921521179574006
6.06050e-06	0.0004643900217555086
6.06075e-06	0.0004797246983357088
6.06100e-06	0.0004953294979878705
6.06125e-06	0.0005109342976400851
6.06150e-06	0.0005265390972922468
6.06175e-06	0.0005421438969444084
6.06200e-06	0.000557748696596623
6.06225e-06	0.0005724346348951097
6.06250e-06	0.000585567993606913
6.06275e-06	0.0005987013523187606
6.06300e-06	0.0006118347110305639
6.06325e-06	0.0006249680697424115
6.06350e-06	0.0006381014284542148
6.06375e-06	0.000651234787166018
6.06400e-06	0.0006612595409413644
6.06425e-06	0.0006708271341657135
6.06450e-06	0.0006803947273900626
6.06475e-06	0.0006899623206144442
6.06500e-06	0.0006995299138387933
6.06525e-06	0.0007090975070631425
6.06550e-06	0.0007180925986697529
6.06575e-06	0.0007261203470297411
6.06600e-06	0.0007341480953897292
6.06625e-06	0.0007421758437497445
6.06650e-06	0.0007502035921097327
6.06675e-06	0.0007582313404697208
6.06700e-06	0.0007662590888297361
6.06725e-06	0.0007742868371897243
6.06750e-06	0.0007823145855497397
6.06775e-06	0.0007903423339097278
6.06800e-06	0.0007983700822697158
6.06825e-06	0.0008063978306297313
6.06850e-06	0.0008144255789897194
6.06875e-06	0.0008224533273497075
6.06900e-06	0.0008304810757097228
6.06925e-06	0.000838189170179513
6.06950e-06	0.0008453571525827019
6.06975e-06	0.0008525251349859152
6.07000e-06	0.0008596931173891041
6.07025e-06	0.000866861099792293
6.07050e-06	0.0008740290821955063
6.07075e-06	0.0008811970645986952
6.07100e-06	0.0008883650470018842
6.07125e-06	0.0008955330294050974
6.07150e-06	0.0009027010118082863
6.07175e-06	0.0009098689942114996
6.07200e-06	0.0009170369766146885
6.07225e-06	0.0009242049590178775
6.07250e-06	0.0009313729414210907
6.07275e-06	0.0009385409238242796
6.07300e-06	0.0009438534422736275
6.07325e-06	0.000946030824560805
6.07350e-06	0.0009482082068479752
6.07375e-06	0.0009503855891351455
6.07400e-06	0.000952562971422323
6.07425e-06	0.0009547403537094933
6.07450e-06	0.0009569177359966634
6.07475e-06	0.000959095118283841
6.07500e-06	0.0009612725005710113
6.07525e-06	0.0009634498828581814
6.07550e-06	0.000965627265145359
6.07575e-06	0.0009678046474325292
6.07600e-06	0.0009699820297197068
6.07625e-06	0.000972159412006877
6.07650e-06	0.0009707554364578279
6.07675e-06	0.0009633001202518945
6.07700e-06	0.0009558448040459863
6.07725e-06	0.0009483894878400782
6.07750e-06	0.0009409341716341448
6.07775e-06	0.0009334788554282367
6.07800e-06	0.0009260235392223285
6.07825e-06	0.0009185682230163951
6.07850e-06	0.000911112906810487
6.07875e-06	0.0009036575906045788
6.07900e-06	0.0008962022743986454
6.07925e-06	0.0008887469581927372
6.07950e-06	0.0008812916419868291
6.07975e-06	0.0008738363257808958
6.08000e-06	0.0008647390313311431
6.08025e-06	0.0008528673227740959
6.08050e-06	0.0008409956142170888
6.08075e-06	0.0008291239056600818
6.08100e-06	0.0008172521971030346
6.08125e-06	0.0008053804885460276
6.08150e-06	0.0007935087799890206
6.08175e-06	0.0007816370714319734
6.08200e-06	0.0007707214249591605
6.08225e-06	0.0007599463797778439
6.08250e-06	0.0007491713345964908
6.08275e-06	0.0007383962894151742
6.08300e-06	0.0007276212442338575
6.08325e-06	0.0007168461990525044
6.08350e-06	0.0007060711538711879
6.08375e-06	0.0006968262547552078
6.08400e-06	0.0006901668094023329
6.08425e-06	0.0006835073640494805
6.08450e-06	0.0006768479186966056
6.08475e-06	0.0006701884733437534
6.08500e-06	0.000663529027990901
6.08525e-06	0.0006568695826380261
6.08550e-06	0.0006502101372851737
6.08575e-06	0.0006435506919323213
6.08600e-06	0.0006368912465794464
6.08625e-06	0.0006313258186858746
6.08650e-06	0.0006276089277528825
6.08675e-06	0.0006238920368198778
6.08700e-06	0.0006201751458868857
6.08725e-06	0.0006164582549538937
6.08750e-06	0.0006127413640208889
6.08775e-06	0.0006090244730878969
6.08800e-06	0.0006053075821549047
6.08825e-06	0.0006015906912219001
6.08850e-06	0.0005978738002889079
6.08875e-06	0.0005947752785205478
6.08900e-06	0.000592721601371786
6.08925e-06	0.0005906679242230241
6.08950e-06	0.0005886142470742553
6.08975e-06	0.0005865605699254934
6.09000e-06	0.0005845068927767315
6.09025e-06	0.0005824532156279627
6.09050e-06	0.0005803995384792008
6.09075e-06	0.0005783458613304389
6.09100e-06	0.0005762921841816701
6.09125e-06	0.0005742385070329082
6.09150e-06	0.0005730000790578096
6.09175e-06	0.0005718815440149322
6.09200e-06	0.0005707630089720585
6.09225e-06	0.0005696444739291849
6.09250e-06	0.0005685259388863075
6.09275e-06	0.0005674074038434339
6.09300e-06	0.0005662888688005564
6.09325e-06	0.0005651703337576828
6.09350e-06	0.0005640517987148091
6.09375e-06	0.0005629332636719318
6.09400e-06	0.0005612378147972602
6.09425e-06	0.0005585675674566853
6.09450e-06	0.0005558973201161013
6.09475e-06	0.0005532270727755265
6.09500e-06	0.0005505568254349516
6.09525e-06	0.0005478865780943678
6.09550e-06	0.0005452163307537929
6.09575e-06	0.000542546083413218
6.09600e-06	0.0005380414244917723
6.09625e-06	0.0005304372011358886
6.09650e-06	0.0005228329777800048
6.09675e-06	0.0005152287544240953
6.09700e-06	0.0005076245310682116
6.09725e-06	0.000500020307712302
6.09750e-06	0.0004924160843564183
6.09775e-06	0.0004848118610005346
6.09800e-06	0.00047596892967624994
6.09825e-06	0.0004650329810578727
6.09850e-06	0.0004540970324394954
6.09875e-06	0.00044239018125854514
6.09900e-06	0.00042938075316956457
6.09925e-06	0.000416371325080584
6.09950e-06	0.0004033618969915593
6.09975e-06	0.0003903524689025787
6.10000e-06	0.00037734304081359814
6.10025e-06	0.00036325526390128363
6.10050e-06	0.0003490089018514781
6.10075e-06	0.0003347625398016726
6.10100e-06	0.0003205161777518188
6.10125e-06	0.0003062698157020133
6.10150e-06	0.0002921603962519309
6.10175e-06	0.00027828236566587456
6.10200e-06	0.00026440433507981815
6.10225e-06	0.0002505263044937147
6.10250e-06	0.0002372293638975811
6.10275e-06	0.00022491427812864863
6.10300e-06	0.00021259919235967442
6.10325e-06	0.00020028410659074194
6.10350e-06	0.0001885451685190941
6.10375e-06	0.00017807918268303673
6.10400e-06	0.00016848135929189311
6.10425e-06	0.00015998461203096023
6.10450e-06	0.000152926739388573
6.10475e-06	0.00014755431010548287
6.10500e-06	0.00014392309889306337
6.10525e-06	0.00014200962400046826
6.10550e-06	0.00014178976749389344
6.10575e-06	0.00014323938606704403
6.10600e-06	0.00014635226030452347
6.10625e-06	0.00015119266866373392
6.10650e-06	0.00015789056592266474
6.10675e-06	0.0001665187617317977
6.10700e-06	0.00017703053293518552
6.10725e-06	0.00018932951525981636
6.10750e-06	0.00020331894555854929
6.10775e-06	0.0002189020756097727
6.10800e-06	0.0002359933686017254
6.10825e-06	0.0002545514509893533
6.10850e-06	0.0002748311892292249
6.10875e-06	0.00029646226197030005
6.10900e-06	0.000319008251276295
6.10925e-06	0.00034310015474582026
6.10950e-06	0.000368029669063781
6.10975e-06	0.00039437447579577
6.11000e-06	0.00042071928252784824
6.11025e-06	0.0004477704761218781
6.11050e-06	0.0004760152358799846
6.11075e-06	0.0005042599956381869
6.11100e-06	0.0005325047553962934
6.11125e-06	0.0005607495151544
6.11150e-06	0.0005889942749126021
6.11175e-06	0.0006172390346707087
6.11200e-06	0.0006454837944288152
6.11225e-06	0.0006737285541870174
6.11250e-06	0.0007009934986424428
6.11275e-06	0.0007266028709813437
6.11300e-06	0.0007522122433203315
6.11325e-06	0.0007763989423212499
6.11350e-06	0.0007981817818368067
6.11375e-06	0.0008199646213524375
6.11400e-06	0.0008400150272420423
6.11425e-06	0.0008571381785798282
6.11450e-06	0.0008723138880764354
6.11475e-06	0.0008841990484238822
6.11500e-06	0.0008940062168245872
6.11525e-06	0.0009003022484672924
6.11550e-06	0.0009045285983564301
6.11575e-06	0.0009052578530361868
6.11600e-06	0.000903875810072897
6.11625e-06	0.0008989263544577639
6.11650e-06	0.0008917371719244643
6.11675e-06	0.0008807635726507529
6.11700e-06	0.0008676525116100282
6.11725e-06	0.0008509298289793284
6.11750e-06	0.0008322589037857514
6.11775e-06	0.0008102960764813733
6.11800e-06	0.0007865429543878732
6.11825e-06	0.0007597648110229371
6.11850e-06	0.0007312999473082395
6.11875e-06	0.0006999850697478773
6.11900e-06	0.0006672314899871686
6.11925e-06	0.0006320469671291598
6.11950e-06	0.0005955030604124873
6.11975e-06	0.0005566622330355952
6.12000e-06	0.0005178214056585714
6.12025e-06	0.0004778860998658903
6.12050e-06	0.0004361014782459604
6.12075e-06	0.00039431685662588895
6.12100e-06	0.0003521285962253563
6.12125e-06	0.0003092583163581252
6.12150e-06	0.0002663880364907489
6.12175e-06	0.00022410300838034358
6.12200e-06	0.00018190404910801733
6.12225e-06	0.00014018897680485656
6.12250e-06	9.969224090741254e-05
6.12275e-06	6.0370528252492936e-05
6.12300e-06	2.2492408974726803e-05
6.12325e-06	-1.366147682813543e-05
6.12350e-06	-4.781041895675539e-05
6.12375e-06	-7.967374904820948e-05
6.12400e-06	-0.00010902787884814686
6.12425e-06	-0.00013589515543855965
6.12450e-06	-0.00016060137431999006
6.12475e-06	-0.00018343884006924267
6.12500e-06	-0.0002044197782595029
6.12525e-06	-0.00022342317946048948
6.12550e-06	-0.00024032687456016242
6.12575e-06	-0.0002550087476173212
6.12600e-06	-0.0002673824371922148
6.12625e-06	-0.00027751566207516643
6.12650e-06	-0.00028566616776043956
6.12675e-06	-0.00029207072572980206
6.12700e-06	-0.0002967906745843467
6.12725e-06	-0.0002998038625812566
6.12750e-06	-0.0003010874215725131
6.12775e-06	-0.00030061850094636187
6.12800e-06	-0.0002983967184339147
6.12825e-06	-0.0002942791985018193
6.12850e-06	-0.0002887941450947724
6.12875e-06	-0.00028242923916042985
6.12900e-06	-0.00027457766598747315
6.12925e-06	-0.00026592062084467764
6.12950e-06	-0.00025590258763635214
6.12975e-06	-0.00024514457933261187
6.13000e-06	-0.0002331362515746315
6.13025e-06	-0.00022057525268555752
6.13050e-06	-0.0002070804176832097
6.13075e-06	-0.0001932176041511669
6.13100e-06	-0.00017873302548520012
6.13125e-06	-0.00016424844681918425
6.13150e-06	-0.0001495692163045392
6.13175e-06	-0.0001345610868922207
6.13200e-06	-0.00011955295747985136
6.13225e-06	-0.00010476537073222895
6.13250e-06	-9.001021763502663e-05
6.13275e-06	-7.552424987460112e-05
6.13300e-06	-6.171243519156362e-05
6.13325e-06	-4.8528614759989734e-05
6.13350e-06	-3.607527408081353e-05
6.13375e-06	-2.44548945973821e-05
6.13400e-06	-1.373072973331183e-05
6.13425e-06	-3.801219246178662e-06
6.13450e-06	5.62535362793649e-06
6.13475e-06	1.4788746153127792e-05
6.13500e-06	2.371664060634537e-05
6.13525e-06	3.2340328573108505e-05
6.13550e-06	4.059027357493675e-05
6.13575e-06	4.83969479133837e-05
6.13600e-06	5.571539561881964e-05
6.13625e-06	6.258059087095611e-05
6.13650e-06	6.9200468111111e-05
6.13675e-06	7.574466632605894e-05
6.13700e-06	8.216099137602118e-05
6.13725e-06	8.844727488679304e-05
6.13750e-06	9.451383010230452e-05
6.13775e-06	0.0001003451724043319
6.13800e-06	0.00010577908067997093
6.13825e-06	0.00011121298895560994
6.13850e-06	0.00011652498373915139
6.13875e-06	0.0001216309840076728
6.13900e-06	0.0001267369842761942
6.13925e-06	0.00013158504765101568
6.13950e-06	0.0001359972807957171
6.13975e-06	0.00014040951394043343
6.14000e-06	0.00014482174708513483
6.14025e-06	0.00014923398022983624
6.14050e-06	0.00015364621337455258
6.14075e-06	0.00015805844651925398
6.14100e-06	0.0001624706796639554
6.14125e-06	0.00016688291280867173
6.14150e-06	0.00017035655525861917
6.14175e-06	0.00017369216581114642
6.14200e-06	0.00017702777636368494
6.14225e-06	0.00018036338691621218
6.14250e-06	0.00018369899746873943
6.14275e-06	0.00018703460802127795
6.14300e-06	0.0001903702185738052
6.14325e-06	0.00019370582912633244
6.14350e-06	0.0001967461821291891
6.14375e-06	0.0001992876450199929
6.14400e-06	0.00020187135680327747
6.14425e-06	0.0002045264556000996
6.14450e-06	0.00020770926789709336
6.14475e-06	0.00021227932778851297
6.14500e-06	0.00021814899954660714
6.14525e-06	0.00022522776112412067
6.14550e-06	0.00023342367352067073
6.14575e-06	0.00024264479773578772
6.14600e-06	0.0002530756710020409
6.14625e-06	0.0002645237063679816
6.14650e-06	0.00027679666366781623
6.14675e-06	0.0002913408370021078
6.14700e-06	0.0003073674724236021
6.14725e-06	0.00032439697936565825
6.14750e-06	0.00034312101600148925
6.14775e-06	0.00036265957600924474
6.14800e-06	0.0003835744180346216
6.14825e-06	0.00040531938668527165
6.14850e-06	0.0004284670018237914
6.14875e-06	0.0004526371278066835
6.14900e-06	0.00047853496761188257
6.14925e-06	0.0005044328074169939
6.14950e-06	0.0005313039304020953
6.14975e-06	0.0005598195883202029
6.15000e-06	0.0005883352462382138
6.15025e-06	0.0006168509041562248
6.15050e-06	0.0006453665620743324
6.15075e-06	0.0006738822199923433
6.15100e-06	0.0007028868471053681
6.15125e-06	0.0007319633834608464
6.15150e-06	0.0007610399198162261
6.15175e-06	0.0007901164561716059
6.15200e-06	0.0008191929925270842
6.15225e-06	0.0008468938810594968
6.15250e-06	0.0008722703680748279
6.15275e-06	0.0008976468550902448
6.15300e-06	0.0009230233421055759
6.15325e-06	0.0009483998291209928
6.15350e-06	0.0009737763161363239
6.15375e-06	0.0009916257757589053
6.15400e-06	0.0010083682886813522
6.15425e-06	0.0010251108016037425
6.15450e-06	0.0010418533145261327
6.15475e-06	0.0010585958274485796
6.15500e-06	0.0010718151463420564
6.15525e-06	0.001079081402679421
6.15550e-06	0.0010863476590168102
6.15575e-06	0.0010909621557818822
6.15600e-06	0.0010910960334019832
6.15625e-06	0.0010912299110220846
6.15650e-06	0.0010886809524098106
6.15675e-06	0.0010815988651115761
6.15700e-06	0.0010745167778133178
6.15725e-06	0.00106495855591159
6.15750e-06	0.001051216464466912
6.15775e-06	0.0010374743730222806
6.15800e-06	0.0010215174780242638
6.15825e-06	0.0010018182787438058
6.15850e-06	0.0009821190794634148
6.15875e-06	0.0009605494519022684
6.15900e-06	0.0009358194032941499
6.15925e-06	0.000911089354686115
6.15950e-06	0.0008846323224085632
6.15975e-06	0.0008552572442518732
6.16000e-06	0.0008258821660952827
6.16025e-06	0.0007965070879386923
6.16050e-06	0.0007671320097820023
6.16075e-06	0.000736867727966252
6.16100e-06	0.0007051009785134525
6.16125e-06	0.0006733342290605453
6.16150e-06	0.0006415674796077458
6.16175e-06	0.0006098007301548386
6.16200e-06	0.0005784781201328549
6.16225e-06	0.0005479059626244718
6.16250e-06	0.000517333805115985
6.16275e-06	0.00048763074810145195
6.16300e-06	0.00045939619085279997
6.16325e-06	0.0004322175583506033
6.16350e-06	0.0004068230983970717
6.16375e-06	0.0003824155820940285
6.16400e-06	0.0003606422672755437
6.16425e-06	0.0003405021692169251
6.16450e-06	0.0003211202572634124
6.16475e-06	0.0003030194355010053
6.16500e-06	0.00028559319475534304
6.16525e-06	0.00026930677854324623
6.16550e-06	0.00025364006685700877
6.16575e-06	0.00023949441846720567
6.16600e-06	0.0002268169314238683
6.16625e-06	0.0002152669962715798
6.16650e-06	0.00020415583769822646
6.16675e-06	0.00019400177809198986
6.16700e-06	0.00018458573750402372
6.16725e-06	0.00017580086269598048
6.16750e-06	0.00016744025679554854
6.16775e-06	0.00016011318702557624
6.16800e-06	0.00015376237911009054
6.16825e-06	0.0001481570759515536
6.16850e-06	0.000142914399652207
6.16875e-06	0.00013828444588782798
6.16900e-06	0.0001339634219333161
6.16925e-06	0.00013016438980443444
6.16950e-06	0.00012672484386600056
6.16975e-06	0.00012389271374445813
6.17000e-06	0.00012141782725146888
6.17025e-06	0.0001195465673684164
6.17050e-06	0.0001178713233564171
6.17075e-06	0.0001165272830000735
6.17100e-06	0.00011537412596054093
6.17125e-06	0.00011454350021398654
6.17150e-06	0.00011371287446743217
6.17175e-06	0.00011313454730517967
6.17200e-06	0.00011298252344678884
6.17225e-06	0.00011283049958839802
6.17250e-06	0.00011267847573000668
6.17275e-06	0.00011269528216131743
6.17300e-06	0.00011273691726963079
6.17325e-06	0.00011277855237794431
6.17350e-06	0.00011281439500643129
6.17375e-06	0.00011283899213963659
6.17400e-06	0.00011292263780440804
6.17425e-06	0.00011338579468875527
6.17450e-06	0.00011482181810782156
6.17475e-06	0.00011768769901420863
6.17500e-06	0.00012206316527071557
6.17525e-06	0.00012786387463650637
6.17550e-06	0.00013500409282404143
6.17575e-06	0.00014339806623636333
6.17600e-06	0.00015299965284326875
6.17625e-06	0.0001639242494709717
6.17650e-06	0.000176458148355191
6.17675e-06	0.00019080219776876716
6.17700e-06	0.00020692094042601989
6.17725e-06	0.0002246761284725647
6.17750e-06	0.00024392864559888666
6.17775e-06	0.00026476217632016993
6.17800e-06	0.0002867705074634672
6.17825e-06	0.0003097381735882399
6.17850e-06	0.0003343268066840855
6.17875e-06	0.0003598790597048038
6.17900e-06	0.00038705951987005855
6.17925e-06	0.0004150948172224472
6.17950e-06	0.00044457451394835267
6.17975e-06	0.00047405421067415825
6.18000e-06	0.0005042766799723602
6.18025e-06	0.0005357541955581874
6.18050e-06	0.0005672317111439079
6.18075e-06	0.0005987092267296286
6.18100e-06	0.0006301867423154557
6.18125e-06	0.0006615274167194596
6.18150e-06	0.000692636873623692
6.18175e-06	0.0007237463305280299
6.18200e-06	0.0007548557874322624
6.18225e-06	0.000785965244336495
6.18250e-06	0.0008159408705966804
6.18275e-06	0.0008440006884472701
6.18300e-06	0.000872060506297955
6.18325e-06	0.0008985609365888434
6.18350e-06	0.0009224265044195451
6.18375e-06	0.0009462920722503276
6.18400e-06	0.0009682786996225755
6.18425e-06	0.000987090523112341
6.18450e-06	0.0010059023466021698
6.18475e-06	0.0010233866167247143
6.18500e-06	0.0010386277494634037
6.18525e-06	0.001053868882202145
6.18550e-06	0.0010675837238797914
6.18575e-06	0.0010787196255146831
6.18600e-06	0.0010898555271496126
6.18625e-06	0.0010984893777268021
6.18650e-06	0.001102895568307594
6.18675e-06	0.0011073017588884007
6.18700e-06	0.0011117079494691927
6.18725e-06	0.0011161141400499995
6.18750e-06	0.0011205203306307913
6.18775e-06	0.0011249265212115833
6.18800e-06	0.00112933271179239
6.18825e-06	0.001133738902373182
6.18850e-06	0.0011354850328056266
6.18875e-06	0.0011327365187974265
6.18900e-06	0.0011299880047892356
6.18925e-06	0.0011272394907810446
6.18950e-06	0.0011244909767728444
6.18975e-06	0.0011217424627646536
6.19000e-06	0.0011189939487564627
6.19025e-06	0.0011162454347482624
6.19050e-06	0.0011134969207400715
6.19075e-06	0.0011096880773283587
6.19100e-06	0.0011040876189181703
6.19125e-06	0.001098487160508001
6.19150e-06	0.0010928867020978126
6.19175e-06	0.001087286243687643
6.19200e-06	0.0010816857852774737
6.19225e-06	0.0010760853268672853
6.19250e-06	0.001070667062023712
6.19275e-06	0.001065556645595393
6.19300e-06	0.0010604462291670567
6.19325e-06	0.0010553358127387375
6.19350e-06	0.0010502253963104186
6.19375e-06	0.0010451149798820821
6.19400e-06	0.0010400045634537632
6.19425e-06	0.001034117063577758
6.19450e-06	0.001026916543092094
6.19475e-06	0.0010197160226064544
6.19500e-06	0.0010103187544809958
6.19525e-06	0.0009972096907513075
6.19550e-06	0.0009841006270216637
