Time(s)	Current(A)
1.05000e-05	-0.0068156206039793246
1.05002e-05	-0.0068170787990174545
1.05005e-05	-0.006818536994055594
1.05008e-05	-0.006819995189093734
1.05010e-05	-0.006821453384131864
1.05013e-05	-0.006822911579170004
1.05015e-05	-0.006823761965350174
1.05017e-05	-0.006824233214572927
1.05020e-05	-0.006824704463795683
1.05023e-05	-0.00682517571301844
1.05025e-05	-0.006825646962241192
1.05028e-05	-0.006826118211463948
1.05030e-05	-0.006826589460686704
1.05033e-05	-0.0068270607099094605
1.05035e-05	-0.006827531959132213
1.05038e-05	-0.006827940381084548
1.05040e-05	-0.006827869306467012
1.05043e-05	-0.006827798231849475
1.05045e-05	-0.006827727157231939
1.05048e-05	-0.006827656082614402
1.05050e-05	-0.006827585007996866
1.05053e-05	-0.00682751393337933
1.05055e-05	-0.006827442858761793
1.05058e-05	-0.006827371784144257
1.05060e-05	-0.00682730070952672
1.05063e-05	-0.006824473861842792
1.05065e-05	-0.006819928027339147
1.05068e-05	-0.006815382192835472
1.05070e-05	-0.0068108363583317955
1.05073e-05	-0.0068062905238281506
1.05075e-05	-0.006801744689324475
1.05078e-05	-0.006797198854820799
1.05080e-05	-0.006792653020317154
1.05083e-05	-0.006788107185813478
1.05085e-05	-0.006782602661904438
1.05087e-05	-0.0067697814381216595
1.05090e-05	-0.0067569602143387935
1.05093e-05	-0.006744138990555928
1.05095e-05	-0.006731317766773149
1.05098e-05	-0.006718496542990284
1.05100e-05	-0.006705675319207418
1.05102e-05	-0.006692854095424639
1.05105e-05	-0.006680032871641773
1.05108e-05	-0.006667211647858908
1.05110e-05	-0.006650750577473253
1.05113e-05	-0.006632019055861389
1.05115e-05	-0.006613287534249525
1.05118e-05	-0.0065945560126376606
1.05120e-05	-0.006575824491025924
1.05123e-05	-0.00655709296941406
1.05125e-05	-0.006538361447802196
1.05128e-05	-0.006519629926190459
1.05130e-05	-0.006500898404578595
1.05133e-05	-0.006482166882966731
1.05135e-05	-0.0064634353613549946
1.05138e-05	-0.0064462416927843005
1.05140e-05	-0.006430007300992047
1.05143e-05	-0.006413772909199903
1.05145e-05	-0.006397538517407649
1.05148e-05	-0.006381304125615395
1.05150e-05	-0.0063650697338232505
1.05153e-05	-0.006348835342030997
1.05155e-05	-0.006332600950238743
1.05158e-05	-0.006316366558446598
1.05160e-05	-0.006300132166654345
1.05163e-05	-0.00628389777486209
1.05165e-05	-0.00627335199484213
1.05168e-05	-0.00626635463786974
1.05170e-05	-0.00625935728089735
1.05172e-05	-0.0062523599239250075
1.05175e-05	-0.006245362566952618
1.05178e-05	-0.006238365209980228
1.05180e-05	-0.0062313678530078855
1.05183e-05	-0.006224370496035496
1.05185e-05	-0.006217373139063106
1.05187e-05	-0.006210375782090763
1.05190e-05	-0.0062033784251183735
1.05193e-05	-0.006196381068145984
1.05195e-05	-0.006189383711173641
1.05198e-05	-0.0061823863542012514
1.05200e-05	-0.0061753889972288615
1.05203e-05	-0.006169126458510182
1.05205e-05	-0.006168472039166868
1.05208e-05	-0.006167817619823549
1.05210e-05	-0.006167163200480231
1.05213e-05	-0.0061665087811369175
1.05215e-05	-0.006165854361793599
1.05218e-05	-0.006165199942450281
1.05220e-05	-0.006164545523106967
1.05223e-05	-0.006163891103763648
1.05225e-05	-0.00616323668442033
1.05228e-05	-0.0061625822650770165
1.05230e-05	-0.0061619278457336986
1.05233e-05	-0.00616127342639038
1.05235e-05	-0.006160619007047066
1.05238e-05	-0.006159964587703748
1.05240e-05	-0.006159310168360429
1.05243e-05	-0.006159334880625623
1.05245e-05	-0.006159783219313043
1.05248e-05	-0.006160231558000463
1.05250e-05	-0.006160679896687881
1.05253e-05	-0.006161128235375301
1.05255e-05	-0.006161763724531292
1.05257e-05	-0.006162515953774807
1.05260e-05	-0.006163268183018326
1.05263e-05	-0.0061640204122618445
1.05265e-05	-0.006164772641505358
1.05268e-05	-0.0061697901769484425
1.05270e-05	-0.006177468310694437
1.05272e-05	-0.006185146444440381
1.05275e-05	-0.006192824578186376
1.05278e-05	-0.006200502711932371
1.05280e-05	-0.0062081808456783145
1.05283e-05	-0.006215858979424309
1.05285e-05	-0.00622474472780851
1.05288e-05	-0.006242846968867654
1.05290e-05	-0.006260949209926676
1.05293e-05	-0.00627905145098582
1.05295e-05	-0.0062971536920449645
1.05298e-05	-0.006315255933103986
1.05300e-05	-0.00633335817416313
1.05303e-05	-0.006351460415222275
1.05305e-05	-0.0063751207506791896
1.05308e-05	-0.006402248095497866
1.05310e-05	-0.006429375440316542
1.05313e-05	-0.0064565027851350345
1.05315e-05	-0.006483630129953711
1.05318e-05	-0.006510757474772387
1.05320e-05	-0.006537884819590879
1.05323e-05	-0.006565012164409556
1.05325e-05	-0.006592369484401437
1.05328e-05	-0.00662148197067955
1.05330e-05	-0.00665059445695786
1.05333e-05	-0.006679706943236169
1.05335e-05	-0.006708819429514281
1.05338e-05	-0.006737931915792591
1.05340e-05	-0.006767044402070901
1.05342e-05	-0.006796156888349013
1.05345e-05	-0.006825269374627322
1.05348e-05	-0.006846791179214613
1.05350e-05	-0.006863578093998961
1.05353e-05	-0.006880365008783422
1.05355e-05	-0.006897151923567883
1.05357e-05	-0.006913938838352231
1.05360e-05	-0.006930725753136692
1.05363e-05	-0.006947512667921154
1.05365e-05	-0.0069642995827055
1.05368e-05	-0.006981086497489962
1.05370e-05	-0.006997873412274423
1.05373e-05	-0.007014660327058884
1.05375e-05	-0.007031447241843232
1.05378e-05	-0.007048234156627693
1.05380e-05	-0.007065021071412154
1.05383e-05	-0.007081807986196502
1.05385e-05	-0.007098594900980963
1.05388e-05	-0.007107487982645641
1.05390e-05	-0.007111457075731812
1.05393e-05	-0.00711542616881801
1.05395e-05	-0.007119395261904208
1.05398e-05	-0.007123364354990379
1.05400e-05	-0.007127333448076577
1.05403e-05	-0.007131302541162775
1.05405e-05	-0.007135271634248946
1.05408e-05	-0.007139240727335144
1.05410e-05	-0.007143209820421342
1.05413e-05	-0.007147178913507513
1.05415e-05	-0.007151148006593711
1.05418e-05	-0.007155117099679909
1.05420e-05	-0.00715908619276608
1.05423e-05	-0.007163055285852278
1.05425e-05	-0.007167024378938476
1.05427e-05	-0.007168536627159668
1.05430e-05	-0.0071685163529836195
1.05433e-05	-0.007168496078807572
1.05435e-05	-0.007168475804631525
1.05438e-05	-0.007168455530455478
1.05440e-05	-0.007168435256279431
1.05442e-05	-0.007168322468781932
1.05445e-05	-0.00716750362131825
1.05448e-05	-0.0071666847738545685
1.05450e-05	-0.0071658659263908915
1.05453e-05	-0.00716504707892721
1.05455e-05	-0.007164228231463528
1.05458e-05	-0.007163409383999846
1.05460e-05	-0.007160263557983646
1.05463e-05	-0.007155666217140139
1.05465e-05	-0.0071510688762966325
1.05468e-05	-0.007146471535453156
1.05470e-05	-0.007141874194609649
1.05473e-05	-0.007137276853766142
1.05475e-05	-0.0071326795129226656
1.05478e-05	-0.007122100952571998
1.05480e-05	-0.007107791447305196
1.05483e-05	-0.00709348194203849
1.05485e-05	-0.007079172436771687
1.05488e-05	-0.007064862931504884
1.05490e-05	-0.007050553426238179
1.05493e-05	-0.007036243920971377
1.05495e-05	-0.00701554551240528
1.05498e-05	-0.006990861855303161
1.05500e-05	-0.006966178198200874
1.05503e-05	-0.006941494541098587
1.05505e-05	-0.006916810883996467
1.05508e-05	-0.00689212722689418
1.05510e-05	-0.006867443569791893
1.05512e-05	-0.006842759912689774
1.05515e-05	-0.006814139456868374
1.05518e-05	-0.0067830633180292485
1.05520e-05	-0.006751987179190334
1.05523e-05	-0.006720911040351208
1.05525e-05	-0.006689834901512082
1.05527e-05	-0.0066587587626731675
1.05530e-05	-0.006627682623834042
1.05533e-05	-0.006596606484994916
1.05535e-05	-0.006566804908289645
1.05538e-05	-0.006537798373650118
1.05540e-05	-0.006508791839010591
1.05543e-05	-0.006479785304371064
1.05545e-05	-0.006450778769731734
1.05548e-05	-0.006421772235092207
1.05550e-05	-0.00639276570045268
1.05553e-05	-0.00636375916581335
1.05555e-05	-0.006336301891839023
1.05558e-05	-0.006320668546750472
1.05560e-05	-0.006305035201662028
1.05563e-05	-0.006289401856573477
1.05565e-05	-0.006273768511484926
1.05568e-05	-0.006258135166396482
1.05570e-05	-0.0062425018213079315
1.05573e-05	-0.006226868476219381
1.05575e-05	-0.006211235131130937
1.05578e-05	-0.0062072121754188124
1.05580e-05	-0.006210431509206575
1.05583e-05	-0.006213650842994315
1.05585e-05	-0.006216870176782077
1.05588e-05	-0.006220089510569839
1.05590e-05	-0.006223308844357579
1.05593e-05	-0.006226528178145342
1.05595e-05	-0.006231569730288861
1.05597e-05	-0.006250518419391894
1.05600e-05	-0.006269467108495054
1.05603e-05	-0.006288415797598215
1.05605e-05	-0.006307364486701247
1.05608e-05	-0.006326313175804408
1.05610e-05	-0.006345261864907569
1.05612e-05	-0.006364210554010601
1.05615e-05	-0.006389066054310712
1.05618e-05	-0.006417606085363838
1.05620e-05	-0.00644614611641677
1.05623e-05	-0.006474686147469896
1.05625e-05	-0.006503226178523022
1.05628e-05	-0.006531766209576148
1.05630e-05	-0.00656030624062908
1.05633e-05	-0.006588846271682206
1.05635e-05	-0.006617142148230108
1.05638e-05	-0.006645285726904562
1.05640e-05	-0.006673429305579206
1.05643e-05	-0.00670157288425385
1.05645e-05	-0.0067297164629283035
1.05648e-05	-0.006757860041602948
1.05650e-05	-0.006786003620277592
1.05653e-05	-0.006814147198952046
1.05655e-05	-0.006838609604481035
1.05658e-05	-0.006860775780248815
1.05660e-05	-0.006878860502355502
1.05663e-05	-0.006894399309072138
1.05665e-05	-0.006909938115788774
1.05668e-05	-0.006917690266201819
1.05670e-05	-0.006920585282425017
1.05673e-05	-0.0069234802986482165
1.05675e-05	-0.006918541244821667
1.05678e-05	-0.006908715481218571
1.05680e-05	-0.006898889717615475
1.05682e-05	-0.006878220035135384
1.05685e-05	-0.006850786169535222
1.05688e-05	-0.00682335230393506
1.05690e-05	-0.006795918438335083
1.05693e-05	-0.006766638179357943
1.05695e-05	-0.006723266280097527
1.05697e-05	-0.006679894380837406
1.05700e-05	-0.0066365224815769916
1.05703e-05	-0.006593150582316577
1.05705e-05	-0.00656723050660086
1.05708e-05	-0.007267587037806943
1.05710e-05	-0.015017873259546899
1.05713e-05	-0.020397572208799793
1.05715e-05	-0.0182536745819358
1.05718e-05	-0.015864160044839808
1.05720e-05	-0.010277547255181312
1.05723e-05	-0.004720912145633177
1.05725e-05	-0.005182200413158177
1.05728e-05	-0.006388820041592039
1.05730e-05	-0.009860514112146085
1.05733e-05	-0.01405519525704075
1.05735e-05	-0.013327468037710365
1.05738e-05	-0.011101289627985188
1.05740e-05	-0.008296513793222318
1.05743e-05	-0.0043676201400202385
1.05745e-05	-0.0035141878524286587
1.05748e-05	-0.0038640805697993078
1.05750e-05	-0.005133260603915882
1.05753e-05	-0.0075504807460452916
1.05755e-05	-0.009144488219263516
1.05758e-05	-0.008813614270681844
1.05760e-05	-0.007240763180305379
1.05763e-05	-0.005151794682699508
1.05765e-05	-0.0036776585777667462
1.05767e-05	-0.003481394177431314
1.05770e-05	-0.004344867780205369
1.05773e-05	-0.005877220907298556
1.05775e-05	-0.006894551922577745
1.05778e-05	-0.006706855905171207
1.05780e-05	-0.0057419807523534285
1.05782e-05	-0.004454629881574089
1.05785e-05	-0.003553191327913688
1.05788e-05	-0.0034528942827312665
1.05790e-05	-0.004016981912101225
1.05793e-05	-0.005000513591540903
1.05795e-05	-0.005661826129917621
1.05798e-05	-0.005568681526213421
1.05800e-05	-0.004989066002361614
1.05803e-05	-0.004207758277683289
1.05805e-05	-0.003668408669578064
1.05808e-05	-0.0036309976338132197
1.05810e-05	-0.00400973179720269
1.05813e-05	-0.0046510596858797045
1.05815e-05	-0.005090310062467189
1.05818e-05	-0.005056667000353064
1.05820e-05	-0.004717936787726143
1.05823e-05	-0.004252427877231113
1.05825e-05	-0.003937943114768538
1.05828e-05	-0.0039372135256885675
1.05830e-05	-0.004196372277734299
1.05833e-05	-0.0046191150703580345
1.05835e-05	-0.004914268896036237
1.05838e-05	-0.004912112338619555
1.05840e-05	-0.004717679133260406
1.05843e-05	-0.004442570633494526
1.05845e-05	-0.004260697692256535
1.05848e-05	-0.0042738776017307405
1.05850e-05	-0.004448247798490969
1.05853e-05	-0.004723366667410997
1.05855e-05	-0.004916738293396229
1.05858e-05	-0.0049219564161464896
1.05860e-05	-0.004804860143187923
1.05863e-05	-0.0046358384221286955
1.05865e-05	-0.004524648849986259
1.05867e-05	-0.004535643344922163
1.05870e-05	-0.004647746735100139
1.05873e-05	-0.004823081576084473
1.05875e-05	-0.004947322934852193
1.05878e-05	-0.0049538168441196784
1.05880e-05	-0.004883803932882123
1.05883e-05	-0.004781371143665517
1.05885e-05	-0.004715260860654479
1.05888e-05	-0.004725767971238021
1.05890e-05	-0.004799675149919039
1.05893e-05	-0.004913241914692337
1.05895e-05	-0.004994844795100843
1.05898e-05	-0.0050027268356393545
1.05900e-05	-0.0049627167897384646
1.05903e-05	-0.004902424341905495
1.05905e-05	-0.004864899505970384
1.05908e-05	-0.004875369703419848
1.05910e-05	-0.004925542043427796
1.05913e-05	-0.005000532304831475
1.05915e-05	-0.005055465714688666
1.05918e-05	-0.00506417894921744
1.05920e-05	-0.005042844563925
1.05923e-05	-0.005008749143708498
1.05925e-05	-0.0049888488907701475
1.05928e-05	-0.004998934679411526
1.05930e-05	-0.005033799322784912
1.05933e-05	-0.005084107398418292
1.05935e-05	-0.0051217394848468035
1.05938e-05	-0.005130298743997835
1.05940e-05	-0.005119907655088581
1.05943e-05	-0.00510138584140255
1.05945e-05	-0.005091608807232399
1.05948e-05	-0.005100456330175813
1.05950e-05	-0.005124655037193629
1.05952e-05	-0.00515834643348762
1.05955e-05	-0.005183906275277873
1.05958e-05	-0.005191054618589673
1.05960e-05	-0.00518599829991421
1.05963e-05	-0.005176557017314014
1.05965e-05	-0.005174137695952367
1.05968e-05	-0.005184902737192867
1.05970e-05	-0.005208218093324669
1.05973e-05	-0.0052381417204778085
1.05975e-05	-0.005263431192804379
1.05978e-05	-0.005279837599160352
1.05980e-05	-0.005290321788853944
1.05983e-05	-0.005299067606321514
1.05985e-05	-0.005313087294588916
1.05988e-05	-0.005336780532205767
1.05990e-05	-0.005369529958397252
1.05993e-05	-0.005407104167669986
1.05995e-05	-0.005442337034836616
1.05998e-05	-0.005472888965863002
1.06000e-05	-0.00550039987925277
1.06003e-05	-0.00552718657914386
1.06005e-05	-0.005557526823252877
1.06008e-05	-0.005594280954378343
1.06010e-05	-0.005636848526425567
1.06013e-05	-0.005682480305783358
1.06015e-05	-0.005726582204849475
1.06018e-05	-0.005767575521302303
1.06020e-05	-0.005806895106775177
1.06023e-05	-0.005846116980902696
1.06025e-05	-0.005885338855030482
1.06028e-05	-0.005927200743057345
1.06030e-05	-0.0059730613988563655
1.06033e-05	-0.006020240803502524
1.06035e-05	-0.006065773650822768
1.06037e-05	-0.006108122776658091
1.06040e-05	-0.006147650851877798
1.06043e-05	-0.006185852462125092
1.06045e-05	-0.006224054072372127
1.06048e-05	-0.006262506857566381
1.06050e-05	-0.006300030790554385
1.06053e-05	-0.006336332347529034
1.06055e-05	-0.006372633904503437
1.06058e-05	-0.006405496414488151
1.06060e-05	-0.006432943317760853
1.06063e-05	-0.0064584596936599955
1.06065e-05	-0.006484139669806427
1.06068e-05	-0.0065099880622035925
1.06070e-05	-0.006535715762132165
1.06073e-05	-0.006561319216692206
1.06075e-05	-0.006586922671252248
1.06078e-05	-0.006610777232286881
1.06080e-05	-0.006631995211979447
1.06083e-05	-0.006652352371256251
1.06085e-05	-0.006672709530532916
1.06088e-05	-0.006693690764712149
1.06090e-05	-0.006715314445080215
1.06093e-05	-0.006736255845876218
1.06095e-05	-0.006756494882406474
1.06098e-05	-0.006776733918936731
1.06100e-05	-0.00679697295546685
1.06103e-05	-0.006816713791384864
1.06105e-05	-0.0068359417608450535
1.06108e-05	-0.006855169730305113
1.06110e-05	-0.006874397699765302
1.06113e-05	-0.0068932560007382015
1.06115e-05	-0.006911733751059306
1.06118e-05	-0.006930211501380535
1.06120e-05	-0.006948689251701764
1.06122e-05	-0.006967167002022868
1.06125e-05	-0.006985644752344098
1.06128e-05	-0.0070032295849071415
1.06130e-05	-0.0070198952143287
1.06133e-05	-0.0070365608437503715
1.06135e-05	-0.0070532264731720425
1.06138e-05	-0.007069892102593713
1.06140e-05	-0.007086557732015272
1.06143e-05	-0.007102073401281607
1.06145e-05	-0.007116405258290201
1.06148e-05	-0.0071307371152986975
1.06150e-05	-0.007145068972307291
1.06153e-05	-0.007157320815452817
1.06155e-05	-0.007169557462760607
1.06158e-05	-0.0071817941100684795
1.06160e-05	-0.007192027973706344
1.06163e-05	-0.007200200096467923
1.06165e-05	-0.007203575611424079
1.06168e-05	-0.007202013317805155
1.06170e-05	-0.007200451024186241
1.06173e-05	-0.00719278940129913
1.06175e-05	-0.007178848899340967
1.06178e-05	-0.0071649083973828985
1.06180e-05	-0.007141757616615444
1.06183e-05	-0.007109125428251936
1.06185e-05	-0.007076493239888648
1.06188e-05	-0.007043861051525139
1.06190e-05	-0.00701122886316163
1.06193e-05	-0.006978596674798342
1.06195e-05	-0.006922412377122629
1.06198e-05	-0.0068660560161561204
1.06200e-05	-0.006809699655189993
1.06203e-05	-0.006753343294223484
1.06205e-05	-0.006696986933256975
1.06207e-05	-0.006633123171178197
1.06210e-05	-0.006561531007883643
1.06213e-05	-0.006489938844589089
1.06215e-05	-0.006414828855318281
1.06218e-05	-0.0063360974836075825
1.06220e-05	-0.006257366111896885
1.06222e-05	-0.0061767647717711855
1.06225e-05	-0.006094238415789359
1.06228e-05	-0.006010853330600389
1.06230e-05	-0.005926584237250813
1.06233e-05	-0.005842403942352886
1.06235e-05	-0.005758315059921498
1.06238e-05	-0.005674899737834141
1.06240e-05	-0.005592934082393211
1.06243e-05	-0.005512659274840816
1.06245e-05	-0.005434402290254175
1.06248e-05	-0.00535856406219499
1.06250e-05	-0.005287078760220597
1.06253e-05	-0.005218688018276284
1.06255e-05	-0.005150297276332434
1.06258e-05	-0.005092857672653655
1.06260e-05	-0.005035498074076632
1.06263e-05	-0.00498182612755807
1.06265e-05	-0.0049319503888379706
1.06268e-05	-0.004882074650117872
1.06270e-05	-0.004834255185017039
1.06273e-05	-0.004788552525359016
1.06275e-05	-0.004742849865700992
1.06278e-05	-0.004697147206043278
1.06280e-05	-0.0046573652157666096
1.06283e-05	-0.00461762647978426
1.06285e-05	-0.00457788774380218
1.06288e-05	-0.004539302076521664
1.06290e-05	-0.004501903421554118
1.06292e-05	-0.004464504766586825
1.06295e-05	-0.004427106111619278
1.06298e-05	-0.004389707456651732
1.06300e-05	-0.0043523088016844385
1.06303e-05	-0.004316290958806762
1.06305e-05	-0.004281694575856019
1.06307e-05	-0.0042470981929055105
1.06310e-05	-0.004212501809954768
1.06313e-05	-0.004177905427004024
1.06315e-05	-0.004143309044053281
1.06318e-05	-0.0041097954897599195
1.06320e-05	-0.004077396640034196
1.06323e-05	-0.004044997790308473
1.06325e-05	-0.004013156512252437
1.06328e-05	-0.0039818892194548716
1.06330e-05	-0.003950621926657306
1.06333e-05	-0.0039200327832711
1.06335e-05	-0.0038901417524081724
1.06338e-05	-0.0038612350191045315
1.06340e-05	-0.0038333415587490215
1.06343e-05	-0.0038064085901662967
1.06345e-05	-0.003780464387959268
1.06348e-05	-0.003755412529876888
1.06350e-05	-0.003731279284416199
1.06353e-05	-0.0037080160687405377
1.06355e-05	-0.003686346835773117
1.06358e-05	-0.00366618432974461
1.06360e-05	-0.003647736201513795
1.06363e-05	-0.0036312769511505885
1.06365e-05	-0.0036170902882635744
1.06368e-05	-0.0036059556893652564
1.06370e-05	-0.0035967098680905023
1.06373e-05	-0.003589920230328157
1.06375e-05	-0.0035856590803033115
1.06377e-05	-0.003583874076233468
1.06380e-05	-0.00358463810999062
1.06383e-05	-0.0035886396350787012
1.06385e-05	-0.003595973955574211
1.06388e-05	-0.00360330827606977
1.06390e-05	-0.003615752488169348
1.06392e-05	-0.003633457014978357
1.06395e-05	-0.003651161541787486
1.06398e-05	-0.0036688660685966147
1.06400e-05	-0.003686570595405744
1.06403e-05	-0.0037042751222147526
1.06405e-05	-0.003732767424525894
1.06408e-05	-0.003761338538469948
1.06410e-05	-0.003789909652413808
1.06413e-05	-0.0038184807663578617
1.06415e-05	-0.0038470518803019153
1.06418e-05	-0.0038783944849196585
1.06420e-05	-0.003912590166332673
1.06423e-05	-0.003946785847745687
1.06425e-05	-0.003982007109201676
1.06428e-05	-0.004018284141348527
1.06430e-05	-0.004054561173495379
1.06433e-05	-0.004090969376480531
1.06435e-05	-0.004127512611663293
1.06438e-05	-0.004164055846846055
1.06440e-05	-0.004199795995261968
1.06443e-05	-0.0042347094159391535
1.06445e-05	-0.0042696228366163385
1.06448e-05	-0.004303172501236935
1.06450e-05	-0.004335318264053006
1.06453e-05	-0.004365826074045277
1.06455e-05	-0.004394647713761706
1.06458e-05	-0.004421347254060986
1.06460e-05	-0.004445862225361945
1.06462e-05	-0.004466991268128205
