Time(s)	Current(A)
1.50000e-06	-0.012566057451757866
1.50025e-06	-0.012563364552779505
1.50050e-06	-0.012560671653801148
1.50075e-06	-0.01255797875482279
1.50100e-06	-0.01255528585584443
1.50125e-06	-0.012552592956866072
1.50150e-06	-0.012550246468780626
1.50175e-06	-0.012547913946884015
1.50200e-06	-0.012545581424987398
1.50225e-06	-0.012543248903090784
1.50250e-06	-0.012540916381194173
1.50275e-06	-0.012538583859297556
1.50300e-06	-0.012536251337400942
1.50325e-06	-0.012533918815504327
1.50350e-06	-0.012531586293607714
1.50375e-06	-0.012529645809455144
1.50400e-06	-0.01252816324195031
1.50425e-06	-0.012526680674445479
1.50450e-06	-0.012525198106940643
1.50475e-06	-0.012523715539435811
1.50500e-06	-0.01252223297193098
1.50525e-06	-0.012520750404426146
1.50550e-06	-0.012519267836921312
1.50575e-06	-0.012517785269416479
1.50600e-06	-0.012516302701911647
1.50625e-06	-0.01251584955438419
1.50650e-06	-0.01251543790980621
1.50675e-06	-0.01251502626522823
1.50700e-06	-0.01251461462065025
1.50725e-06	-0.01251420297607227
1.50750e-06	-0.01251379133149429
1.50775e-06	-0.01251337968691631
1.50800e-06	-0.01251296804233833
1.50825e-06	-0.01251255639776035
1.50850e-06	-0.012512630266116593
1.50875e-06	-0.012512723708814913
1.50900e-06	-0.012512817151513233
1.50925e-06	-0.012512910594211552
1.50950e-06	-0.012513004036909872
1.50975e-06	-0.012513097479608193
1.51000e-06	-0.012513190922306513
1.51025e-06	-0.012513284365004831
1.51050e-06	-0.012513377807703152
1.51075e-06	-0.012513275791906132
1.51100e-06	-0.012513165895842327
1.51125e-06	-0.012513055999778522
1.51150e-06	-0.012512946103714718
1.51175e-06	-0.012512836207650913
1.51200e-06	-0.012512456847432464
1.51225e-06	-0.012511940395878999
1.51250e-06	-0.01251127651370702
1.51275e-06	-0.012510649863803855
1.51300e-06	-0.012510696368668524
1.51325e-06	-0.012512094883181404
1.51350e-06	-0.012515039163067898
1.51375e-06	-0.012520092790590564
1.51400e-06	-0.012525229034589568
1.51425e-06	-0.01253277881799364
1.51450e-06	-0.012540425907653807
1.51475e-06	-0.012550495041401669
1.51500e-06	-0.012560661824287458
1.51525e-06	-0.012575073339031231
1.51550e-06	-0.012589655987904572
1.51575e-06	-0.012604238636777901
1.51600e-06	-0.012624583700503822
1.51625e-06	-0.012645161086525436
1.51650e-06	-0.012665738472547051
1.51675e-06	-0.012686315858568682
1.51700e-06	-0.012706893244590296
1.51725e-06	-0.012733453988166733
1.51750e-06	-0.012760255961748047
1.51775e-06	-0.01278705793532936
1.51800e-06	-0.012813859908910697
1.51825e-06	-0.012840661882492012
1.51850e-06	-0.012870444911457727
1.51875e-06	-0.01290034812712434
1.51900e-06	-0.012930251342790976
1.51925e-06	-0.012961281055892575
1.51950e-06	-0.012992356185798913
1.51975e-06	-0.013023431315705275
1.52000e-06	-0.013054242949655294
1.52025e-06	-0.013085043960283862
1.52050e-06	-0.013115844970912404
1.52075e-06	-0.01314481344624339
1.52100e-06	-0.013173708039561718
1.52125e-06	-0.013202602632880022
1.52150e-06	-0.013229087416917217
1.52175e-06	-0.013255475045085084
1.52200e-06	-0.013279025690176274
1.52225e-06	-0.013302461957105204
1.52250e-06	-0.013322230467749746
1.52275e-06	-0.013341851106090475
1.52300e-06	-0.013355904459822985
1.52325e-06	-0.013369733358292604
1.52350e-06	-0.013383562256762212
1.52375e-06	-0.013390199476242847
1.52400e-06	-0.013396546750029714
1.52425e-06	-0.013402894023816577
1.52450e-06	-0.013401745837319408
1.52475e-06	-0.013400295457629873
1.52500e-06	-0.01339884507794034
1.52525e-06	-0.01338758632238552
1.52550e-06	-0.013375932124215811
1.52575e-06	-0.013364277926046093
1.52600e-06	-0.013352623727876385
1.52625e-06	-0.013340969529706677
1.52650e-06	-0.013318637747266713
1.52675e-06	-0.01329587547848505
1.52700e-06	-0.013273113209703369
1.52725e-06	-0.013250350940921708
1.52750e-06	-0.013227588672140026
1.52775e-06	-0.013198798642407885
1.52800e-06	-0.013169765592466822
1.52825e-06	-0.013138131004873191
1.52850e-06	-0.013106391531530296
1.52875e-06	-0.01307262839133824
1.52900e-06	-0.013038783663315427
1.52925e-06	-0.013003814079112152
1.52950e-06	-0.01296828796808724
1.52975e-06	-0.012932417174889936
1.53000e-06	-0.012896393660249021
1.53025e-06	-0.01286041106707443
1.53050e-06	-0.01282466311046165
1.53075e-06	-0.012789343505506173
1.53100e-06	-0.012754649548222578
1.53125e-06	-0.012720793002672617
1.53150e-06	-0.012687990686552112
1.53175e-06	-0.012656464074169637
1.53200e-06	-0.012626434820298009
1.53225e-06	-0.012598122789250456
1.53250e-06	-0.012571748668384319
1.53275e-06	-0.012547448134323604
1.53300e-06	-0.012525129627436448
1.53325e-06	-0.01250461199420736
1.53350e-06	-0.012485867497972737
1.53375e-06	-0.01246896603174782
1.53400e-06	-0.012454948913375431
1.53425e-06	-0.012441045198658985
1.53450e-06	-0.0124311113802675
1.53475e-06	-0.012421337615508198
1.53500e-06	-0.012416178014083694
1.53525e-06	-0.012411204441094389
1.53550e-06	-0.01240623086810508
1.53575e-06	-0.012407826789428845
1.53600e-06	-0.012409687571932929
1.53625e-06	-0.01241154835443701
1.53650e-06	-0.012413409136941092
1.53675e-06	-0.012415269919445176
1.53700e-06	-0.012424072671520191
1.53725e-06	-0.012433155301796879
1.53750e-06	-0.012442237932073559
1.53775e-06	-0.012451320562350238
1.53800e-06	-0.012460403192626927
1.53825e-06	-0.012474481145224857
1.53850e-06	-0.012488760493379731
1.53875e-06	-0.012503039841534594
1.53900e-06	-0.012517319189689458
1.53925e-06	-0.012531598537844331
1.53950e-06	-0.012545877885999195
1.53975e-06	-0.012561934563617112
1.54000e-06	-0.012578062897523445
1.54025e-06	-0.012594191231429777
1.54050e-06	-0.012610319565336123
1.54075e-06	-0.012626447899242456
1.54100e-06	-0.012642576233148803
1.54125e-06	-0.012657670427489288
1.54150e-06	-0.012672722928601523
1.54175e-06	-0.012685913202629436
1.54200e-06	-0.01269902839756603
1.54225e-06	-0.012712143592502634
1.54250e-06	-0.012722123991265733
1.54275e-06	-0.01273197800498689
1.54300e-06	-0.012741832018708038
1.54325e-06	-0.01274827162616387
1.54350e-06	-0.01275457357558544
1.54375e-06	-0.012760875525007005
1.54400e-06	-0.012761445754478871
1.54425e-06	-0.012761784899176428
1.54450e-06	-0.012762124043873984
1.54475e-06	-0.01276246318857154
1.54500e-06	-0.012762802333269097
1.54525e-06	-0.012763141477966653
1.54550e-06	-0.012759955187337144
1.54575e-06	-0.012752651039305023
1.54600e-06	-0.012745346891272907
1.54625e-06	-0.012738042743240792
1.54650e-06	-0.012730738595208669
1.54675e-06	-0.012723434447176553
1.54700e-06	-0.012716130299144432
1.54725e-06	-0.012703553448217745
1.54750e-06	-0.012690764018628996
1.54775e-06	-0.012677974589040235
1.54800e-06	-0.012665185159451484
1.54825e-06	-0.012652395729862723
1.54850e-06	-0.012638246286522048
1.54875e-06	-0.012622508289662063
1.54900e-06	-0.012606770292802065
1.54925e-06	-0.01259103229594208
1.54950e-06	-0.012575294299082081
1.54975e-06	-0.012559556302222096
1.55000e-06	-0.01254311603831572
1.55025e-06	-0.012526647461228795
1.55050e-06	-0.012510301530617579
1.55075e-06	-0.012493960544723362
1.55100e-06	-0.01247809313536675
1.55125e-06	-0.012462244819114504
1.55150e-06	-0.012447256371036861
1.55175e-06	-0.012432302590117548
1.55200e-06	-0.012418220315359555
1.55225e-06	-0.012404872351401147
1.55250e-06	-0.012392341273348473
1.55275e-06	-0.012380866135908218
1.55300e-06	-0.012370994464572896
1.55325e-06	-0.012363268974844596
1.55350e-06	-0.012357854804737138
1.55375e-06	-0.012354705841869837
1.55400e-06	-0.012354802955124032
1.55425e-06	-0.012355027403864514
1.55450e-06	-0.012359334547878525
1.55475e-06	-0.012363806293220541
1.55500e-06	-0.012374089124072857
1.55525e-06	-0.012384606239467133
1.55550e-06	-0.012395123354861416
1.55575e-06	-0.01241461777450376
1.55600e-06	-0.012434474130588109
1.55625e-06	-0.012454330486672473
1.55650e-06	-0.01247418684275682
1.55675e-06	-0.012494043198841183
1.55700e-06	-0.012523135819299215
1.55725e-06	-0.012552600816650385
1.55750e-06	-0.01258206581400158
1.55775e-06	-0.01261153081135275
1.55800e-06	-0.012640995808703944
1.55825e-06	-0.012676871277723859
1.55850e-06	-0.012713005196635107
1.55875e-06	-0.012749139115546326
1.55900e-06	-0.012785273034457544
1.55925e-06	-0.012821406953368794
1.55950e-06	-0.012857540872280013
1.55975e-06	-0.012894764584206578
1.56000e-06	-0.012932032233131961
1.56025e-06	-0.012969299882057346
1.56050e-06	-0.013006567530982761
1.56075e-06	-0.013043835179908144
1.56100e-06	-0.01308110282883356
1.56125e-06	-0.013115342959950371
1.56150e-06	-0.013149461031148835
1.56175e-06	-0.013174289145252824
1.56200e-06	-0.013198742717743461
1.56225e-06	-0.01322319629023412
1.56250e-06	-0.013247649862724756
1.56275e-06	-0.013272103435215414
1.56300e-06	-0.013296557007706052
1.56325e-06	-0.013321010580196689
1.56350e-06	-0.013345464152687347
1.56375e-06	-0.013362919397938277
1.56400e-06	-0.01337220030131273
1.56425e-06	-0.013381481204687178
1.56450e-06	-0.013390762108061626
1.56475e-06	-0.01340004301143608
1.56500e-06	-0.013409323914810527
1.56525e-06	-0.013418604818184982
1.56550e-06	-0.013427885721559429
1.56575e-06	-0.013437166624933876
1.56600e-06	-0.01343511465692491
1.56625e-06	-0.013432605783476256
1.56650e-06	-0.013430096910027603
1.56675e-06	-0.01342758803657895
1.56700e-06	-0.013425079163130295
1.56725e-06	-0.013422570289681643
1.56750e-06	-0.013420061416232991
1.56775e-06	-0.013417552542784338
1.56800e-06	-0.013411758531885008
1.56825e-06	-0.013402127341655135
1.56850e-06	-0.013392496151425268
1.56875e-06	-0.013382864961195404
1.56900e-06	-0.013373233770965531
1.56925e-06	-0.013363602580735665
1.56950e-06	-0.013353971390505792
1.56975e-06	-0.013344340200275927
1.57000e-06	-0.013334709010046061
1.57025e-06	-0.013323240505571455
1.57050e-06	-0.013311697926412314
1.57075e-06	-0.013300155347253163
1.57100e-06	-0.013288612768094022
1.57125e-06	-0.01327768386892831
1.57150e-06	-0.013266779711394068
1.57175e-06	-0.013255875553859826
1.57200e-06	-0.013244971396325576
1.57225e-06	-0.013235350326830132
1.57250e-06	-0.01322578098737595
1.57275e-06	-0.01321617374986237
1.57300e-06	-0.013206564984419205
1.57325e-06	-0.01319695621897603
1.57350e-06	-0.013183917828361652
1.57375e-06	-0.013170741166135123
1.57400e-06	-0.013157564503908604
1.57425e-06	-0.013141390910889906
1.57450e-06	-0.01312509649112442
1.57475e-06	-0.013108802071358948
1.57500e-06	-0.013087165099493014
1.57525e-06	-0.01306531273286675
1.57550e-06	-0.013043460366240489
1.57575e-06	-0.013021607999614207
1.57600e-06	-0.012999755632987945
1.57625e-06	-0.012971466743507031
1.57650e-06	-0.012942918353833799
1.57675e-06	-0.012914369964160542
1.57700e-06	-0.012885821574487309
1.57725e-06	-0.012857273184814076
1.57750e-06	-0.012823665593203143
1.57775e-06	-0.012789854030612018
1.57800e-06	-0.012756042468020862
1.57825e-06	-0.012722230905429737
1.57850e-06	-0.012687272681422902
1.57875e-06	-0.012650975108439232
1.57900e-06	-0.012614677535455593
1.57925e-06	-0.012578379962471924
1.57950e-06	-0.012542082389488283
1.57975e-06	-0.012505167306917274
1.58000e-06	-0.012468359822320656
1.58025e-06	-0.012431893390618301
1.58050e-06	-0.01239597584111559
1.58075e-06	-0.012360779049556733
1.58100e-06	-0.012326389296376345
1.58125e-06	-0.012292883202675383
1.58150e-06	-0.012260425764650158
1.58175e-06	-0.012229232998863384
1.58200e-06	-0.012205066793697775
1.58225e-06	-0.012181181887988593
1.58250e-06	-0.012157296982279433
1.58275e-06	-0.012133412076570272
1.58300e-06	-0.012109527170861091
1.58325e-06	-0.01208564226515193
1.58350e-06	-0.01206175735944275
1.58375e-06	-0.012037872453733589
1.58400e-06	-0.012013987548024428
1.58425e-06	-0.011997500522557209
1.58450e-06	-0.011981311756163814
1.58475e-06	-0.011965122989770403
1.58500e-06	-0.011948934223377006
1.58525e-06	-0.011932745456983597
1.58550e-06	-0.0119165566905902
1.58575e-06	-0.011900367924196803
1.58600e-06	-0.011884179157803392
1.58625e-06	-0.011867990391409997
1.58650e-06	-0.011855612443988806
1.58675e-06	-0.011843388136705046
1.58700e-06	-0.011831163829421287
1.58725e-06	-0.011818939522137518
1.58750e-06	-0.011806715214853759
1.58775e-06	-0.01179449090756999
1.58800e-06	-0.01178226660028623
1.58825e-06	-0.011770042293002471
1.58850e-06	-0.011760012305739054
1.58875e-06	-0.011750070786501
1.58900e-06	-0.011740129267262936
1.58925e-06	-0.011730187748024881
1.58950e-06	-0.01172024622878682
1.58975e-06	-0.011710304709548765
1.59000e-06	-0.01170036319031071
1.59025e-06	-0.011690421671072647
1.59050e-06	-0.011681925612169283
1.59075e-06	-0.01167348782964326
1.59100e-06	-0.011665050047117244
1.59125e-06	-0.011657309051746452
1.59150e-06	-0.011649596148624338
1.59175e-06	-0.01164188324550223
1.59200e-06	-0.011634631087291323
1.59225e-06	-0.011627695616360952
1.59250e-06	-0.01162110698026767
1.59275e-06	-0.011615025114482994
1.59300e-06	-0.011609870003581322
1.59325e-06	-0.01160607191859212
1.59350e-06	-0.0116037576476597
1.59375e-06	-0.011602883287795029
1.59400e-06	-0.011603398547579078
1.59425e-06	-0.011605867710816025
1.59450e-06	-0.011608413481073738
1.59475e-06	-0.011613560788984243
1.59500e-06	-0.011618812982643792
1.59525e-06	-0.01162801627280389
1.59550e-06	-0.0116373788586465
1.59575e-06	-0.011646741444489118
1.59600e-06	-0.011661598234351945
1.59625e-06	-0.011676676533099497
1.59650e-06	-0.011691754831847036
1.59675e-06	-0.011706833130594575
1.59700e-06	-0.011721911429342128
1.59725e-06	-0.01174265080293525
1.59750e-06	-0.011763618413115646
1.59775e-06	-0.011784586023296023
1.59800e-06	-0.011805553633476419
1.59825e-06	-0.011826521243656797
1.59850e-06	-0.011850414942115263
1.59875e-06	-0.011874426611174877
1.59900e-06	-0.011898438280234472
1.59925e-06	-0.011923592262454784
1.59950e-06	-0.011948792299119588
1.59975e-06	-0.011973992335784391
1.60000e-06	-0.01199913179523615
1.60025e-06	-0.012024268812406737
1.60050e-06	-0.012049405829577347
1.60075e-06	-0.012073487221668004
1.60100e-06	-0.012097526054302692
1.60125e-06	-0.012120176385595514
1.60150e-06	-0.012142770736916973
1.60175e-06	-0.012162713865334518
1.60200e-06	-0.012182550104851253
1.60225e-06	-0.012202386344368004
1.60250e-06	-0.012217819545565467
1.60275e-06	-0.012233075230219386
1.60300e-06	-0.012248330914873318
1.60325e-06	-0.012259252493898693
1.60350e-06	-0.012269999335528048
1.60375e-06	-0.012280746177157393
1.60400e-06	-0.012284640996990146
1.60425e-06	-0.012288259565030985
1.60450e-06	-0.012291878133071822
1.60475e-06	-0.01229549670111266
1.60500e-06	-0.012299115269153496
1.60525e-06	-0.012302733837194331
1.60550e-06	-0.012298618363312214
1.60575e-06	-0.012293463948891843
1.60600e-06	-0.012288309534471466
1.60625e-06	-0.012283155120051095
1.60650e-06	-0.012278000705630718
1.60675e-06	-0.012272846291210346
1.60700e-06	-0.012267712617799497
1.60725e-06	-0.02006117292085915
1.60750e-06	-0.032366846661715416
1.60775e-06	-0.028049179854821648
1.60800e-06	-0.02523495414849059
1.60825e-06	-0.017992914956123957
1.60850e-06	-0.008323275921481304
1.60875e-06	-0.009376823714481227
1.60900e-06	-0.00994080068146103
1.60925e-06	-0.013343693051208494
1.60950e-06	-0.026318968462577766
1.60975e-06	-0.02057432774706437
1.61000e-06	-0.01780654738864939
1.61025e-06	-0.013596012362837369
1.61050e-06	-0.009409913527548223
1.61075e-06	-0.008381337535595043
1.61100e-06	-0.009929974957788074
1.61125e-06	-0.013141650967997453
1.61150e-06	-0.01646935378199705
1.61175e-06	-0.01684950741963385
1.61200e-06	-0.015011052019996654
1.61225e-06	-0.012310719533020785
1.61250e-06	-0.009725785505586405
1.61275e-06	-0.00911349823607433
1.61300e-06	-0.010111102528854613
1.61325e-06	-0.012146525983169397
1.61350e-06	-0.014251306808265049
1.61375e-06	-0.01450708309839176
1.61400e-06	-0.013371089531553308
1.61425e-06	-0.011693664045965236
1.61450e-06	-0.010087313560284108
1.61475e-06	-0.009715614970865021
1.61500e-06	-0.010351448593805235
1.61525e-06	-0.011636563758773632
1.61550e-06	-0.012964424582603853
1.61575e-06	-0.013133532905814553
1.61600e-06	-0.012430479366790264
1.61625e-06	-0.011388038029472806
1.61650e-06	-0.010389949359589833
1.61675e-06	-0.010165079885667139
1.61700e-06	-0.010571126685019392
1.61725e-06	-0.011383657198423804
1.61750e-06	-0.012222732063529132
1.61775e-06	-0.012335773394685301
1.61800e-06	-0.01190236340523259
1.61825e-06	-0.011256265394483553
1.61850e-06	-0.010637858170643395
1.61875e-06	-0.010503671924268876
1.61900e-06	-0.010764520812868222
1.61925e-06	-0.011279778465630951
1.61950e-06	-0.011811426981096659
1.61975e-06	-0.011888059579262821
1.62000e-06	-0.011622187500572683
1.62025e-06	-0.011222886477553736
1.62050e-06	-0.010840718457157398
1.62075e-06	-0.010761621010231046
1.62100e-06	-0.010929685903156813
1.62125e-06	-0.011256789323242275
1.62150e-06	-0.011593810521616062
1.62175e-06	-0.011645456582063472
1.62200e-06	-0.011482208210637421
1.62225e-06	-0.011235024367364807
1.62250e-06	-0.010998201898313019
1.62275e-06	-0.010950891403023211
1.62300e-06	-0.011058236489500163
1.62325e-06	-0.011265218742467043
1.62350e-06	-0.011478500334638379
1.62375e-06	-0.011513119654334191
1.62400e-06	-0.011413233391708485
1.62425e-06	-0.011260875635225083
1.62450e-06	-0.011115107597087297
1.62475e-06	-0.011088135025247964
1.62500e-06	-0.011158106627913694
1.62525e-06	-0.011290544086081425
1.62550e-06	-0.01142696923285737
1.62575e-06	-0.011451520610572271
1.62600e-06	-0.011391857634996099
1.62625e-06	-0.011299364519763383
1.62650e-06	-0.011211031284549176
1.62675e-06	-0.011197130252768263
1.62700e-06	-0.011243961606476128
1.62725e-06	-0.011329914937979742
1.62750e-06	-0.011418348987981173
1.62775e-06	-0.011436685028293736
1.62800e-06	-0.011402245719173639
1.62825e-06	-0.011347214040253668
1.62850e-06	-0.011294751838852587
1.62875e-06	-0.01128886948802719
1.62900e-06	-0.011320973135909355
1.62925e-06	-0.011377513493607102
1.62950e-06	-0.011435532250372716
1.62975e-06	-0.011449557367613912
1.63000e-06	-0.011430437762577373
1.63025e-06	-0.01139832512725584
1.63050e-06	-0.011367721472304824
1.63075e-06	-0.011366186249326086
1.63100e-06	-0.011388323870057391
1.63125e-06	-0.011415479172958293
1.63150e-06	-0.011442916867329062
1.63175e-06	-0.011470354561699809
1.63200e-06	-0.011463625895921986
1.63225e-06	-0.01144572867982877
1.63250e-06	-0.011426968583547003
1.63275e-06	-0.011426965767058732
1.63300e-06	-0.011442483923301177
1.63325e-06	-0.011463131564909496
1.63350e-06	-0.0114843362277292
1.63375e-06	-0.011505540890548902
1.63400e-06	-0.011507182354736491
1.63425e-06	-0.011507693903336723
1.63450e-06	-0.011508772995759845
1.63475e-06	-0.011509852088182965
1.63500e-06	-0.011527507351313342
1.63525e-06	-0.011551360220157271
1.63550e-06	-0.011575788811289435
1.63575e-06	-0.01160021740242162
1.63600e-06	-0.011613331094572032
1.63625e-06	-0.011626603411117606
1.63650e-06	-0.011640367737888718
1.63675e-06	-0.011654132064659819
1.63700e-06	-0.011678769255749193
1.63725e-06	-0.011707612366418756
1.63750e-06	-0.011736861483197154
1.63775e-06	-0.011766110599975527
1.63800e-06	-0.011788309896825255
1.63825e-06	-0.011812263261369811
1.63850e-06	-0.011836856929428326
1.63875e-06	-0.011861450597486861
1.63900e-06	-0.011886044265545376
1.63925e-06	-0.011914163231091304
1.63950e-06	-0.011942993019880482
1.63975e-06	-0.011971822808669635
1.64000e-06	-0.012000652597458812
1.64025e-06	-0.012025488250417113
1.64050e-06	-0.0120495185459282
1.64075e-06	-0.012073548841439307
1.64100e-06	-0.012100339076348596
1.64125e-06	-0.012127685811547911
1.64150e-06	-0.012155032546747203
1.64175e-06	-0.012176322554505578
1.64200e-06	-0.012196391314225109
1.64225e-06	-0.01221646007394464
1.64250e-06	-0.012233645145228091
1.64275e-06	-0.012250248764088336
1.64300e-06	-0.012266852382948595
1.64325e-06	-0.012280279345921876
1.64350e-06	-0.01229306578398963
1.64375e-06	-0.012305852222057396
1.64400e-06	-0.012309435920930261
1.64425e-06	-0.01231116402578756
1.64450e-06	-0.012312892130644858
1.64475e-06	-0.012314620235502158
1.64500e-06	-0.012316348340359457
1.64525e-06	-0.012318076445216755
1.64550e-06	-0.012315877646799088
1.64575e-06	-0.012305784832417782
1.64600e-06	-0.012295692018036467
1.64625e-06	-0.01228559920365516
1.64650e-06	-0.012275506389273853
1.64675e-06	-0.012265413574892537
1.64700e-06	-0.012255320760511232
1.64725e-06	-0.012237797767326792
