Time(s)	Current(A)
1.12500e-05	0.0034083762921819053
1.12503e-05	0.0033905849265981275
1.12505e-05	0.00337279356101447
1.12508e-05	0.0033517006310171313
1.12510e-05	0.003325345754359804
1.12513e-05	0.0032989908777026557
1.12515e-05	0.0032707912661421004
1.12518e-05	0.003237105053773502
1.12520e-05	0.003199360279423659
1.12523e-05	0.003161615505073561
1.12525e-05	0.0031238707307234626
1.12527e-05	0.0030861259563736204
1.12530e-05	0.0030483811820235223
1.12533e-05	0.003010636407673424
1.12535e-05	0.002972113625427374
1.12538e-05	0.0029323508746272073
1.12540e-05	0.0028925881238270404
1.12542e-05	0.002852825373027143
1.12545e-05	0.0028130626222269764
1.12548e-05	0.0027732998714268095
1.12550e-05	0.0027335371206266426
1.12553e-05	0.002701002440837311
1.12555e-05	0.0026799876708100373
1.12558e-05	0.0026589729007827634
1.12560e-05	0.002637958130755632
1.12563e-05	0.0026169433607283583
1.12565e-05	0.002595928590701085
1.12568e-05	0.002574913820673953
1.12570e-05	0.0025538990506466797
1.12573e-05	0.0025328842806194058
1.12575e-05	0.002511869510592274
1.12578e-05	0.0024908547405650006
1.12580e-05	0.0024698399705377267
1.12583e-05	0.0024616222709350323
1.12585e-05	0.002473800206115611
1.12588e-05	0.0024859781412961894
1.12590e-05	0.0024981560764766853
1.12593e-05	0.0025103340116572636
1.12595e-05	0.0025225119468378424
1.12598e-05	0.0025346898820183383
1.12600e-05	0.0025468678171989166
1.12603e-05	0.0025590457523794953
1.12605e-05	0.0025712236875599912
1.12608e-05	0.0025834016227405695
1.12610e-05	0.0025955795579211483
1.12612e-05	0.0026152219004136773
1.12615e-05	0.0026467608192608954
1.12618e-05	0.0026782997381081136
1.12620e-05	0.002709838656955118
1.12623e-05	0.002741377575802336
1.12625e-05	0.0027729164946495542
1.12627e-05	0.0028044554134965586
1.12630e-05	0.0028359943323437767
1.12633e-05	0.002868384943500658
1.12635e-05	0.002902132959494864
1.12638e-05	0.0029358809754888417
1.12640e-05	0.0029696289914830478
1.12643e-05	0.003003377007477254
1.12645e-05	0.003037125023471231
1.12648e-05	0.003070873039465437
1.12650e-05	0.003104621055459643
1.12653e-05	0.0031338304629310036
1.12655e-05	0.003155806355324489
1.12658e-05	0.0031777822477179747
1.12660e-05	0.003199758140111311
1.12663e-05	0.003221734032504796
1.12665e-05	0.0032437099248982817
1.12668e-05	0.003265685817291618
1.12670e-05	0.0032876617096851035
1.12673e-05	0.0033096376020785886
1.12675e-05	0.0033316134944719254
1.12678e-05	0.0033535893868654105
1.12680e-05	0.003375565279258896
1.12683e-05	0.003389974686791581
1.12685e-05	0.003403406079239685
1.12688e-05	0.003416837471687789
1.12690e-05	0.0034302688641358017
1.12693e-05	0.0034437002565839057
1.12695e-05	0.0034571316490320096
1.12697e-05	0.0034705630414800224
1.12700e-05	0.0034839944339281267
1.12703e-05	0.0034974258263762307
1.12705e-05	0.0035108572188242435
1.12708e-05	0.0035242886112723474
1.12710e-05	0.00353637575019121
1.12712e-05	0.003546320453135178
1.12715e-05	0.003556265156079214
1.12718e-05	0.00356620985902325
1.12720e-05	0.0035761545619672854
1.12723e-05	0.003586099264911254
1.12725e-05	0.00359604396785529
1.12728e-05	0.0036059886707993254
1.12730e-05	0.003615933373743294
1.12733e-05	0.00362587807668733
1.12735e-05	0.0036358227796313655
1.12738e-05	0.003645767482575334
1.12740e-05	0.0036521069665316178
1.12743e-05	0.003657980453579148
1.12745e-05	0.003663853940626639
1.12748e-05	0.0036697274276741697
1.12750e-05	0.0036756009147217005
1.12753e-05	0.003681474401769191
1.12755e-05	0.0036873478888167217
1.12758e-05	0.0036932213758642525
1.12760e-05	0.0036990948629117434
1.12763e-05	0.0037049683499592737
1.12765e-05	0.0037108418370068045
1.12768e-05	0.003708598845334444
1.12770e-05	0.0036934200230148186
1.12773e-05	0.003678241200695193
1.12775e-05	0.003663062378375671
1.12778e-05	0.0036478835560560456
1.12780e-05	0.00363270473373642
1.12782e-05	0.0036175259114168976
1.12785e-05	0.0036023470890972726
1.12788e-05	0.0035871682667776472
1.12790e-05	0.0035719894444581246
1.12793e-05	0.0035568106221384992
1.12795e-05	0.003530760474003215
1.12797e-05	0.003487383892260123
1.12800e-05	0.0034440073105167367
1.12803e-05	0.0034006307287733502
1.12805e-05	0.003357254147029964
1.12808e-05	0.003313877565286872
1.12810e-05	0.0032705009835434853
1.12813e-05	0.0032271244018000993
1.12815e-05	0.003183747820057007
1.12818e-05	0.0031403712383136204
1.12820e-05	0.0030969946565702344
1.12823e-05	0.0030492043125626635
1.12825e-05	0.002994379430160794
1.12828e-05	0.0029395545477589238
1.12830e-05	0.0028847296653574253
1.12833e-05	0.0028299047829555557
1.12835e-05	0.002775079900553686
1.12838e-05	0.0027202550181521876
1.12840e-05	0.002669200004028313
1.12843e-05	0.0026186322687552083
1.12845e-05	0.0025680645334824467
1.12848e-05	0.002517496798209342
1.12850e-05	0.002466929062936238
1.12853e-05	0.002416361327663476
1.12855e-05	0.002369873968967531
1.12858e-05	0.002329889807312423
1.12860e-05	0.0022899056456575856
1.12863e-05	0.0022532724791226363
1.12865e-05	0.002221980040615556
1.12867e-05	0.002190687602108688
1.12870e-05	0.0021651845109551798
1.12873e-05	0.0021489083295901023
1.12875e-05	0.002132632148225135
1.12878e-05	0.0021163559668600576
1.12880e-05	0.0021000797854949806
1.12882e-05	0.0020838036041300133
1.12885e-05	0.002067527422764936
1.12888e-05	0.0020512512413998585
1.12890e-05	0.0020349750600347815
1.12893e-05	0.0020262385179507956
1.12895e-05	0.0020295184549680954
1.12898e-05	0.0020327983919853957
1.12900e-05	0.0020360783290026734
1.12903e-05	0.0020393582660199736
1.12905e-05	0.0020426382030372735
1.12908e-05	0.002045918140054551
1.12910e-05	0.0020491980770718514
1.12913e-05	0.0020524780140891512
1.12915e-05	0.002060074751311676
1.12918e-05	0.002074551491345973
1.12920e-05	0.00208902823138027
1.12923e-05	0.0021035049714144692
1.12925e-05	0.0021179817114487663
1.12928e-05	0.0021324584514830634
1.12930e-05	0.0021469351915172625
1.12933e-05	0.0021614119315515597
1.12935e-05	0.002176676237873409
1.12938e-05	0.0021931957466635216
1.12940e-05	0.0022097152554537464
1.12943e-05	0.002226234764243971
1.12945e-05	0.002242754273034084
1.12948e-05	0.002259273781824309
1.12950e-05	0.0022757932906145337
1.12952e-05	0.0022923127994046466
1.12955e-05	0.002304300879277829
1.12958e-05	0.00230906688673333
1.12960e-05	0.002313832894188798
1.12963e-05	0.002318598901644299
1.12965e-05	0.0023233649090997994
1.12967e-05	0.0023281309165552678
1.12970e-05	0.0023328969240107686
1.12973e-05	0.002337662931466269
1.12975e-05	0.00234242893892177
1.12978e-05	0.0023471949463772382
1.12980e-05	0.0023519609538327386
1.12983e-05	0.0023567269612882395
1.12985e-05	0.002361492968743708
1.12988e-05	0.0023577964162999235
1.12990e-05	0.0023406124581053286
1.12993e-05	0.0023234284999108503
1.12995e-05	0.002306244541716256
1.12998e-05	0.002289060583521661
1.13000e-05	0.0022718766253271828
1.13003e-05	0.002254692667132588
1.13005e-05	0.0022375087089379934
1.13008e-05	0.002220324750743515
1.13010e-05	0.0022031407925489203
1.13013e-05	0.002185956834354326
1.13015e-05	0.0021687728761598476
1.13018e-05	0.0021515889179652527
1.13020e-05	0.0021304677683708414
1.13023e-05	0.002103071626509151
1.13025e-05	0.0020756754846472754
1.13028e-05	0.0020482793427853995
1.13030e-05	0.0020208832009237093
1.13033e-05	0.0019934870590618335
1.13035e-05	0.0019660909171999577
1.13037e-05	0.0019386947753382673
1.13040e-05	0.0019130592502706804
1.13043e-05	0.0018876512958410935
1.13045e-05	0.001862243341411679
1.13048e-05	0.0018368353869820924
1.13050e-05	0.0018114274325525055
1.13052e-05	0.001786019478123091
1.13055e-05	0.0017606115236935044
1.13058e-05	0.0017398325178480743
1.13060e-05	0.001726431008706914
1.13063e-05	0.0017130294995658444
1.13065e-05	0.001699627990424684
1.13068e-05	0.0016862264812835238
1.13070e-05	0.0016728249721424543
1.13073e-05	0.001659423463001294
1.13075e-05	0.0016460219538601336
1.13078e-05	0.001632620444719064
1.13080e-05	0.0016192189355779037
1.13083e-05	0.0016058174264367434
1.13085e-05	0.0015924159172956737
1.13088e-05	0.0015906535501577761
1.13090e-05	0.0015903956142968932
1.13093e-05	0.001590137678436012
1.13095e-05	0.001589879742575129
1.13098e-05	0.001589621806714246
1.13100e-05	0.001589363870853365
1.13103e-05	0.001589105934992482
1.13105e-05	0.001588847999131599
1.13108e-05	0.0015885900632707178
1.13110e-05	0.0015883321274098349
1.13113e-05	0.001588074191548952
1.13115e-05	0.0015905208280469726
1.13118e-05	0.0015972779409531399
1.13120e-05	0.0016040350538593074
1.13122e-05	0.001610792166765429
1.13125e-05	0.0016175492796715962
1.13128e-05	0.0016243063925777638
1.13130e-05	0.0016310635054838853
1.13133e-05	0.0016378206183900526
1.13135e-05	0.0016445777312962201
1.13137e-05	0.0016513348442023417
1.13140e-05	0.0016583647882096534
1.13143e-05	0.001665429997328597
1.13145e-05	0.0016724952064475405
1.13148e-05	0.001679560415566436
1.13150e-05	0.0016866256246853796
1.13153e-05	0.001693690833804323
1.13155e-05	0.0017007560429232185
1.13158e-05	0.001707821252042162
1.13160e-05	0.0017148864611611055
1.13163e-05	0.0017228096442974965
1.13165e-05	0.0017321002438943163
1.13168e-05	0.0017413908434911359
1.13170e-05	0.0017506814430878926
1.13173e-05	0.0017599720426847124
1.13175e-05	0.0017692626422815322
1.13178e-05	0.0017785532418782889
1.13180e-05	0.0017878438414751085
1.13183e-05	0.0017971344410719283
1.13185e-05	0.001806425040668685
1.13188e-05	0.0018157156402655048
1.13190e-05	0.0018250062398623243
1.13193e-05	0.0018342968394590813
1.13195e-05	0.0018435874390559008
1.13198e-05	0.0018560361582573312
1.13200e-05	0.0018735182055590628
1.13203e-05	0.001891000252860913
1.13205e-05	0.001908482300162763
1.13207e-05	0.001925964347464495
1.13210e-05	0.001943446394766345
1.13213e-05	0.0019609284420681952
1.13215e-05	0.001978410489369927
1.13218e-05	0.001995892536671777
1.13220e-05	0.0020133745839736273
1.13222e-05	0.002030856631275359
1.13225e-05	0.002048338678577209
1.13228e-05	0.002065820725879059
1.13230e-05	0.0020833027731809095
1.13233e-05	0.002099466624435181
1.13235e-05	0.002113529569441814
1.13238e-05	0.0021275925144484467
1.13240e-05	0.002141655459454984
1.13243e-05	0.002155718404461617
1.13245e-05	0.00216978134946825
1.13248e-05	0.0021838442944747873
1.13250e-05	0.00219790723948142
1.13253e-05	0.0022119701844880526
1.13255e-05	0.0022260331294945905
1.13258e-05	0.002240096074501223
1.13260e-05	0.0022541590195078558
1.13263e-05	0.0022682219645143932
1.13265e-05	0.002282284909521026
1.13268e-05	0.002296347854527659
1.13270e-05	0.0023104107995341964
1.13273e-05	0.0023244737445408292
1.13275e-05	0.002338536689547462
1.13278e-05	0.0023466788310418808
1.13280e-05	0.0023453845513638797
1.13283e-05	0.0023440902716858783
1.13285e-05	0.0023427959920078855
1.13288e-05	0.0023415017123298845
1.13290e-05	0.002340207432651883
1.13292e-05	0.0023389131529738903
1.13295e-05	0.0023376188732958892
1.13298e-05	0.002336324593617888
1.13300e-05	0.0023350303139398954
1.13303e-05	0.002333736034261894
1.13305e-05	0.0023324417545838925
1.13307e-05	0.0023311474749059
1.13310e-05	0.0023298531952278987
1.13313e-05	0.0023285589155498973
1.13315e-05	0.0023272646358718963
1.13318e-05	0.0023259703561939035
1.13320e-05	0.0023246760765159025
1.13323e-05	0.0023209142310174533
1.13325e-05	0.0023132196439060323
1.13328e-05	0.002305525056794559
1.13330e-05	0.002297830469683086
1.13333e-05	0.002290135882571665
1.13335e-05	0.002282441295460192
1.13338e-05	0.002274746708348719
1.13340e-05	0.002267052121237298
1.13343e-05	0.0022593575341258248
1.13345e-05	0.0022516629470143517
1.13348e-05	0.0022439683599029306
1.13350e-05	0.0022362737727914576
1.13353e-05	0.0022287771727763687
1.13355e-05	0.0022213061638212826
1.13358e-05	0.002213835154866146
1.13360e-05	0.0022063641459110096
1.13363e-05	0.0021988931369559235
1.13365e-05	0.0021914221280007868
1.13368e-05	0.00218395111904565
1.13370e-05	0.0021764801100905644
1.13373e-05	0.0021690091011354277
1.13375e-05	0.002161538092180291
1.13377e-05	0.0021540670832252053
1.13380e-05	0.002144098513426868
1.13383e-05	0.002130149396734921
1.13385e-05	0.0021162002800430685
1.13388e-05	0.0021022511633511216
1.13390e-05	0.0020883020466591746
1.13392e-05	0.002074352929967322
1.13395e-05	0.002060403813275375
1.13398e-05	0.002046454696583428
1.13400e-05	0.002032505579891481
1.13403e-05	0.0020185564631996287
1.13405e-05	0.0020046073465076818
1.13408e-05	0.0019882438924982444
1.13410e-05	0.0019680325310650866
1.13413e-05	0.001947821169631792
1.13415e-05	0.0019276098081984973
1.13418e-05	0.0019073984467653396
1.13420e-05	0.001887187085332045
1.13423e-05	0.0018669757238987503
1.13425e-05	0.0018467643624655926
1.13428e-05	0.0018265530010322978
1.13430e-05	0.0018063416395990033
1.13433e-05	0.0017861302781658455
1.13435e-05	0.001766559628156571
1.13438e-05	0.001748010127191989
1.13440e-05	0.0017294606262275329
1.13443e-05	0.001710911125262951
1.13445e-05	0.001692361624298369
1.13448e-05	0.0016738121233339127
1.13450e-05	0.0016552626223693308
1.13453e-05	0.0016367131214047488
1.13455e-05	0.0016181636204402924
1.13458e-05	0.0015996141194757104
1.13460e-05	0.0015848211264658213
1.13462e-05	0.0015760151572015227
1.13465e-05	0.0015672091879371643
1.13468e-05	0.001558403218672806
1.13470e-05	0.0015495972494085075
1.13473e-05	0.001540791280144149
1.13475e-05	0.001531985310879791
1.13477e-05	0.0015231793416154923
1.13480e-05	0.001514373372351134
1.13483e-05	0.0015055674030867757
1.13485e-05	0.001501017767928531
1.13488e-05	0.0015032517663128456
1.13490e-05	0.0015054857646971754
1.13493e-05	0.001507719763081505
1.13495e-05	0.0015099537614658195
1.13498e-05	0.0015121877598501493
1.13500e-05	0.001514421758234479
1.13503e-05	0.0015166557566187937
1.13505e-05	0.0015188897550031234
1.13508e-05	0.001521123753387453
1.13510e-05	0.00152608733675227
1.13513e-05	0.0015354012609903685
1.13515e-05	0.0015447151852284668
1.13518e-05	0.001554029109466502
1.13520e-05	0.0015633430337046003
1.13523e-05	0.0015726569579426987
1.13525e-05	0.001581970882180734
1.13528e-05	0.0015912848064188324
1.13530e-05	0.0016005987306569307
1.13533e-05	0.001609912654894966
1.13535e-05	0.0016189178439355008
1.13538e-05	0.0016274309789243721
1.13540e-05	0.001635944113913186
1.13543e-05	0.0016444572489020576
1.13545e-05	0.001652970383890929
1.13548e-05	0.0016614835188797428
1.13550e-05	0.0016699966538686144
1.13553e-05	0.0016785097888574857
1.13555e-05	0.0016870229238462996
1.13558e-05	0.001695536058835171
1.13560e-05	0.0017040491938240426
1.13562e-05	0.0017125623288128564
1.13565e-05	0.0017210754638017278
1.13568e-05	0.0017295885987905994
1.13570e-05	0.001738101733779471
1.13573e-05	0.0017466148687682846
1.13575e-05	0.0017551280037571562
1.13578e-05	0.0017589113136210113
1.13580e-05	0.001762083264256123
1.13583e-05	0.0017652552148912566
1.13585e-05	0.0017684271655263898
1.13588e-05	0.0017715991161615016
1.13590e-05	0.0017747710667966351
1.13593e-05	0.0017779430174317684
1.13595e-05	0.0017811149680668804
1.13598e-05	0.0017842869187020137
1.13600e-05	0.001787458869337147
1.13603e-05	0.001790630819972259
1.13605e-05	0.0017938027706073923
1.13608e-05	0.0017969747212425256
1.13610e-05	0.0018001466718776376
1.13613e-05	0.0018033186225127709
1.13615e-05	0.0018064905731479044
1.13618e-05	0.0018088413502860743
1.13620e-05	0.001809883362665325
1.13623e-05	0.0018109253750445758
1.13625e-05	0.0018119673874238194
1.13628e-05	0.0018130093998030702
1.13630e-05	0.001814051412182321
1.13633e-05	0.0018150934245615646
1.13635e-05	0.0018161354369408153
1.13638e-05	0.001817177449320066
1.13640e-05	0.0018182194616993097
1.13643e-05	0.0018192614740785604
1.13645e-05	0.0018203389641167614
1.13647e-05	0.001821472997516303
1.13650e-05	0.0018226070309158523
1.13653e-05	0.0018237410643154018
1.13655e-05	0.0018248750977149513
1.13658e-05	0.001826009131114493
1.13660e-05	0.0018271431645140424
1.13663e-05	0.0018282771979135917
1.13665e-05	0.0018294112313131333
1.13668e-05	0.0018305452647126828
1.13670e-05	0.0018316792981122323
1.13673e-05	0.0018362144196349458
1.13675e-05	0.0018461701061115133
1.13678e-05	0.0018561257925880808
1.13680e-05	0.0018660814790645809
1.13683e-05	0.0018760371655411484
1.13685e-05	0.001885992852017716
1.13688e-05	0.001895948538494216
1.13690e-05	0.0019059042249707835
1.13693e-05	0.001915859911447351
1.13695e-05	0.001925815597923851
1.13698e-05	0.0019357712844004186
1.13700e-05	0.001945726970876986
1.13703e-05	0.0019647731121587913
1.13705e-05	0.0019849942510987008
1.13708e-05	0.0020052153900386098
1.13710e-05	0.002025436528978382
1.13713e-05	0.0020456576679182916
1.13715e-05	0.0020658788068582006
1.13718e-05	0.002086099945797973
1.13720e-05	0.0021063210847378825
1.13723e-05	0.002126542223677792
1.13725e-05	0.002146763362617564
1.13728e-05	0.0021669845015574733
1.13730e-05	0.0021869159193135413
1.13732e-05	0.0022063855870533187
1.13735e-05	0.002225855254793228
1.13738e-05	0.002245324922533137
1.13740e-05	0.0022647945902730462
1.13743e-05	0.0022842642580128236
1.13745e-05	0.002303733925752733
1.13748e-05	0.0023232035934926424
1.13750e-05	0.00234267326123242
1.13753e-05	0.002362142928972329
1.13755e-05	0.002381612596712238
1.13758e-05	0.0024010822644520155
1.13760e-05	0.0024205519321919247
1.13763e-05	0.002440021599931834
1.13765e-05	0.0024594912676716113
1.13768e-05	0.002470616652895537
1.13770e-05	0.0024806634878566307
1.13773e-05	0.002490710322817656
1.13775e-05	0.00250075715777875
1.13778e-05	0.0025108039927398437
1.13780e-05	0.002520850827700869
1.13783e-05	0.002530897662661963
1.13785e-05	0.0025409444976230568
1.13788e-05	0.002550991332584082
1.13790e-05	0.002561038167545176
1.13793e-05	0.00257108500250627
1.13795e-05	0.002581131837467295
1.13798e-05	0.002591178672428389
1.13800e-05	0.002601225507389483
1.13803e-05	0.002609676050725301
1.13805e-05	0.002615582466378941
1.13808e-05	0.002621488882032581
1.13810e-05	0.0026273952976861806
1.13813e-05	0.0026333017133398206
1.13815e-05	0.0026392081289934605
1.13817e-05	0.00264511454464706
1.13820e-05	0.0026510209603007
1.13823e-05	0.00265692737595434
1.13825e-05	0.0026628337916079397
1.13828e-05	0.0026687402072615796
1.13830e-05	0.0026746466229152195
1.13833e-05	0.002680553038568859
1.13835e-05	0.002686459454222459
1.13838e-05	0.0026923658698760986
1.13840e-05	0.002696544364703139
1.13843e-05	0.002700499515047361
1.13845e-05	0.0027044546653916092
1.13848e-05	0.002708409815735858
1.13850e-05	0.0027123649660800793
1.13853e-05	0.002716320116424328
1.13855e-05	0.0027202752667685763
1.13858e-05	0.002724230417112798
1.13860e-05	0.002728185567457047
1.13863e-05	0.002732140717801295
1.13865e-05	0.002736095868145517
1.13868e-05	0.002740051018489765
1.13870e-05	0.002744006168834014
1.13873e-05	0.002747961319178235
1.13875e-05	0.0027535843696940214
1.13878e-05	0.002761865675713826
1.13880e-05	0.002770146981733575
1.13883e-05	0.0027784282877533796
1.13885e-05	0.0027867095937731843
1.13888e-05	0.002794990899792933
1.13890e-05	0.002803272205812738
1.13893e-05	0.0028115535118325426
1.13895e-05	0.0028198348178522913
1.13898e-05	0.002654380486175562
1.13900e-05	-0.0016358881669176354
1.13902e-05	-0.0101273466269588
1.13905e-05	-0.010219163021198565
1.13908e-05	-0.008243506236578383
1.13910e-05	-0.003932059759538395
1.13913e-05	0.0028470655790797817
1.13915e-05	0.004311521669474294
1.13918e-05	0.0039322816425633325
1.13920e-05	0.001091739229934116
1.13923e-05	-0.004190124922775766
1.13925e-05	-0.004667993930814915
1.13928e-05	-0.003408315728667256
1.13930e-05	-0.001098531864307824
1.13933e-05	0.0029679303870270984
1.13935e-05	0.005078181659565544
1.13938e-05	0.005060701141584542
1.13940e-05	0.0032367483052356174
1.13943e-05	0.0006222389368801384
1.13945e-05	-0.0005784517728033003
1.13948e-05	-5.7647531875672166e-05
1.13950e-05	0.001593388755667876
1.13953e-05	0.0037407587539239943
1.13955e-05	0.004994977772827344
1.13958e-05	0.004965086635328931
1.13960e-05	0.00380511402255274
1.13963e-05	0.0021512552399348813
1.13965e-05	0.0013843777357272803
1.13968e-05	0.001697275405433769
1.13970e-05	0.002719460291139149
1.13973e-05	0.004053650590182148
1.13975e-05	0.004829329427351671
1.13978e-05	0.004801528325842415
1.13980e-05	0.00406668311346921
1.13983e-05	0.0030232497801706134
1.13985e-05	0.0025361039518307818
