Time(s)	Current(A)
4.55000e-06	0.01206851934662134
4.55025e-06	0.012050637205308062
4.55050e-06	0.01203279818705259
4.55075e-06	0.012014959168797057
4.55100e-06	0.011997120150541584
4.55125e-06	0.011979281132286052
4.55150e-06	0.01196144211403058
4.55175e-06	0.011943603095775107
4.55200e-06	0.011925764077519574
4.55225e-06	0.011907925059264102
4.55250e-06	0.01189008604100863
4.55275e-06	0.011872247022753097
4.55300e-06	0.011854408004497625
4.55325e-06	0.011849247843194199
4.55350e-06	0.011845819295551063
4.55375e-06	0.011842390747907938
4.55400e-06	0.011838962200264813
4.55425e-06	0.011835533652621676
4.55450e-06	0.011832105104978551
4.55475e-06	0.011828676557335426
4.55500e-06	0.011825248009692289
4.55525e-06	0.01184081393333001
4.55550e-06	0.01185897402504314
4.55575e-06	0.011877134116756212
4.55600e-06	0.011895294208469282
4.55625e-06	0.011913454300182416
4.55650e-06	0.011931614391895487
4.55675e-06	0.011949774483608558
4.55700e-06	0.011967934575321689
4.55725e-06	0.0120056191705637
4.55750e-06	0.01204597032298375
4.55775e-06	0.012086321475403936
4.55800e-06	0.012126672627823985
4.55825e-06	0.012167023780244035
4.55850e-06	0.01220737493266422
4.55875e-06	0.01224772608508427
4.55900e-06	0.01228807723750432
4.55925e-06	0.012328428389924505
4.55950e-06	0.012368779542344555
4.55975e-06	0.012409130694764741
4.56000e-06	0.012449481847184791
4.56025e-06	0.012490613995229573
4.56050e-06	0.012533021284377088
4.56075e-06	0.01257542857352446
4.56100e-06	0.01261783586267183
4.56125e-06	0.012660243151819347
4.56150e-06	0.012702650440966717
4.56175e-06	0.012745057730114088
4.56200e-06	0.012787465019261604
4.56225e-06	0.012829872308408975
4.56250e-06	0.012872279597556347
4.56275e-06	0.012914686886703861
4.56300e-06	0.012957094175851232
4.56325e-06	0.012999501464998604
4.56350e-06	0.013023983719777667
4.56375e-06	0.0130460178647249
4.56400e-06	0.013068052009672208
4.56425e-06	0.013090086154619441
4.56450e-06	0.013112120299566673
4.56475e-06	0.013134154444513981
4.56500e-06	0.013156188589461215
4.56525e-06	0.013178222734408447
4.56550e-06	0.013200256879355755
4.56575e-06	0.013222291024302989
4.56600e-06	0.013244325169250221
4.56625e-06	0.01326635931419753
4.56650e-06	0.013288393459144763
4.56675e-06	0.013310427604091995
4.56700e-06	0.013332461749039303
4.56725e-06	0.013354495893986537
4.56750e-06	0.01336546771364332
4.56775e-06	0.013376244824781981
4.56800e-06	0.013387021935920606
4.56825e-06	0.013397799047059266
4.56850e-06	0.01340857615819789
4.56875e-06	0.013419353269336515
4.56900e-06	0.013430130380475176
4.56925e-06	0.0134409074916138
4.56950e-06	0.013451684602752425
4.56975e-06	0.013462461713891085
4.57000e-06	0.013473238825029711
4.57025e-06	0.013484015936168336
4.57050e-06	0.013494793047306997
4.57075e-06	0.013505570158445621
4.57100e-06	0.013516347269584245
4.57125e-06	0.013526509576112187
4.57150e-06	0.013530101902203072
4.57175e-06	0.013533694228293957
4.57200e-06	0.013537286554384857
4.57225e-06	0.013540878880475742
4.57250e-06	0.013544471206566641
4.57275e-06	0.013548063532657527
4.57300e-06	0.013551655858748412
4.57325e-06	0.013555248184839311
4.57350e-06	0.013558840510930197
4.57375e-06	0.013562432837021084
4.57400e-06	0.013566025163111981
4.57425e-06	0.013569617489202867
4.57450e-06	0.013572255662166206
4.57475e-06	0.013564697477991789
4.57500e-06	0.013557139293817399
4.57525e-06	0.013549581109643006
4.57550e-06	0.01354202292546859
4.57575e-06	0.0135344647412942
4.57600e-06	0.013526906557119809
4.57625e-06	0.013519348372945392
4.57650e-06	0.013511790188771002
4.57675e-06	0.013504232004596585
4.57700e-06	0.013496673820422193
4.57725e-06	0.013489115636247802
4.57750e-06	0.013481557452073386
4.57775e-06	0.013473221472258134
4.57800e-06	0.013456573742574128
4.57825e-06	0.013439926012890065
4.57850e-06	0.01342327828320606
4.57875e-06	0.013406630553522054
4.57900e-06	0.01338998282383799
4.57925e-06	0.013373335094153985
4.57950e-06	0.01335668736446998
4.57975e-06	0.013340039634785916
4.58000e-06	0.01332339190510191
4.58025e-06	0.013306744175417905
4.58050e-06	0.013290123570538638
4.58075e-06	0.013273792829192756
4.58100e-06	0.013257462087846818
4.58125e-06	0.013241131346500935
4.58150e-06	0.013224800605155053
4.58175e-06	0.013208469863809115
4.58200e-06	0.013192139122463233
4.58225e-06	0.01317580838111735
4.58250e-06	0.013159477639771412
4.58275e-06	0.01314314689842553
4.58300e-06	0.013126816157079647
4.58325e-06	0.013110667588067233
4.58350e-06	0.013096465765461232
4.58375e-06	0.013082263942855233
4.58400e-06	0.013068062120249186
4.58425e-06	0.013053860297643185
4.58450e-06	0.013039658475037186
4.58475e-06	0.013025456652431136
4.58500e-06	0.013011254829825137
4.58525e-06	0.012997053007219088
4.58550e-06	0.012982851184613089
4.58575e-06	0.012968649362007088
4.58600e-06	0.012954020656989525
4.58625e-06	0.012934830162679753
4.58650e-06	0.01291563966836998
4.58675e-06	0.012896449174060144
4.58700e-06	0.012877258679750371
4.58725e-06	0.012858068185440599
4.58750e-06	0.012838877691130762
4.58775e-06	0.01281968719682099
4.58800e-06	0.012800496702511217
4.58825e-06	0.01278130620820138
4.58850e-06	0.012762115713891608
4.58875e-06	0.01274269138727828
4.58900e-06	0.012720768260832328
4.58925e-06	0.012698845134386452
4.58950e-06	0.012676922007940503
4.58975e-06	0.012654998881494626
4.59000e-06	0.01263307575504875
4.59025e-06	0.012611152628602799
4.59050e-06	0.012589229502156922
4.59075e-06	0.012567306375711046
4.59100e-06	0.012545662610766084
4.59125e-06	0.012527004183865379
4.59150e-06	0.012508345756964676
4.59175e-06	0.012489687330063906
4.59200e-06	0.012471028903163203
4.59225e-06	0.012452370476262497
4.59250e-06	0.01243371204936173
4.59275e-06	0.012415053622461024
4.59300e-06	0.01239639519556032
4.59325e-06	0.012378019250607908
4.59350e-06	0.012362661989705181
4.59375e-06	0.012347304728802404
4.59400e-06	0.012331947467899677
4.59425e-06	0.012316590206996951
4.59450e-06	0.012301232946094172
4.59475e-06	0.012285875685191447
4.59500e-06	0.01227051842428872
4.59525e-06	0.012253367672933719
4.59550e-06	0.012234947602523947
4.59575e-06	0.012216527532114177
4.59600e-06	0.012198107461704345
4.59625e-06	0.012179687391294573
4.59650e-06	0.012161267320884803
4.59675e-06	0.012142847250474969
4.59700e-06	0.01212424304002401
4.59725e-06	0.01210344495922664
4.59750e-06	0.012080230746208656
4.59775e-06	0.012057016533190749
4.59800e-06	0.012033802320172765
4.59825e-06	0.012010588107154859
4.59850e-06	0.011987373894136951
4.59875e-06	0.011964159681118967
4.59900e-06	0.01194094546810106
4.59925e-06	0.011917731255083153
4.59950e-06	0.011894517042065168
4.59975e-06	0.011871302829047262
4.60000e-06	0.011848088616029356
4.60025e-06	0.01182487440301137
4.60050e-06	0.011801660189993464
4.60075e-06	0.011778835416848332
4.60100e-06	0.011760172311160343
4.60125e-06	0.011741509205472418
4.60150e-06	0.011722846099784493
4.60175e-06	0.011704182994096505
4.60200e-06	0.011685519888408581
4.60225e-06	0.011666856782720593
4.60250e-06	0.011648193677032667
4.60275e-06	0.011629530571344743
4.60300e-06	0.011610867465656755
4.60325e-06	0.01159220435996883
4.60350e-06	0.011573541254280905
4.60375e-06	0.011554878148592917
4.60400e-06	0.011536215042904993
4.60425e-06	0.01151866388984023
4.60450e-06	0.011512995385082126
4.60475e-06	0.011507326880324041
4.60500e-06	0.011501658375565956
4.60525e-06	0.011495989870807853
4.60550e-06	0.011490321366049768
4.60575e-06	0.011484652861291684
4.60600e-06	0.01147898435653358
4.60625e-06	0.011473315851775495
4.60650e-06	0.011467647347017391
4.60675e-06	0.011461978842259307
4.60700e-06	0.011456310337501222
4.60725e-06	0.01145064183274312
4.60750e-06	0.011444973327985036
4.60775e-06	0.011439304823226951
4.60800e-06	0.011433636318468847
4.60825e-06	0.011427967813710763
4.60850e-06	0.011422299308952678
4.60875e-06	0.011416630804194574
4.60900e-06	0.01141096229943649
4.60925e-06	0.011405293794678405
4.60950e-06	0.011399625289920301
4.60975e-06	0.011393956785162217
4.61000e-06	0.011388288280404132
4.61025e-06	0.011385360938188907
4.61050e-06	0.011384373617367572
4.61075e-06	0.011383386296546233
4.61100e-06	0.011382398975724897
4.61125e-06	0.011381411654903561
4.61150e-06	0.011380424334082222
4.61175e-06	0.011379437013260886
4.61200e-06	0.01137844969243955
4.61225e-06	0.01137746237161821
4.61250e-06	0.011376475050796874
4.61275e-06	0.011375487729975538
4.61300e-06	0.0113745004091542
4.61325e-06	0.011373513088332864
4.61350e-06	0.011372525767511528
4.61375e-06	0.011371538446690189
4.61400e-06	0.011370551125868853
4.61425e-06	0.011369563805047517
4.61450e-06	0.011368576484226178
4.61475e-06	0.01136758916340484
4.61500e-06	0.011366601842583502
4.61525e-06	0.011365614521762166
4.61550e-06	0.01136462720094083
4.61575e-06	0.011363639880119491
4.61600e-06	0.011362551404133938
4.61625e-06	0.011360381954719412
4.61650e-06	0.011358212505304879
4.61675e-06	0.011356043055890353
4.61700e-06	0.011353873606475828
4.61725e-06	0.011351704157061295
4.61750e-06	0.011349534707646769
4.61775e-06	0.011347365258232243
4.61800e-06	0.01134519580881771
4.61825e-06	0.011343026359403185
4.61850e-06	0.011340856909988659
4.61875e-06	0.011338687460574126
4.61900e-06	0.0113365180111596
4.61925e-06	0.011334348561745066
4.61950e-06	0.011332151230953939
4.61975e-06	0.01132965595168438
4.62000e-06	0.011327160672414812
4.62025e-06	0.011324665393145254
4.62050e-06	0.011322170113875695
4.62075e-06	0.011319674834606127
4.62100e-06	0.011317179555336567
4.62125e-06	0.011314684276067008
4.62150e-06	0.01131218899679744
4.62175e-06	0.011309693717527882
4.62200e-06	0.011307198438258323
4.62225e-06	0.011304703158988755
4.62250e-06	0.011302207879719197
4.62275e-06	0.011299712600449638
4.62300e-06	0.011297711284907416
4.62325e-06	0.011300988609047487
4.62350e-06	0.01130426593318757
4.62375e-06	0.011307543257327642
4.62400e-06	0.011310820581467713
4.62425e-06	0.011314097905607797
4.62450e-06	0.01131737522974787
4.62475e-06	0.011320652553887941
4.62500e-06	0.011325389834968827
4.62525e-06	0.011345728639429889
4.62550e-06	0.01136606744389095
4.62575e-06	0.01138640624835208
4.62600e-06	0.011406745052813142
4.62625e-06	0.011427083857274204
4.62650e-06	0.011447422661735335
4.62675e-06	0.011467761466196397
4.62700e-06	0.011489726193513473
4.62725e-06	0.011529066004123428
4.62750e-06	0.011568405814733252
4.62775e-06	0.011607745625343073
4.62800e-06	0.01164708543595303
4.62825e-06	0.011686425246562854
4.62850e-06	0.011725765057172809
4.62875e-06	0.011765104867782632
4.62900e-06	0.011804444678392454
4.62925e-06	0.011843784489002411
4.62950e-06	0.011883124299612234
4.62975e-06	0.011922464110222056
4.63000e-06	0.011961803920832013
4.63025e-06	0.012001341760709982
4.63050e-06	0.012041019753173088
4.63075e-06	0.01208069774563633
4.63100e-06	0.012120375738099437
4.63125e-06	0.012160053730562542
4.63150e-06	0.012199731723025783
4.63175e-06	0.01223940971548889
4.63200e-06	0.012279087707951997
4.63225e-06	0.012318765700415237
4.63250e-06	0.012358443692878343
4.63275e-06	0.012398121685341585
4.63300e-06	0.012437799677804692
4.63325e-06	0.012475183377475751
4.63350e-06	0.012488049598844107
4.63375e-06	0.01250091582021242
4.63400e-06	0.012513782041580733
4.63425e-06	0.01252664826294909
4.63450e-06	0.012539514484317402
4.63475e-06	0.012552380705685715
4.63500e-06	0.012565246927054071
4.63525e-06	0.012578113148422384
4.63550e-06	0.012590979369790697
4.63575e-06	0.012603845591159053
4.63600e-06	0.012616711812527366
4.63625e-06	0.01262737481787611
4.63650e-06	0.012614493617736347
4.63675e-06	0.012601612417596626
4.63700e-06	0.01258873121745686
4.63725e-06	0.012575850017317139
4.63750e-06	0.012562968817177418
4.63775e-06	0.012550087617037653
4.63800e-06	0.012537206416897931
4.63825e-06	0.012524325216758211
4.63850e-06	0.012511444016618446
4.63875e-06	0.012498562816478724
4.63900e-06	0.012485681616339003
4.63925e-06	0.012471859460533396
4.63950e-06	0.012447981979534761
4.63975e-06	0.012424104498536126
4.64000e-06	0.012400227017537409
4.64025e-06	0.012376349536538774
4.64050e-06	0.012352472055540138
4.64075e-06	0.012328594574541423
4.64100e-06	0.012304717093542788
4.64125e-06	0.012281024491743897
4.64150e-06	0.012259307562703048
4.64175e-06	0.012237590633662199
4.64200e-06	0.012215873704621277
4.64225e-06	0.012194156775580427
4.64250e-06	0.012172439846539578
4.64275e-06	0.012150722917498656
4.64300e-06	0.012129005988457807
4.64325e-06	0.012107550468384827
4.64350e-06	0.012088888440370106
4.64375e-06	0.012070226412355445
4.64400e-06	0.012051564384340786
4.64425e-06	0.012032902356326062
4.64450e-06	0.012014240328311401
4.64475e-06	0.011995578300296742
4.64500e-06	0.011976916272282019
4.64525e-06	0.01195825424426736
4.64550e-06	0.011939592216252636
4.64575e-06	0.011920471543576873
4.64600e-06	0.011896449661013045
4.64625e-06	0.011872427778449133
4.64650e-06	0.011848405895885303
4.64675e-06	0.011824384013321474
4.64700e-06	0.011800362130757563
4.64725e-06	0.011776340248193734
4.64750e-06	0.011752318365629904
4.64775e-06	0.011728296483065994
4.64800e-06	0.011704274600502164
4.64825e-06	0.011679902322139155
4.64850e-06	0.011651785612626843
4.64875e-06	0.011623668903114627
4.64900e-06	0.011595552193602409
4.64925e-06	0.011567435484090097
4.64950e-06	0.011539318774577879
4.64975e-06	0.011511202065065567
4.65000e-06	0.01148308535555335
4.65025e-06	0.011454968646041133
4.65050e-06	0.01142685193652882
4.65075e-06	0.011398735227016604
4.65100e-06	0.011370618517504386
4.65125e-06	0.011346144067334564
4.65150e-06	0.01132424737785221
4.65175e-06	0.011302350688369857
4.65200e-06	0.011280453998887429
4.65225e-06	0.011258557309405073
4.65250e-06	0.01123666061992272
4.65275e-06	0.011214763930440292
4.65300e-06	0.011192867240957938
4.65325e-06	0.011170970551475585
4.65350e-06	0.011149073861993156
4.65375e-06	0.011127177172510803
4.65400e-06	0.011106340372736865
4.65425e-06	0.01109682986182532
4.65450e-06	0.011087319350913775
4.65475e-06	0.0110778088400022
4.65500e-06	0.011068298329090655
4.65525e-06	0.011058787818179112
4.65550e-06	0.011049277307267534
4.65575e-06	0.011039766796355991
4.65600e-06	0.011030256285444446
4.65625e-06	0.01102074577453287
4.65650e-06	0.011011235263621326
4.65675e-06	0.01100172475270978
4.65700e-06	0.010992214241798205
4.65725e-06	0.010982703730886662
4.65750e-06	0.010973193219975117
4.65775e-06	0.010963682709063541
4.65800e-06	0.010954172198151996
4.65825e-06	0.01094466168724042
4.65850e-06	0.010935735910439875
4.65875e-06	0.010933058771959
4.65900e-06	0.010930381633478115
4.65925e-06	0.01092770449499724
4.65950e-06	0.010925027356516364
4.65975e-06	0.01092235021803548
4.66000e-06	0.010919673079554604
4.66025e-06	0.01091699594107373
4.66050e-06	0.010914318802592846
4.66075e-06	0.01091164166411197
4.66100e-06	0.010908964525631094
4.66125e-06	0.01090628738715021
4.66150e-06	0.010903610248669334
4.66175e-06	0.01090093311018846
4.66200e-06	0.010898255971707576
4.66225e-06	0.0108955788332267
4.66250e-06	0.010892901694745816
4.66275e-06	0.01089022455626494
4.66300e-06	0.010888076627590186
4.66325e-06	0.0108915839884062
4.66350e-06	0.010895091349222202
4.66375e-06	0.010898598710038204
4.66400e-06	0.010902106070854218
4.66425e-06	0.01090561343167022
4.66450e-06	0.010909120792486222
4.66475e-06	0.010912628153302236
4.66500e-06	0.010917546439572287
4.66525e-06	0.010937542284495247
4.66550e-06	0.010957538129418274
4.66575e-06	0.010977533974341234
4.66600e-06	0.010997529819264194
4.66625e-06	0.011017525664187221
4.66650e-06	0.011037521509110181
4.66675e-06	0.011057517354033208
4.66700e-06	0.01107908760866702
4.66725e-06	0.011117482462139732
4.66750e-06	0.011155877315612578
4.66775e-06	0.011194272169085293
4.66800e-06	0.011232667022558008
4.66825e-06	0.011271061876030853
4.66850e-06	0.011309456729503568
4.66875e-06	0.011347851582976283
4.66900e-06	0.011386246436449128
4.66925e-06	0.011424641289921843
4.66950e-06	0.011463036143394558
4.66975e-06	0.011501430996867403
4.67000e-06	0.011539825850340118
4.67025e-06	0.01157838138717807
4.67050e-06	0.01161705064553429
4.67075e-06	0.01165571990389038
4.67100e-06	0.0116943891622466
4.67125e-06	0.01173305842060269
4.67150e-06	0.011771727678958777
4.67175e-06	0.011810396937314997
4.67200e-06	0.011849066195671087
4.67225e-06	0.011887735454027175
4.67250e-06	0.011926404712383395
4.67275e-06	0.011965073970739485
4.67300e-06	0.012003743229095575
4.67325e-06	0.012040173504649272
4.67350e-06	0.01205267736055149
4.67375e-06	0.012065181216453707
4.67400e-06	0.012077685072355968
4.67425e-06	0.012090188928258184
4.67450e-06	0.012102692784160402
4.67475e-06	0.012115196640062663
4.67500e-06	0.01212770049596488
4.67525e-06	0.01214020435186714
4.67550e-06	0.012152708207769357
4.67575e-06	0.012165212063671575
4.67600e-06	0.012177715919573834
4.67625e-06	0.012175072946451078
4.67650e-06	0.01216171000621221
4.67675e-06	0.012148347065973297
4.67700e-06	0.01213498412573443
4.67725e-06	0.012121621185495562
4.67750e-06	0.012108258245256649
4.67775e-06	0.012094895305017781
4.67800e-06	0.012081532364778913
4.67825e-06	0.01206816942454
4.67850e-06	0.012054806484301132
4.67875e-06	0.012041443544062265
4.67900e-06	0.012027030134359408
4.67925e-06	0.012001391103277017
4.67950e-06	0.01197575207219454
4.67975e-06	0.011950113041112147
4.68000e-06	0.011924474010029756
4.68025e-06	0.011898834978947276
4.68050e-06	0.011873195947864885
4.68075e-06	0.011847556916782492
4.68100e-06	0.011821917885700015
4.68125e-06	0.011796278854617624
4.68150e-06	0.011771025819507577
4.68175e-06	0.011749897649315263
4.68200e-06	0.011728769479123023
4.68225e-06	0.011707641308930782
4.68250e-06	0.011686513138738468
4.68275e-06	0.011665384968546227
4.68300e-06	0.011644256798353984
4.68325e-06	0.01162312862816167
4.68350e-06	0.01160200045796943
4.68375e-06	0.011580872287777115
4.68400e-06	0.011561123330962942
4.68425e-06	0.011556113048342155
4.68450e-06	0.01155110276572135
4.68475e-06	0.011546092483100562
4.68500e-06	0.011541082200479775
4.68525e-06	0.01153607191785897
4.68550e-06	0.011531061635238182
4.68575e-06	0.011526051352617394
4.68600e-06	0.011521041069996591
4.68625e-06	0.011516030787375803
4.68650e-06	0.011511020504755016
4.68675e-06	0.011506010222134211
4.68700e-06	0.011500999939513423
4.68725e-06	0.011495989656892636
4.68750e-06	0.01149097937427183
4.68775e-06	0.011485969091651043
4.68800e-06	0.011480958809030238
4.68825e-06	0.01147594852640945
4.68850e-06	0.011470938243788663
4.68875e-06	0.011465927961167858
4.68900e-06	0.011461647281463963
4.68925e-06	0.011465163350146038
4.68950e-06	0.011468679418828124
4.68975e-06	0.011472195487510198
4.69000e-06	0.011475711556192272
4.69025e-06	0.01147922762487436
4.69050e-06	0.011482743693556435
4.69075e-06	0.011486259762238509
4.69100e-06	0.011489775830920595
4.69125e-06	0.01149329189960267
4.69150e-06	0.011496807968284744
4.69175e-06	0.01150032403696683
4.69200e-06	0.011503840105648906
4.69225e-06	0.011507356174330992
4.69250e-06	0.011510872243013066
4.69275e-06	0.01151438831169514
4.69300e-06	0.011517904380377227
4.69325e-06	0.011521420449059301
4.69350e-06	0.011524936517741377
4.69375e-06	0.011528452586423463
4.69400e-06	0.011531176116508345
4.69425e-06	0.011525430349276096
4.69450e-06	0.011519684582043827
4.69475e-06	0.011513938814811575
4.69500e-06	0.011508193047579326
4.69525e-06	0.011502447280347057
4.69550e-06	0.011496701513114807
4.69575e-06	0.011490955745882558
4.69600e-06	0.011485209978650289
4.69625e-06	0.01147946421141804
4.69650e-06	0.011473718444185769
4.69675e-06	0.01146797267695352
4.69700e-06	0.01146222690972127
4.69725e-06	0.011456481142489
4.69750e-06	0.011450735375256751
4.69775e-06	0.011444989608024501
4.69800e-06	0.011439243840792233
4.69825e-06	0.01143291570551434
4.69850e-06	0.011420364216392566
4.69875e-06	0.01140781272727075
4.69900e-06	0.011395261238148977
4.69925e-06	0.011382709749027203
4.69950e-06	0.011370158259905387
4.69975e-06	0.011357606770783613
4.70000e-06	0.01134505528166184
4.70025e-06	0.011332503792540022
4.70050e-06	0.011319952303418248
4.70075e-06	0.011307400814296433
4.70100e-06	0.011294849325174659
4.70125e-06	0.011282297836052885
4.70150e-06	0.01126974634693107
4.70175e-06	0.011257194857809296
4.70200e-06	0.011244643368687522
