Time(s)	Current(A)
4.30000e-06	-0.0016865982394237654
4.30025e-06	-0.0017104564736087114
4.30050e-06	-0.0017347554944877643
4.30075e-06	-0.001759069033263662
4.30100e-06	-0.0017834174142390873
4.30125e-06	-0.0018076114569589353
4.30150e-06	-0.0018314350958712256
4.30175e-06	-0.0018550451607691671
4.30200e-06	-0.0018779472838289326
4.30225e-06	-0.0018999943026223576
4.30250e-06	-0.001921114428515861
4.30275e-06	-0.0019413527576659778
4.30300e-06	-0.0019594748203739186
4.30325e-06	-0.001977596883081921
4.30350e-06	-0.001994895968214488
4.30375e-06	-0.0020099386313639127
4.30400e-06	-0.002024035954334209
4.30425e-06	-0.0020374848343882655
4.30450e-06	-0.0020505224196831276
4.30475e-06	-0.00206257291889144
4.30500e-06	-0.0020740989248328604
4.30525e-06	-0.002084366174141387
4.30550e-06	-0.0020942144930987273
4.30575e-06	-0.002102864148562005
4.30600e-06	-0.002110789804704095
4.30625e-06	-0.002118090985638032
4.30650e-06	-0.002125392166571945
4.30675e-06	-0.002132219552743834
4.30700e-06	-0.0021379098560645395
4.30725e-06	-0.0021436001593852253
4.30750e-06	-0.0021488636799073
4.30775e-06	-0.002153102943851628
4.30800e-06	-0.0021571094763208967
4.30825e-06	-0.0021605574653227786
4.30850e-06	-0.0021640054543246487
4.30875e-06	-0.0021671572188792752
4.30900e-06	-0.0021695980601269217
4.30925e-06	-0.0021720389013745595
4.30950e-06	-0.002174222438008699
4.30975e-06	-0.0021757884569179203
4.31000e-06	-0.0021772283801311655
4.31025e-06	-0.0021783656802152004
4.31050e-06	-0.0021795029802992387
4.31075e-06	-0.002180489714269835
4.31100e-06	-0.0021811150973786893
4.31125e-06	-0.0021817404804875457
4.31150e-06	-0.002182235430792853
4.31175e-06	-0.0021824173491357623
4.31200e-06	-0.00218259926747867
4.31225e-06	-0.002182751488048142
4.31250e-06	-0.0021828324355019193
4.31275e-06	-0.002182913382955696
4.31300e-06	-0.0021829770276329437
4.31325e-06	-0.002182987778756872
4.31350e-06	-0.0021829298854710508
4.31375e-06	-0.0021826625394273363
4.31400e-06	-0.002181970372564537
4.31425e-06	-0.0021807267530761713
4.31450e-06	-0.002178850668677856
4.31475e-06	-0.0021764159586371594
4.31500e-06	-0.0021736986632111713
4.31525e-06	-0.002170303177519445
4.31550e-06	-0.002166609801018046
4.31575e-06	-0.0021622015020264255
4.31600e-06	-0.0021574086842080617
4.31625e-06	-0.0021516930411523247
4.31650e-06	-0.002145618627992718
4.31675e-06	-0.0021386831851948544
4.31700e-06	-0.0021314465987566666
4.31725e-06	-0.002123487283203359
4.31750e-06	-0.0021152537026631886
4.31775e-06	-0.0021063619003820473
4.31800e-06	-0.0020971782335880737
4.31825e-06	-0.0020872941071036462
4.31850e-06	-0.002077221521881729
4.31875e-06	-0.0020665951571487724
4.31900e-06	-0.0020556094591872116
4.31925e-06	-0.00204434592755449
4.31950e-06	-0.0020329693001350595
4.31975e-06	-0.0020213212486943043
4.32000e-06	-0.002009600333846347
4.32025e-06	-0.0019976750354423582
4.32050e-06	-0.0019856699312247664
4.32075e-06	-0.0019736548019059813
4.32100e-06	-0.0019616993323290613
4.32125e-06	-0.0019498732004855689
4.32150e-06	-0.0019382413934515813
4.32175e-06	-0.0019268526686121255
4.32200e-06	-0.0019157442241283752
4.32225e-06	-0.0019049667829468583
4.32250e-06	-0.0018945899066792244
4.32275e-06	-0.0018846883339621564
4.32300e-06	-0.0018753368034322316
4.32325e-06	-0.0018666128614325168
4.32350e-06	-0.0018587050886797914
4.32375e-06	-0.001852192448098517
4.32400e-06	-0.001847914854544037
4.32425e-06	-0.0018463634274522094
4.32450e-06	-0.0018475714470847654
4.32475e-06	-0.0018518098859802324
4.32500e-06	-0.0018587617433384496
4.32525e-06	-0.0018667892262020022
4.32550e-06	-0.0018781451071253564
4.32575e-06	-0.001893110929376501
4.32600e-06	-0.001912438162301167
4.32625e-06	-0.0019317653952257673
4.32650e-06	-0.001953297853323435
4.32675e-06	-0.0019801227374401753
4.32700e-06	-0.002008441595328037
4.32725e-06	-0.0020403459127666394
4.32750e-06	-0.0020736176859832553
4.32775e-06	-0.00211017128212966
4.32800e-06	-0.0021481208562429926
4.32825e-06	-0.0021894207050604216
4.32850e-06	-0.0022318730831484327
4.32875e-06	-0.002277091471698416
4.32900e-06	-0.0023231438860351413
4.32925e-06	-0.0023711979189941852
4.32950e-06	-0.002419838112042101
4.32975e-06	-0.0024698850588955002
4.33000e-06	-0.00252036743993595
4.33025e-06	-0.0025718948404371967
4.33050e-06	-0.0026235366720975943
4.33075e-06	-0.0026754531326042123
4.33100e-06	-0.0027271160092791776
4.33125e-06	-0.0027781702979123453
4.33150e-06	-0.002828647226219791
4.33175e-06	-0.002877738519696479
4.33200e-06	-0.0029262421465100614
4.33225e-06	-0.0029725279827623797
4.33250e-06	-0.003016876050366535
4.33275e-06	-0.003060217144312638
4.33300e-06	-0.0030998867828418773
4.33325e-06	-0.003136545036362729
4.33350e-06	-0.0031718781209042796
4.33375e-06	-0.003203367975987267
4.33400e-06	-0.003232268908985327
4.33425e-06	-0.003258774659899742
4.33450e-06	-0.003285280410814246
4.33475e-06	-0.003310006304087424
4.33500e-06	-0.003330460631352846
4.33525e-06	-0.0033509149586183366
4.33550e-06	-0.003370017774682738
4.33575e-06	-0.0033853482264274174
4.33600e-06	-0.0033987969738715576
4.33625e-06	-0.00341077552841094
4.33650e-06	-0.0034216759122474845
4.33675e-06	-0.0034299887423281015
4.33700e-06	-0.00343830157240869
4.33725e-06	-0.0034455792019392395
4.33750e-06	-0.0034503724038515
4.33775e-06	-0.0034536404194202967
4.33800e-06	-0.003455329945018528
4.33825e-06	-0.0034560921282936106
4.33850e-06	-0.003455626467006303
4.33875e-06	-0.0034544280388001188
4.33900e-06	-0.0034509959465951934
4.33925e-06	-0.0034462001254512774
4.33950e-06	-0.003440241100037197
4.33975e-06	-0.0034334343600532636
4.34000e-06	-0.0034260145680314797
4.34025e-06	-0.00341815442145288
4.34050e-06	-0.003409810905309081
4.34075e-06	-0.003400646166071299
4.34100e-06	-0.003390686296382694
4.34125e-06	-0.0033801817304170445
4.34150e-06	-0.0033692904879986736
4.34175e-06	-0.003358242874464328
4.34200e-06	-0.0033472188030306475
4.34225e-06	-0.003336358573008081
4.34250e-06	-0.00332566825395981
4.34275e-06	-0.003314968489556339
4.34300e-06	-0.0033043082297030163
4.34325e-06	-0.0032938767043488586
4.34350e-06	-0.0032837942185589856
4.34375e-06	-0.003274257373592349
4.34400e-06	-0.003265271042069884
4.34425e-06	-0.00325662560867896
4.34450e-06	-0.0032488326118154096
4.34475e-06	-0.0032410396149518852
4.34500e-06	-0.0032335541491746423
4.34525e-06	-0.0032268376835971366
4.34550e-06	-0.0032206429633194534
4.34575e-06	-0.003215752898921004
4.34600e-06	-0.003210862834522538
4.34625e-06	-0.0032059727701240887
4.34650e-06	-0.0032010827057256225
4.34675e-06	-0.0031978976901347288
4.34700e-06	-0.003195177814295708
4.34725e-06	-0.0031924579384566784
4.34750e-06	-0.003189738062617658
4.34775e-06	-0.003187492205748817
4.34800e-06	-0.00318643166216697
4.34825e-06	-0.0031853711185851267
4.34850e-06	-0.003184582411110926
4.34875e-06	-0.003184473446369696
4.34900e-06	-0.003184364481628466
4.34925e-06	-0.003184453723787355
4.34950e-06	-0.0031850385943642152
4.34975e-06	-0.0031856234649410738
4.35000e-06	-0.003186330851326665
4.35025e-06	-0.003187344595949137
4.35050e-06	-0.003188358340571606
4.35075e-06	-0.0031893689258559055
4.35100e-06	-0.003190371611022801
4.35125e-06	-0.003191325110282769
4.35150e-06	-0.0031921556171886855
4.35175e-06	-0.0031928938381637502
4.35200e-06	-0.003193401292551594
4.35225e-06	-0.0031938056860026094
4.35250e-06	-0.0031938566579895584
4.35275e-06	-0.003193556291146554
4.35300e-06	-0.0031928540601793916
4.35325e-06	-0.0031917064937622788
4.35350e-06	-0.003189837754375485
4.35375e-06	-0.003186162032368603
4.35400e-06	-0.0031790201203018686
4.35425e-06	-0.00316744066256828
4.35450e-06	-0.0031513733186381097
4.35475e-06	-0.0031310189209541955
4.35500e-06	-0.0031065922052107443
4.35525e-06	-0.0030783126318689336
4.35550e-06	-0.0030462537631583573
4.35575e-06	-0.0030099818310953806
4.35600e-06	-0.002967953108139518
4.35625e-06	-0.002920180916674617
4.35650e-06	-0.0028702612399125835
4.35675e-06	-0.0028136833671174723
4.35700e-06	-0.002752171348815874
4.35725e-06	-0.002686376552132757
4.35750e-06	-0.0026184344696900145
4.35775e-06	-0.0025451229685073988
4.35800e-06	-0.002469547552101771
4.35825e-06	-0.0023883110778857865
4.35850e-06	-0.0023056117303268875
4.35875e-06	-0.0022184628150687495
4.35900e-06	-0.0021286827913490074
4.35925e-06	-0.0020367587412466223
4.35950e-06	-0.0019431204451185193
4.35975e-06	-0.0018479985828858407
4.36000e-06	-0.0017514830547999114
4.36025e-06	-0.0016538326557865757
4.36050e-06	-0.0015555327174425317
4.36075e-06	-0.0014571301421534239
4.36100e-06	-0.0013591753414122997
4.36125e-06	-0.0012622196584068251
4.36150e-06	-0.0011667786186232536
4.36175e-06	-0.0010732428524204568
4.36200e-06	-0.0009819148864194155
4.36225e-06	-0.0008932030974550683
4.36250e-06	-0.0008076576369627031
4.36275e-06	-0.0007258671921797646
4.36300e-06	-0.0006484225873991077
4.36325e-06	-0.000575915378886308
4.36350e-06	-0.0005089115734079703
4.36375e-06	-0.0004478573216321434
4.36400e-06	-0.0003929990741376092
4.36425e-06	-0.0003444570807101232
4.36450e-06	-0.00030233807704976184
4.36475e-06	-0.0002667572643753932
4.36500e-06	-0.00023783112031282747
4.36525e-06	-0.00021567659660337026
4.36550e-06	-0.00020039460691932185
4.36575e-06	-0.00019201095582015352
4.36600e-06	-0.0001904264082040355
4.36625e-06	-0.0001954626019174601
4.36650e-06	-0.00020693274201232813
4.36675e-06	-0.00022465535983514552
4.36700e-06	-0.00024844976213640637
4.36725e-06	-0.00027813556965955243
4.36750e-06	-0.00031352236792410405
4.36775e-06	-0.00035437270467284117
4.36800e-06	-0.000400370810509723
4.36825e-06	-0.00045115135794657023
4.36850e-06	-0.0005063437676958733
4.36875e-06	-0.0005655808658228826
4.36900e-06	-0.0006284958650292781
4.36925e-06	-0.0006947223481271461
4.36950e-06	-0.0007638875126085896
4.36975e-06	-0.000835589162552502
4.37000e-06	-0.0009093760990070838
4.37025e-06	-0.0009847660468108247
4.37050e-06	-0.0010612735539413888
4.37075e-06	-0.0011384152722875344
4.37100e-06	-0.0012157081364521638
4.37125e-06	-0.001292669305583539
4.37150e-06	-0.0013688121143306112
4.37175e-06	-0.0014436314048474465
4.37200e-06	-0.0015165913352113635
4.37225e-06	-0.0015871367042918512
4.37250e-06	-0.0016547102817345994
4.37275e-06	-0.0017187563506963525
4.37300e-06	-0.0017780025400013107
4.37325e-06	-0.0018322565619625527
4.37350e-06	-0.001884388822290374
4.37375e-06	-0.0019301126466952105
4.37400e-06	-0.0019717892059396137
4.37425e-06	-0.0020102411867391804
4.37450e-06	-0.0020468184162659377
4.37475e-06	-0.002078707716128024
4.37500e-06	-0.0021084059650819708
4.37525e-06	-0.0021326253578808118
4.37550e-06	-0.002155123509986036
4.37575e-06	-0.0021723918756318345
4.37600e-06	-0.0021862251889162234
4.37625e-06	-0.00219725728688919
4.37650e-06	-0.0022071608360099983
4.37675e-06	-0.0022130392042913082
4.37700e-06	-0.002215908958389674
4.37725e-06	-0.002217517737482095
4.37750e-06	-0.002215166975695832
4.37775e-06	-0.002210144358294439
4.37800e-06	-0.0022029547989432176
4.37825e-06	-0.0021939503858652526
4.37850e-06	-0.0021832161074680635
4.37875e-06	-0.0021707557222609107
4.37900e-06	-0.002156573521001224
4.37925e-06	-0.0021406748585699226
4.37950e-06	-0.0021231131458279333
4.37975e-06	-0.0021041206704268925
4.38000e-06	-0.0020840833349366284
4.38025e-06	-0.0020632910561282415
4.38050e-06	-0.0020418670379883713
4.38075e-06	-0.0020198829590619147
4.38100e-06	-0.0019974109968483324
4.38125e-06	-0.0019745241269956693
4.38150e-06	-0.0019513253559406156
4.38175e-06	-0.0019280298623486618
4.38200e-06	-0.0019049487759642133
4.38225e-06	-0.0018823332604336513
4.38250e-06	-0.0018603296684776222
4.38275e-06	-0.0018390526691880555
4.38300e-06	-0.001818616931657094
4.38325e-06	-0.0017991351961175682
4.38350e-06	-0.0017806470048434097
4.38375e-06	-0.0017629224533539172
4.38400e-06	-0.0017455180605626258
4.38425e-06	-0.0017281689494469202
4.38450e-06	-0.0017108847773306154
4.38475e-06	-0.001693755466744985
4.38500e-06	-0.0016769273759408916
4.38525e-06	-0.0016604613599910463
4.38550e-06	-0.001644146327149718
4.38575e-06	-0.0016282234029727633
4.38600e-06	-0.0016122700409223324
4.38625e-06	-0.001596149487439954
4.38650e-06	-0.001579984553570319
4.38675e-06	-0.0015637176230126723
4.38700e-06	-0.0015474731454202086
4.38725e-06	-0.001531296776507616
4.38750e-06	-0.0015152907174943088
4.38775e-06	-0.0014992702918062986
4.38800e-06	-0.0014832139413739622
4.38825e-06	-0.0014670908790218443
4.38850e-06	-0.0014508009994538681
4.38875e-06	-0.0014345124501335996
4.38900e-06	-0.0014182272271784963
4.38925e-06	-0.0014020199567358967
4.38950e-06	-0.001386007611295211
4.38975e-06	-0.001369995265854471
4.39000e-06	-0.0013540120362092842
4.39025e-06	-0.001338101612382858
4.39050e-06	-0.001322244498231061
4.39075e-06	-0.0013065206881655233
4.39100e-06	-0.0012909174650497061
4.39125e-06	-0.001275615776941061
4.39150e-06	-0.0012604723716750496
4.39175e-06	-0.0012457247622906916
4.39200e-06	-0.0012311240455033404
4.39225e-06	-0.001216890642595492
4.39250e-06	-0.0012027937896092003
4.39275e-06	-0.0011891504281212823
4.39300e-06	-0.0011759150665435227
4.39325e-06	-0.0011631444654261185
4.39350e-06	-0.0011509506911863041
4.39375e-06	-0.0011396424664392405
4.39400e-06	-0.0011296574859178303
4.39425e-06	-0.0011212502801641292
4.39450e-06	-0.0011144403113616881
4.39475e-06	-0.0011093919408684757
4.39500e-06	-0.0011059541964149263
4.39525e-06	-0.0011033494862977703
4.39550e-06	-0.001102827829240662
4.39575e-06	-0.0011035349662820776
4.39600e-06	-0.0011073147777562618
4.39625e-06	-0.0011110945892304587
4.39650e-06	-0.0011161008613270885
4.39675e-06	-0.0011241739728574819
4.39700e-06	-0.0011332781648863463
4.39725e-06	-0.0011449606364572155
4.39750e-06	-0.0011566431080281244
4.39775e-06	-0.0011693002797677611
4.39800e-06	-0.0011843947486035024
4.39825e-06	-0.0012002099955019277
4.39850e-06	-0.001217827591815285
4.39875e-06	-0.0012360006330361145
4.39900e-06	-0.0012555625980546917
4.39925e-06	-0.0012755167699655715
4.39950e-06	-0.0012964516790820483
4.39975e-06	-0.0013176825683013753
4.40000e-06	-0.0013396535737821118
4.40025e-06	-0.001361790211723735
4.40050e-06	-0.001384341023714907
4.40075e-06	-0.0014068619716461935
4.40100e-06	-0.0014293082426782887
4.40125e-06	-0.0014515303337247424
4.40150e-06	-0.001473191849072402
4.40175e-06	-0.0014944769375905308
4.40200e-06	-0.0015148207479104313
4.40225e-06	-0.0015347786533862003
4.40250e-06	-0.0015534434414718806
4.40275e-06	-0.001570905485009936
4.40300e-06	-0.0015869754926871396
4.40325e-06	-0.001601461945025427
4.40350e-06	-0.0016140949863382291
4.40375e-06	-0.0016243328507640508
4.40400e-06	-0.0016314769024169987
4.40425e-06	-0.0016351248728849546
4.40450e-06	-0.0016352283272388442
4.40475e-06	-0.001631834879345275
4.40500e-06	-0.001624992109814711
4.40525e-06	-0.0016147462523631792
4.40550e-06	-0.0016010946866528183
4.40575e-06	-0.001583864262224887
4.40600e-06	-0.0015627836912965134
4.40625e-06	-0.0015377672795074977
4.40650e-06	-0.0015089511956857687
4.40675e-06	-0.0014765314832331647
4.40700e-06	-0.001440265170570154
4.40725e-06	-0.00140056696375056
4.40750e-06	-0.0013591479485667636
4.40775e-06	-0.0013134259473345567
4.40800e-06	-0.001266431630734529
4.40825e-06	-0.0012154811423988972
4.40850e-06	-0.0011619015171922497
4.40875e-06	-0.0011059820139329645
4.40900e-06	-0.0010480117417678767
4.40925e-06	-0.0009882791779394786
4.40950e-06	-0.0009270537436309093
4.40975e-06	-0.00086453795516156
4.41000e-06	-0.0008008956976676056
4.41025e-06	-0.0007363638131593937
4.41050e-06	-0.0006712659763007817
4.41075e-06	-0.000605949462301283
4.41100e-06	-0.0005407616129200961
4.41125e-06	-0.0004760492294480164
4.41150e-06	-0.0004121471532541619
4.41175e-06	-0.000349348287507648
4.41200e-06	-0.00028792137530064143
4.41225e-06	-0.0002281807681524657
4.41250e-06	-0.00017049525222778537
4.41275e-06	-0.0001152483453313448
4.41300e-06	-6.282354136558011e-05
4.41325e-06	-1.3598726131860384e-05
4.41350e-06	3.225819233001562e-05
4.41375e-06	7.535477940439408e-05
4.41400e-06	0.0001169235885846519
4.41425e-06	0.00015770371578226002
4.41450e-06	0.0001976576587654408
4.41475e-06	0.000236518781750773
4.41500e-06	0.0002740204728616266
4.41525e-06	0.00030989963291122504
4.41550e-06	0.00034402475110596395
4.41575e-06	0.00037675004650550515
4.41600e-06	0.0004087908093090801
4.41625e-06	0.0004405987057573794
4.41650e-06	0.0004722603248481023
4.41675e-06	0.0005033849406883262
4.41700e-06	0.0005337151238920675
4.41725e-06	0.0005631294340121137
4.41750e-06	0.0005921483113892101
4.41775e-06	0.0006200584300429336
4.41800e-06	0.0006476373994054962
4.41825e-06	0.0006751383655037488
4.41850e-06	0.0007025597162798554
4.41875e-06	0.0007296726211124511
4.41900e-06	0.0007562643650312722
4.41925e-06	0.0007822367397461832
4.41950e-06	0.000807928016503927
4.41975e-06	0.0008328089067007025
4.42000e-06	0.0008573378279110555
4.42025e-06	0.0008816587057667815
4.42050e-06	0.0009058508738479111
4.42075e-06	0.0009295900827699159
4.42100e-06	0.000952637087530464
4.42125e-06	0.000974773014717122
4.42150e-06	0.00099690894190378
4.42175e-06	0.0010185467412285906
4.42200e-06	0.001038938941517264
4.42225e-06	0.0010593311418059372
4.42250e-06	0.0010794042600242063
4.42275e-06	0.001098474137123557
4.42300e-06	0.0011167963830051805
4.42325e-06	0.0011342726263489668
4.42350e-06	0.0011508958518982443
4.42375e-06	0.0011669940819849926
4.42400e-06	0.0011831527931836577
4.42425e-06	0.0011997195550160764
4.42450e-06	0.001216690632110817
4.42475e-06	0.0012339600865249006
4.42500e-06	0.0012514242749927247
4.42525e-06	0.0012689776100484932
4.42550e-06	0.001286562738023121
4.42575e-06	0.001304357530859392
4.42600e-06	0.0013227786606673996
4.42625e-06	0.001341952089549313
4.42650e-06	0.001361456899749815
4.42675e-06	0.001381790349106142
4.42700e-06	0.0014023688079093876
4.42725e-06	0.0014235599277467237
4.42750e-06	0.0014447510475839877
4.42775e-06	0.001466300358772766
4.42800e-06	0.001488745349236397
4.42825e-06	0.001511190339699952
4.42850e-06	0.0015339392418680607
4.42875e-06	0.0015574480937502108
4.42900e-06	0.0015810625950094686
4.42925e-06	0.0016049412789664295
4.42950e-06	0.0016288199629234713
4.42975e-06	0.0016527681412349356
4.43000e-06	0.0016768900944094075
4.43025e-06	0.001701012047583961
4.43050e-06	0.0017251140137874374
4.43075e-06	0.0017491660013534912
4.43100e-06	0.001773055299631587
4.43125e-06	0.0017965377834432636
4.43150e-06	0.0018197663894903204
4.43175e-06	0.00184236015873517
4.43200e-06	0.001864667775081624
4.43225e-06	0.001886259848689887
4.43250e-06	0.0019075732520427294
4.43275e-06	0.0019279610541214312
4.43300e-06	0.0019475157434395568
4.43325e-06	0.001966122052554661
4.43350e-06	0.0019835787288920888
4.43375e-06	0.0019993796152702856
4.43400e-06	0.0020128241138371978
4.43425e-06	0.002023506180129635
4.43450e-06	0.0020313901179065987
4.43475e-06	0.0020365434148358116
4.43500e-06	0.002039033159361562
4.43525e-06	0.0020389254423915804
4.43550e-06	0.0020362321130529197
4.43575e-06	0.0020307746006870647
4.43600e-06	0.002021806914196885
4.43625e-06	0.002009435108700371
4.43650e-06	0.0019957791818874487
4.43675e-06	0.0019777569114819405
4.43700e-06	0.0019568456928834555
4.43725e-06	0.0019345482564610903
4.43750e-06	0.0019087844980028932
4.43775e-06	0.0018816579673357847
4.43800e-06	0.00185112374181966
4.43825e-06	0.0018196192004087714
4.43850e-06	0.001784889378306938
4.43875e-06	0.0017481617412542776
4.43900e-06	0.0017106075714501436
4.43925e-06	0.0016709866061965818
4.43950e-06	0.001630771751877836
4.43975e-06	0.001589071841807089
4.44000e-06	0.0015470168054969125
4.44025e-06	0.001503925199005294
4.44050e-06	0.0014603979362285192
4.44075e-06	0.0014167303628379155
4.44100e-06	0.0013732177912490632
4.44125e-06	0.0013301550848998625
4.44150e-06	0.0012878238211746044
4.44175e-06	0.0012464586792896224
4.44200e-06	0.0012062644321917837
4.44225e-06	0.0011674911034905862
4.44250e-06	0.0011304456959921787
4.44275e-06	0.0010954511624459236
4.44300e-06	0.0010628302061238212
4.44325e-06	0.0010328985797542023
4.44350e-06	0.001005707296255553
4.44375e-06	0.0009803371467103823
4.44400e-06	0.0009551175174771268
4.44425e-06	0.0009290548796212159
4.44450e-06	0.0009021661610195939
