Time(s)	Current(A)
1.27500e-05	-0.001006965565887919
1.27503e-05	-0.0010076179304863585
1.27505e-05	-0.0010082702950848024
1.27508e-05	-0.0010089226596832464
1.27510e-05	-0.0010090594739229585
1.27513e-05	-0.001009100071120643
1.27515e-05	-0.0010091406683183273
1.27518e-05	-0.0010091812655160116
1.27520e-05	-0.001009221862713696
1.27523e-05	-0.0010088321615678514
1.27525e-05	-0.0010076172301028501
1.27528e-05	-0.0010064022986378406
1.27530e-05	-0.001005187367172831
1.27533e-05	-0.0010039724357078297
1.27535e-05	-0.0010027575042428202
1.27538e-05	-0.0009996585238241065
1.27540e-05	-0.0009962079237928988
1.27543e-05	-0.0009927573237616676
1.27545e-05	-0.0009893067237304366
1.27548e-05	-0.0009858561236992288
1.27550e-05	-0.0009824055236679976
1.27553e-05	-0.0009789549236367664
1.27555e-05	-0.000973415159527233
1.27558e-05	-0.0009674854952176974
1.27560e-05	-0.0009615558309081616
1.27563e-05	-0.0009556261665986661
1.27565e-05	-0.0009496965022891304
1.27568e-05	-0.0009437668379795947
1.27570e-05	-0.0009378371736700992
1.27573e-05	-0.000930555082551029
1.27575e-05	-0.0009230205883349408
1.27577e-05	-0.0009154860941189036
1.27580e-05	-0.0009079515999028154
1.27583e-05	-0.0009004171056867272
1.27585e-05	-0.000892882611470639
1.27588e-05	-0.0008853481172546019
1.27590e-05	-0.0008778136230385137
1.27593e-05	-0.0008704827597775763
1.27595e-05	-0.0008631899001139044
1.27598e-05	-0.0008558970404501832
1.27600e-05	-0.0008486041807864621
1.27603e-05	-0.0008413113211227903
1.27605e-05	-0.0008340184614590692
1.27608e-05	-0.000826725601795348
1.27610e-05	-0.0008194327421316762
1.27613e-05	-0.0008130665106171422
1.27615e-05	-0.0008072065791746415
1.27618e-05	-0.0008017879933748238
1.27620e-05	-0.0007970569069551184
1.27623e-05	-0.0007935619295256977
1.27625e-05	-0.0007925430726269504
1.27628e-05	-0.0007919472881136685
1.27630e-05	-0.0007950407005146061
1.27633e-05	-0.0007988226268671282
1.27635e-05	-0.0008026045532196761
1.27638e-05	-0.0008106102797901881
1.27640e-05	-0.0008194042932009352
1.27643e-05	-0.0008281983066117419
1.27645e-05	-0.0008420616291587381
1.27648e-05	-0.0008568710356763322
1.27650e-05	-0.0008716804421940265
1.27653e-05	-0.0008910598481237113
1.27655e-05	-0.0009112921519677181
1.27658e-05	-0.000931524455811862
1.27660e-05	-0.0009556922921842982
1.27662e-05	-0.0009805946160659146
1.27665e-05	-0.0010054969399476996
1.27668e-05	-0.0010340209066903086
1.27670e-05	-0.0010632207797875496
1.27673e-05	-0.0010924206528845925
1.27675e-05	-0.0011240044327356616
1.27678e-05	-0.0011560331205430826
1.27680e-05	-0.0011880618083502865
1.27683e-05	-0.0012215464196753119
1.27685e-05	-0.0012553027496637517
1.27688e-05	-0.001289059079651963
1.27690e-05	-0.0013232296452415201
1.27693e-05	-0.0013574775195238206
1.27695e-05	-0.001391254093301961
1.27698e-05	-0.0014249427083782048
1.27700e-05	-0.00145754779339291
1.27703e-05	-0.0014899506594470166
1.27705e-05	-0.0015207753947964876
1.27708e-05	-0.0015513056039839059
1.27710e-05	-0.0015788376820408314
1.27713e-05	-0.001605810219590665
1.27715e-05	-0.0016327827571404985
1.27718e-05	-0.0016550870586205819
1.27720e-05	-0.0016765201283017097
1.27723e-05	-0.0016979531979828375
1.27725e-05	-0.0017158490939401712
1.27728e-05	-0.0017330848479979362
1.27730e-05	-0.0017503206020557012
1.27733e-05	-0.0017659172131070128
1.27735e-05	-0.0017783702598674015
1.27738e-05	-0.0017908233066277904
1.27740e-05	-0.0018032763533880948
1.27743e-05	-0.001811749554142398
1.27745e-05	-0.0018194799971730056
1.27747e-05	-0.0018272104402035606
1.27750e-05	-0.0018349408832341678
1.27753e-05	-0.0018411378260637917
1.27755e-05	-0.0018443938073948618
1.27758e-05	-0.0018476497887259101
1.27760e-05	-0.0018509057700569803
1.27763e-05	-0.0018541617513880507
1.27765e-05	-0.0018549424240151356
1.27768e-05	-0.0018552611303611912
1.27770e-05	-0.0018555798367072467
1.27773e-05	-0.0018543257427663829
1.27775e-05	-0.0018527781174780085
1.27778e-05	-0.0018512304921896343
1.27780e-05	-0.0018483248203202314
1.27783e-05	-0.0018451656965369212
1.27785e-05	-0.0018420065727536108
1.27788e-05	-0.0018381698645656066
1.27790e-05	-0.0018342066989595449
1.27793e-05	-0.0018302435333534832
1.27795e-05	-0.0018257867972155813
1.27798e-05	-0.0018212379461254083
1.27800e-05	-0.0018166890950352353
1.27803e-05	-0.0018121084249477103
1.27805e-05	-0.0018075218164881582
1.27808e-05	-0.001802935208028606
1.27810e-05	-0.0017992890656066882
1.27813e-05	-0.0017958184421400995
1.27815e-05	-0.0017923478186735108
1.27818e-05	-0.0017888771952069456
1.27820e-05	-0.001785406571740357
1.27823e-05	-0.0017819359482737682
1.27825e-05	-0.001778465324807203
1.27828e-05	-0.0017770256746342742
1.27830e-05	-0.0017759650645293886
1.27832e-05	-0.0017749044544245105
1.27835e-05	-0.001773843844319625
1.27838e-05	-0.0017727832342147396
1.27840e-05	-0.0017717226241098542
1.27843e-05	-0.0017706620140049759
1.27845e-05	-0.0017722665007068282
1.27848e-05	-0.001774368373798828
1.27850e-05	-0.0017764702468908136
1.27853e-05	-0.0017785721199828136
1.27855e-05	-0.0017806739930748135
1.27858e-05	-0.0017827758661667992
1.27860e-05	-0.0017848777392587992
1.27863e-05	-0.001786979612350799
1.27865e-05	-0.0017890814854427846
1.27868e-05	-0.0017911833585347846
1.27870e-05	-0.0017940709371668286
1.27873e-05	-0.0017984653494736043
1.27875e-05	-0.0018028597617804098
1.27878e-05	-0.0018072541740872152
1.27880e-05	-0.001811648586393991
1.27883e-05	-0.0018160429987007962
1.27885e-05	-0.0018204374110076017
1.27888e-05	-0.0018248318233143775
1.27890e-05	-0.001829226235621183
1.27893e-05	-0.0018336206479279884
1.27895e-05	-0.001838015060234764
1.27898e-05	-0.0018425594717146562
1.27900e-05	-0.0018471318775049456
1.27903e-05	-0.0018517042832952037
1.27905e-05	-0.001855930375434658
1.27908e-05	-0.001860091835138898
1.27910e-05	-0.0018642532948431102
1.27913e-05	-0.0018680550330970051
1.27915e-05	-0.0018715628158957956
1.27917e-05	-0.0018747643624591832
1.27920e-05	-0.0018772210860664488
1.27923e-05	-0.0018778620464852598
1.27925e-05	-0.0018757628877004444
1.27928e-05	-0.0018706868984289117
1.27930e-05	-0.0018627344655265468
1.27933e-05	-0.0018509632340983915
1.27935e-05	-0.0018385630814710548
1.27938e-05	-0.0018230256509164091
1.27940e-05	-0.0018047151466745713
1.27943e-05	-0.0017818264867797786
1.27945e-05	-0.0017581596010983283
1.27948e-05	-0.0017300711828589855
1.27950e-05	-0.001698446027447583
1.27953e-05	-0.0016638146870629612
1.27955e-05	-0.0016264278405121527
1.27958e-05	-0.0015865327943844205
1.27960e-05	-0.0015442213236088894
1.27963e-05	-0.001499336927778795
1.27965e-05	-0.0014517808609938367
1.27968e-05	-0.001401724241975108
1.27970e-05	-0.0013494703706044273
1.27973e-05	-0.0012953384576946127
1.27975e-05	-0.0012396477140573868
1.27978e-05	-0.001182715388388553
1.27980e-05	-0.001124761042191228
1.27983e-05	-0.0010658489219929645
1.27985e-05	-0.001006079190049002
1.27988e-05	-0.0009457211447544775
1.27990e-05	-0.0008851270736185299
1.27993e-05	-0.0008246590158584655
1.27995e-05	-0.0007646790630237611
1.27998e-05	-0.0007055478043314651
1.28000e-05	-0.0006475649157876867
1.28002e-05	-0.0005909325721556706
1.28005e-05	-0.0005358757132432167
1.28008e-05	-0.0004827249786306637
1.28010e-05	-0.00043186286007419115
1.28013e-05	-0.0003836781710169209
1.28015e-05	-0.00033855959147431126
1.28018e-05	-0.0002968951363105981
1.28020e-05	-0.0002590288725898349
1.28023e-05	-0.0002251806038716749
1.28025e-05	-0.0001954532327801749
1.28028e-05	-0.00016991708629945769
1.28030e-05	-0.0001486474302807942
1.28033e-05	-0.00013172094334308764
1.28035e-05	-0.00011921423207991694
1.28038e-05	-0.00011120344288910787
1.28040e-05	-0.00010773719352001973
1.28043e-05	-0.0001087862586859288
1.28045e-05	-0.0001142481744524376
1.28048e-05	-0.0001240001009485419
1.28050e-05	-0.00013792228096651786
1.28053e-05	-0.00015589581767313948
1.28055e-05	-0.00017780180736902922
1.28058e-05	-0.0002035210643003743
1.28060e-05	-0.0002329171324974352
1.28063e-05	-0.0002658048215632578
1.28065e-05	-0.00030195306717702164
1.28068e-05	-0.0003411180776544364
1.28070e-05	-0.0003830579678829241
1.28073e-05	-0.00042753143342649607
1.28075e-05	-0.00047514532402786585
1.28078e-05	-0.0005232720583553907
1.28080e-05	-0.0005743484922241127
1.28083e-05	-0.0006259754278253472
1.28085e-05	-0.0006795466251635282
1.28087e-05	-0.0007334806796123634
1.28090e-05	-0.0007882854725339694
1.28093e-05	-0.000843252771172045
1.28095e-05	-0.0008980194433467023
1.28098e-05	-0.000952748672651271
1.28100e-05	-0.0010061832481056097
1.28103e-05	-0.0010593762026160601
1.28105e-05	-0.0011100831548851045
1.28108e-05	-0.0011603261451404606
1.28110e-05	-0.0012068493539841556
1.28113e-05	-0.001252678340896811
1.28115e-05	-0.0012935587706258947
1.28118e-05	-0.001333515652290588
1.28120e-05	-0.0013682661055442356
1.28123e-05	-0.0014020448842872344
1.28125e-05	-0.0014313515896092505
1.28128e-05	-0.0014598236729193438
1.28130e-05	-0.00148829575622963
1.28133e-05	-0.001510859022295547
1.28135e-05	-0.0015323195271873733
1.28138e-05	-0.001553780032079345
1.28140e-05	-0.0015699000632674695
1.28143e-05	-0.0015850234031029213
1.28145e-05	-0.0015963310630585147
1.28148e-05	-0.0016069266035745931
1.28150e-05	-0.0016175221440905996
1.28153e-05	-0.0016235083120486678
1.28155e-05	-0.0016286342338891484
1.28158e-05	-0.0016337601557295943
1.28160e-05	-0.001635041816185814
1.28163e-05	-0.0016356060230430503
1.28165e-05	-0.0016340183761847085
1.28168e-05	-0.001632029129372984
1.28170e-05	-0.0016281229433036779
1.28172e-05	-0.0016238589993111373
1.28175e-05	-0.0016176881228577124
1.28178e-05	-0.0016111613560471463
1.28180e-05	-0.0016029764041585823
1.28183e-05	-0.001594481985578555
1.28185e-05	-0.001585038589110685
1.28188e-05	-0.001575418085122568
1.28190e-05	-0.0015651500825240197
1.28193e-05	-0.001554761237411845
1.28195e-05	-0.001543885443912822
1.28198e-05	-0.0015329187713508336
1.28200e-05	-0.0015217752629940117
1.28203e-05	-0.001510598751814356
1.28205e-05	-0.0014998438505254672
1.28208e-05	-0.0014891676341913626
1.28210e-05	-0.0014795181609821787
1.28213e-05	-0.0014700603086012717
1.28215e-05	-0.0014606024562203006
1.28218e-05	-0.0014525831299189475
1.28220e-05	-0.0014448322754019771
1.28223e-05	-0.0014370814208849543
1.28225e-05	-0.0014297510153393903
1.28228e-05	-0.0014224990780866598
1.28230e-05	-0.0014152471408338798
1.28233e-05	-0.0014084715292844961
1.28235e-05	-0.0014017848142893028
1.28238e-05	-0.0013950980992940643
1.28240e-05	-0.0013884113842988258
1.28243e-05	-0.0013817895082941436
1.28245e-05	-0.0013752919811319095
1.28248e-05	-0.0013687944539696757
1.28250e-05	-0.0013622969268074856
1.28253e-05	-0.0013557993996452516
1.28255e-05	-0.0013492934312921679
1.28257e-05	-0.0013427858875616626
1.28260e-05	-0.001336278343831113
1.28263e-05	-0.0013297708001005636
1.28265e-05	-0.001323263256370014
1.28268e-05	-0.0013167557126395086
1.28270e-05	-0.001310248168908959
1.28273e-05	-0.0013037406251784095
1.28275e-05	-0.0012973313835096707
1.28278e-05	-0.0012909404879315918
1.28280e-05	-0.0012845495923535129
1.28283e-05	-0.0012781586967754773
1.28285e-05	-0.0012717678011973984
1.28288e-05	-0.0012653769056193195
1.28290e-05	-0.001258986010041284
1.28293e-05	-0.001252595114463205
1.28295e-05	-0.0012467079801619782
1.28298e-05	-0.0012409148627096046
1.28300e-05	-0.0012351217452571917
1.28303e-05	-0.0012293286278047789
1.28305e-05	-0.0012241672139209634
1.28308e-05	-0.0012191236947257942
1.28310e-05	-0.001214080175530625
1.28313e-05	-0.00120903665633549
1.28315e-05	-0.0012046677620182761
1.28318e-05	-0.0012004247727836499
1.28320e-05	-0.001197066158734425
1.28323e-05	-0.0011938725954183968
1.28325e-05	-0.0011927634380457309
1.28328e-05	-0.0011920432928649127
1.28330e-05	-0.0011913231476840898
1.28333e-05	-0.0011939971509767168
1.28335e-05	-0.0011973046034020596
1.28338e-05	-0.0012006120558274247
1.28340e-05	-0.00120391950825279
1.28342e-05	-0.0012072269606781326
1.28345e-05	-0.001215118350084131
1.28348e-05	-0.001223865238572674
1.28350e-05	-0.0012326121270612171
1.28353e-05	-0.0012413590155497007
1.28355e-05	-0.0012501059040382436
1.28358e-05	-0.0012637109157371564
1.28360e-05	-0.0012782225978302014
1.28363e-05	-0.001292734279923345
1.28365e-05	-0.0013072459620164885
1.28368e-05	-0.0013217576441095335
1.28370e-05	-0.001336269326202677
1.28373e-05	-0.0013507810082958205
1.28375e-05	-0.0013666339025954375
1.28378e-05	-0.0013850589866250722
1.28380e-05	-0.0014034840706547071
1.28383e-05	-0.001421909154684217
1.28385e-05	-0.0014403342387138518
1.28388e-05	-0.0014587593227434867
1.28390e-05	-0.0014771844067729967
1.28393e-05	-0.0014956094908026314
1.28395e-05	-0.0015140826205372346
1.28398e-05	-0.0015325647170303534
1.28400e-05	-0.0015510468135235976
1.28403e-05	-0.001568428849120152
1.28405e-05	-0.0015856055806096343
1.28408e-05	-0.001602782312099233
1.28410e-05	-0.0016184572392361706
1.28413e-05	-0.0016338518849791383
1.28415e-05	-0.001647555725449429
1.28418e-05	-0.0016609440113284748
1.28420e-05	-0.0016718482080311202
1.28423e-05	-0.001682288799753847
1.28425e-05	-0.0016890111307065931
1.28427e-05	-0.0016950395235243978
1.28430e-05	-0.001696219574285449
1.28433e-05	-0.0016964947801062485
1.28435e-05	-0.001696769985927048
1.28438e-05	-0.0016912806555083567
1.28440e-05	-0.0016847154910441114
1.28443e-05	-0.0016781503265798664
1.28445e-05	-0.001665231859968048
1.28448e-05	-0.0016511276780674276
1.28450e-05	-0.0016370234961668071
1.28453e-05	-0.00161801765168
1.28455e-05	-0.0015980970110549403
1.28458e-05	-0.0015755603779381724
1.28460e-05	-0.0015508814581248447
1.28463e-05	-0.0015242237847318003
1.28465e-05	-0.0014956165520341137
1.28468e-05	-0.001465194578519855
1.28470e-05	-0.0014331424056957455
1.28473e-05	-0.0013996501947109398
1.28475e-05	-0.0013649081498920677
1.28478e-05	-0.001329105905239428
1.28480e-05	-0.0012923991383789152
1.28483e-05	-0.0012548936511712651
1.28485e-05	-0.0012167169402494008
1.28488e-05	-0.001178062992059302
1.28490e-05	-0.0011391565881872458
1.28493e-05	-0.0011002263317058288
1.28495e-05	-0.0010615005679898311
1.28498e-05	-0.0010232073912739145
1.28500e-05	-0.0009855536683094045
1.28503e-05	-0.0009487148413644933
1.28505e-05	-0.0009128801604843154
1.28508e-05	-0.0008782802782994433
1.28510e-05	-0.0008451652762344027
1.28512e-05	-0.0008137875427071247
1.28515e-05	-0.0007843993189761203
1.28518e-05	-0.0007572451665800462
1.28520e-05	-0.0007322005181925568
1.28523e-05	-0.0007085137640887641
1.28525e-05	-0.0006854732435765814
1.28528e-05	-0.0006629283880866993
1.28530e-05	-0.0006410190909490447
1.28533e-05	-0.0006203481237643869
1.28535e-05	-0.0005998888003414036
1.28538e-05	-0.0005813092831112906
1.28540e-05	-0.0005630805936698332
1.28543e-05	-0.0005458429695255406
1.28545e-05	-0.0005287903076652945
1.28548e-05	-0.0005120254393160404
1.28550e-05	-0.000495314281802258
1.28553e-05	-0.00047951307239872605
1.28555e-05	-0.00046388168639744217
1.28558e-05	-0.0004482503003961582
1.28560e-05	-0.00043374471172618104
1.28563e-05	-0.00041944923034796847
1.28565e-05	-0.0004053852460739089
1.28568e-05	-0.0003913644660501956
1.28570e-05	-0.00037734368602638737
1.28573e-05	-0.00036418847484136966
1.28575e-05	-0.0003511948045658159
1.28578e-05	-0.0003382011342901741
1.28580e-05	-0.0003252074640145323
1.28583e-05	-0.0003126237476322668
1.28585e-05	-0.0003008262447883967
1.28588e-05	-0.0002890287419445267
1.28590e-05	-0.00027723123910073657
1.28593e-05	-0.0002654337362568665
1.28595e-05	-0.0002546699693045481
1.28597e-05	-0.0002440991282393222
1.28600e-05	-0.00023352828717402468
1.28603e-05	-0.00022392507637089996
1.28605e-05	-0.00021450245417669673
1.28608e-05	-0.00020507983198255733
1.28610e-05	-0.00019647087109437057
1.28613e-05	-0.00018801376362493106
1.28615e-05	-0.00018045946297729344
1.28618e-05	-0.00017307365295505107
1.28620e-05	-0.0001663631484199305
1.28623e-05	-0.00015977867598957084
1.28625e-05	-0.0001528812949504725
1.28628e-05	-0.0001459255158511012
1.28630e-05	-0.00013855724866142653
1.28633e-05	-0.0001311119989161147
1.28635e-05	-0.00012366674917080285
1.28638e-05	-0.00011600568086256594
1.28640e-05	-0.00010830433438646926
1.28643e-05	-0.0001006029879103726
1.28645e-05	-9.213478172849075e-05
1.28648e-05	-8.352345669943981e-05
1.28650e-05	-7.426405975409695e-05
1.28653e-05	-6.488371329901489e-05
1.28655e-05	-5.516849478800885e-05
1.28658e-05	-4.5246768993295474e-05
1.28660e-05	-3.5150357884264176e-05
1.28663e-05	-2.4781522789427117e-05
1.28665e-05	-1.4055203191592792e-05
1.28668e-05	-2.9871192733967e-06
1.28670e-05	8.355896573927773e-06
1.28673e-05	1.9900800483412366e-05
1.28675e-05	3.157456249096959e-05
1.28678e-05	4.333434616912562e-05
1.28680e-05	5.510673887482939e-05
1.28682e-05	6.68791315804534e-05
1.28685e-05	7.878106488563563e-05
1.28688e-05	9.070717432253506e-05
1.28690e-05	0.00010257083325427411
1.28693e-05	0.00011442283706279276
1.28695e-05	0.00012596381466871775
1.28698e-05	0.00013744674552733726
1.28700e-05	0.0001484393924003568
1.28703e-05	0.0001593405376881462
1.28705e-05	0.00016984745688082353
1.28708e-05	0.00017996439812012228
1.28710e-05	0.00018964323254621004
1.28713e-05	0.00019880966347703946
1.28715e-05	0.00020738942791177474
1.28718e-05	0.00021530489503853034
1.28720e-05	0.00022232711407150374
1.28723e-05	0.00022799439886280045
1.28725e-05	0.00023192183210219843
1.28728e-05	0.00023400390767244856
1.28730e-05	0.00023426896964692638
1.28733e-05	0.00023276135771135316
1.28735e-05	0.00022952541155142636
1.28738e-05	0.00022460337384031355
1.28740e-05	0.0002179427057952342
1.28743e-05	0.00020934511412952028
1.28745e-05	0.0001986603885283935
1.28748e-05	0.00018591337266517802
1.28750e-05	0.0001712127366794627
1.28753e-05	0.00015467716599196405
1.28755e-05	0.00013642533375983693
1.28758e-05	0.00011657462321258874
1.28760e-05	9.518301944038809e-05
1.28763e-05	7.22171979413102e-05
1.28765e-05	4.767398538971061e-05
1.28767e-05	2.1659849034142607e-05
1.28770e-05	-5.666243200948556e-06
1.28773e-05	-3.4139058967926705e-05
1.28775e-05	-6.359338047123889e-05
1.28778e-05	-9.386481700858838e-05
1.28780e-05	-0.00012508340813756715
1.28783e-05	-0.00015645554020839538
1.28785e-05	-0.00018875774639531595
1.28788e-05	-0.0002212335320968516
1.28790e-05	-0.00025370931779838724
1.28793e-05	-0.00028623367815869554
1.28795e-05	-0.00031876710399645074
1.28798e-05	-0.00035058795025579416
1.28800e-05	-0.0003822758079551599
1.28803e-05	-0.000412733700349779
1.28805e-05	-0.0004429620446077
1.28808e-05	-0.00047137857002721797
1.28810e-05	-0.0004994569561216391
1.28813e-05	-0.0005250139973440438
1.28815e-05	-0.0005501004805635123
1.28818e-05	-0.0005728584459593703
1.28820e-05	-0.0005938675655994737
1.28823e-05	-0.0006143015214796929
1.28825e-05	-0.000635369065287881
1.28828e-05	-0.0006565663454359252
1.28830e-05	-0.000678467379723451
1.28833e-05	-0.0007004997554813439
1.28835e-05	-0.0007225321312392368
1.28838e-05	-0.0007444191713556657
1.28840e-05	-0.0007662790875155489
1.28843e-05	-0.0007895463893223584
1.28845e-05	-0.0008130763511826273
1.28848e-05	-0.0008366063130430555
1.28850e-05	-0.0008623204381443759
1.28853e-05	-0.0008884421931195675
1.28855e-05	-0.0009145639480949361
1.28858e-05	-0.000941749186835462
1.28860e-05	-0.0009691329033019882
1.28863e-05	-0.000996516619768329
1.28865e-05	-0.0010257303046552041
1.28868e-05	-0.0010552855161197682
1.28870e-05	-0.001084840727584132
1.28873e-05	-0.0011154442000561088
1.28875e-05	-0.0011462433092343936
1.28878e-05	-0.0011770424184124697
1.28880e-05	-0.0012079968291513273
1.28883e-05	-0.0012389802237840642
1.28885e-05	-0.0012699636184165912
1.28888e-05	-0.0013009654242471804
1.28890e-05	-0.0013319706661553134
1.28893e-05	-0.0013629759080632364
1.28895e-05	-0.0013926817052859989
1.28898e-05	-0.0014221449874514268
1.28900e-05	-0.0014516082696166552
1.28903e-05	-0.0014789816355612257
1.28905e-05	-0.0015059649609308818
1.28908e-05	-0.001532948286300355
1.28910e-05	-0.0015575810445566654
1.28913e-05	-0.001581775117023009
1.28915e-05	-0.001602545834905997
1.28918e-05	-0.0016226776529248506
1.28920e-05	-0.0016428094709437042
1.28923e-05	-0.0016578341600265152
1.28925e-05	-0.0016719057068319168
1.28928e-05	-0.0016859772536373186
