Time(s)	Current(A)
1.75000e-06	-0.00952469100225504
1.75025e-06	-0.009514091061239797
1.75050e-06	-0.009503491120224552
1.75075e-06	-0.0094928911792093
1.75100e-06	-0.009482291238194057
1.75125e-06	-0.009469666188293783
1.75150e-06	-0.00944111407333025
1.75175e-06	-0.009412561958366695
1.75200e-06	-0.009384009843403164
1.75225e-06	-0.009355457728439633
1.75250e-06	-0.00932540187989529
1.75275e-06	-0.009283519475872542
1.75300e-06	-0.009241637071849754
1.75325e-06	-0.009199754667827005
1.75350e-06	-0.009157872263804254
1.75375e-06	-0.009111155482158611
1.75400e-06	-0.00906138415504716
1.75425e-06	-0.009011612827935667
1.75450e-06	-0.008961841500824215
1.75475e-06	-0.008911796029225856
1.75500e-06	-0.008859566311900812
1.75525e-06	-0.008807119883456435
1.75550e-06	-0.008754748247858494
1.75575e-06	-0.008702743539424313
1.75600e-06	-0.008651404320875014
1.75625e-06	-0.008601043138975003
1.75650e-06	-0.008551992069853624
1.75675e-06	-0.008504587110843145
1.75700e-06	-0.00846010517364695
1.75725e-06	-0.008425056546845373
1.75750e-06	-0.008390007920043824
1.75775e-06	-0.008354959293242275
1.75800e-06	-0.008319910666440698
1.75825e-06	-0.008284862039639148
1.75850e-06	-0.00824981341283757
1.75875e-06	-0.008214764786036022
1.75900e-06	-0.008179716159234473
1.75925e-06	-0.008151496027598466
1.75950e-06	-0.008127590401483791
1.75975e-06	-0.008103684775369095
1.76000e-06	-0.008079779149254418
1.76025e-06	-0.008055873523139722
1.76050e-06	-0.008031967897025047
1.76075e-06	-0.00800806227091037
1.76100e-06	-0.007984156644795674
1.76125e-06	-0.007960861293286822
1.76150e-06	-0.00794236562609319
1.76175e-06	-0.007923869958899573
1.76200e-06	-0.007905374291705954
1.76225e-06	-0.007886878624512322
1.76250e-06	-0.007868382957318705
1.76275e-06	-0.007849887290125071
1.76300e-06	-0.00783174829675723
1.76325e-06	-0.007816414469704432
1.76350e-06	-0.007801080642651621
1.76375e-06	-0.007785746815598824
1.76400e-06	-0.007770412988546013
1.76425e-06	-0.007755079161493215
1.76450e-06	-0.007739745334440418
1.76475e-06	-0.007724609882970941
1.76500e-06	-0.0077110346146824875
1.76525e-06	-0.007697459346394022
1.76550e-06	-0.007684052206827964
1.76575e-06	-0.007671967365099744
1.76600e-06	-0.007659882523371533
1.76625e-06	-0.007647931613803041
1.76650e-06	-0.007637034053137026
1.76675e-06	-0.007626136492471022
1.76700e-06	-0.007615396992414995
1.76725e-06	-0.007605900606562499
1.76750e-06	-0.0075964042207100025
1.76775e-06	-0.007587219480582636
1.76800e-06	-0.00758048577001548
1.76825e-06	-0.0075737520594483165
1.76850e-06	-0.00756701834888116
1.76875e-06	-0.007560284638314003
1.76900e-06	-0.00755355092774684
1.76925e-06	-0.007546817217179684
1.76950e-06	-0.007540083506612521
1.76975e-06	-0.007535451224586982
1.77000e-06	-0.007532146705827729
1.77025e-06	-0.007528842187068478
1.77050e-06	-0.007525537668309228
1.77075e-06	-0.0075222331495499745
1.77100e-06	-0.007518928630790724
1.77125e-06	-0.007515624112031471
1.77150e-06	-0.00751265080059814
1.77175e-06	-0.007512282366693562
1.77200e-06	-0.007511913932788984
1.77225e-06	-0.007511545498884407
1.77250e-06	-0.00751117706497983
1.77275e-06	-0.007510808631075252
1.77300e-06	-0.007510440197170675
1.77325e-06	-0.007510071763266097
1.77350e-06	-0.007509703329361519
1.77375e-06	-0.0075093348954569416
1.77400e-06	-0.0075100893774752205
1.77425e-06	-0.007511001947637328
1.77450e-06	-0.09821382311257981
1.77475e-06	-0.04038449796638591
1.77500e-06	-0.015017192492816429
1.77525e-06	-0.0015151933840342174
1.77550e-06	0.008960192730867185
1.77575e-06	0.010441576243626372
1.77600e-06	0.002302238134102393
1.77625e-06	-0.007991267186876988
1.77650e-06	-0.01753923953539272
1.77675e-06	-0.018910359324181093
1.77700e-06	-0.011324373818778228
1.77725e-06	-0.0030295173913057766
1.77750e-06	0.0034503136464098354
1.77775e-06	0.004324863715382998
1.77800e-06	-0.0008158926590362855
1.77825e-06	-0.007301454369169418
1.77850e-06	-0.013318354008278757
1.77875e-06	-0.014212913403746991
1.77900e-06	-0.009497119983418475
1.77925e-06	-0.004337994423794419
1.77950e-06	-0.00031647547506633207
1.77975e-06	0.00019345496147573455
1.78000e-06	-0.0030646811445703493
1.78025e-06	-0.007165040702191701
1.78050e-06	-0.010971601291008467
1.78075e-06	-0.011569417027436189
1.78100e-06	-0.008653051135612353
1.78125e-06	-0.005459231996189704
1.78150e-06	-0.002978174671258804
1.78175e-06	-0.002696737780904858
1.78200e-06	-0.004775298761962627
1.78225e-06	-0.007380906672214798
1.78250e-06	-0.009801864635769403
1.78275e-06	-0.010212272222506811
1.78300e-06	-0.008420911680492815
1.78325e-06	-0.006455286746154361
1.78350e-06	-0.00493556381828368
1.78375e-06	-0.004792932501729855
1.78400e-06	-0.006127627709356407
1.78425e-06	-0.0077913113397583295
1.78450e-06	-0.009338067565965414
1.78475e-06	-0.009624116913610327
1.78500e-06	-0.008529698193959932
1.78525e-06	-0.007324799618784251
1.78550e-06	-0.006397778788207589
1.78575e-06	-0.006331771156230306
1.78600e-06	-0.007189372656955647
1.78625e-06	-0.008251103422379346
1.78650e-06	-0.00923752496341814
1.78675e-06	-0.009432101412474204
1.78700e-06	-0.008759775606794362
1.78725e-06	-0.008015994157641794
1.78750e-06	-0.007443902704825193
1.78775e-06	-0.007408681297527762
1.78800e-06	-0.00794980198883077
1.78825e-06	-0.008617469810863478
1.78850e-06	-0.009237583986231724
1.78875e-06	-0.00936170941931948
1.78900e-06	-0.008942910765366805
1.78925e-06	-0.008479477112954508
1.78950e-06	-0.00812370565997362
1.78975e-06	-0.008104318513784488
1.79000e-06	-0.008446003831737187
1.79025e-06	-0.008866983670482508
1.79050e-06	-0.009258191240671246
1.79075e-06	-0.009338735403464719
1.79100e-06	-0.009079238519654129
1.79125e-06	-0.008791836075736154
1.79150e-06	-0.008571916921883516
1.79175e-06	-0.00856273036916216
1.79200e-06	-0.008779711130463923
1.79225e-06	-0.009046331973996593
1.79250e-06	-0.009294263101062105
1.79275e-06	-0.00934755410143776
1.79300e-06	-0.009187810771806904
1.79325e-06	-0.009010555098429773
1.79350e-06	-0.008875525997635334
1.79375e-06	-0.008872436093999807
1.79400e-06	-0.009010930685326398
1.79425e-06	-0.009180413648408351
1.79450e-06	-0.009338070705208349
1.79475e-06	-0.00937368216557887
1.79500e-06	-0.009275725546076793
1.79525e-06	-0.009166670293380629
1.79550e-06	-0.00908392475857916
1.79575e-06	-0.009083667277620293
1.79600e-06	-0.00917191901935234
1.79625e-06	-0.009279386661176711
1.79650e-06	-0.009379238795084552
1.79675e-06	-0.009402424425940642
1.79700e-06	-0.00934172078907719
1.79725e-06	-0.009273834453421156
1.79750e-06	-0.009222184716863258
1.79775e-06	-0.009221947057109997
1.79800e-06	-0.009276883698219631
1.79825e-06	-0.009343594990016621
1.79850e-06	-0.009405291477219836
1.79875e-06	-0.009418737807642246
1.79900e-06	-0.00937942789475208
1.79925e-06	-0.00933542579803344
1.79950e-06	-0.00930141306535078
1.79975e-06	-0.009299433971677226
1.80000e-06	-0.009331854275666301
1.80025e-06	-0.009371498595657536
1.80050e-06	-0.0094078624473176
1.80075e-06	-0.009413877518608687
1.80100e-06	-0.009386735296068585
1.80125e-06	-0.009356556514923751
1.80150e-06	-0.00933255076817077
1.80175e-06	-0.009328537170819775
1.80200e-06	-0.009346006539555493
1.80225e-06	-0.009367948527788368
1.80250e-06	-0.009379775795485577
1.80275e-06	-0.009379847041662535
1.80300e-06	-0.009368625372796657
1.80325e-06	-0.009346745017773064
1.80350e-06	-0.00933389362060695
1.80375e-06	-0.009328908250865034
1.80400e-06	-0.009331315400643374
1.80425e-06	-0.009342191742275307
1.80450e-06	-0.009346804909376486
1.80475e-06	-0.009344105470893961
1.80500e-06	-0.00933439306738953
1.80525e-06	-0.00931811692928322
1.80550e-06	-0.009307629552275296
1.80575e-06	-0.009302159429133292
1.80600e-06	-0.009301413368167281
1.80625e-06	-0.009306142934008914
1.80650e-06	-0.009307140419915472
1.80675e-06	-0.009303684281841074
1.80700e-06	-0.009295961550502206
1.80725e-06	-0.009284358801876391
1.80750e-06	-0.009276632615074725
1.80775e-06	-0.009272211161151735
1.80800e-06	-0.009270889587809358
1.80825e-06	-0.009273217376316865
1.80850e-06	-0.009273352707386173
1.80875e-06	-0.009270778531789935
1.80900e-06	-0.00926559934344293
1.80925e-06	-0.009258104927021652
1.80950e-06	-0.009253140752066314
1.80975e-06	-0.009250308600116908
1.81000e-06	-0.009249468831018246
1.81025e-06	-0.00925083751686899
1.81050e-06	-0.009252242416972797
1.81075e-06	-0.009250904729733452
1.81100e-06	-0.009246572682777628
1.81125e-06	-0.009242591695906232
1.81150e-06	-0.009238993996800489
1.81175e-06	-0.009237492640633917
1.81200e-06	-0.009238280073870755
1.81225e-06	-0.009239314384490998
1.81250e-06	-0.00924061823609546
1.81275e-06	-0.009240211755024794
1.81300e-06	-0.00923793793095887
1.81325e-06	-0.009235881154186745
1.81350e-06	-0.009234061349875946
1.81375e-06	-0.009233540490138803
1.81400e-06	-0.009234437819439445
1.81425e-06	-0.009235465154503757
1.81450e-06	-0.009236634429996187
1.81475e-06	-0.009236697098209155
1.81500e-06	-0.009235551571442378
1.81525e-06	-0.009234495757557037
1.81550e-06	-0.009233537892289045
1.81575e-06	-0.009233336909891738
1.81600e-06	-0.009233962293000593
1.81625e-06	-0.009234601700703816
1.81650e-06	-0.009235256420473771
1.81675e-06	-0.009235139564940842
1.81700e-06	-0.009234180302688988
1.81725e-06	-0.009233188316383607
1.81750e-06	-0.009232160601922518
1.81775e-06	-0.009231344814665223
1.81800e-06	-0.009230760409749652
1.81825e-06	-0.009228942508367461
1.81850e-06	-0.009225777874258918
1.81875e-06	-0.009220519345949859
1.81900e-06	-0.009212974701772899
1.81925e-06	-0.009203974838970716
1.81950e-06	-0.009193386166958625
1.81975e-06	-0.00918168131532487
1.82000e-06	-0.009168757817618207
1.82025e-06	-0.009153998433724898
1.82050e-06	-0.009137234627381806
1.82075e-06	-0.009118282761704585
1.82100e-06	-0.009096941970568559
1.82125e-06	-0.009073998813872722
1.82150e-06	-0.009049306192790655
1.82175e-06	-0.009023410127944153
1.82200e-06	-0.0089962001419429
1.82225e-06	-0.008967521803172462
1.82250e-06	-0.008937240315320127
1.82275e-06	-0.008905456192356841
1.82300e-06	-0.00887203149081515
1.82325e-06	-0.008837656901270755
1.82350e-06	-0.008802245223016121
1.82375e-06	-0.008766319309634656
1.82400e-06	-0.008729831953806371
1.82425e-06	-0.008692851065823834
1.82450e-06	-0.008655331338921587
1.82475e-06	-0.008617482145357942
1.82500e-06	-0.00857927323975048
1.82525e-06	-0.008541267356842455
1.82550e-06	-0.008503483134328985
1.82575e-06	-0.0084663607391022
1.82600e-06	-0.008429960927595898
1.82625e-06	-0.008394421736436146
1.82650e-06	-0.008359822171466576
1.82675e-06	-0.008326371510172254
1.82700e-06	-0.00829417522310651
1.82725e-06	-0.008263647640158049
1.82750e-06	-0.008234941950101963
1.82775e-06	-0.008208379796858237
1.82800e-06	-0.008184157959337638
1.82825e-06	-0.008162315850607605
1.82850e-06	-0.00814307193224831
1.82875e-06	-0.008126265176732731
1.82900e-06	-0.008112119318146885
1.82925e-06	-0.008101206536686258
1.82950e-06	-0.008093823632196424
1.82975e-06	-0.008086440727706581
1.83000e-06	-0.00808302567036018
1.83025e-06	-0.008083942712655319
1.83050e-06	-0.008084859754950456
1.83075e-06	-0.008089473650639643
1.83100e-06	-0.008098123774712671
1.83125e-06	-0.0081067738987857
1.83150e-06	-0.00812031081485229
1.83175e-06	-0.008139183135504298
1.83200e-06	-0.008158055456156322
1.83225e-06	-0.00817692777680833
1.83250e-06	-0.008195800097460338
1.83275e-06	-0.008214672418112362
1.83300e-06	-0.008238179459080308
1.83325e-06	-0.00826674669251366
1.83350e-06	-0.008295313925946984
1.83375e-06	-0.008323881159380311
1.83400e-06	-0.008352448392813662
1.83425e-06	-0.008381015626246987
1.83450e-06	-0.008411319757460253
1.83475e-06	-0.008443520235477583
1.83500e-06	-0.008475720713494941
1.83525e-06	-0.008507977438298155
1.83550e-06	-0.008540295573400745
1.83575e-06	-0.008572613708503362
1.83600e-06	-0.008604124056651953
1.83625e-06	-0.008634752462163359
1.83650e-06	-0.008665380867674738
1.83675e-06	-0.008694240244986289
1.83700e-06	-0.008721168195467885
1.83725e-06	-0.00874809614594946
1.83750e-06	-0.00877225256944851
1.83775e-06	-0.008793383036903102
1.83800e-06	-0.008814513504357696
1.83825e-06	-0.008831542408694944
1.83850e-06	-0.00884409322215132
1.83875e-06	-0.008856644035607708
1.83900e-06	-0.008864602796164796
1.83925e-06	-0.008867547948586591
1.83950e-06	-0.008870493101008382
1.83975e-06	-0.008868754335727548
1.84000e-06	-0.008861901664223522
1.84025e-06	-0.008855048992719501
1.84050e-06	-0.008841877417785304
1.84075e-06	-0.008821806857508795
1.84100e-06	-0.008801736297232287
1.84125e-06	-0.008781665736955761
1.84150e-06	-0.008761595176679253
1.84175e-06	-0.00873479521532146
1.84200e-06	-0.00870064808685867
1.84225e-06	-0.008666500958395877
1.84250e-06	-0.008632353829933057
1.84275e-06	-0.008598206701470266
1.84300e-06	-0.008559893244461636
1.84325e-06	-0.008517030985610108
1.84350e-06	-0.00847416872675858
1.84375e-06	-0.008429561185052111
1.84400e-06	-0.00838304814170809
1.84425e-06	-0.008335574747568615
1.84450e-06	-0.008287052841431148
1.84475e-06	-0.00823809773115644
1.84500e-06	-0.008188560122750222
1.84525e-06	-0.008138927421781295
1.84550e-06	-0.00808948084679501
1.84575e-06	-0.008040499026729816
1.84600e-06	-0.007992247797240781
1.84625e-06	-0.007944981045909913
1.84650e-06	-0.007898964477039298
1.84675e-06	-0.007854494932929067
1.84700e-06	-0.00781188626928694
1.84725e-06	-0.007771453454883535
1.84750e-06	-0.007733512005895176
1.84775e-06	-0.007698373815388132
1.84800e-06	-0.007666315115354939
1.84825e-06	-0.007637519441240665
1.84850e-06	-0.007612079370566006
1.84875e-06	-0.007590054367107445
1.84900e-06	-0.007571504155941986
1.84925e-06	-0.007557357877875483
1.84950e-06	-0.0075460211210053325
1.84975e-06	-0.007538198638087902
1.85000e-06	-0.007534213043129835
1.85025e-06	-0.007534530327292054
1.85050e-06	-0.007539545499356358
1.85075e-06	-0.007544560671420663
1.85100e-06	-0.007555851159366481
1.85125e-06	-0.007573993043723218
1.85150e-06	-0.007592134928079971
1.85175e-06	-0.007610276812436708
1.85200e-06	-0.007628418696793445
1.85225e-06	-0.007653012874055923
1.85250e-06	-0.007684651671428503
1.85275e-06	-0.00771629046880111
1.85300e-06	-0.007747929266173689
1.85325e-06	-0.0077795680635462956
1.85350e-06	-0.007814825102380489
1.85375e-06	-0.007854032541008369
1.85400e-06	-0.00789323997963628
1.85425e-06	-0.00793400911992085
1.85450e-06	-0.007976483327699659
1.85475e-06	-0.008018957535478429
1.85500e-06	-0.008061888395922567
1.85525e-06	-0.008105317830222074
1.85550e-06	-0.008148747264521543
1.85575e-06	-0.008191504705558525
1.85600e-06	-0.00823352846365204
1.85625e-06	-0.008275552221745556
1.85650e-06	-0.00831611400863126
1.85675e-06	-0.008355079613830597
1.85700e-06	-0.00839163284038987
1.85725e-06	-0.008425552229439083
1.85750e-06	-0.008459471618488323
1.85775e-06	-0.008489490389401713
1.85800e-06	-0.00851525046137472
1.85825e-06	-0.008541010533347748
1.85850e-06	-0.008562511580884348
1.85875e-06	-0.008579362621108597
1.85900e-06	-0.00859621366133283
1.85925e-06	-0.008608550711479084
1.85950e-06	-0.008615959382560157
1.85975e-06	-0.008623368053641223
1.86000e-06	-0.008624035718103317
1.86025e-06	-0.008617343544522989
1.86050e-06	-0.008610651370942659
1.86075e-06	-0.008603959197362326
1.86100e-06	-0.008597267023781998
1.86125e-06	-0.008590574850201663
1.86150e-06	-0.008576155125123204
1.86175e-06	-0.008553298451276541
1.86200e-06	-0.0085304417774299
1.86225e-06	-0.008507585103583258
1.86250e-06	-0.008484728429736596
1.86275e-06	-0.008461871755889954
1.86300e-06	-0.008433962562382265
1.86325e-06	-0.008400537022650287
1.86350e-06	-0.008367111482918308
1.86375e-06	-0.0083336859431863
1.86400e-06	-0.00830026040345432
1.86425e-06	-0.00826458166793848
1.86450e-06	-0.008226442890920886
1.86475e-06	-0.008188304113903293
1.86500e-06	-0.008150165336885668
1.86525e-06	-0.008112026559868075
1.86550e-06	-0.00807373716315916
1.86575e-06	-0.008035283319714575
1.86600e-06	-0.007997184098156185
1.86625e-06	-0.007959870084487277
1.86650e-06	-0.007923512000585494
1.86675e-06	-0.007888362925326575
1.86700e-06	-0.007854670590515428
1.86725e-06	-0.007822681614893797
1.86750e-06	-0.007792642069797979
1.86775e-06	-0.007764825691835911
1.86800e-06	-0.007739677208124975
1.86825e-06	-0.007717869386902968
1.86850e-06	-0.007699964200852855
1.86875e-06	-0.00768614879527277
1.86900e-06	-0.007677373748623599
1.86925e-06	-0.007671769515030845
1.86950e-06	-0.007669994329620238
1.86975e-06	-0.007672399702999828
1.87000e-06	-0.00767990672664336
1.87025e-06	-0.007692983737354405
1.87050e-06	-0.00770606074806544
1.87075e-06	-0.0077270964118446965
1.87100e-06	-0.007756821341326466
1.87125e-06	-0.007786546270808211
1.87150e-06	-0.00781627120028998
1.87175e-06	-0.007845996129771726
1.87200e-06	-0.007883994991139514
1.87225e-06	-0.007931027339951182
1.87250e-06	-0.007978059688762808
1.87275e-06	-0.008025092037574474
1.87300e-06	-0.0080721243863861
1.87325e-06	-0.008125121001901414
1.87350e-06	-0.00818462941001081
1.87375e-06	-0.008244137818120159
1.87400e-06	-0.008303646226229556
1.87425e-06	-0.008363154634338902
1.87450e-06	-0.0084226630424483
1.87475e-06	-0.00848374932873069
1.87500e-06	-0.008546558344044476
1.87525e-06	-0.008609367359358314
1.87550e-06	-0.008672176374672097
1.87575e-06	-0.008734985389985935
1.87600e-06	-0.008797794405299719
1.87625e-06	-0.008858536165721527
1.87650e-06	-0.008917020895100991
1.87675e-06	-0.00897328617676803
1.87700e-06	-0.009027128263113032
1.87725e-06	-0.009077934358695555
1.87750e-06	-0.00912542575640421
1.87775e-06	-0.009167964988215831
1.87800e-06	-0.009205097440147466
1.87825e-06	-0.009242229892079134
1.87850e-06	-0.009272466102198711
1.87875e-06	-0.00929517298833127
1.87900e-06	-0.009317879874463846
1.87925e-06	-0.009333324692063435
1.87950e-06	-0.009340840775681447
1.87975e-06	-0.009348356859299451
1.88000e-06	-0.00934600651463015
1.88025e-06	-0.009332883993289302
1.88050e-06	-0.009319761471948455
1.88075e-06	-0.009306638950607597
1.88100e-06	-0.00929351642926675
1.88125e-06	-0.009269290436210791
1.88150e-06	-0.00923294166118161
1.88175e-06	-0.009196592886152426
1.88200e-06	-0.009160244111123213
1.88225e-06	-0.009123895336094031
1.88250e-06	-0.009079175575027904
1.88275e-06	-0.009025316362695608
1.88300e-06	-0.00897145715036331
1.88325e-06	-0.008917597938030968
1.88350e-06	-0.008863738725698673
1.88375e-06	-0.008799573743443694
1.88400e-06	-0.008735177547502186
1.88425e-06	-0.008670781351560625
1.88450e-06	-0.008606385155619118
1.88475e-06	-0.008540343357801898
1.88500e-06	-0.008472298750868275
1.88525e-06	-0.008404006819597756
1.88550e-06	-0.00833585220021354
1.88575e-06	-0.008268220419389495
1.88600e-06	-0.008201498421219248
1.88625e-06	-0.008136083876073803
1.88650e-06	-0.008072394539067888
1.88675e-06	-0.008010864565641417
1.88700e-06	-0.007951934957469644
1.88725e-06	-0.007896932005701806
1.88750e-06	-0.007844603318540554
1.88775e-06	-0.007796634944553241
1.88800e-06	-0.0077534271650264944
1.88825e-06	-0.007710219385499784
1.88850e-06	-0.007670462843455696
1.88875e-06	-0.007634474366086547
1.88900e-06	-0.007598485888717398
1.88925e-06	-0.00756837234075816
1.88950e-06	-0.007544673046842116
1.88975e-06	-0.0075209737529260525
1.89000e-06	-0.00749727445901001
1.89025e-06	-0.007473575165093966
1.89050e-06	-0.007449875871177902
1.89075e-06	-0.007426176577261859
1.89100e-06	-0.0074156526260334985
1.89125e-06	-0.007405424268397487
1.89150e-06	-0.007395195910761477
1.89175e-06	-0.007384967553125457
1.89200e-06	-0.007374739195489446
1.89225e-06	-0.007364510837853427
1.89250e-06	-0.007358911442777263
1.89275e-06	-0.007358365953840701
1.89300e-06	-0.007357820464904141
1.89325e-06	-0.007357274975967581
1.89350e-06	-0.00735672948703102
1.89375e-06	-0.007356183998094459
1.89400e-06	-0.007355638509157898
1.89425e-06	-0.0073577781099084145
1.89450e-06	-0.007362849294373279
1.89475e-06	-0.007367920478838146
1.89500e-06	-0.0073729916633030095
1.89525e-06	-0.007378062847767877
1.89550e-06	-0.00738313403223274
1.89575e-06	-0.0073882052166976036
1.89600e-06	-0.007393883698960635
1.89625e-06	-0.007400225229591622
1.89650e-06	-0.007406566760222613
1.89675e-06	-0.007412504323172325
1.89700e-06	-0.0074180008337872815
1.89725e-06	-0.007423497344402233
