Time(s)	Current(A)
3.00000e-06	-0.0036265438611962145
3.00025e-06	-0.0035961897860818793
3.00050e-06	-0.0035598365888971804
3.00075e-06	-0.0035176867946278357
3.00100e-06	-0.003470092770400484
3.00125e-06	-0.0034174179349387244
3.00150e-06	-0.0033582348216315925
3.00175e-06	-0.0032978624178087532
3.00200e-06	-0.0032302425035055653
3.00225e-06	-0.003161092617247619
3.00250e-06	-0.003086404005806266
3.00275e-06	-0.0030072570025291762
3.00300e-06	-0.0029245321404264214
3.00325e-06	-0.0028387220378835545
3.00350e-06	-0.002749473423273347
3.00375e-06	-0.0026596092931414467
3.00400e-06	-0.002567430992675935
3.00425e-06	-0.002473402095400088
3.00450e-06	-0.002378001197330451
3.00475e-06	-0.002281737335750878
3.00500e-06	-0.0021851779489898754
3.00525e-06	-0.002088895486432086
3.00550e-06	-0.0019934620941369054
3.00575e-06	-0.001899433688268388
3.00600e-06	-0.0018072628076301269
3.00625e-06	-0.001717309563858244
3.00650e-06	-0.0016300258050399728
3.00675e-06	-0.0015459941585359135
3.00700e-06	-0.0014658340383244578
3.00725e-06	-0.0013901674162227265
3.00750e-06	-0.0013196163751267936
3.00775e-06	-0.0012548047687370666
3.00800e-06	-0.0011963273061321572
3.00825e-06	-0.0011446371250471948
3.00850e-06	-0.0010999781763330507
3.00875e-06	-0.0010624743851602085
3.00900e-06	-0.001032226236067333
3.00925e-06	-0.0010093333955255189
3.00950e-06	-0.0009938948624785258
3.00975e-06	-0.000986011203755405
3.01000e-06	-0.0009857646073814254
3.01025e-06	-0.0009931484275097627
3.01050e-06	-0.00100802515553796
3.01075e-06	-0.0010301819176992005
3.01100e-06	-0.0010593914071798385
3.01125e-06	-0.0010954255663645131
3.01150e-06	-0.001138056049267598
3.01175e-06	-0.0011870555063847453
3.01200e-06	-0.0012445722123488173
3.01225e-06	-0.0013036540359138832
3.01250e-06	-0.0013716222254982202
3.01275e-06	-0.0014414663545277632
3.01300e-06	-0.001518786815739782
3.01325e-06	-0.0015976855538781596
3.01350e-06	-0.001682630164143955
3.01375e-06	-0.0017688510767792814
3.01400e-06	-0.0018596578435485286
3.01425e-06	-0.001951432698357419
3.01450e-06	-0.0020456208267031037
3.01475e-06	-0.0021413178954699306
3.01500e-06	-0.0022377619438227513
3.01525e-06	-0.0023343916170795536
3.01550e-06	-0.0024306453683120583
3.01575e-06	-0.0025259623789946365
3.01600e-06	-0.002619777379015051
3.01625e-06	-0.0027115031693517766
3.01650e-06	-0.00280052025155941
3.01675e-06	-0.0028861913232301815
3.01700e-06	-0.0029678750277811407
3.01725e-06	-0.003044929876205416
3.01750e-06	-0.0031142544305810993
3.01775e-06	-0.00318212153640772
3.01800e-06	-0.0032378232674716676
3.01825e-06	-0.003290956850167986
3.01850e-06	-0.003344090432864215
3.01875e-06	-0.0033854492862073465
3.01900e-06	-0.003424322457641153
3.01925e-06	-0.003450478057544768
3.01950e-06	-0.003473948938629343
3.01975e-06	-0.0034974198197139567
3.02000e-06	-0.003510371022355238
3.02025e-06	-0.003516223419025293
3.02050e-06	-0.0035164265428310137
3.02075e-06	-0.003511123989348708
3.02100e-06	-0.003500398567088028
3.02125e-06	-0.00348432780865332
3.02150e-06	-0.003462989438895659
3.02175e-06	-0.003436481409159493
3.02200e-06	-0.0034050528086195402
3.02225e-06	-0.003369140605893466
3.02250e-06	-0.003329155289556283
3.02275e-06	-0.0032853896082021663
3.02300e-06	-0.0032380975778178223
3.02325e-06	-0.0031875299164226493
3.02350e-06	-0.003133937959360131
3.02375e-06	-0.003077585275271182
3.02400e-06	-0.003018829883531003
3.02425e-06	-0.002958147825199225
3.02450e-06	-0.0028959986649987157
3.02475e-06	-0.0028327677692468987
3.02500e-06	-0.0027688163137424017
3.02525e-06	-0.002704503900078009
3.02550e-06	-0.002640189482611248
3.02575e-06	-0.0025762405044678213
3.02600e-06	-0.0025130835245821635
3.02625e-06	-0.002451218522602403
3.02650e-06	-0.0023911351625787395
3.02675e-06	-0.0023332770571054384
3.02700e-06	-0.002278072405188453
3.02725e-06	-0.0022259481776441678
3.02750e-06	-0.002177331193626384
3.02775e-06	-0.0021326361201592483
3.02800e-06	-0.002092168370532139
3.02825e-06	-0.0020560526148962074
3.02850e-06	-0.0020261962779741776
3.02875e-06	-0.001997500599635818
3.02900e-06	-0.001974448517086439
3.02925e-06	-0.0019564521671791117
3.02950e-06	-0.001945217017180899
3.02975e-06	-0.001935236964471328
3.03000e-06	-0.0019332301537481967
3.03025e-06	-0.0019329065191535173
3.03050e-06	-0.0019401778329898424
3.03075e-06	-0.0019490524640110218
3.03100e-06	-0.001965116258621562
3.03125e-06	-0.001982697707977477
3.03150e-06	-0.002007079838289207
3.03175e-06	-0.0020328976134567317
3.03200e-06	-0.0020649985893727656
3.03225e-06	-0.0020984259684667735
3.03250e-06	-0.0021373219988012906
3.03275e-06	-0.0021773724783847328
3.03300e-06	-0.0022220601419859196
3.03325e-06	-0.002267726729524937
3.03350e-06	-0.0023172100880476465
3.03375e-06	-0.002367499178770446
3.03400e-06	-0.0024207034031880296
3.03425e-06	-0.0024745230213758743
3.03450e-06	-0.002530170810096338
3.03475e-06	-0.0025862045312899143
3.03500e-06	-0.0026429685017888213
3.03525e-06	-0.0026998866301824118
3.03550e-06	-0.002756671435450151
3.03575e-06	-0.002812974201199855
3.03600e-06	-0.0028684363844570415
3.03625e-06	-0.0029226814893665207
3.03650e-06	-0.002975322139100555
3.03675e-06	-0.003025974737730741
3.03700e-06	-0.0030742577057432468
3.03725e-06	-0.0031184695080656013
3.03750e-06	-0.0031619115152198276
3.03775e-06	-0.0031995728546475844
3.03800e-06	-0.0032360138771777825
3.03825e-06	-0.0032649831013452438
3.03850e-06	-0.0032923750056894053
3.03875e-06	-0.0033197669100335668
3.03900e-06	-0.0033378642604327386
3.03925e-06	-0.0033539995016481665
3.03950e-06	-0.0033701347428635943
3.03975e-06	-0.0033764412404795295
3.04000e-06	-0.003380672859817729
3.04025e-06	-0.0033849044791559283
3.04050e-06	-0.0033829281303098297
3.04075e-06	-0.003376699884736244
3.04100e-06	-0.003366967196588509
3.04125e-06	-0.0033538003401371087
3.04150e-06	-0.0033372690534962113
3.04175e-06	-0.0033174529498595593
3.04200e-06	-0.0032944991166803635
3.04225e-06	-0.0032686470688568694
3.04250e-06	-0.003240137348109854
3.04275e-06	-0.003209165683565665
3.04300e-06	-0.0031759126940882313
3.04325e-06	-0.003140557274779713
3.04350e-06	-0.0031032782395743184
3.04375e-06	-0.0030642601698091312
3.04400e-06	-0.0030237305818840545
3.04425e-06	-0.002981974437331699
3.04450e-06	-0.0029392771608236948
3.04475e-06	-0.00289589653843473
3.04500e-06	-0.0028520803446604407
3.04525e-06	-0.002808075379982951
3.04550e-06	-0.0027641290216248774
3.04575e-06	-0.0027204916522618485
3.04600e-06	-0.0026774406011332384
3.04625e-06	-0.0026352889402119586
3.04650e-06	-0.0025943507302319153
3.04675e-06	-0.002554921785616902
3.04700e-06	-0.0025172923863570015
3.04725e-06	-0.002481751829863362
3.04750e-06	-0.002448589868535727
3.04775e-06	-0.0024181096415515405
3.04800e-06	-0.0023906895654038887
3.04825e-06	-0.0023667241256982562
3.04850e-06	-0.0023464407156972467
3.04875e-06	-0.0023299054990562995
3.04900e-06	-0.0023171436384780857
3.04925e-06	-0.002309755310375899
3.04950e-06	-0.0023033623629777674
3.04975e-06	-0.002305009399231539
3.05000e-06	-0.002308353700986767
3.05025e-06	-0.0023116980027420003
3.05050e-06	-0.0023232340990046708
3.05075e-06	-0.0023364995085115394
3.05100e-06	-0.0023558949942250025
3.05125e-06	-0.002376584558050729
3.05150e-06	-0.002402927618373292
3.05175e-06	-0.0024304641493522227
3.05200e-06	-0.002463250554762393
3.05225e-06	-0.0024971452249582704
3.05250e-06	-0.002535790985375088
3.05275e-06	-0.0025754397156829054
3.05300e-06	-0.0026190494981651797
3.05325e-06	-0.0026634954710548415
3.05350e-06	-0.002711079103260055
3.05375e-06	-0.0027593251050847915
3.05400e-06	-0.0028099307436009074
3.05425e-06	-0.002861034508745765
3.05450e-06	-0.002913660579833405
3.05475e-06	-0.0029666080144301224
3.05500e-06	-0.0030200579820487765
3.05525e-06	-0.0030736140359479145
3.05550e-06	-0.00312663218342198
3.05575e-06	-0.003179536777180265
3.05600e-06	-0.0032308914775861885
3.05625e-06	-0.003281918990695336
3.05650e-06	-0.0033311412106359762
3.05675e-06	-0.00337839552285626
3.05700e-06	-0.0034234341056529603
3.05725e-06	-0.003465900384231577
3.05750e-06	-0.00350543843103306
3.05775e-06	-0.003541642304430354
3.05800e-06	-0.003573804985552763
3.05825e-06	-0.003601000683182451
3.05850e-06	-0.0036226763930482585
3.05875e-06	-0.003638731054119926
3.05900e-06	-0.0036491853266725004
3.05925e-06	-0.003651784008662511
3.05950e-06	-0.0036529302339212183
3.05975e-06	-0.00364721459569413
3.06000e-06	-0.003635285368678091
3.06025e-06	-0.0036147561941807026
3.06050e-06	-0.003592623895271556
3.06075e-06	-0.0035630619320808016
3.06100e-06	-0.003527268598618751
3.06125e-06	-0.0034860525021066127
3.06150e-06	-0.003439685780982983
3.06175e-06	-0.003388421005101114
3.06200e-06	-0.0033323926024311753
3.06225e-06	-0.0032716494157359406
3.06250e-06	-0.003206386096755629
3.06275e-06	-0.0031369748123418846
3.06300e-06	-0.0030638356211322103
3.06325e-06	-0.002987392082651412
3.06350e-06	-0.0029080679080870525
3.06375e-06	-0.0028262743531715373
3.06400e-06	-0.0027423485198907237
3.06425e-06	-0.002656574155920343
3.06450e-06	-0.0025693263243158275
3.06475e-06	-0.002481091425977371
3.06500e-06	-0.0023923853175573514
3.06525e-06	-0.0023037262394848064
3.06550e-06	-0.002215632472772207
3.06575e-06	-0.0021286146085622115
3.06600e-06	-0.0020431368211475433
3.06625e-06	-0.001959629509560681
3.06650e-06	-0.0018785804191678887
3.06675e-06	-0.0018005470056455927
3.06700e-06	-0.0017261050965993216
3.06725e-06	-0.0016558321675645708
3.06750e-06	-0.0015903053704595421
3.06775e-06	-0.0015299996930067416
3.06800e-06	-0.0014746803294959125
3.06825e-06	-0.0014233383447600436
3.06850e-06	-0.0013753142086037967
3.06875e-06	-0.0013306576749714375
3.06900e-06	-0.0012896299857355204
3.06925e-06	-0.0012525097633451446
3.06950e-06	-0.0012195759741590096
3.06975e-06	-0.0011910430707931787
3.07000e-06	-0.001166681140819557
3.07025e-06	-0.0011457753338834041
3.07050e-06	-0.001127829642608347
3.07075e-06	-0.0011127923693591967
3.07100e-06	-0.0011007444434229699
3.07125e-06	-0.0010917776406571553
3.07150e-06	-0.001085983792458724
3.07175e-06	-0.0010834144748210804
3.07200e-06	-0.0010838426547201945
3.07225e-06	-0.0010867379145521338
3.07250e-06	-0.0010917068070236027
3.07275e-06	-0.0010986340686571063
3.07300e-06	-0.0011074878061451815
3.07325e-06	-0.0011182427221154752
3.07350e-06	-0.001130873534151197
3.07375e-06	-0.0011453298919257403
3.07400e-06	-0.001161386779522698
3.07425e-06	-0.0011786292447223104
3.07450e-06	-0.00119672821102958
3.07475e-06	-0.001215528785107035
3.07500e-06	-0.0012349282332399431
3.07525e-06	-0.0012548281844813299
3.07550e-06	-0.0012751301717608384
3.07575e-06	-0.0012957199434822256
3.07600e-06	-0.0013163739922074902
3.07625e-06	-0.0013367497486582976
3.07650e-06	-0.0013565584371093337
3.07675e-06	-0.0013752413646585335
3.07700e-06	-0.0013937092584825148
3.07725e-06	-0.00141092033913478
3.07750e-06	-0.0014268694954393327
3.07775e-06	-0.0014415823400567927
3.07800e-06	-0.0014556032786554533
3.07825e-06	-0.001470066778434368
3.07850e-06	-0.0014856847498169344
3.07875e-06	-0.0015024851073249812
3.07900e-06	-0.001520627406770705
3.07925e-06	-0.001539010084579109
3.07950e-06	-0.0015584304142565977
3.07975e-06	-0.00157806979546409
3.08000e-06	-0.0015985885133365874
3.08025e-06	-0.001621953749267143
3.08050e-06	-0.0016458807067775145
3.08075e-06	-0.001669807664287926
3.08100e-06	-0.0016967831747420976
3.08125e-06	-0.0017244022441842506
3.08150e-06	-0.0017540501897727798
3.08175e-06	-0.0017841264374127339
3.08200e-06	-0.001814202685052688
3.08225e-06	-0.001847122262223603
3.08250e-06	-0.0018806420750831978
3.08275e-06	-0.0019141618879427926
3.08300e-06	-0.0019497447968714918
3.08325e-06	-0.001985763231783397
3.08350e-06	-0.0020226853546161713
3.08375e-06	-0.00205979824877374
3.08400e-06	-0.0020969111429312457
3.08425e-06	-0.002134739643599355
3.08450e-06	-0.0021727192110228177
3.08475e-06	-0.002210698778446216
3.08500e-06	-0.002248562132705278
3.08525e-06	-0.0022864009540046523
3.08550e-06	-0.00232324797428642
3.08575e-06	-0.0023598856222951216
3.08600e-06	-0.002395013748770598
3.08625e-06	-0.0024298232105653917
3.08650e-06	-0.0024628023871133566
3.08675e-06	-0.0024953951847652435
3.08700e-06	-0.0025254237951768165
3.08725e-06	-0.002554911097703648
3.08750e-06	-0.002580167818103406
3.08775e-06	-0.0026045314494859907
3.08800e-06	-0.0026288950808685753
3.08825e-06	-0.002648563579568555
3.08850e-06	-0.0026672409211872675
3.08875e-06	-0.0026859182628059803
3.08900e-06	-0.002702659237903192
3.08925e-06	-0.0027153912157746748
3.08950e-06	-0.002728123193646158
3.08975e-06	-0.002740855171517641
3.09000e-06	-0.002749493556808137
3.09025e-06	-0.0027572677719997396
3.09050e-06	-0.002762194300067234
3.09075e-06	-0.002766519672544602
3.09100e-06	-0.0027708450450219767
3.09125e-06	-0.002771702670502768
3.09150e-06	-0.002771828243829912
3.09175e-06	-0.0027719538171570557
3.09200e-06	-0.0027693499991976837
3.09225e-06	-0.002766169998266656
3.09250e-06	-0.002761392907404704
3.09275e-06	-0.0027562786659015206
3.09300e-06	-0.002749712384645306
3.09325e-06	-0.002742839573290621
3.09350e-06	-0.002734924111651194
3.09375e-06	-0.0027261279834447667
3.09400e-06	-0.00271662585781075
3.09425e-06	-0.0027065933001427945
3.09450e-06	-0.002696173340780899
3.09475e-06	-0.0026854424866439223
3.09500e-06	-0.002674456772962883
3.09525e-06	-0.002663271026017985
3.09550e-06	-0.002651940001594393
3.09575e-06	-0.0026405241822960645
3.09600e-06	-0.0026291269857897813
3.09625e-06	-0.0026178987013035643
3.09650e-06	-0.0026069695856486457
3.09675e-06	-0.0025966247848006963
3.09700e-06	-0.0025863915287661432
3.09725e-06	-0.002577093649326098
3.09750e-06	-0.002572263787984106
3.09775e-06	-0.007320638576623126
3.09800e-06	-0.022399195689162616
3.09825e-06	-0.020144799130791723
3.09850e-06	-0.016637613819087904
3.09875e-06	-0.010881769188607901
3.09900e-06	0.0010845918372133917
3.09925e-06	0.0015976206893067375
3.09950e-06	0.0007021409568561884
3.09975e-06	-0.0027265420207785223
3.10000e-06	-0.009717347082911543
3.10025e-06	-0.010820198448605888
3.10050e-06	-0.008466909951880534
3.10075e-06	-0.004448562576428402
3.10100e-06	-0.00013385401916747228
3.10125e-06	0.0014230496185908175
3.10150e-06	0.00035100345333954094
3.10175e-06	-0.002524937610846016
3.10200e-06	-0.005930039544527928
3.10225e-06	-0.006791528393733044
3.10250e-06	-0.00537033030015666
3.10275e-06	-0.0028942016464280646
3.10300e-06	-0.00022297803557061815
3.10325e-06	0.0007283235989738856
3.10350e-06	3.898621972509036e-05
3.10375e-06	-0.0017753350371143603
3.10400e-06	-0.003917125200543405
3.10425e-06	-0.004462510210173477
3.10450e-06	-0.0035757669679726796
3.10475e-06	-0.0020266256126408324
3.10500e-06	-0.00035419217087657637
3.10525e-06	0.0002416229400226821
3.10550e-06	-0.00018974722873787064
3.10575e-06	-0.001325492229630556
3.10600e-06	-0.002666241260536185
3.10625e-06	-0.0030071185326893393
3.10650e-06	-0.0024512866632250634
3.10675e-06	-0.0014811156672349735
3.10700e-06	-0.00043445849649317
3.10725e-06	-6.303124348383058e-05
3.10750e-06	-0.00033592010863509525
3.10775e-06	-0.001051070673599512
3.10800e-06	-0.0018963042362350917
3.10825e-06	-0.0021179651314128544
3.10850e-06	-0.0017814039974342864
3.10875e-06	-0.0011888427473205274
3.10900e-06	-0.0005517334039047314
3.10925e-06	-0.0003407382026671107
3.10950e-06	-0.0005362583283127931
3.10975e-06	-0.001011497856166089
3.11000e-06	-0.0015706927179046204
3.11025e-06	-0.0017415677449522818
3.11050e-06	-0.0015648911598219464
3.11075e-06	-0.0012297960060187146
3.11100e-06	-0.000868541963943533
3.11125e-06	-0.0007757375242131171
3.11150e-06	-0.000938879176979892
3.11175e-06	-0.0012783192780284553
3.11200e-06	-0.0016712177166647842
3.11225e-06	-0.0018215470178002278
3.11250e-06	-0.0017546615453847242
3.11275e-06	-0.0015888447647714851
3.11300e-06	-0.0014067451286309124
3.11325e-06	-0.0013926943236090437
3.11350e-06	-0.0015386409335738363
3.11375e-06	-0.0017944772992923746
3.11400e-06	-0.0020830459013785638
3.11425e-06	-0.002218716823734959
3.11450e-06	-0.002217180900639804
3.11475e-06	-0.0021523354385129673
3.11500e-06	-0.0020757506373982886
3.11525e-06	-0.0021026828878457
3.11550e-06	-0.0022278753443049537
3.11575e-06	-0.0024197284618282513
3.11600e-06	-0.0026297026640406825
3.11625e-06	-0.002741318938586658
3.11650e-06	-0.002764209828388517
3.11675e-06	-0.002744465971742728
3.11700e-06	-0.0027141890244875636
3.11725e-06	-0.002745368446845318
3.11750e-06	-0.0028345007822086613
3.11775e-06	-0.0029615406294949873
3.11800e-06	-0.0030956582821121377
3.11825e-06	-0.0031633896671085784
3.11850e-06	-0.003170573557112518
3.11875e-06	-0.003146246190299114
3.11900e-06	-0.00311078821401029
3.11925e-06	-0.003109563263580244
3.11950e-06	-0.0031406444479009283
3.11975e-06	-0.0031917433843507564
3.12000e-06	-0.003243818117555385
3.12025e-06	-0.0032511233031277576
3.12050e-06	-0.003217591001390591
3.12075e-06	-0.003161682721259828
3.12100e-06	-0.0030964370549009046
3.12125e-06	-0.003050539932883192
3.12150e-06	-0.003023053177362764
3.12175e-06	-0.003006548454853951
3.12200e-06	-0.0029893683518724804
3.12225e-06	-0.0029431298915100633
3.12250e-06	-0.0028705692430324786
3.12275e-06	-0.002783523234106052
3.12300e-06	-0.0026904307194110027
3.12325e-06	-0.002609531092265555
3.12350e-06	-0.0025405060721432593
3.12375e-06	-0.002478972309709911
3.12400e-06	-0.0024178980022567455
3.12425e-06	-0.0023397757466251078
3.12450e-06	-0.002246591265364227
3.12475e-06	-0.002146031088574944
3.12500e-06	-0.0020436525138582905
3.12525e-06	-0.0019511506813682015
3.12550e-06	-0.001868596251964175
3.12575e-06	-0.0017935136013298198
3.12600e-06	-0.0017217681591257283
3.12625e-06	-0.0016426640073888268
3.12650e-06	-0.0015577167240474394
3.12675e-06	-0.0014720119363684071
3.12700e-06	-0.0013893014742447773
3.12725e-06	-0.0013171814110396179
3.12750e-06	-0.001255965050355915
3.12775e-06	-0.0012042844832913617
3.12800e-06	-0.0011593115798446993
3.12825e-06	-0.0011135971664316745
3.12850e-06	-0.0010673937961921333
3.12875e-06	-0.0010235714238787913
3.12900e-06	-0.0009843176828797698
3.12925e-06	-0.0009542279813928276
3.12950e-06	-0.000933335288695388
3.12975e-06	-0.0009206197958513808
3.13000e-06	-0.0009141470738104005
3.13025e-06	-0.000909088327691068
3.13050e-06	-0.0009054392000292855
3.13075e-06	-0.0009048350511733907
3.13100e-06	-0.0009084835440309126
3.13125e-06	-0.0009191003216525043
3.13150e-06	-0.0009365431763966555
3.13175e-06	-0.0009600102587293746
3.13200e-06	-0.0009881270791810037
3.13225e-06	-0.001017706155222709
3.13250e-06	-0.0010485823469587204
3.13275e-06	-0.0010816174442499899
3.13300e-06	-0.001117405367633259
3.13325e-06	-0.0011574843082163412
3.13350e-06	-0.001201602446366421
3.13375e-06	-0.0012490948222013047
3.13400e-06	-0.001298937654114187
3.13425e-06	-0.00134897175541023
3.13450e-06	-0.0013989312343872956
3.13475e-06	-0.0014491934787810292
3.13500e-06	-0.001499967853091269
3.13525e-06	-0.0015520553807051901
3.13550e-06	-0.0016051357527787668
3.13575e-06	-0.001658629804768049
3.13600e-06	-0.0017117337448545528
3.13625e-06	-0.001762932566303665
3.13650e-06	-0.001811617382732568
3.13675e-06	-0.00185782134339706
3.13700e-06	-0.0019033162465267692
3.13725e-06	-0.001946078230195257
3.13750e-06	-0.001986626864241872
3.13775e-06	-0.0020246011537256563
3.13800e-06	-0.0020601572058049043
3.13825e-06	-0.0020938859841671785
3.13850e-06	-0.0021273505999856194
3.13875e-06	-0.0021599842594154676
3.13900e-06	-0.0021923237278319452
3.13925e-06	-0.002223737781545174
3.13950e-06	-0.002255151835258456
3.13975e-06	-0.0022861732910690775
3.14000e-06	-0.002315814150383818
3.14025e-06	-0.0023449969104287504
3.14050e-06	-0.002374262651266374
3.14075e-06	-0.002403789418587305
3.14100e-06	-0.0024333675843890277
3.14125e-06	-0.0024631074305540095
3.14150e-06	-0.002492847276718991
3.14175e-06	-0.002522460662589591
3.14200e-06	-0.0025516762517552786
3.14225e-06	-0.002580891840920966
3.14250e-06	-0.0026102082987862624
3.14275e-06	-0.002639842051787902
3.14300e-06	-0.002669475804789592
3.14325e-06	-0.0026989986171985047
3.14350e-06	-0.002728172452068709
3.14375e-06	-0.002757346286938962
3.14400e-06	-0.0027865201218092157
3.14425e-06	-0.00281569395667942
