Time(s)	Current(A)
1.37500e-05	-0.005976314433191916
1.37503e-05	-0.005978372460013906
1.37505e-05	-0.0059804304868358955
1.37508e-05	-0.005982488513657872
1.37510e-05	-0.005984546540479862
1.37513e-05	-0.005986604567301851
1.37515e-05	-0.005988662594123827
1.37518e-05	-0.005990298441277121
1.37520e-05	-0.0059914284460009905
1.37523e-05	-0.005992558450724853
1.37525e-05	-0.005992413598912975
1.37528e-05	-0.00599074125400982
1.37530e-05	-0.005989068909106676
1.37533e-05	-0.005985444453373195
1.37535e-05	-0.00597948103970749
1.37538e-05	-0.0059735176260418245
1.37540e-05	-0.005964607227626888
1.37543e-05	-0.005952165844573029
1.37545e-05	-0.005939724461519255
1.37548e-05	-0.005927283078465396
1.37550e-05	-0.005914841695411536
1.37553e-05	-0.0059024003123577615
1.37555e-05	-0.0058859209656317085
1.37558e-05	-0.0058646034575600475
1.37560e-05	-0.005843285949488531
1.37563e-05	-0.00582196844141687
1.37565e-05	-0.005800650933345209
1.37568e-05	-0.005779333425273692
1.37570e-05	-0.005755128530265981
1.37573e-05	-0.005727464058848316
1.37575e-05	-0.00569979958743065
1.37578e-05	-0.005672135116013172
1.37580e-05	-0.005644470644595507
1.37583e-05	-0.005615505429724835
1.37585e-05	-0.00558498170487105
1.37588e-05	-0.005554457980017058
1.37590e-05	-0.005523934255163065
1.37593e-05	-0.005493410530309279
1.37595e-05	-0.005462743749520009
1.37598e-05	-0.005431905563598698
1.37600e-05	-0.005401320633076117
1.37603e-05	-0.00537130182752756
1.37605e-05	-0.005341905352175587
1.37608e-05	-0.0053132360705897596
1.37610e-05	-0.005285433110892009
1.37613e-05	-0.0052597218491801535
1.37615e-05	-0.005235890002987836
1.37618e-05	-0.0052120581567953565
1.37620e-05	-0.005188226310602877
1.37623e-05	-0.005166515835854037
1.37625e-05	-0.005147347121792658
1.37628e-05	-0.005128178407731278
1.37630e-05	-0.005109009693670029
1.37633e-05	-0.005090930923771836
1.37635e-05	-0.005074158090763803
1.37638e-05	-0.0050573852577558845
1.37640e-05	-0.005040612424747852
1.37643e-05	-0.005023839591739819
1.37645e-05	-0.0050070667587319
1.37648e-05	-0.004990293925723868
1.37650e-05	-0.004975079289050827
1.37653e-05	-0.0049599382048338215
1.37655e-05	-0.004944797120616714
1.37658e-05	-0.004929656036399605
1.37660e-05	-0.004914514952182497
1.37663e-05	-0.004899373867965491
1.37665e-05	-0.0048844886397490855
1.37668e-05	-0.004869909970163121
1.37670e-05	-0.004855331300577255
1.37673e-05	-0.00484075263099129
1.37675e-05	-0.004826173961405325
1.37678e-05	-0.0048115952918194585
1.37680e-05	-0.004797625821792818
1.37683e-05	-0.004783685108170464
1.37685e-05	-0.004769744394548205
1.37688e-05	-0.004755803680925852
1.37690e-05	-0.004741862967303499
1.37693e-05	-0.004728176452733153
1.37695e-05	-0.004714794511489147
1.37698e-05	-0.004701701732619812
1.37700e-05	-0.004688955419033067
1.37703e-05	-0.004676580356040817
1.37705e-05	-0.004664650113859993
1.37708e-05	-0.004653039645015919
1.37710e-05	-0.004641812318548285
1.37713e-05	-0.004630871506448221
1.37715e-05	-0.00462051040094509
1.37718e-05	-0.004610702232407623
1.37720e-05	-0.004601521804382539
1.37723e-05	-0.00459313683058576
1.37725e-05	-0.00458596648252375
1.37728e-05	-0.004580545674500062
1.37730e-05	-0.004577170465527948
1.37733e-05	-0.0045758630671344684
1.37735e-05	-0.004576565737320022
1.37738e-05	-0.004579220945925529
1.37740e-05	-0.004584211621311997
1.37743e-05	-0.004590745780495521
1.37745e-05	-0.004599263932514129
1.37748e-05	-0.0046101592424838385
1.37750e-05	-0.004623642573360193
1.37753e-05	-0.004640226789666801
1.37755e-05	-0.004656811005973295
1.37758e-05	-0.004676849085015324
1.37760e-05	-0.004701025473994282
1.37763e-05	-0.004725201862973077
1.37765e-05	-0.004749378251952035
1.37768e-05	-0.0047735546409309925
1.37770e-05	-0.004801231864760274
1.37773e-05	-0.004833103679041023
1.37775e-05	-0.004864975493321771
1.37778e-05	-0.004896847307602303
1.37780e-05	-0.004928719121883052
1.37783e-05	-0.0049622371774592725
1.37785e-05	-0.00499772770769162
1.37788e-05	-0.005033218237924209
1.37790e-05	-0.005069224811779226
1.37793e-05	-0.0051058496929074475
1.37795e-05	-0.005142474574035918
1.37798e-05	-0.005178738266996807
1.37800e-05	-0.005214569195630174
1.37803e-05	-0.005250400124263785
1.37805e-05	-0.005285345065030617
1.37808e-05	-0.005319228442940047
1.37810e-05	-0.005351631973258744
1.37813e-05	-0.005382262396635702
1.37815e-05	-0.005412892820012452
1.37818e-05	-0.005437452937805369
1.37820e-05	-0.005454739805950438
1.37823e-05	-0.0054720266740953885
1.37825e-05	-0.005489313542240457
1.37828e-05	-0.005506600410385526
1.37830e-05	-0.005523887278530594
1.37833e-05	-0.005541174146675546
1.37835e-05	-0.005558461014820614
1.37838e-05	-0.005575747882965683
1.37840e-05	-0.005593034751110634
1.37843e-05	-0.005610321619255703
1.37845e-05	-0.005627608487400771
1.37848e-05	-0.005644895355545723
1.37850e-05	-0.005662182223690791
1.37853e-05	-0.00567946909183586
1.37855e-05	-0.005691009389152432
1.37858e-05	-0.005695664325644874
1.37860e-05	-0.005700319262137318
1.37863e-05	-0.00570497419862973
1.37865e-05	-0.005709629135122172
1.37868e-05	-0.005714284071614615
1.37870e-05	-0.005718939008107027
1.37873e-05	-0.00572359394459947
1.37875e-05	-0.005728248881091913
1.37878e-05	-0.005732903817584325
1.37880e-05	-0.005737558754076767
1.37883e-05	-0.005742213690569211
1.37885e-05	-0.005746868627061623
1.37888e-05	-0.005751523563554065
1.37890e-05	-0.005756178500046508
1.37893e-05	-0.005758988350823584
1.37895e-05	-0.005759587477799854
1.37898e-05	-0.005760186604776125
1.37900e-05	-0.005760785731752391
1.37903e-05	-0.0057613848587286616
1.37905e-05	-0.005761983985704933
1.37908e-05	-0.005762583112681199
1.37910e-05	-0.005762373143286122
1.37913e-05	-0.005762124981640086
1.37915e-05	-0.005761876819994049
1.37918e-05	-0.0057616286583480145
1.37920e-05	-0.005761380496701978
1.37923e-05	-0.005761132335055942
1.37925e-05	-0.00575971834862695
1.37928e-05	-0.005756907507529399
1.37930e-05	-0.005754096666431847
1.37933e-05	-0.005751285825334315
1.37935e-05	-0.005748474984236764
1.37938e-05	-0.0057456641431392124
1.37940e-05	-0.005742853302041681
1.37943e-05	-0.005740042460944129
1.37945e-05	-0.005737231619846578
1.37948e-05	-0.005730019841615693
1.37950e-05	-0.005722600323365817
1.37953e-05	-0.00571518080511594
1.37955e-05	-0.005707761286866115
1.37958e-05	-0.005700341768616238
1.37960e-05	-0.005692922250366362
1.37963e-05	-0.005685502732116535
1.37965e-05	-0.005678083213866659
1.37968e-05	-0.005668983899606691
1.37970e-05	-0.0056578719064832635
1.37973e-05	-0.00564675991335976
1.37975e-05	-0.005635647920236257
1.37978e-05	-0.005624535927112828
1.37980e-05	-0.005613423933989325
1.37983e-05	-0.005602311940865822
1.37985e-05	-0.005591199947742394
1.37988e-05	-0.005580087954618891
1.37990e-05	-0.00556825700661846
1.37993e-05	-0.005556392121368982
1.37995e-05	-0.005544527236119423
1.37998e-05	-0.005532662350869864
1.38000e-05	-0.005520797465620306
1.38003e-05	-0.005508932580370828
1.38005e-05	-0.005497067695121269
1.38008e-05	-0.00548520280987171
1.38010e-05	-0.005474021600593074
1.38013e-05	-0.005463659550407473
1.38015e-05	-0.005453297500221873
1.38018e-05	-0.005443557272715225
1.38020e-05	-0.005434562093628302
1.38023e-05	-0.005426403472942097
1.38025e-05	-0.0054192471902788
1.38028e-05	-0.0054139234697506
1.38030e-05	-0.00541079546766331
1.38033e-05	-0.005407667465576042
1.38035e-05	-0.005406790551971628
1.38038e-05	-0.005408610821943718
1.38040e-05	-0.0054104310919157956
1.38043e-05	-0.005415825430021014
1.38045e-05	-0.005425502104401912
1.38048e-05	-0.0054351787787827455
1.38050e-05	-0.005444855453163644
1.38053e-05	-0.005454532127544542
1.38055e-05	-0.005464208801925375
1.38058e-05	-0.005478335187424689
1.38060e-05	-0.005497793077145508
1.38063e-05	-0.005517250966866195
1.38065e-05	-0.005536708856587015
1.38068e-05	-0.0055561667463078345
1.38070e-05	-0.005575624636028522
1.38073e-05	-0.005598386466895922
1.38075e-05	-0.005625106976361175
1.38078e-05	-0.005651827485826245
1.38080e-05	-0.005678547995291497
1.38083e-05	-0.005705268504756748
1.38085e-05	-0.005731989014221819
1.38088e-05	-0.00575870952368707
1.38090e-05	-0.005786243016724121
1.38093e-05	-0.005814750601163978
1.38095e-05	-0.0058432581856036414
1.38098e-05	-0.005871765770043498
1.38100e-05	-0.005900273354483355
1.38103e-05	-0.005928780938923018
1.38105e-05	-0.0059572885233628746
1.38108e-05	-0.00598440786612638
1.38110e-05	-0.006009863861278601
1.38113e-05	-0.0060353198564309955
1.38115e-05	-0.006058906641030271
1.38118e-05	-0.006080253796203746
1.38120e-05	-0.006101600951377365
1.38123e-05	-0.00611860175504743
1.38125e-05	-0.006130394896741813
1.38128e-05	-0.006142188038436275
1.38130e-05	-0.006153981180130737
1.38133e-05	-0.006165774321825119
1.38135e-05	-0.006177567463519581
1.38138e-05	-0.006189360605214044
1.38140e-05	-0.006201153746908427
1.38143e-05	-0.006212946888602889
1.38145e-05	-0.006224740030297351
1.38148e-05	-0.006224504628503278
1.38150e-05	-0.006223701436308138
1.38153e-05	-0.006222898244112998
1.38155e-05	-0.006222095051917864
1.38158e-05	-0.006221291859722723
1.38160e-05	-0.006220488667527583
1.38163e-05	-0.006219685475332449
1.38165e-05	-0.006218882283137309
1.38168e-05	-0.006218079090942168
1.38170e-05	-0.006213508838282968
1.38173e-05	-0.006204425011992034
1.38175e-05	-0.0061953411857011
1.38178e-05	-0.006186257359410166
1.38180e-05	-0.006177173533119295
1.38183e-05	-0.0061680897068283605
1.38185e-05	-0.006159005880537427
1.38188e-05	-0.006149922054246555
1.38190e-05	-0.0061408382279556206
1.38193e-05	-0.006131754401664687
1.38195e-05	-0.006120798884035398
1.38198e-05	-0.0061097550158607196
1.38200e-05	-0.006098711147686041
1.38203e-05	-0.006087667279511437
1.38205e-05	-0.006076623411336759
1.38208e-05	-0.006065579543162081
1.38210e-05	-0.006054535674987477
1.38213e-05	-0.006043491806812799
1.38215e-05	-0.00603244793863812
1.38218e-05	-0.006023379841442223
1.38220e-05	-0.006016679051030506
1.38223e-05	-0.006009978260618789
1.38225e-05	-0.006003277470207117
1.38228e-05	-0.0059965766797954
1.38230e-05	-0.0059898758893836826
1.38233e-05	-0.005983175098972011
1.38235e-05	-0.0059764743085602935
1.38238e-05	-0.005969773518148576
1.38240e-05	-0.005963072727736904
1.38243e-05	-0.005956371937325187
1.38245e-05	-0.00594967114691347
1.38248e-05	-0.005942970356501798
1.38250e-05	-0.005936269566090081
1.38253e-05	-0.005929568775678364
1.38255e-05	-0.005922867985266692
1.38258e-05	-0.005916167194854975
1.38260e-05	-0.005909466404443258
1.38263e-05	-0.005902765614031541
1.38265e-05	-0.005898370864483778
1.38268e-05	-0.005894084968337158
1.38270e-05	-0.0058897990721905385
1.38273e-05	-0.005885513176043948
1.38275e-05	-0.0058812272798973286
1.38278e-05	-0.005876941383750708
1.38280e-05	-0.005872655487604118
1.38283e-05	-0.0058683695914574984
1.38285e-05	-0.005864083695310879
1.38288e-05	-0.0058597977991642885
1.38290e-05	-0.005855511903017668
1.38293e-05	-0.005851226006871049
1.38295e-05	-0.005846940110724458
1.38298e-05	-0.005842654214577838
1.38300e-05	-0.005838368318431219
1.38303e-05	-0.005834082422284628
1.38305e-05	-0.005829796526138009
1.38308e-05	-0.005825510629991389
1.38310e-05	-0.0058220491002797465
1.38313e-05	-0.0058195753005609915
1.38315e-05	-0.005817101500842237
1.38318e-05	-0.0058146277011235
1.38320e-05	-0.005812153901404745
1.38323e-05	-0.005809680101685991
1.38325e-05	-0.005807206301967252
1.38328e-05	-0.005804732502248498
1.38330e-05	-0.005802258702529743
1.38333e-05	-0.005802386775734433
1.38335e-05	-0.005805632331426687
1.38338e-05	-0.00580887788711894
1.38340e-05	-0.005812123442811172
1.38343e-05	-0.005815368998503426
1.38345e-05	-0.0058186145541956795
1.38348e-05	-0.005821860109887934
1.38350e-05	-0.005825105665580165
1.38353e-05	-0.0058283512212724195
1.38355e-05	-0.005834787802043634
1.38358e-05	-0.0058450477689269585
1.38360e-05	-0.005855307735810353
1.38363e-05	-0.005865567702693747
1.38365e-05	-0.005875827669577073
1.38368e-05	-0.005886087636460467
1.38370e-05	-0.0058963476033438616
1.38373e-05	-0.005906607570227186
1.38375e-05	-0.005916867537110581
1.38378e-05	-0.005928851321303649
1.38380e-05	-0.0059429005293022
1.38383e-05	-0.005956949737300847
1.38385e-05	-0.005970998945299494
1.38388e-05	-0.005985048153298045
1.38390e-05	-0.0059990973612966915
1.38393e-05	-0.006013146569295339
1.38395e-05	-0.00602719577729389
1.38398e-05	-0.006041244985292536
1.38400e-05	-0.006054957503736622
1.38403e-05	-0.006068266611321919
1.38405e-05	-0.006081575718907306
1.38408e-05	-0.006094884826492693
1.38410e-05	-0.006108193934077989
1.38413e-05	-0.006121503041663376
1.38415e-05	-0.00613110528918504
1.38418e-05	-0.006140532559613676
1.38420e-05	-0.006149959830042378
1.38423e-05	-0.006159387100471078
1.38425e-05	-0.006168814370899715
1.38428e-05	-0.00617489973441074
1.38430e-05	-0.006176980929924156
1.38433e-05	-0.0061790621254375734
1.38435e-05	-0.00617814097520436
1.38438e-05	-0.0061736225085131735
1.38440e-05	-0.006169104041821988
1.38443e-05	-0.006159828659885692
1.38445e-05	-0.006144853691377806
1.38448e-05	-0.00612987872286992
1.38450e-05	-0.006114903754362136
1.38453e-05	-0.00609992878585425
1.38455e-05	-0.006084953817346364
1.38458e-05	-0.006064076758793631
1.38460e-05	-0.006036128001160064
1.38463e-05	-0.006008179243526497
1.38465e-05	-0.00598023048589312
1.38468e-05	-0.005952281728259553
1.38470e-05	-0.005924332970625986
1.38473e-05	-0.005892420400586206
1.38475e-05	-0.005855758514907438
1.38478e-05	-0.00581909662922867
1.38480e-05	-0.00578243474355015
1.38483e-05	-0.005745772857871382
1.38485e-05	-0.005707451413188627
1.38488e-05	-0.005667141536985364
1.38490e-05	-0.0056268316607818265
1.38493e-05	-0.00558652178457829
1.38495e-05	-0.005546211908375026
1.38498e-05	-0.005505938320460661
1.38500e-05	-0.00546570821203564
1.38503e-05	-0.005425908245882712
1.38505e-05	-0.005387015991432134
1.38508e-05	-0.005349069183188016
1.38510e-05	-0.005312274933881029
1.38513e-05	-0.0052794256276431665
1.38515e-05	-0.005250466090097327
1.38518e-05	-0.005221506552551486
1.38520e-05	-0.0051925470150058425
1.38523e-05	-0.005163587477460003
1.38525e-05	-0.005134627939914163
1.38528e-05	-0.005105668402368519
1.38530e-05	-0.00507670886482268
1.38533e-05	-0.00505366452159277
1.38535e-05	-0.0050308993967553665
1.38538e-05	-0.0050081342719178095
1.38540e-05	-0.0049853691470802515
1.38543e-05	-0.004962604022242849
1.38545e-05	-0.004939838897405291
1.38548e-05	-0.004917073772567734
1.38550e-05	-0.00489458929924934
1.38553e-05	-0.004872441093773966
1.38555e-05	-0.004850292888298593
1.38558e-05	-0.0048281446828233685
1.38560e-05	-0.004805996477347995
1.38563e-05	-0.004783848271872621
1.38565e-05	-0.004761742350587087
1.38568e-05	-0.004739638425266852
1.38570e-05	-0.004717534499946617
1.38573e-05	-0.004695430574626532
1.38575e-05	-0.0046733266493062964
1.38578e-05	-0.004651297606416872
1.38580e-05	-0.004629358285306375
1.38583e-05	-0.004607418964195729
1.38585e-05	-0.004585689859541296
1.38588e-05	-0.0045642126296482335
1.38590e-05	-0.004542813145243197
1.38593e-05	-0.004521506813042432
1.38595e-05	-0.0045004975872373395
1.38598e-05	-0.004479844344992023
1.38600e-05	-0.0044595621415001955
1.38603e-05	-0.004440017480504066
1.38605e-05	-0.0044210878069107
1.38608e-05	-0.004402717586905603
1.38610e-05	-0.004384915416867955
1.38613e-05	-0.004367776479019121
1.38615e-05	-0.0043514222689747025
1.38618e-05	-0.0043359750018326605
1.38620e-05	-0.004321557146511651
1.38623e-05	-0.00430838988963436
1.38625e-05	-0.00429696141035752
1.38628e-05	-0.004287871763885759
1.38630e-05	-0.004281452385911681
1.38633e-05	-0.004277735388910455
1.38635e-05	-0.004276665824850171
1.38638e-05	-0.004278188533858347
1.38640e-05	-0.0042828381841418
1.38643e-05	-0.004289561168977283
1.38645e-05	-0.004298880048123459
1.38648e-05	-0.0043113092463736334
1.38650e-05	-0.00432707087327978
1.38653e-05	-0.004346825311630378
1.38655e-05	-0.004366579749980976
1.38658e-05	-0.00439083581450734
1.38660e-05	-0.004420485586257314
1.38663e-05	-0.004450135358007286
1.38665e-05	-0.004479785129757059
1.38668e-05	-0.004509434901507032
1.38670e-05	-0.004543619671383526
1.38673e-05	-0.004583238133707399
1.38675e-05	-0.004622856596031542
1.38678e-05	-0.004662475058355684
1.38680e-05	-0.004702093520679558
1.38683e-05	-0.0047438778409627505
1.38685e-05	-0.004788257224288327
1.38688e-05	-0.004832636607613904
1.38690e-05	-0.004877702283763374
1.38693e-05	-0.0049235902544393995
1.38695e-05	-0.004969478225115424
1.38698e-05	-0.0050149574847235
1.38700e-05	-0.005059947039555878
1.38703e-05	-0.005104936594388257
1.38705e-05	-0.005148842090424497
1.38708e-05	-0.005191448701229293
1.38710e-05	-0.005232668815521829
1.38713e-05	-0.005272227673200928
1.38715e-05	-0.005309250587450499
1.38718e-05	-0.005343235013859505
1.38720e-05	-0.00537721944026828
1.38723e-05	-0.005405466616841661
1.38725e-05	-0.005426839600694703
1.38728e-05	-0.0054482125845476
1.38730e-05	-0.0054695855684006416
1.38733e-05	-0.005490958552253683
1.38735e-05	-0.00551233153610658
1.38738e-05	-0.005533704519959621
1.38740e-05	-0.005555077503812663
1.38743e-05	-0.005560995495061886
1.38745e-05	-0.005566183955213245
1.38748e-05	-0.0055713724153646045
1.38750e-05	-0.005576560875515928
1.38753e-05	-0.005581749335667288
1.38755e-05	-0.005586937795818646
1.38758e-05	-0.00559212625596997
1.38760e-05	-0.0055915272035807085
1.38763e-05	-0.005583993735274637
1.38765e-05	-0.005576460266968616
1.38768e-05	-0.005568926798662544
1.38770e-05	-0.005561393330356472
1.38773e-05	-0.0055538598620504
1.38775e-05	-0.005546326393744379
1.38778e-05	-0.005535426990666519
1.38780e-05	-0.005520494630166408
1.38783e-05	-0.005505562269666397
1.38785e-05	-0.005490629909166285
1.38788e-05	-0.005475697548666173
1.38790e-05	-0.005460765188166163
1.38793e-05	-0.005445832827666051
1.38795e-05	-0.005429941535531898
1.38798e-05	-0.0054129012816047034
1.38800e-05	-0.0053958610276773926
1.38803e-05	-0.005378907628382621
1.38805e-05	-0.0053620582955832205
1.38808e-05	-0.005345208962783706
1.38810e-05	-0.005329497609265576
1.38813e-05	-0.005315149746813405
1.38815e-05	-0.005300801884361136
1.38818e-05	-0.005286454021908868
1.38820e-05	-0.0052721061594566965
1.38823e-05	-0.005258761828139157
1.38825e-05	-0.005246619896337123
1.38828e-05	-0.005234477964535171
1.38830e-05	-0.005222336032733137
1.38833e-05	-0.005210194100931102
1.38835e-05	-0.00519758331148076
1.38838e-05	-0.00518441075150844
1.38840e-05	-0.005171238191536119
1.38843e-05	-0.005158065631563889
1.38845e-05	-0.005144893071591568
1.38848e-05	-0.005131720511619248
1.38850e-05	-0.005118547951647017
1.38853e-05	-0.005104260807662143
1.38855e-05	-0.005088638204088174
1.38858e-05	-0.0050730156005142045
1.38860e-05	-0.005057392996940341
1.38863e-05	-0.005041770393366372
1.38865e-05	-0.0050261477897924015
1.38868e-05	-0.005010525186218538
1.38870e-05	-0.004993930963079846
1.38873e-05	-0.004976172575867276
1.38875e-05	-0.0049584141886548265
1.38878e-05	-0.004940655801442257
1.38880e-05	-0.004922897414229687
1.38883e-05	-0.004905139027017238
1.38885e-05	-0.004887380639804667
1.38888e-05	-0.004869503627995251
1.38890e-05	-0.004851621016679388
1.38893e-05	-0.004833738405363404
1.38895e-05	-0.004815855794047421
1.38898e-05	-0.004797973182731558
1.38900e-05	-0.004780090571415574
1.38903e-05	-0.004762879766287843
1.38905e-05	-0.004746473898254387
1.38908e-05	-0.0047300680302208185
1.38910e-05	-0.004714413066384171
1.38913e-05	-0.00469965781239378
1.38915e-05	-0.004684902558403289
1.38918e-05	-0.004672381622180949
1.38920e-05	-0.004662537775397974
1.38923e-05	-0.004652693928614932
1.38925e-05	-0.00464285008183189
1.38928e-05	-0.004633006235048915
1.38930e-05	-0.004623162388265873
1.38933e-05	-0.004613318541482831
1.38935e-05	-0.0046034746946998556
1.38938e-05	-0.004593630847916814
1.38940e-05	-0.004583787001133772
1.38943e-05	-0.004576587009364467
1.38945e-05	-0.004572554801711567
1.38948e-05	-0.004568522594058641
1.38950e-05	-0.004564490386405715
1.38953e-05	-0.004560458178752815
1.38955e-05	-0.004556425971099889
1.38958e-05	-0.004552393763446963
1.38960e-05	-0.0045483615557940634
1.38963e-05	-0.004544329348141137
1.38965e-05	-0.004540297140488211
