Time(s)	Current(A)
1.42500e-05	0.014104254922803495
1.42503e-05	0.014049615469114237
1.42505e-05	0.013994976015425351
1.42508e-05	0.013940336561736093
1.42510e-05	0.013885697108046836
1.42513e-05	0.013829045936202895
1.42515e-05	0.013751524259384366
1.42518e-05	0.013674002582565835
1.42520e-05	0.013596480905747832
1.42523e-05	0.013518959228929301
1.42525e-05	0.013441437552110773
1.42528e-05	0.013363915875292242
1.42530e-05	0.013286394198474237
1.42533e-05	0.01320635690557475
1.42535e-05	0.013124556360319407
1.42538e-05	0.013042755815064618
1.42540e-05	0.012963064027441686
1.42543e-05	0.012884850315862045
1.42545e-05	0.012806636604282934
1.42548e-05	0.01273300579941519
1.42550e-05	0.012662587257785081
1.42553e-05	0.01259216871615545
1.42555e-05	0.012533321420804811
1.42558e-05	0.01248258467436448
1.42560e-05	0.012431847927924494
1.42563e-05	0.012381111181484163
1.42565e-05	0.01233037443504383
1.42568e-05	0.012279637688603844
1.42570e-05	0.012246704558292926
1.42573e-05	0.01222625038624791
1.42575e-05	0.012205796214203033
1.42578e-05	0.012185342042158017
1.42580e-05	0.012164887870113002
1.42583e-05	0.012144433698068125
1.42585e-05	0.012145375275901696
1.42588e-05	0.012161313620002818
1.42590e-05	0.012177251964103833
1.42593e-05	0.012193190308204958
1.42595e-05	0.01220912865230608
1.42598e-05	0.012225066996407095
1.42600e-05	0.012241005340508218
1.42603e-05	0.01225694368460934
1.42605e-05	0.012272882028710356
1.42608e-05	0.01230648035104379
1.42610e-05	0.0123524569525849
1.42613e-05	0.0123984335541257
1.42615e-05	0.012444410155666812
1.42618e-05	0.012490386757207924
1.42620e-05	0.012536363358749036
1.42623e-05	0.012582339960289835
1.42625e-05	0.012628316561830947
1.42628e-05	0.012674293163372059
1.42630e-05	0.012723913884508114
1.42633e-05	0.012776088851704366
1.42635e-05	0.01282826381890062
1.42638e-05	0.012880438786096519
1.42640e-05	0.012932613753292771
1.42643e-05	0.012984788720489023
1.42645e-05	0.013036963687684923
1.42648e-05	0.013089138654881175
1.42650e-05	0.013141313622077428
1.42653e-05	0.013179022835573588
1.42655e-05	0.013206592674269664
1.42658e-05	0.013234162512965742
1.42660e-05	0.01326173235166163
1.42663e-05	0.013289302190357708
1.42665e-05	0.013316872029053784
1.42668e-05	0.013344441867749674
1.42670e-05	0.01337201170644575
1.42673e-05	0.013399581545141828
1.42675e-05	0.0134030556154245
1.42678e-05	0.013389640415218522
1.42680e-05	0.013376225215012544
1.42683e-05	0.013362810014806659
1.42685e-05	0.01334939481460068
1.42688e-05	0.013335979614394703
1.42690e-05	0.013319541944414006
1.42693e-05	0.013271747759408254
1.42695e-05	0.013223953574402503
1.42698e-05	0.013176159389397075
1.42700e-05	0.013128365204391325
1.42703e-05	0.013080571019385572
1.42705e-05	0.013032776834379822
1.42708e-05	0.0129730312912571
1.42710e-05	0.012904908770214276
1.42713e-05	0.012836786249171452
1.42715e-05	0.012763540034775752
1.42718e-05	0.012686702507520534
1.42720e-05	0.012609864980265317
1.42723e-05	0.012529761561625177
1.42725e-05	0.012447369005653236
1.42728e-05	0.012364976449681295
1.42730e-05	0.012281501407859526
1.42733e-05	0.01219726762715757
1.42735e-05	0.012113033846455616
1.42738e-05	0.012030219288477638
1.42740e-05	0.011948399495889085
1.42743e-05	0.011866579703300533
1.42745e-05	0.011788598893578249
1.42748e-05	0.011713308914001184
1.42750e-05	0.01163801893442412
1.42753e-05	0.01157534349494709
1.42755e-05	0.011521509872680824
1.42758e-05	0.01146767625041456
1.42760e-05	0.01141384262814866
1.42763e-05	0.011360009005882396
1.42765e-05	0.011306175383616132
1.42768e-05	0.011252341761350232
1.42770e-05	0.011198508139083968
1.42773e-05	0.011146906221849395
1.42775e-05	0.011118457056379127
1.42778e-05	0.011090007890908667
1.42780e-05	0.011061558725438209
1.42783e-05	0.011033109559967941
1.42785e-05	0.011004660394497481
1.42788e-05	0.010976211229027021
1.42790e-05	0.01094776206355656
1.42793e-05	0.010919312898086293
1.42795e-05	0.010902809756349495
1.42798e-05	0.010894679853544594
1.42800e-05	0.010886549950739748
1.42803e-05	0.010878420047934849
1.42805e-05	0.010870290145129947
1.42808e-05	0.010862160242325102
1.42810e-05	0.010854030339520203
1.42813e-05	0.010845900436715301
1.42815e-05	0.010837770533910456
1.42818e-05	0.010829640631105556
1.42820e-05	0.010821510728300655
1.42823e-05	0.01081338082549581
1.42825e-05	0.010811333129795715
1.42828e-05	0.010813548590980299
1.42830e-05	0.010815764052164868
1.42833e-05	0.010817979513349452
1.42835e-05	0.010820194974534035
1.42838e-05	0.010822410435718603
1.42840e-05	0.010824625896903186
1.42843e-05	0.010826841358087771
1.42845e-05	0.01082905681927234
1.42848e-05	0.010831272280456923
1.42850e-05	0.010833487741641506
1.42853e-05	0.010835703202826076
1.42855e-05	0.010837872944451479
1.42858e-05	0.01084001064020108
1.42860e-05	0.010842148335950666
1.42863e-05	0.010847859822870941
1.42865e-05	0.010856076261065058
1.42868e-05	0.010864292699259119
1.42870e-05	0.010883238385106494
1.42873e-05	0.010909704443939752
1.42875e-05	0.010936170502773011
1.42878e-05	0.01096263656160609
1.42880e-05	0.010989102620439348
1.42883e-05	0.011015568679272607
1.42885e-05	0.011042034738105685
1.42888e-05	0.01108457773379988
1.42890e-05	0.01113838941911508
1.42893e-05	0.011192201104429917
1.42895e-05	0.011246012789745116
1.42898e-05	0.011299824475060316
1.42900e-05	0.011353636160375153
1.42903e-05	0.011407447845690352
1.42905e-05	0.011475706932288998
1.42908e-05	0.011554092530069598
1.42910e-05	0.011632478127850728
1.42913e-05	0.01171086372563186
1.42915e-05	0.01178924932341246
1.42918e-05	0.011867634921193592
1.42920e-05	0.011946020518974722
1.42923e-05	0.012024406116755322
1.42925e-05	0.012102791714536454
1.42928e-05	0.01218132043566204
1.42930e-05	0.012261333985303057
1.42933e-05	0.012341347534944615
1.42935e-05	0.012421361084586174
1.42938e-05	0.01250137463422719
1.42940e-05	0.01258138818386875
1.42943e-05	0.012661401733510309
1.42945e-05	0.012741415283151326
1.42948e-05	0.012821428832792884
1.42950e-05	0.012901442382434444
1.42953e-05	0.01296605561628577
1.42955e-05	0.013019874419566424
1.42958e-05	0.013073693222847077
1.42960e-05	0.01312751202612773
1.42963e-05	0.013181330829408016
1.42965e-05	0.013235149632688669
1.42968e-05	0.013267591667473724
1.42970e-05	0.013285050240457367
1.42973e-05	0.01330250881344113
1.42975e-05	0.01331996738642489
1.42978e-05	0.013337425959408533
1.42980e-05	0.013354884532392294
1.42983e-05	0.013347733702010518
1.42985e-05	0.013323333582740063
1.42988e-05	0.01329893346346944
1.42990e-05	0.01327453334419882
1.42993e-05	0.013250133224928365
1.42995e-05	0.013225733105657745
1.42998e-05	0.013201332986387123
1.43000e-05	0.01315534815089204
1.43003e-05	0.013094234098315302
1.43005e-05	0.013033120045738564
1.43008e-05	0.012972005993162242
1.43010e-05	0.012910891940585504
1.43013e-05	0.012849777888008767
1.43015e-05	0.012788663835432444
1.43018e-05	0.012717302604739253
1.43020e-05	0.012638758894527341
1.43023e-05	0.01256021518431596
1.43025e-05	0.012478606347251049
1.43028e-05	0.01239484909326644
1.43030e-05	0.012311091839282397
1.43033e-05	0.012226765326595012
1.43035e-05	0.01214203980757366
1.43038e-05	0.01205731428855288
1.43040e-05	0.011974575790851514
1.43043e-05	0.01189323004145344
1.43045e-05	0.01181188429205537
1.43048e-05	0.01173530140739246
1.43050e-05	0.011662056922630108
1.43053e-05	0.011588812437867758
1.43055e-05	0.011523206678494293
1.43058e-05	0.011462955074970404
1.43060e-05	0.011402703471446512
1.43063e-05	0.011358452520275442
1.43065e-05	0.01132541678918901
1.43068e-05	0.011292381058102577
1.43070e-05	0.011259345327016368
1.43073e-05	0.011226309595929934
1.43075e-05	0.0111932738648435
1.43078e-05	0.01116373477990478
1.43080e-05	0.011170471537568373
1.43083e-05	0.011177208295231967
1.43085e-05	0.011183945052895515
1.43088e-05	0.01119068181055911
1.43090e-05	0.011197418568222704
1.43093e-05	0.011204155325886252
1.43095e-05	0.011234766037564013
1.43098e-05	0.011282110545006593
1.43100e-05	0.011329455052448853
1.43103e-05	0.011376799559891434
1.43105e-05	0.011424144067334014
1.43108e-05	0.011471488574776274
1.43110e-05	0.011518833082218854
1.43113e-05	0.011566177589661435
1.43115e-05	0.011613522097103694
1.43118e-05	0.011675292570358858
1.43120e-05	0.011747174530194547
1.43123e-05	0.011819056490029747
1.43125e-05	0.011890938449865435
1.43128e-05	0.011962820409701124
1.43130e-05	0.012034702369536812
1.43133e-05	0.012106584329372014
1.43135e-05	0.012178466289207702
1.43138e-05	0.01225034824904339
1.43140e-05	0.012321803127966652
1.43143e-05	0.01239295865619414
1.43145e-05	0.012464114184421629
1.43148e-05	0.012526565489179148
1.43150e-05	0.0125829158063181
1.43153e-05	0.01263926612345705
1.43155e-05	0.012695616440595619
1.43158e-05	0.01275196675773457
1.43160e-05	0.01280831707487352
1.43163e-05	0.012861898682129332
1.43165e-05	0.0128867563980478
1.43168e-05	0.012911614113966267
1.43170e-05	0.012936471829884567
1.43173e-05	0.012961329545803034
1.43175e-05	0.012986187261721502
1.43178e-05	0.0130110449776398
1.43180e-05	0.013013093140209462
1.43183e-05	0.012999153569573893
1.43185e-05	0.012985213998938419
1.43188e-05	0.01297127442830285
1.43190e-05	0.01295733485766728
1.43193e-05	0.012943395287031806
1.43195e-05	0.012929455716396237
1.43198e-05	0.012915516145760668
1.43200e-05	0.01288147892765466
1.43203e-05	0.012833354812671794
1.43205e-05	0.012785230697688929
1.43208e-05	0.01273710658270639
1.43210e-05	0.012688982467723525
1.43213e-05	0.01264085835274066
1.43215e-05	0.012592734237757794
1.43218e-05	0.012544610122775255
1.43220e-05	0.01248784339130654
1.43223e-05	0.012425018853949846
1.43225e-05	0.012362194316593578
1.43228e-05	0.012297488615579189
1.43230e-05	0.012231464364296974
1.43233e-05	0.012165440113015206
1.43235e-05	0.012099492699794491
1.43238e-05	0.012033599144113581
1.43240e-05	0.011967705588433117
1.43243e-05	0.011902919522911769
1.43245e-05	0.011841209023780691
1.43248e-05	0.011781110157159444
1.43250e-05	0.011721011290537792
1.43253e-05	0.011666121715961935
1.43255e-05	0.01161488345231552
1.43258e-05	0.011563645188668759
1.43260e-05	0.011525377408818552
1.43263e-05	0.011496200935201135
1.43265e-05	0.011467024461583519
1.43268e-05	0.011437847987965905
1.43270e-05	0.011408671514348488
1.43273e-05	0.011379495040730873
1.43275e-05	0.011353417486054349
1.43278e-05	0.011359489565960416
1.43280e-05	0.011365561645866527
1.43283e-05	0.011371633725772635
1.43285e-05	0.011377705805678704
1.43288e-05	0.011383777885584813
1.43290e-05	0.011389849965490924
1.43293e-05	0.011418337307031987
1.43295e-05	0.011462536013778089
1.43298e-05	0.01150673472052419
1.43300e-05	0.011550933427270291
1.43303e-05	0.011595132134016093
1.43305e-05	0.011639330840762194
1.43308e-05	0.011683529547508295
1.43310e-05	0.011727728254254098
1.43313e-05	0.0117719269610002
1.43315e-05	0.011830815547658009
1.43318e-05	0.011900000604277714
1.43320e-05	0.011969185660897887
1.43323e-05	0.012038370717518062
1.43325e-05	0.012107555774137767
1.43328e-05	0.01217674083075794
1.43330e-05	0.012245925887378115
1.43333e-05	0.01231511094399782
1.43335e-05	0.012384296000617995
1.43338e-05	0.012451634345121892
1.43340e-05	0.012517678287223808
1.43343e-05	0.012583722229326173
1.43345e-05	0.012649766171428538
1.43348e-05	0.012715810113530453
1.43350e-05	0.012781854055632818
1.43353e-05	0.012847897997735181
1.43355e-05	0.012898320712397026
1.43358e-05	0.012937794154491693
1.43360e-05	0.012977267596586359
1.43363e-05	0.013016741038680758
1.43365e-05	0.013056214480775425
1.43368e-05	0.013095687922870091
1.43370e-05	0.01313516136496449
1.43373e-05	0.01315065657610226
1.43375e-05	0.013149344901388171
1.43378e-05	0.01314803322667409
1.43380e-05	0.01314672155196
1.43383e-05	0.01314540987724591
1.43385e-05	0.013144098202531821
1.43388e-05	0.01314278652781774
1.43390e-05	0.013137969532058487
1.43393e-05	0.013096786696161601
1.43395e-05	0.013055603860264997
1.43398e-05	0.013014421024368112
1.43400e-05	0.012973238188471228
1.43403e-05	0.012932055352574624
1.43405e-05	0.012890872516677738
1.43408e-05	0.012849689680780855
1.43410e-05	0.012795936101522583
1.43413e-05	0.012733371403164205
1.43415e-05	0.012670806704805828
1.43418e-05	0.012603572405965477
1.43420e-05	0.01253306507824992
1.43423e-05	0.012462557750534365
1.43425e-05	0.012394619224533384
1.43428e-05	0.012328481229908376
1.43430e-05	0.01226234323528337
1.43433e-05	0.01219620524065881
1.43435e-05	0.012131496509751975
1.43438e-05	0.01202745927917735
1.43440e-05	0.007486640555132674
1.43443e-05	-0.004274764200921435
1.43445e-05	-0.00309208485124483
1.43448e-05	-0.0006590015214382876
1.43450e-05	0.003974574809474648
1.43453e-05	0.01314446334495453
1.43455e-05	0.013915795930322456
1.43458e-05	0.013132205308316207
1.43460e-05	0.010172308718161827
1.43463e-05	0.002538715383085442
1.43465e-05	0.0013033380786614487
1.43468e-05	0.004836497733838949
1.43470e-05	0.008668964647995095
1.43473e-05	0.012784509211658728
1.43475e-05	0.014507307991487653
1.43478e-05	0.01362941029420203
1.43480e-05	0.010835584741821214
1.43483e-05	0.007515458711708549
1.43485e-05	0.006344028289814685
1.43488e-05	0.007466614758576633
1.43490e-05	0.009871707843481469
1.43493e-05	0.012439624370619703
1.43495e-05	0.013475007555175361
1.43498e-05	0.012885207159794227
1.43500e-05	0.01109866435674896
1.43503e-05	0.008985396296192423
1.43505e-05	0.008220551080523775
1.43508e-05	0.00889468924901504
1.43510e-05	0.010373821718586437
1.43513e-05	0.011956318321232545
1.43515e-05	0.012580074596148728
1.43518e-05	0.012187006837628737
1.43520e-05	0.011045467901599399
1.43523e-05	0.009700402124870805
1.43525e-05	0.00920103480394251
1.43528e-05	0.009603977737612741
1.43530e-05	0.0105120195564158
1.43533e-05	0.011485626127938454
1.43535e-05	0.011859526745746111
1.43538e-05	0.011597409646179169
1.43540e-05	0.010867443064447457
1.43543e-05	0.010011036233392782
1.43545e-05	0.009685438222520574
1.43548e-05	0.00992610053993248
1.43550e-05	0.01048421267324935
1.43553e-05	0.011084482385524754
1.43555e-05	0.011310248017723373
1.43558e-05	0.011138851563322023
1.43560e-05	0.010676024091964284
1.43563e-05	0.010136789191878458
1.43565e-05	0.009934237200716503
1.43568e-05	0.010091152478476919
1.43570e-05	0.01045154595956998
1.43573e-05	0.010842695132767005
1.43575e-05	0.011003345816010566
1.43578e-05	0.01091905878993351
1.43580e-05	0.010655816422175769
1.43583e-05	0.010348053117082708
1.43585e-05	0.010254254107801428
1.43588e-05	0.010388405380409438
1.43590e-05	0.010652514133913346
1.43593e-05	0.010938113383220255
1.43595e-05	0.011081295264513914
1.43598e-05	0.011072763279004546
1.43600e-05	0.010953594852281156
1.43603e-05	0.010807740735305773
1.43605e-05	0.010796847163269915
1.43608e-05	0.010929395807669572
1.43610e-05	0.011143729122151004
1.43613e-05	0.011371635024415423
1.43615e-05	0.011510180123140062
1.43618e-05	0.011553284717159213
1.43620e-05	0.011526423153788113
1.43623e-05	0.011481921499511001
1.43625e-05	0.011520766172131137
1.43628e-05	0.011647997963808858
1.43630e-05	0.011824724053174366
1.43633e-05	0.012007948143567518
1.43635e-05	0.012132931537362003
1.43638e-05	0.01219560660324771
1.43640e-05	0.012211670558347336
1.43643e-05	0.012213638694669163
1.43645e-05	0.012264502141961706
1.43648e-05	0.012367149308727746
1.43650e-05	0.01249422979157218
1.43653e-05	0.012625725088527735
1.43655e-05	0.012715600301312954
1.43658e-05	0.012760825736770688
1.43660e-05	0.012769964650750785
1.43663e-05	0.012769948352605729
1.43665e-05	0.01279704360607386
1.43668e-05	0.012853566448473599
1.43670e-05	0.012922736771170522
1.43673e-05	0.012993912167612694
1.43675e-05	0.013037077508231435
1.43678e-05	0.013050397616524849
1.43680e-05	0.013039094377808575
1.43683e-05	0.013021481670938676
1.43685e-05	0.013019426264968912
1.43688e-05	0.01303445316932423
1.43690e-05	0.013056010362410506
1.43693e-05	0.013078430556410588
1.43695e-05	0.01308238606102947
1.43698e-05	0.01306681683829539
1.43700e-05	0.013035067757275651
1.43703e-05	0.012999158752766323
1.43705e-05	0.01297258803087241
1.43708e-05	0.012956411725395472
1.43710e-05	0.012944198515128185
1.43713e-05	0.012932500637929728
1.43715e-05	0.012909336477858352
1.43718e-05	0.012874158589982025
1.43720e-05	0.012829352240033474
1.43723e-05	0.012782099260903762
1.43725e-05	0.012741306954905494
1.43728e-05	0.012707765424210036
1.43730e-05	0.012675820934550613
1.43733e-05	0.012643812619424512
1.43735e-05	0.012611804304298627
1.43738e-05	0.012571675336643775
1.43740e-05	0.012525826298180134
1.43743e-05	0.012478970528128972
1.43745e-05	0.012439930546701422
1.43748e-05	0.012403707686484328
1.43750e-05	0.012372191961467412
1.43753e-05	0.012342372875273374
1.43755e-05	0.012312553789079335
1.43758e-05	0.012280609098639475
1.43760e-05	0.012250774153898775
1.43763e-05	0.012221975797246515
1.43765e-05	0.01219317744059445
1.43768e-05	0.012173038953092576
1.43770e-05	0.012160591773451915
1.43773e-05	0.012149791784347717
1.43775e-05	0.012139735312542256
1.43778e-05	0.012132098467430389
1.43780e-05	0.012124461622318573
1.43783e-05	0.012125878447916622
1.43785e-05	0.012130558576684724
1.43788e-05	0.012135238705452795
1.43790e-05	0.012139918834220897
1.43793e-05	0.012153612072651775
1.43795e-05	0.012170553994437162
1.43798e-05	0.012187495916222663
1.43800e-05	0.012204437838008167
1.43803e-05	0.01223392789878275
1.43805e-05	0.012267940808140497
1.43808e-05	0.012301953717498242
1.43810e-05	0.01233596662685599
1.43813e-05	0.012369979536213506
1.43815e-05	0.012403992445571253
1.43818e-05	0.012438005354928998
1.43820e-05	0.012472018264286514
1.43823e-05	0.012506031173644261
1.43825e-05	0.012540044083002007
1.43828e-05	0.012574056992359523
1.43830e-05	0.01260806990171727
1.43833e-05	0.012642818329473908
1.43835e-05	0.012677831867327627
1.43838e-05	0.012712845405181583
1.43840e-05	0.01274785894303554
1.43843e-05	0.012782872480889258
1.43845e-05	0.012817886018743214
1.43848e-05	0.01285289955659717
1.43850e-05	0.012887913094450889
1.43853e-05	0.012922926632304845
1.43855e-05	0.012957940170158801
1.43858e-05	0.012992953708012522
1.43860e-05	0.013027967245866478
1.43863e-05	0.013043470672808113
1.43865e-05	0.013051941879466478
1.43868e-05	0.0130604130861249
1.43870e-05	0.013068884292783323
1.43873e-05	0.013077355499441688
1.43875e-05	0.01308582670610011
1.43878e-05	0.013094297912758535
1.43880e-05	0.0131027691194169
1.43883e-05	0.013111240326075323
1.43885e-05	0.013098737991408899
1.43888e-05	0.013078675957908067
1.43890e-05	0.013058613924407101
1.43893e-05	0.013038551890906134
1.43895e-05	0.013018489857405167
1.43898e-05	0.012998427823904337
1.43900e-05	0.01297836579040337
1.43903e-05	0.012958303756902404
1.43905e-05	0.012938241723401574
1.43908e-05	0.01290313105838316
1.43910e-05	0.012862596267777852
1.43913e-05	0.012822061477172821
1.43915e-05	0.012781526686567514
1.43918e-05	0.012740991895962207
1.43920e-05	0.012700457105357176
1.43923e-05	0.01265992231475187
1.43925e-05	0.012619387524146562
1.43928e-05	0.012578852733541531
1.43930e-05	0.012538317942936224
1.43933e-05	0.012496612871990153
1.43935e-05	0.012454485985443827
1.43938e-05	0.012412359098897215
1.43940e-05	0.012370232212350602
1.43943e-05	0.012328105325804277
1.43945e-05	0.012285978439257664
1.43948e-05	0.012243851552711052
1.43950e-05	0.012201724666164726
1.43953e-05	0.012159597779618114
1.43955e-05	0.012117470893071504
1.43958e-05	0.012084409721944052
1.43960e-05	0.012054616195380672
1.43963e-05	0.012024822668817294
1.43965e-05	0.011995029142254116
1.43968e-05	0.011965235615690736
1.43970e-05	0.011935442089127358
1.43973e-05	0.011905648562564179
1.43975e-05	0.011875855036000799
1.43978e-05	0.01184606150943742
1.43980e-05	0.011817489492216688
1.43983e-05	0.011789357755567472
1.43985e-05	0.011761226018918065
1.43988e-05	0.011733094282268658
1.43990e-05	0.01170496254561944
1.43993e-05	0.011676830808970032
1.43995e-05	0.011648699072320625
1.43998e-05	0.011620567335671409
1.44000e-05	0.011592435599022002
1.44003e-05	0.011563512435582438
1.44005e-05	0.011534304010436753
1.44008e-05	0.011505095585290871
1.44010e-05	0.011475887160144988
1.44013e-05	0.011446678734999303
1.44015e-05	0.01141747030985342
1.44018e-05	0.011388261884707537
1.44020e-05	0.011359053459561851
