Time(s)	Current(A)
1.48000e-05	-0.0023127377211939687
1.48003e-05	-0.0023003607767925344
1.48005e-05	-0.0022879838323911
1.48008e-05	-0.002272641786342035
1.48010e-05	-0.002254197807551309
1.48013e-05	-0.002235753828760583
1.48015e-05	-0.002217309849969982
1.48018e-05	-0.0021943361143742426
1.48020e-05	-0.0021713107159211657
1.48023e-05	-0.002148285317468245
1.48025e-05	-0.0021212468301620474
1.48028e-05	-0.0020941625727083674
1.48030e-05	-0.002067078315254871
1.48033e-05	-0.0020371381332737817
1.48035e-05	-0.002007165378854932
1.48038e-05	-0.0019771926244362852
1.48040e-05	-0.001945533924566544
1.48043e-05	-0.0019138559961237875
1.48045e-05	-0.001882178067681246
1.48048e-05	-0.001849742802811952
1.48050e-05	-0.0018172989003566817
1.48053e-05	-0.0017850879654674606
1.48055e-05	-0.001752879687623568
1.48058e-05	-0.0017213184012260818
1.48060e-05	-0.0016904031979690297
1.48063e-05	-0.0016602313600918156
1.48065e-05	-0.001630937517158337
1.48068e-05	-0.001602713686705486
1.48070e-05	-0.0015781675890669145
1.48073e-05	-0.0015536632988717325
1.48075e-05	-0.0015291590086767167
1.48078e-05	-0.0015046547184815347
1.48080e-05	-0.001484695684197891
1.48083e-05	-0.0014647884895425023
1.48085e-05	-0.0014457650714674443
1.48088e-05	-0.0014267517330555965
1.48090e-05	-0.0014077383946437486
1.48093e-05	-0.0013906817228858104
1.48095e-05	-0.001373647367334806
1.48098e-05	-0.0013566130117838016
1.48100e-05	-0.0013395786562329125
1.48103e-05	-0.0013237416837576647
1.48105e-05	-0.0013079183676957954
1.48108e-05	-0.0012920950516340335
1.48110e-05	-0.0012762717355721642
1.48113e-05	-0.0012609879627241154
1.48115e-05	-0.0012457103434834133
1.48118e-05	-0.0012304327242426078
1.48120e-05	-0.0012151551050018023
1.48123e-05	-0.0012002720285346784
1.48125e-05	-0.0011853934519132651
1.48128e-05	-0.001170514875291852
1.48130e-05	-0.0011556362986705395
1.48133e-05	-0.0011412472427401019
1.48135e-05	-0.0011268637698992076
1.48138e-05	-0.0011124802970584105
1.48140e-05	-0.0010980968242175163
1.48143e-05	-0.0010837133513766218
1.48145e-05	-0.0010698627250547658
1.48148e-05	-0.001056569534618836
1.48150e-05	-0.0010432763441829062
1.48153e-05	-0.0010299831537470667
1.48155e-05	-0.001016689963311137
1.48158e-05	-0.0010033967728752071
1.48160e-05	-0.0009914682539949563
1.48163e-05	-0.0009795552994894233
1.48165e-05	-0.0009683889289135916
1.48168e-05	-0.0009572310732892586
1.48170e-05	-0.0009467660487027847
1.48173e-05	-0.0009368757485230386
1.48175e-05	-0.0009276372930875571
1.48178e-05	-0.0009191478040953189
1.48180e-05	-0.0009117758439196857
1.48183e-05	-0.0009061850260994597
1.48185e-05	-0.0009027921186161306
1.48188e-05	-0.0009016316005827613
1.48190e-05	-0.0009026428076540276
1.48193e-05	-0.0009057638670555097
1.48195e-05	-0.0009109330191462098
1.48198e-05	-0.0009191463843802504
1.48200e-05	-0.0009273942062048476
1.48203e-05	-0.000940356858775777
1.48205e-05	-0.000953373285013077
1.48208e-05	-0.0009712628367815761
1.48210e-05	-0.0009892079676028934
1.48213e-05	-0.0010104575200461858
1.48215e-05	-0.001033749386184428
1.48218e-05	-0.001058926935223351
1.48220e-05	-0.0010859533284497255
1.48223e-05	-0.0011149072396092836
1.48225e-05	-0.001145770463551411
1.48228e-05	-0.0011783750779375164
1.48230e-05	-0.001212515438544605
1.48233e-05	-0.0012479857204586021
1.48235e-05	-0.0012845802164928486
1.48238e-05	-0.0013220972493627513
1.48240e-05	-0.0013604021774168318
1.48243e-05	-0.0013994326017197018
1.48245e-05	-0.001439065473802933
1.48248e-05	-0.001479084041317723
1.48250e-05	-0.0015192481613015283
1.48253e-05	-0.0015593170908071196
1.48255e-05	-0.0015990504282563463
1.48258e-05	-0.001638210308266328
1.48260e-05	-0.0016766009067658797
1.48263e-05	-0.0017140716537375543
1.48265e-05	-0.0017504340455795746
1.48268e-05	-0.0017854406681278021
1.48270e-05	-0.0018188297431274778
1.48273e-05	-0.0018503389907972994
1.48275e-05	-0.0018797063576220581
1.48278e-05	-0.0019066963814017126
1.48280e-05	-0.0019315036961167226
1.48283e-05	-0.0019548613379582603
1.48285e-05	-0.001977260842214526
1.48288e-05	-0.0019986827426385985
1.48290e-05	-0.0020183326618512364
1.48293e-05	-0.002037962497002239
1.48295e-05	-0.002054735486806135
1.48298e-05	-0.0020714758936695265
1.48300e-05	-0.002085502642760602
1.48303e-05	-0.0020994984419966016
1.48305e-05	-0.002112003202770559
1.48308e-05	-0.002124490957927528
1.48310e-05	-0.0021349919279299466
1.48313e-05	-0.0021454702382169453
1.48315e-05	-0.0021559485485038734
1.48318e-05	-0.002164019028500071
1.48320e-05	-0.002172062046669772
1.48323e-05	-0.0021785636498270334
1.48325e-05	-0.0021850476728119354
1.48328e-05	-0.0021915316957968373
1.48330e-05	-0.002196545398779101
1.48333e-05	-0.002201542332442986
1.48335e-05	-0.002206539266106871
1.48338e-05	-0.0022098442689875396
1.48340e-05	-0.002213129975030761
1.48343e-05	-0.0022164156810740043
1.48345e-05	-0.0022183608644260966
1.48348e-05	-0.002220290758826223
1.48350e-05	-0.0022222206532263628
1.48353e-05	-0.002224150547626502
1.48355e-05	-0.002226080442026629
1.48358e-05	-0.0022280103364267687
1.48360e-05	-0.0022287676043920047
1.48363e-05	-0.002229511498298474
1.48365e-05	-0.002230255392204948
1.48368e-05	-0.0022309992861114223
1.48370e-05	-0.0022317431800178912
1.48373e-05	-0.0022324870739243653
1.48375e-05	-0.00223287476379912
1.48378e-05	-0.002233258391089646
1.48380e-05	-0.002233642018380175
1.48383e-05	-0.0022328486837063363
1.48385e-05	-0.0022320419255260795
1.48388e-05	-0.0022312351673458167
1.48390e-05	-0.0022280955315641116
1.48393e-05	-0.002224929288807506
1.48395e-05	-0.002221763046050879
1.48398e-05	-0.0022185968032942525
1.48400e-05	-0.002215430560537647
1.48403e-05	-0.002210643392671158
1.48405e-05	-0.0022041604985620963
1.48408e-05	-0.002197677604453078
1.48410e-05	-0.002191194710344016
1.48413e-05	-0.002184711816234954
1.48415e-05	-0.002178228922125936
1.48418e-05	-0.002168277946261922
1.48420e-05	-0.002158287416173378
1.48423e-05	-0.002148296886084834
1.48425e-05	-0.002138306355996358
1.48428e-05	-0.002128315825907814
1.48430e-05	-0.00211832529581927
1.48433e-05	-0.0021083347657307938
1.48435e-05	-0.00209834423564225
1.48438e-05	-0.002086273169370423
1.48440e-05	-0.0020741783741322784
1.48443e-05	-0.0020620835788940518
1.48445e-05	-0.002049988783655825
1.48448e-05	-0.0020378939884176804
1.48450e-05	-0.0020257991931794538
1.48453e-05	-0.002013704397941227
1.48455e-05	-0.0020016096027030824
1.48458e-05	-0.0019898896005587485
1.48460e-05	-0.001978173873010944
1.48463e-05	-0.001966458145463219
1.48465e-05	-0.001955744424000283
1.48468e-05	-0.0019450421306340892
1.48470e-05	-0.001934339837267968
1.48473e-05	-0.0019249360157937167
1.48475e-05	-0.0019155470036730526
1.48478e-05	-0.0019076753884987657
1.48480e-05	-0.001899821079565746
1.48483e-05	-0.0018948555569378075
1.48485e-05	-0.001889922981544356
1.48488e-05	-0.0018886039932275002
1.48490e-05	-0.0018873262186551235
1.48493e-05	-0.0018903665546979476
1.48495e-05	-0.001893456139729027
1.48498e-05	-0.0018965457247601062
1.48500e-05	-0.0019050867201358128
1.48503e-05	-0.0019136898900290573
1.48505e-05	-0.0019222930599223018
1.48508e-05	-0.0019367786224833451
1.48510e-05	-0.0019513312750086514
1.48513e-05	-0.001965883927534057
1.48515e-05	-0.0019839193147179286
1.48518e-05	-0.0020035432431890106
1.48520e-05	-0.0020247014275160883
1.48523e-05	-0.0020474425338108163
1.48525e-05	-0.0020717424893666875
1.48528e-05	-0.002097465652649888
1.48530e-05	-0.002124448875859882
1.48533e-05	-0.0021525289420897386
1.48535e-05	-0.0021815421766484223
1.48538e-05	-0.002211328813080037
1.48540e-05	-0.0022417767820194614
1.48543e-05	-0.0022728272745577227
1.48545e-05	-0.002304374200371971
1.48548e-05	-0.0023362427823162665
1.48550e-05	-0.0023682406611130976
1.48553e-05	-0.002400175055614844
1.48555e-05	-0.0024318536424585546
1.48558e-05	-0.0024630859451738396
1.48560e-05	-0.0024937118953677665
1.48563e-05	-0.00252360423013832
1.48565e-05	-0.002552606590531744
1.48568e-05	-0.0025805190029650083
1.48570e-05	-0.002607131101434254
1.48573e-05	-0.002632232407037989
1.48575e-05	-0.0026556119804639513
1.48578e-05	-0.002676135524474752
1.48580e-05	-0.0026966267165920853
1.48583e-05	-0.0027132694932426905
1.48585e-05	-0.002729868377879735
1.48588e-05	-0.002746467262516892
1.48590e-05	-0.0027586595610440074
1.48593e-05	-0.002770801601500342
1.48595e-05	-0.0027829436419565946
1.48598e-05	-0.002790152310288826
1.48600e-05	-0.0027973047124414435
1.48603e-05	-0.002804457114594013
1.48605e-05	-0.0028075902123574285
1.48608e-05	-0.002810677469082071
1.48610e-05	-0.002813764725806693
1.48613e-05	-0.0028130308847370746
1.48615e-05	-0.002812253463217911
1.48618e-05	-0.0028114760416987523
1.48620e-05	-0.002807173259209531
1.48623e-05	-0.0028028302692134455
1.48625e-05	-0.0027984872792173898
1.48628e-05	-0.0027915534075053936
1.48630e-05	-0.0027845899862252083
1.48633e-05	-0.00277762656494507
1.48635e-05	-0.002768412274888301
1.48638e-05	-0.0027591723131846825
1.48640e-05	-0.002749932351481127
1.48643e-05	-0.0027392104827849376
1.48645e-05	-0.0027284717126179045
1.48648e-05	-0.0027177329424509446
1.48650e-05	-0.0027063200550029648
1.48653e-05	-0.002694899479101099
1.48655e-05	-0.00268347890319931
1.48658e-05	-0.0026719670893410367
1.48660e-05	-0.002660454234894069
1.48663e-05	-0.00264894138044718
1.48665e-05	-0.0026382739926139142
1.48668e-05	-0.002627616247510873
1.48670e-05	-0.002616958502407904
1.48673e-05	-0.0026082051673991364
1.48675e-05	-0.002599473552600829
1.48678e-05	-0.002590741937802581
1.48680e-05	-0.0025820103230042735
1.48683e-05	-0.002574816881162771
1.48685e-05	-0.0025676409825176978
1.48688e-05	-0.002560465083872673
1.48690e-05	-0.0025532891852276
1.48693e-05	-0.002547203339725125
1.48695e-05	-0.002541129926515383
1.48698e-05	-0.0025350565133056002
1.48700e-05	-0.0025289831000958178
1.48703e-05	-0.002523293815905651
1.48705e-05	-0.002518006387208701
1.48708e-05	-0.0025127189585117506
1.48710e-05	-0.002507431529814836
1.48713e-05	-0.0025021441011178857
1.48715e-05	-0.0024976255664975015
1.48718e-05	-0.002493115801280999
1.48720e-05	-0.0024886060360644665
1.48723e-05	-0.002484096270847934
1.48725e-05	-0.0024795865056314315
1.48728e-05	-0.0024750767404148983
1.48730e-05	-0.0024705669751983656
1.48733e-05	-0.0024660572099818633
1.48735e-05	-0.0024618973952015458
1.48738e-05	-0.00245810368008569
1.48740e-05	-0.00245430996496986
1.48743e-05	-0.0024505162498540045
1.48745e-05	-0.002446722534738149
1.48748e-05	-0.002442928819622319
1.48750e-05	-0.002439135104506463
1.48753e-05	-0.002435341389390607
1.48755e-05	-0.002431547674274777
1.48758e-05	-0.002428337666447982
1.48760e-05	-0.0024251343159295505
1.48763e-05	-0.0024219309654111413
1.48765e-05	-0.002418904866862678
1.48768e-05	-0.0024160641999640183
1.48770e-05	-0.002413223533065359
1.48773e-05	-0.002410382866166719
1.48775e-05	-0.002407923320261703
1.48778e-05	-0.002405468121124373
1.48780e-05	-0.0024037612036790735
1.48783e-05	-0.0024020628205489343
1.48785e-05	-0.0024019626363564655
1.48788e-05	-0.0024018806799698997
1.48790e-05	-0.0024043869451510465
1.48793e-05	-0.002406922729561156
1.48795e-05	-0.0024094585139712485
1.48798e-05	-0.002411994298381358
1.48800e-05	-0.0024164461510111823
1.48803e-05	-0.002422902493019527
1.48805e-05	-0.0024293588350279153
1.48808e-05	-0.002435815177036304
1.48810e-05	-0.0024422715190446486
1.48813e-05	-0.0024519835495319035
1.48815e-05	-0.0024617327118531926
1.48818e-05	-0.002471481874174416
1.48820e-05	-0.0024830396812663327
1.48823e-05	-0.002494618116344596
1.48825e-05	-0.002507668252655518
1.48828e-05	-0.0025207351740386603
1.48830e-05	-0.002534742943683683
1.48833e-05	-0.0025492727294443196
1.48835e-05	-0.002564233305150439
1.48838e-05	-0.0025795387405412027
1.48840e-05	-0.0025951374216695595
1.48843e-05	-0.0026110142679955125
1.48845e-05	-0.002627126065755457
1.48848e-05	-0.002643384155418449
1.48850e-05	-0.0026596878525929654
1.48853e-05	-0.002675936802020405
1.48855e-05	-0.002692030193283143
1.48858e-05	-0.0027078690523532067
1.48860e-05	-0.00272337514466666
1.48863e-05	-0.002738493722673317
1.48865e-05	-0.0027531521177992136
1.48868e-05	-0.0027672486784150333
1.48870e-05	-0.0027806754393660377
1.48873e-05	-0.002793323446413068
1.48875e-05	-0.002805084655635489
1.48878e-05	-0.0028158337682317215
1.48880e-05	-0.002825199889843441
1.48883e-05	-0.0028325491955197082
1.48885e-05	-0.0028374868390148534
1.48888e-05	-0.002839974788975488
1.48890e-05	-0.002838901116726208
1.48893e-05	-0.0028377871385116423
1.48895e-05	-0.0028321235017155252
1.48898e-05	-0.0028264079750750905
1.48900e-05	-0.0028145516505387372
1.48903e-05	-0.002802625288868721
1.48905e-05	-0.0027906989271986246
1.48908e-05	-0.0027709831154096877
1.48910e-05	-0.0027511784632504093
1.48913e-05	-0.0027313738110909965
1.48915e-05	-0.002704896280304345
1.48918e-05	-0.0026783426438877316
1.48920e-05	-0.0026517890074709387
1.48923e-05	-0.0026191510501439555
1.48925e-05	-0.0025864436998156125
1.48928e-05	-0.002553736349487048
1.48930e-05	-0.002516746033190518
1.48933e-05	-0.002479706868737024
1.48935e-05	-0.002440212912152181
1.48938e-05	-0.002400690958129833
1.48940e-05	-0.0023593895186502347
1.48943e-05	-0.0023180677837527225
1.48945e-05	-0.002275489474292403
1.48948e-05	-0.002232896833326226
1.48950e-05	-0.002189959575319009
1.48953e-05	-0.002147018386879282
1.48955e-05	-0.002104727758064668
1.48958e-05	-0.002062444549024194
1.48960e-05	-0.0020212288010526564
1.48963e-05	-0.0019809752841724853
1.48965e-05	-0.0019418883476197428
1.48968e-05	-0.0019050753218144297
1.48970e-05	-0.0018682880801171183
1.48973e-05	-0.0018354258930017436
1.48975e-05	-0.0018026084719863916
1.48978e-05	-0.0017733780493568818
1.48980e-05	-0.001746252325984619
1.48983e-05	-0.0017200371208387132
1.48985e-05	-0.00169402206620917
1.48988e-05	-0.0016680091789624395
1.48990e-05	-0.0016426980719763565
1.48993e-05	-0.0016173949689466285
1.48995e-05	-0.001593635276039644
1.48998e-05	-0.0015698931860602934
1.49000e-05	-0.0015474198139626678
1.49003e-05	-0.001524960911868307
1.49005e-05	-0.0015018900670549782
1.49008e-05	-0.0014788122429019721
1.49010e-05	-0.0014557344187491224
1.49013e-05	-0.001432864987766888
1.49015e-05	-0.0014099979335540497
1.49018e-05	-0.001387130879341366
1.49020e-05	-0.0013642638251285277
1.49023e-05	-0.0013413279108138317
1.49025e-05	-0.0013183912111347103
1.49028e-05	-0.0012954545114557444
1.49030e-05	-0.001272517811776623
1.49033e-05	-0.0012495146307817233
1.49035e-05	-0.0012265106915531258
1.49038e-05	-0.0012035067523243727
1.49040e-05	-0.001181175625880776
1.49043e-05	-0.0011588521730133599
1.49045e-05	-0.0011365287201457923
1.49048e-05	-0.0011144654565974827
1.49050e-05	-0.0010924051605650544
1.49053e-05	-0.0010710955058266724
1.49055e-05	-0.001049794412315389
1.49058e-05	-0.0010293956077109677
1.49060e-05	-0.0010096865442731388
1.49063e-05	-0.0009905797347965284
1.49065e-05	-0.0009720525711774658
1.49068e-05	-0.0009542033919509674
1.49070e-05	-0.0009371625241191931
1.49073e-05	-0.0009210605287784505
1.49075e-05	-0.0009060279081606672
1.49078e-05	-0.0008922140982115637
1.49080e-05	-0.0008800578884385601
1.49083e-05	-0.0008703039706358505
1.49085e-05	-0.0008634167025267529
1.49088e-05	-0.0008594414547826139
1.49090e-05	-0.0008583205587710267
1.49093e-05	-0.000859995167203272
1.49095e-05	-0.000864406201929035
1.49098e-05	-0.0008729032072063566
1.49100e-05	-0.000881446462013977
1.49103e-05	-0.0008961356751475713
1.49105e-05	-0.0009108949842717728
1.49108e-05	-0.0009304360562733458
1.49110e-05	-0.000953005800166192
1.49113e-05	-0.000978408068167445
1.49115e-05	-0.0010064650967065414
1.49118e-05	-0.0010370067163553434
1.49120e-05	-0.0010699761052398032
1.49123e-05	-0.0011054366341882629
1.49125e-05	-0.0011433417259514743
1.49128e-05	-0.0011834800882077705
1.49130e-05	-0.001225600235353535
1.49133e-05	-0.0012694500144269727
1.49135e-05	-0.0013147776151483561
1.49138e-05	-0.0013613358352792676
1.49140e-05	-0.0014089481980582208
1.49143e-05	-0.0014575138494231786
1.49145e-05	-0.0015068628062616081
1.49148e-05	-0.0015567224215373722
1.49150e-05	-0.0016067941393644717
1.49153e-05	-0.0016567796971252177
1.49155e-05	-0.001706380723662199
1.49158e-05	-0.0017553016089664948
1.49160e-05	-0.0018032915494294597
1.49163e-05	-0.001850146638437365
1.49165e-05	-0.0018956201047604932
1.49168e-05	-0.0019394003399292338
1.49170e-05	-0.0019811602685081272
1.49173e-05	-0.002020572416822146
1.49175e-05	-0.00205583346364731
1.49178e-05	-0.002091047468685453
1.49180e-05	-0.0021218739946388507
1.49183e-05	-0.0021502252696648802
1.49185e-05	-0.002175392427345932
1.49188e-05	-0.002200523584945151
1.49190e-05	-0.0022223141211722567
1.49193e-05	-0.002241651244931055
1.49195e-05	-0.0022570605715508006
1.49198e-05	-0.002272425414971381
1.49200e-05	-0.002283847880876945
1.49203e-05	-0.0022929917029819017
1.49205e-05	-0.0022991833368847174
1.49208e-05	-0.0023053415909940612
1.49210e-05	-0.0023075888905850204
1.49213e-05	-0.0023097915848893005
1.49215e-05	-0.0023079773152246416
1.49218e-05	-0.002306117231212485
1.49220e-05	-0.002300515278331126
1.49223e-05	-0.002294870648621684
1.49225e-05	-0.0022863650298749635
1.49228e-05	-0.0022778267809262683
1.49230e-05	-0.002266755009701223
1.49233e-05	-0.0022556543431037374
1.49235e-05	-0.002242198217878291
1.49238e-05	-0.002228715228134939
1.49240e-05	-0.0022132936812075867
1.49243e-05	-0.0021978500246141305
1.49245e-05	-0.002181263744984977
1.49248e-05	-0.00216466443349164
1.49250e-05	-0.002147371974429131
1.49253e-05	-0.002130071609867752
1.49255e-05	-0.0021124337646233537
1.49258e-05	-0.002094792070338498
1.49260e-05	-0.0020773183106771653
1.49263e-05	-0.0020598464663467353
1.49265e-05	-0.0020432851983067813
1.49268e-05	-0.002026734315587324
1.49270e-05	-0.002012075373518178
1.49273e-05	-0.0019974380094436896
1.49275e-05	-0.0019828006453691017
1.49278e-05	-0.0019701200246816934
1.49280e-05	-0.0019582393539207387
1.49283e-05	-0.0019464491599410522
1.49285e-05	-0.0019341097640667862
1.49288e-05	-0.0019217640938100225
1.49290e-05	-0.0019088877048689741
1.49293e-05	-0.00189600526296582
1.49295e-05	-0.001883122821062666
1.49298e-05	-0.00187023874854011
1.49300e-05	-0.0018573546574198968
1.49303e-05	-0.0018435007006847204
1.49305e-05	-0.0018296356824213551
1.49308e-05	-0.0018150730190011383
1.49310e-05	-0.0017997805160614372
1.49313e-05	-0.0017844880131218396
1.49315e-05	-0.0017682846083160277
1.49318e-05	-0.0017520708144763007
1.49320e-05	-0.0017358570206366835
1.49323e-05	-0.0017189655436192117
1.49325e-05	-0.0017013651102504438
1.49328e-05	-0.0016837646768817951
1.49330e-05	-0.001666164243513027
1.49333e-05	-0.0016476978443145324
1.49335e-05	-0.0016292215685875047
1.49338e-05	-0.0016107452928603519
1.49340e-05	-0.0015921185013624641
1.49343e-05	-0.0015734899931995952
1.49345e-05	-0.0015548614850366
1.49348e-05	-0.0015362272984810305
1.49350e-05	-0.001517593047162285
1.49353e-05	-0.001498958795843413
1.49355e-05	-0.0014812397249169172
1.49358e-05	-0.0014635310918220113
1.49360e-05	-0.0014458224587269853
1.49363e-05	-0.0014295588614395235
1.49365e-05	-0.0014133117450998202
1.49368e-05	-0.0013970646287602268
1.49370e-05	-0.0013829407708330253
1.49373e-05	-0.001368841129129956
1.49375e-05	-0.0013547414874269825
1.49378e-05	-0.0013433999714466903
1.49380e-05	-0.0013320899124903455
1.49383e-05	-0.0013207798535340772
1.49385e-05	-0.001311574307717422
1.49388e-05	-0.001302392764331014
1.49390e-05	-0.0012932112209446678
1.49393e-05	-0.0012852314114514898
1.49395e-05	-0.00127850879249271
1.49398e-05	-0.0012717861735339758
1.49400e-05	-0.001265063554575196
1.49403e-05	-0.0012608151636347299
1.49405e-05	-0.0012565949918032044
1.49408e-05	-0.0012523748199716506
1.49410e-05	-0.0012481546481400965
1.49413e-05	-0.0012439344763085713
1.49415e-05	-0.0012421600495466287
1.49418e-05	-0.001240413517039388
1.49420e-05	-0.001238666984532159
1.49423e-05	-0.0012369204520249182
1.49425e-05	-0.0012351739195176775
1.49428e-05	-0.0012358041396102499
1.49430e-05	-0.0012364614670834144
1.49433e-05	-0.0012371187945565787
1.49435e-05	-0.0012377761220297389
1.49438e-05	-0.0012384334495029034
1.49440e-05	-0.0012390907769760679
