Time(s)	Current(A)
6.25000e-06	-0.0007076727595108138
6.25025e-06	-0.0007097584709685804
6.25050e-06	-0.0007118441824263541
6.25075e-06	-0.0007139298938841207
6.25100e-06	-0.0007160156053418943
6.25125e-06	-0.0007178848152767569
6.25150e-06	-0.0007191348053923203
6.25175e-06	-0.0007203847955078878
6.25200e-06	-0.000721634785623451
6.25225e-06	-0.0007228847757390143
6.25250e-06	-0.0007241347658545819
6.25275e-06	-0.0007253847559701451
6.25300e-06	-0.0007266347460857084
6.25325e-06	-0.0007278847362012759
6.25350e-06	-0.0007291347263168391
6.25375e-06	-0.0007303847164324025
6.25400e-06	-0.0007325896248474074
6.25425e-06	-0.000735097643279326
6.25450e-06	-0.0007376056617112445
6.25475e-06	-0.0007401136801431715
6.25500e-06	-0.0007426216985750901
6.25525e-06	-0.0007451297170070172
6.25550e-06	-0.0007476377354389358
6.25575e-06	-0.0007501457538708543
6.25600e-06	-0.0007526537723027813
6.25625e-06	-0.0007551617907346999
6.25650e-06	-0.0007580614545096259
6.25675e-06	-0.0007620812700287361
6.25700e-06	-0.0007661010855478327
6.25725e-06	-0.0007701209010669294
6.25750e-06	-0.0007741407165860397
6.25775e-06	-0.0007781605321051364
6.25800e-06	-0.000782180347624233
6.25825e-06	-0.0007862001631433433
6.25850e-06	-0.0007902199786624399
6.25875e-06	-0.0007942397941815366
6.25900e-06	-0.0007982596097006469
6.25925e-06	-0.0008023044580881711
6.25950e-06	-0.0008063572524048804
6.25975e-06	-0.0008104100467215758
6.26000e-06	-0.0008144628410382713
6.26025e-06	-0.0008185156353549806
6.26050e-06	-0.000822568429671676
6.26075e-06	-0.0008266212239883716
6.26100e-06	-0.0008306740183050809
6.26125e-06	-0.0008347268126217763
6.26150e-06	-0.0008387796069384718
6.26175e-06	-0.0008425906662306313
6.26200e-06	-0.000845710334921119
6.26225e-06	-0.0008485771774430095
6.26250e-06	-0.0008507209073867989
6.26275e-06	-0.0008518158154935343
6.26300e-06	-0.000849910969790141
6.26325e-06	-0.0008480061240867413
6.26350e-06	-0.0008449237250279999
6.26375e-06	-0.0008384733848761913
6.26400e-06	-0.0008309443509021211
6.26425e-06	-0.0008203301257268894
6.26450e-06	-0.0008097159005516218
6.26475e-06	-0.0007977794140421801
6.26500e-06	-0.0007820611046005987
6.26525e-06	-0.0007652408416005665
6.26550e-06	-0.0007452688618185812
6.26575e-06	-0.0007243549946685084
6.26600e-06	-0.0007007472188666357
6.26625e-06	-0.000676316048407386
6.26650e-06	-0.0006495298723852438
6.26675e-06	-0.0006218778310107697
6.26700e-06	-0.0005917493128913153
6.26725e-06	-0.000560862655549022
6.26750e-06	-0.0005278076308617093
6.26775e-06	-0.0004942012901122657
6.26800e-06	-0.00045901812058237324
6.26825e-06	-0.0004234644012148428
6.26850e-06	-0.00038685086572961234
6.26875e-06	-0.00034994671548656085
6.26900e-06	-0.00031221137285637567
6.26925e-06	-0.00027435940734197575
6.26950e-06	-0.0002361738866621564
6.26975e-06	-0.00019804835499062957
6.27000e-06	-0.00016021326862975516
6.27025e-06	-0.00012289179730935574
6.27050e-06	-8.627902849826507e-05
6.27075e-06	-5.051622290805515e-05
6.27100e-06	-1.5741882929751173e-05
6.27125e-06	1.7840774130752738e-05
6.27150e-06	4.998821047388163e-05
6.27175e-06	8.045469473514947e-05
6.27200e-06	0.00010899453618040575
6.27225e-06	0.00013540767412292178
6.27250e-06	0.00015980171401090294
6.27275e-06	0.00018288901189938866
6.27300e-06	0.00020550078006013932
6.27325e-06	0.0002278019811044623
6.27350e-06	0.00024964169193005084
6.27375e-06	0.0002711080990707191
6.27400e-06	0.00029150681376677626
6.27425e-06	0.00031142588154088987
6.27450e-06	0.00032997310270548225
6.27475e-06	0.00034852032387001176
6.27500e-06	0.00036702603250014895
6.27525e-06	0.00038541301039956525
6.27550e-06	0.0004037999882989192
6.27575e-06	0.00042218696619827315
6.27600e-06	0.00044032082388373994
6.27625e-06	0.00045773072798700043
6.27650e-06	0.0004751406320903199
6.27675e-06	0.0004925505361935803
6.27700e-06	0.0005098964157056105
6.27725e-06	0.0005270591773566534
6.27750e-06	0.0005442219390076383
6.27775e-06	0.000561384700658623
6.27800e-06	0.0005785474623096659
6.27825e-06	0.0005957102239606508
6.27850e-06	0.0006120797788999779
6.27875e-06	0.0006281975542894442
6.27900e-06	0.000644315329678856
6.27925e-06	0.0006604331050682677
6.27950e-06	0.0006765508804577339
6.27975e-06	0.0006924063407205633
6.28000e-06	0.0007075115488697431
6.28025e-06	0.00072234799208786
6.28050e-06	0.0007364157359927487
6.28075e-06	0.0007502481381140872
6.28100e-06	0.0007634074350550994
6.28125e-06	0.0007763726017903041
6.28150e-06	0.0007886208536351378
6.28175e-06	0.0008002205293242641
6.28200e-06	0.0008110771427448173
6.28225e-06	0.0008210679212287936
6.28250e-06	0.0008298859141999203
6.28275e-06	0.0008368874541480246
6.28300e-06	0.0008414316662441221
6.28325e-06	0.0008433119530434203
6.28350e-06	0.0008425871520811649
6.28375e-06	0.000839330736504657
6.28400e-06	0.0008336161924311654
6.28425e-06	0.0008251568574984344
6.28450e-06	0.000813941056147624
6.28475e-06	0.0008012150532865913
6.28500e-06	0.0007841696964876164
6.28525e-06	0.0007656365383975236
6.28550e-06	0.0007428480936307488
6.28575e-06	0.0007187554750840762
6.28600e-06	0.0006909327661402175
6.28625e-06	0.0006619486310935185
6.28650e-06	0.0006296426807945036
6.28675e-06	0.0005961655481209414
6.28700e-06	0.0005593386961103784
6.28725e-06	0.000521492226990775
6.28750e-06	0.0004807295330203109
6.28775e-06	0.0004391997201360591
6.28800e-06	0.0003954758569356264
6.28825e-06	0.00035121175714847926
6.28850e-06	0.0003054025171844784
6.28875e-06	0.0002591279392455688
6.28900e-06	0.00021152243996960874
6.28925e-06	0.00016391694069348741
6.28950e-06	0.00011621379576365887
6.28975e-06	6.823137277945369e-05
6.29000e-06	2.0412234461918725e-05
6.29025e-06	-2.673668727177238e-05
6.29050e-06	-7.304745873236596e-05
6.29075e-06	-0.00011831889794897105
6.29100e-06	-0.0001623494222276093
6.29125e-06	-0.00020487058433289038
6.29150e-06	-0.0002455730930563804
6.29175e-06	-0.00028414547920425773
6.29200e-06	-0.0003202762886623597
6.29225e-06	-0.00035369741049819765
6.29250e-06	-0.0003844348518635307
6.29275e-06	-0.00041310080217522155
6.29300e-06	-0.0004404444230785908
6.29325e-06	-0.00046648471587086674
6.29350e-06	-0.0004910820073563565
6.29375e-06	-0.0005148454881950952
6.29400e-06	-0.0005362241725183763
6.29425e-06	-0.000556532039411377
6.29450e-06	-0.0005737772425127637
6.29475e-06	-0.0005910224456141504
6.29500e-06	-0.0006075368330851062
6.29525e-06	-0.0006219610019003216
6.29550e-06	-0.000636385170715537
6.29575e-06	-0.0006499830320653135
6.29600e-06	-0.0006612175568803465
6.29625e-06	-0.0006724520816953793
6.29650e-06	-0.0006829593244497913
6.29675e-06	-0.0006913864549738603
6.29700e-06	-0.0006998135854979294
6.29725e-06	-0.0007073978710223772
6.29750e-06	-0.0007125715207194761
6.29775e-06	-0.0007177451704165749
6.29800e-06	-0.0007229188201136914
6.29825e-06	-0.0007280924698107903
6.29850e-06	-0.0007332661195079066
6.29875e-06	-0.0007384397692050055
6.29900e-06	-0.0007436134189021044
6.29925e-06	-0.0007479509357486671
6.29950e-06	-0.0007498970143038599
6.29975e-06	-0.0007518430928590527
6.30000e-06	-0.0007537891714142521
6.30025e-06	-0.0007557352499694449
6.30050e-06	-0.0007576813285246377
6.30075e-06	-0.0007596274070798371
6.30100e-06	-0.0007615734856350299
6.30125e-06	-0.0007631966343400905
6.30150e-06	-0.0007638961656935708
6.30175e-06	-0.0007645956970470486
6.30200e-06	-0.0007652952284005266
6.30225e-06	-0.0007659947597540069
6.30250e-06	-0.0007666942911074849
6.30275e-06	-0.0007673938224609651
6.30300e-06	-0.0007672010222316867
6.30325e-06	-0.0007644560487275691
6.30350e-06	-0.0007617110752234423
6.30375e-06	-0.0007589661017193247
6.30400e-06	-0.0007562211282152072
6.30425e-06	-0.0007534761547110803
6.30450e-06	-0.0007507311812069628
6.30475e-06	-0.0007465949687828174
6.30500e-06	-0.0007384796494222766
6.30525e-06	-0.0007303643300617634
6.30550e-06	-0.0007222490107012501
6.30575e-06	-0.0007141336913407093
6.30600e-06	-0.0007060183719801961
6.30625e-06	-0.0006979030526196829
6.30650e-06	-0.0006897877332591422
6.30675e-06	-0.0006805127991897076
6.30700e-06	-0.0006679212306693722
6.30725e-06	-0.0006553296621490796
6.30750e-06	-0.0006427380936287869
6.30775e-06	-0.0006301465251084517
6.30800e-06	-0.000617554956588159
6.30825e-06	-0.0006049633880678664
6.30850e-06	-0.000592371819547531
6.30875e-06	-0.0005793768901219503
6.30900e-06	-0.0005652283010676627
6.30925e-06	-0.0005510797120133272
6.30950e-06	-0.0005369311229590397
6.30975e-06	-0.0005227825339047522
6.31000e-06	-0.0005086339448504167
6.31025e-06	-0.0004952733047218956
6.31050e-06	-0.00048216277521751384
6.31075e-06	-0.00046905224571308765
6.31100e-06	-0.00045594171620870586
6.31125e-06	-0.00044283118670427967
6.31150e-06	-0.00043021098045642665
6.31175e-06	-0.0004189931563894375
6.31200e-06	-0.00040819073914586946
6.31225e-06	-0.00039857643427363977
6.31250e-06	-0.00038945173742191565
6.31275e-06	-0.00038224123253905454
6.31300e-06	-0.0003770722724347908
6.31325e-06	-0.00037410149944209543
6.31350e-06	-0.0003732894559685063
6.31375e-06	-0.0003745859745499406
6.31400e-06	-0.00037794090174689406
6.31425e-06	-0.00038331701562752417
6.31450e-06	-0.00039076117373536783
6.31475e-06	-0.00040047246925525187
6.31500e-06	-0.00041264450107090134
6.31525e-06	-0.00042726808330651806
6.31550e-06	-0.00044448036031174986
6.31575e-06	-0.0004641049713253188
6.31600e-06	-0.000484738444176519
6.31625e-06	-0.0005082573805359222
6.31650e-06	-0.000532734312668173
6.31675e-06	-0.0005599512253810749
6.31700e-06	-0.0005880879796062062
6.31725e-06	-0.00061885558873866
6.31750e-06	-0.0006504997468695611
6.31775e-06	-0.0006846509382272
6.31800e-06	-0.0007188021295847232
6.31825e-06	-0.0007536467299914921
6.31850e-06	-0.0007904745618311387
6.31875e-06	-0.0008273023936706603
6.31900e-06	-0.0008645001897709183
6.31925e-06	-0.000902756127168528
6.31950e-06	-0.000941012064566008
6.31975e-06	-0.0009791380188678227
6.32000e-06	-0.0010168922062282286
6.32025e-06	-0.0010546463935886346
6.32050e-06	-0.001091795088927287
6.32075e-06	-0.0011272120058713735
6.32100e-06	-0.00116262892281546
6.32125e-06	-0.0011969558716870574
6.32150e-06	-0.0012281653836798893
6.32175e-06	-0.0012593748956727215
6.32200e-06	-0.0012889738236173752
6.32225e-06	-0.0013139662917633615
6.32250e-06	-0.001338958759909348
6.32275e-06	-0.0013625109992694074
6.32300e-06	-0.0013819440149164413
6.32325e-06	-0.001401377030563475
6.32350e-06	-0.0014194096266325399
6.32375e-06	-0.0014334368580054327
6.32400e-06	-0.001447464089378373
6.32425e-06	-0.00145874785979958
6.32450e-06	-0.0014621850092414845
6.32475e-06	-0.0014656221586834006
6.32500e-06	-0.0014690593081253052
6.32525e-06	-0.0014724964575672096
6.32550e-06	-0.0014759336070091257
6.32575e-06	-0.0014793707564510303
6.32600e-06	-0.0014828079058929347
6.32625e-06	-0.0014862450553348508
6.32650e-06	-0.0014866892526825164
6.32675e-06	-0.0014785732550410655
6.32700e-06	-0.0014704572573995872
6.32725e-06	-0.0014623412597581365
6.32750e-06	-0.0014542252621166855
6.32775e-06	-0.0014461092644752073
6.32800e-06	-0.0014379932668337565
6.32825e-06	-0.001429877269192278
6.32850e-06	-0.0014217612715508273
6.32875e-06	-0.00141249915742844
6.32900e-06	-0.001399959015376522
6.32925e-06	-0.0013874188733246464
6.32950e-06	-0.0013746911253536573
6.32975e-06	-0.0013614268023897586
6.33000e-06	-0.001348162479425905
6.33025e-06	-0.0013349022982281362
6.33050e-06	-0.0013216539629684351
6.33075e-06	-0.0013084056277087792
6.33100e-06	-0.0012956403932727397
6.33125e-06	-0.0012842568840093049
6.33150e-06	-0.0012728733747459087
6.33175e-06	-0.0012614898654825125
6.33200e-06	-0.0012501063562190776
6.33225e-06	-0.0012394521335511784
6.33250e-06	-0.0012308837563171078
6.33275e-06	-0.001222315379083066
6.33300e-06	-0.0012137470018490242
6.33325e-06	-0.0012051786246149536
6.33350e-06	-0.0011972201039397409
6.33375e-06	-0.001191005844747394
6.33400e-06	-0.0011847915855550263
6.33425e-06	-0.0011785773263626796
6.33450e-06	-0.001172363067170333
6.33475e-06	-0.0011661488079779652
6.33500e-06	-0.0011599345487856186
6.33525e-06	-0.001153720289593272
6.33550e-06	-0.0011475060304009042
6.33575e-06	-0.0011412917712085575
6.33600e-06	-0.0011350775120162106
6.33625e-06	-0.001128863252823843
6.33650e-06	-0.0011226489936314963
6.33675e-06	-0.0011177494106995405
6.33700e-06	-0.0011132671320992047
6.33725e-06	-0.0011087848534988688
6.33750e-06	-0.001104302574898518
6.33775e-06	-0.0010998202962981822
6.33800e-06	-0.0010953380176978466
6.33825e-06	-0.0010908557390974956
6.33850e-06	-0.00108637346049716
6.33875e-06	-0.0010818911818968242
6.33900e-06	-0.0010774089032964732
6.33925e-06	-0.0010729266246961376
6.33950e-06	-0.0010684443460958017
6.33975e-06	-0.0010641984220014292
6.34000e-06	-0.0010606284995914774
6.34025e-06	-0.0010570585771815257
6.34050e-06	-0.001053488654771562
6.34075e-06	-0.0010499187323616103
6.34100e-06	-0.0010465219015944071
6.34125e-06	-0.001043620133282549
6.34150e-06	-0.0010407183649706908
6.34175e-06	-0.0010378165966588228
6.34200e-06	-0.0010349148283469646
6.34225e-06	-0.0010326977130694645
6.34250e-06	-0.0010324387859911668
6.34275e-06	-0.0010321798589128701
6.34300e-06	-0.0010319209318345735
6.34325e-06	-0.0010316620047562757
6.34350e-06	-0.001031403077677979
6.34375e-06	-0.0010326410321114272
6.34400e-06	-0.0010381602437141535
6.34425e-06	-0.0010436794553168613
6.34450e-06	-0.001049198666919569
6.34475e-06	-0.0010547178785222954
6.34500e-06	-0.001060237090125003
6.34525e-06	-0.0010676782769261802
6.34550e-06	-0.001080616538834826
6.34575e-06	-0.0010935548007434722
6.34600e-06	-0.001106493062652162
6.34625e-06	-0.0011194313245608079
6.34650e-06	-0.001132369586469454
6.34675e-06	-0.0011453078483781437
6.34700e-06	-0.0011582461102867896
6.34725e-06	-0.0011711843721954355
6.34750e-06	-0.0011884086315764194
6.34775e-06	-0.0012069933515998304
6.34800e-06	-0.0012255780716232414
6.34825e-06	-0.0012441627916467152
6.34850e-06	-0.0012627475116701262
6.34875e-06	-0.0012813322316935372
6.34900e-06	-0.001299916951717011
6.34925e-06	-0.001318501671740422
6.34950e-06	-0.0013372657464382346
6.34975e-06	-0.0013565427965981061
6.35000e-06	-0.0013758198467579777
6.35025e-06	-0.0013950968969179145
6.35050e-06	-0.001414373947077786
6.35075e-06	-0.0014329752781534859
6.35100e-06	-0.0014496439731786883
6.35125e-06	-0.0014663126682038343
6.35150e-06	-0.0014829813632289803
6.35175e-06	-0.0014996500582541829
6.35200e-06	-0.0015154208746876157
6.35225e-06	-0.0015286236527513302
6.35250e-06	-0.0015404447597648265
6.35275e-06	-0.0015483141250794692
6.35300e-06	-0.0015561834903941119
6.35325e-06	-0.001561842811335509
6.35350e-06	-0.001561181145451352
6.35375e-06	-0.0015605194795671926
6.35400e-06	-0.0015577127105935212
6.35425e-06	-0.0015487706945035654
6.35450e-06	-0.001539828678413579
6.35475e-06	-0.0015284672979176267
6.35500e-06	-0.0015101862506851776
6.35525e-06	-0.0014919052034526668
6.35550e-06	-0.001471341218774297
6.35575e-06	-0.0014442477645101926
6.35600e-06	-0.0014171543102459963
6.35625e-06	-0.0013884904756381782
6.35650e-06	-0.0013553351685590249
6.35675e-06	-0.0013287541454001593
6.35700e-06	-0.0012919500940101582
6.35725e-06	-0.008327114815938326
6.35750e-06	-0.016181229460504713
6.35775e-06	-0.014173107938157816
6.35800e-06	-0.011995010893266475
6.35825e-06	-0.006051008226045295
6.35850e-06	0.00013442026345317855
6.35875e-06	0.0005846792305455393
6.35900e-06	-0.00010794583580159045
6.35925e-06	-0.003936136702902917
6.35950e-06	-0.008781982721582803
6.35975e-06	-0.008404397154563474
6.36000e-06	-0.006823547191600131
6.36025e-06	-0.0031924457264543024
6.36050e-06	0.00030414871485826955
6.36075e-06	0.0017116158205737653
6.36100e-06	0.0009786521754319092
6.36125e-06	-0.0013536857141153616
6.36150e-06	-0.00376174129246327
6.36175e-06	-0.004406271493647723
6.36200e-06	-0.0033625967178336604
6.36225e-06	-0.0013001509252979354
6.36250e-06	0.0007789053833890118
6.36275e-06	0.001637870758557246
6.36300e-06	0.0011594124581518676
6.36325e-06	-0.00031739524834193734
6.36350e-06	-0.0018384324717272225
6.36375e-06	-0.0022520166591254304
6.36400e-06	-0.0016057488978823405
6.36425e-06	-0.00031932136407145627
6.36450e-06	0.0009792360102010601
6.36475e-06	0.0015150699941427904
6.36500e-06	0.0012145621403719523
6.36525e-06	0.0002900013576196556
6.36550e-06	-0.0006610789654470122
6.36575e-06	-0.000917437118195979
6.36600e-06	-0.0005090798767307062
6.36625e-06	0.0003009333054174297
6.36650e-06	0.0011190800233619204
6.36675e-06	0.0014599161055742608
6.36700e-06	0.0012772812627260578
6.36725e-06	0.0007041089591651398
6.36750e-06	0.00011463134272939068
6.36775e-06	-3.946234783038129e-05
6.36800e-06	0.00022292012480337205
6.36825e-06	0.0007368985714671546
6.36850e-06	0.001255892441563065
6.36875e-06	0.001475769064126098
6.36900e-06	0.0013675795803004054
6.36925e-06	0.0010145584723118112
6.36950e-06	0.0006510763212016425
6.36975e-06	0.0005600003773670025
6.37000e-06	0.0007294050731188227
6.37025e-06	0.0010559340841850326
6.37050e-06	0.0013850666775834472
6.37075e-06	0.0015262479098884073
6.37100e-06	0.001461307721144307
6.37125e-06	0.001242346424975564
6.37150e-06	0.0010161271176588242
6.37175e-06	0.0009597766889881778
6.37200e-06	0.0010657567075551125
6.37225e-06	0.0012692425244798574
6.37250e-06	0.001473081708222173
6.37275e-06	0.0015571173995624476
6.37300e-06	0.0015092798912054626
6.37325e-06	0.0013620370651424812
6.37350e-06	0.0012074431956494462
6.37375e-06	0.0011566120736181914
6.37400e-06	0.0012049785661660576
6.37425e-06	0.0013120956050279775
6.37450e-06	0.0014172707897771677
6.37475e-06	0.0014454080047454471
6.37500e-06	0.0013891206198720309
6.37525e-06	0.0012689197692014856
6.37550e-06	0.001142637915689046
6.37575e-06	0.001080040400204102
6.37600e-06	0.0010784286277010268
6.37625e-06	0.0011126287606771721
6.37650e-06	0.001144788311559809
6.37675e-06	0.0011280362228987882
6.37700e-06	0.001057916848616973
6.37725e-06	0.0009474493871262799
6.37750e-06	0.000833028722680808
6.37775e-06	0.0007585209412030809
6.37800e-06	0.0007223987898643309
6.37825e-06	0.0007090574878911285
6.37850e-06	0.0006949520611364289
6.37875e-06	0.0006508906781786108
6.37900e-06	0.0005742521201331964
6.37925e-06	0.0004733610119358183
6.37950e-06	0.00037118308088726274
6.37975e-06	0.00029536171091827944
6.38000e-06	0.00024510476267733427
6.38025e-06	0.00021080238521792823
6.38050e-06	0.00017787215851815778
6.38075e-06	0.00012819601228220706
6.38100e-06	6.0300506436285935e-05
6.38125e-06	-2.0431492164861418e-05
6.38150e-06	-9.944679560828967e-05
6.38175e-06	-0.0001592636302713565
6.38200e-06	-0.00020021296821728948
6.38225e-06	-0.00022816354414933367
6.38250e-06	-0.00025235435257935405
6.38275e-06	-0.0002846978799118116
6.38300e-06	-0.00032675410494625737
6.38325e-06	-0.0003754714586682717
6.38350e-06	-0.0004218444455128805
6.38375e-06	-0.0004549965917313006
6.38400e-06	-0.000475209859479158
6.38425e-06	-0.00048623489578431976
6.38450e-06	-0.0004939329218738049
6.38475e-06	-0.0005058393364893296
6.38500e-06	-0.000523004315119462
6.38525e-06	-0.0005435893768165103
6.38550e-06	-0.0005620268336851486
6.38575e-06	-0.0005715776558678037
6.38600e-06	-0.0005724927388560331
6.38625e-06	-0.0005671955364405723
6.38650e-06	-0.0005594313581144012
6.38675e-06	-0.0005539938000310594
6.38700e-06	-0.0005516139357871127
6.38725e-06	-0.0005512133584080048
6.38750e-06	-0.0005493779019576171
6.38775e-06	-0.0005419599978904735
6.38800e-06	-0.0005291907258691552
6.38825e-06	-0.0005125646663242131
6.38850e-06	-0.000494743197678446
6.38875e-06	-0.00047931882188577575
6.38900e-06	-0.0004651387808510698
6.38925e-06	-0.00045214398539833504
6.38950e-06	-0.00043976445283483494
6.38975e-06	-0.00042447817086008866
6.39000e-06	-0.00040624992876705493
6.39025e-06	-0.0003865953629188101
6.39050e-06	-0.00036658655223938184
6.39075e-06	-0.0003485245311371157
6.39100e-06	-0.00033293150026029506
6.39125e-06	-0.00031947620432899303
6.39150e-06	-0.00030673761780910505
6.39175e-06	-0.0002932902596040185
6.39200e-06	-0.00027947497687638
6.39225e-06	-0.00026634402906461807
6.39250e-06	-0.0002535683206090257
6.39275e-06	-0.00024241247971315872
6.39300e-06	-0.0002320975146745984
6.39325e-06	-0.0002219640580276058
6.39350e-06	-0.00021192482267875856
