Time(s)	Current(A)
1.40500e-05	-0.004619074827580588
1.40503e-05	-0.004630886000170256
1.40505e-05	-0.004642697172759844
1.40508e-05	-0.004654508345349511
1.40510e-05	-0.004666319517939179
1.40513e-05	-0.004678130690528767
1.40515e-05	-0.004689941863118435
1.40518e-05	-0.004701753035708102
1.40520e-05	-0.00471356420829769
1.40523e-05	-0.004723397777730235
1.40525e-05	-0.004725678819546114
1.40528e-05	-0.004727959861361977
1.40530e-05	-0.0047302409031778556
1.40533e-05	-0.004732521944993733
1.40535e-05	-0.0047348029868095965
1.40538e-05	-0.004737084028625475
1.40540e-05	-0.004739365070441354
1.40543e-05	-0.004741646112257217
1.40545e-05	-0.004743927154073096
1.40548e-05	-0.0047447190942809
1.40550e-05	-0.0047398241093948796
1.40553e-05	-0.004734929124508826
1.40555e-05	-0.004730034139622772
1.40558e-05	-0.004725139154736752
1.40560e-05	-0.004720244169850698
1.40563e-05	-0.004715349184964645
1.40565e-05	-0.004710454200078591
1.40568e-05	-0.004705559215192571
1.40570e-05	-0.004700664230306517
1.40573e-05	-0.004695188037382279
1.40575e-05	-0.004687492192985382
1.40578e-05	-0.004679796348588433
1.40580e-05	-0.004672100504191485
1.40583e-05	-0.0046644046597945875
1.40585e-05	-0.004656708815397639
1.40588e-05	-0.0046490129710006906
1.40590e-05	-0.004641317126603793
1.40593e-05	-0.004633621282206845
1.40595e-05	-0.004625925437809896
1.40598e-05	-0.0046183929007479075
1.40600e-05	-0.004611484039448552
1.40603e-05	-0.0046045751781491956
1.40605e-05	-0.004597955207303082
1.40608e-05	-0.004592438518032347
1.40610e-05	-0.004586921828761612
1.40613e-05	-0.004582150959364201
1.40615e-05	-0.004580228399129327
1.40618e-05	-0.004578305838894454
1.40620e-05	-0.00457772994171653
1.40623e-05	-0.004582296992402021
1.40625e-05	-0.004586864043087511
1.40628e-05	-0.00459143109377297
1.40630e-05	-0.004595998144458461
1.40633e-05	-0.004600565195143951
1.40635e-05	-0.004607020099363995
1.40638e-05	-0.004620684774619627
1.40640e-05	-0.004634349449875259
1.40643e-05	-0.004648014125130799
1.40645e-05	-0.004661678800386431
1.40648e-05	-0.004675343475642062
1.40650e-05	-0.004689988780828256
1.40653e-05	-0.0047093316849591135
1.40655e-05	-0.004732312379928608
1.40658e-05	-0.004755293074898104
1.40660e-05	-0.004778273769867443
1.40663e-05	-0.0048012544648369385
1.40665e-05	-0.004824235159806433
1.40668e-05	-0.004847215854775773
1.40670e-05	-0.004870196549745268
1.40673e-05	-0.004895546898881832
1.40675e-05	-0.004921876878182152
1.40678e-05	-0.004948206857482651
1.40680e-05	-0.00497453683678315
1.40683e-05	-0.00500086681608347
1.40685e-05	-0.00502719679538397
1.40688e-05	-0.0050535267746844685
1.40690e-05	-0.005079479879011449
1.40693e-05	-0.0051039936861591905
1.40695e-05	-0.005128507493306932
1.40698e-05	-0.005151216719382246
1.40700e-05	-0.005167034194529218
1.40703e-05	-0.00518285166967619
1.40705e-05	-0.005198669144823055
1.40708e-05	-0.0052144866199700275
1.40710e-05	-0.005230304095116999
1.40713e-05	-0.005246121570263864
1.40715e-05	-0.005261939045410837
1.40718e-05	-0.005277756520557809
1.40720e-05	-0.005293573995704674
1.40723e-05	-0.005309391470851646
1.40725e-05	-0.0053252089459986185
1.40728e-05	-0.0053410264211454835
1.40730e-05	-0.005354879512073244
1.40733e-05	-0.0053612305589105375
1.40735e-05	-0.00536758160574783
1.40738e-05	-0.00537393265258508
1.40740e-05	-0.005380283699422374
1.40743e-05	-0.005386634746259667
1.40745e-05	-0.0053929857930969174
1.40748e-05	-0.00539933683993421
1.40750e-05	-0.005405687886771504
1.40753e-05	-0.005412038933608754
1.40755e-05	-0.005418389980446046
1.40758e-05	-0.00542474102728334
1.40760e-05	-0.00543109207412059
1.40763e-05	-0.005436605318392253
1.40765e-05	-0.005438918968752488
1.40768e-05	-0.005441232619112707
1.40770e-05	-0.005443546269472942
1.40773e-05	-0.005445859919833176
1.40775e-05	-0.005448173570193395
1.40778e-05	-0.00545048722055363
1.40780e-05	-0.005452800870913864
1.40783e-05	-0.0054551145212740825
1.40785e-05	-0.005457428171634317
1.40788e-05	-0.0054585839944714986
1.40790e-05	-0.005459261164017195
1.40793e-05	-0.005459938333562895
1.40795e-05	-0.005460615503108596
1.40798e-05	-0.005461292672654292
1.40800e-05	-0.005461969842199993
1.40803e-05	-0.005462647011745693
1.40805e-05	-0.005463324181291389
1.40808e-05	-0.005464001350837091
1.40810e-05	-0.0054639473695694395
1.40813e-05	-0.005461101100730499
1.40815e-05	-0.005458254831891539
1.40818e-05	-0.0054554085630525795
1.40820e-05	-0.00545256229421362
1.40823e-05	-0.005449716025374679
1.40825e-05	-0.0054468697565357195
1.40828e-05	-0.00544402348769676
1.40830e-05	-0.005441177218857819
1.40833e-05	-0.0054383309500188595
1.40835e-05	-0.005431107159556528
1.40838e-05	-0.005422073673701656
1.40840e-05	-0.005413040187846722
1.40843e-05	-0.005404006701991789
1.40845e-05	-0.0053949732161369165
1.40848e-05	-0.0053859397302819835
1.40850e-05	-0.00537690624442705
1.40853e-05	-0.005367872758572178
1.40855e-05	-0.005358839272717244
1.40858e-05	-0.005348880302258051
1.40860e-05	-0.005335386877468671
1.40863e-05	-0.005321893452679199
1.40865e-05	-0.0053084000278897266
1.40868e-05	-0.005294906603100346
1.40870e-05	-0.005281413178310874
1.40873e-05	-0.005267919753521402
1.40875e-05	-0.005254426328732021
1.40878e-05	-0.0052409329039425495
1.40880e-05	-0.005227439479153077
1.40883e-05	-0.005213946054363696
1.40885e-05	-0.005200790148168032
1.40888e-05	-0.0051889232359222815
1.40890e-05	-0.005177056323676612
1.40893e-05	-0.005165189411430861
1.40895e-05	-0.005153322499185111
1.40898e-05	-0.005141455586939441
1.40900e-05	-0.005129588674693691
1.40903e-05	-0.00511772176244794
1.40905e-05	-0.00510585485020219
1.40908e-05	-0.005093987937956519
1.40910e-05	-0.005082121025710769
1.40913e-05	-0.005071402063572338
1.40915e-05	-0.005065067158402869
1.40918e-05	-0.005058732253233358
1.40920e-05	-0.005052397348063845
1.40923e-05	-0.005046062442894376
1.40925e-05	-0.0050397275377248646
1.40928e-05	-0.005033392632555352
1.40930e-05	-0.005027057727385883
1.40933e-05	-0.0050207228222163705
1.40935e-05	-0.005014387917046859
1.40938e-05	-0.00500805301187739
1.40940e-05	-0.005001718106707877
1.40943e-05	-0.004995383201538365
1.40945e-05	-0.004989048296368896
1.40948e-05	-0.004982713391199384
1.40950e-05	-0.004976378486029872
1.40953e-05	-0.004970043580860403
1.40955e-05	-0.004963708675690891
1.40958e-05	-0.004957373770521379
1.40960e-05	-0.004951632710513574
1.40963e-05	-0.004948159563547945
1.40965e-05	-0.004944686416582316
1.40968e-05	-0.004941213269616711
1.40970e-05	-0.0049377401226510815
1.40973e-05	-0.004934266975685452
1.40975e-05	-0.004930793828719846
1.40978e-05	-0.004927320681754217
1.40980e-05	-0.004923847534788588
1.40983e-05	-0.004920374387822982
1.40985e-05	-0.004916901240857354
1.40988e-05	-0.004913428093891724
1.40990e-05	-0.004909954946926095
1.40993e-05	-0.004906481799960489
1.40995e-05	-0.00490300865299486
1.40998e-05	-0.004899535506029231
1.41000e-05	-0.004896062359063625
1.41003e-05	-0.004892589212097996
1.41005e-05	-0.004889116065132367
1.41008e-05	-0.004885463184186638
1.41010e-05	-0.004881123893610789
1.41013e-05	-0.00487678460303494
1.41015e-05	-0.004872445312459121
1.41018e-05	-0.004868106021883273
1.41020e-05	-0.004863766731307424
1.41023e-05	-0.004859427440731604
1.41025e-05	-0.0048550881501557555
1.41028e-05	-0.004850748859579907
1.41030e-05	-0.004845331010289973
1.41033e-05	-0.0048357941119054814
1.41035e-05	-0.0048262572135209895
1.41038e-05	-0.004816720315136563
1.41040e-05	-0.004807183416752071
1.41043e-05	-0.00479764651836758
1.41045e-05	-0.004788109619983153
1.41048e-05	-0.004778572721598661
1.41050e-05	-0.004769035823214169
1.41053e-05	-0.004758583089819891
1.41055e-05	-0.004744632754191045
1.41058e-05	-0.004730682418562199
1.41060e-05	-0.004716732082933448
1.41063e-05	-0.0047027817473046015
1.41065e-05	-0.004688831411675755
1.41068e-05	-0.004674881076047003
1.41070e-05	-0.004660930740418158
1.41073e-05	-0.004646980404789312
1.41075e-05	-0.004632417040448412
1.41078e-05	-0.004617600246123188
1.41080e-05	-0.004602783451797865
1.41083e-05	-0.0045879666574725406
1.41085e-05	-0.004573149863147318
1.41088e-05	-0.0045583330688219945
1.41090e-05	-0.00454351627449667
1.41093e-05	-0.0045286994801714475
1.41095e-05	-0.004514344486063062
1.41098e-05	-0.004501753121269583
1.41100e-05	-0.004489161756476188
1.41103e-05	-0.004476570391682709
1.41105e-05	-0.004464373710707006
1.41108e-05	-0.004453684339441607
1.41110e-05	-0.004442994968176136
1.41113e-05	-0.004432305596910665
1.41115e-05	-0.004421030609685624
1.41118e-05	-0.004407519136993532
1.41120e-05	-0.0043940076643014395
1.41123e-05	-0.00437993354934982
1.41125e-05	-0.0043637106862021635
1.41128e-05	-0.004347487823054507
1.41130e-05	-0.004330182757572146
1.41133e-05	-0.004308744727892761
1.41135e-05	-0.004287306698213375
1.41138e-05	-0.004265868668534136
1.41140e-05	-0.004244430638854751
1.41143e-05	-0.004222992609175366
1.41145e-05	-0.004196752066702664
1.41148e-05	-0.004168526134771039
1.41150e-05	-0.004140300202839413
1.41153e-05	-0.004112074270907979
1.41155e-05	-0.004083848338976352
1.41158e-05	-0.004054610657487627
1.41160e-05	-0.004021509073139438
1.41163e-05	-0.003988407488791024
1.41165e-05	-0.00395530590444261
1.41168e-05	-0.003922204320094196
1.41170e-05	-0.0038877856999068013
1.41173e-05	-0.0038528226086923033
1.41175e-05	-0.0038178595174778052
1.41178e-05	-0.0037828964262635444
1.41180e-05	-0.0037479156196126647
1.41183e-05	-0.0037128671571621604
1.41185e-05	-0.0036779646054879074
1.41188e-05	-0.003643769840580595
1.41190e-05	-0.0036103201917784653
1.41193e-05	-0.003577700187153973
1.41195e-05	-0.0035459751960464046
1.41198e-05	-0.0035152991342907594
1.41200e-05	-0.003485887308576911
1.41203e-05	-0.0034579583468788556
1.41205e-05	-0.003431730780541533
1.41208e-05	-0.0034074234966005967
1.41210e-05	-0.003385255492513027
1.41213e-05	-0.003365422862252155
1.41215e-05	-0.0033480564156300316
1.41218e-05	-0.003333485443263004
1.41220e-05	-0.0033219645173537234
1.41223e-05	-0.003311531496392519
1.41225e-05	-0.003305253218086371
1.41228e-05	-0.003300090384179363
1.41230e-05	-0.0032991874669432764
1.41233e-05	-0.0032996709919680994
1.41235e-05	-0.003305449382882327
1.41238e-05	-0.003311227773796516
1.41240e-05	-0.00331913510922519
1.41243e-05	-0.003335172949621356
1.41245e-05	-0.003351210790017413
1.41248e-05	-0.0033672486304135787
1.41250e-05	-0.0033832864708097446
1.41253e-05	-0.0033993243112059104
1.41255e-05	-0.00342283922308299
1.41258e-05	-0.0034494452040617607
1.41260e-05	-0.0034760511850405315
1.41263e-05	-0.003502657166019122
1.41265e-05	-0.0035292631469978925
1.41268e-05	-0.0035569705698605602
1.41270e-05	-0.003588884433355336
1.41273e-05	-0.0036207982968503283
1.41275e-05	-0.003653079175872232
1.41278e-05	-0.0036867616985464054
1.41280e-05	-0.003720444221220807
1.41283e-05	-0.0037541226532399
1.41285e-05	-0.0037877854629195773
1.41288e-05	-0.0038214482725994828
1.41290e-05	-0.0038547278168658615
1.41293e-05	-0.0038865436586596595
1.41295e-05	-0.003918359500453674
1.41298e-05	-0.0039492697291401676
1.41300e-05	-0.003976721393349348
1.41303e-05	-0.004004173057558714
1.41305e-05	-0.0040316247217680795
1.41308e-05	-0.0040550787147382505
1.41310e-05	-0.004076880044887424
1.41313e-05	-0.004098681375036598
1.41315e-05	-0.004120169646583328
1.41318e-05	-0.00414046233764191
1.41320e-05	-0.004160755028700493
1.41323e-05	-0.0041810477197589384
1.41325e-05	-0.004201340410817521
1.41328e-05	-0.004220631981854838
1.41330e-05	-0.004239509683481594
1.41333e-05	-0.004258387385108478
1.41335e-05	-0.004277265086735361
1.41338e-05	-0.004296329713057547
1.41340e-05	-0.004316108210574522
1.41343e-05	-0.004335886708091631
1.41345e-05	-0.00435566520560874
1.41348e-05	-0.0043754437031257145
1.41350e-05	-0.004395222200642823
1.41353e-05	-0.004415000698159932
1.41355e-05	-0.004434779195676907
1.41358e-05	-0.004454557693194016
1.41360e-05	-0.004474387007171939
1.41363e-05	-0.004494410390785893
1.41365e-05	-0.004514433774399983
1.41368e-05	-0.004534457158014073
1.41370e-05	-0.004554480541628027
1.41373e-05	-0.004574503925242117
1.41375e-05	-0.004594527308856206
1.41378e-05	-0.0046145506924701605
1.41380e-05	-0.004634574076084251
1.41383e-05	-0.004653955883644143
1.41385e-05	-0.00467088749240158
1.41388e-05	-0.004687819101159132
1.41390e-05	-0.004704750709916684
1.41393e-05	-0.004721682318674121
1.41395e-05	-0.004738613927431673
1.41398e-05	-0.004755545536189225
1.41400e-05	-0.004772477144946662
1.41403e-05	-0.004789408753704215
1.41405e-05	-0.00480091605061901
1.41408e-05	-0.004810180902374903
1.41410e-05	-0.004819445754130859
1.41413e-05	-0.004828710605886815
1.41415e-05	-0.004837975457642707
1.41418e-05	-0.004847240309398663
1.41420e-05	-0.004856505161154619
1.41423e-05	-0.004865770012910574
1.41425e-05	-0.004872971779694143
1.41428e-05	-0.0048722945611314634
1.41430e-05	-0.004871617342568784
1.41433e-05	-0.004870940124006109
1.41435e-05	-0.00487026290544343
1.41438e-05	-0.004869585686880751
1.41440e-05	-0.004868908468318076
1.41443e-05	-0.004868231249755397
1.41445e-05	-0.004867554031192717
1.41448e-05	-0.004866876812630043
1.41450e-05	-0.004860523617398278
1.41453e-05	-0.004851823937160872
1.41455e-05	-0.004843124256923525
1.41458e-05	-0.0048344245766861185
1.41460e-05	-0.004825724896448713
1.41463e-05	-0.004817025216211366
1.41465e-05	-0.00480832553597396
1.41468e-05	-0.004799625855736554
1.41470e-05	-0.004790926175499206
1.41473e-05	-0.004781576664366984
1.41475e-05	-0.004769745428939861
1.41478e-05	-0.004757914193512819
1.41480e-05	-0.004746082958085695
1.41483e-05	-0.004734251722658573
1.41485e-05	-0.00472242048723153
1.41488e-05	-0.0047105892518044075
1.41490e-05	-0.004699381304572149
1.41493e-05	-0.004688431028660488
1.41495e-05	-0.0046774807527487534
1.41498e-05	-0.004666530476837019
1.41500e-05	-0.004655580200925358
1.41503e-05	-0.004644629925013624
1.41505e-05	-0.004634260574186618
1.41508e-05	-0.0046261097942340125
1.41510e-05	-0.004617959014281462
1.41513e-05	-0.004610821750548048
1.41515e-05	-0.00460755513661757
1.41518e-05	-0.004604288522687114
1.41520e-05	-0.004602941337882399
1.41523e-05	-0.004608924512302726
1.41525e-05	-0.0046149076867230115
1.41528e-05	-0.004620890861143338
1.41530e-05	-0.004626874035563664
1.41533e-05	-0.00463285720998395
1.41535e-05	-0.004638840384404277
1.41538e-05	-0.004654023053341684
1.41540e-05	-0.00467300885206729
1.41543e-05	-0.004691994650793025
1.41545e-05	-0.00471098044951876
1.41548e-05	-0.004729966248244366
1.41550e-05	-0.004748952046970101
1.41553e-05	-0.0047702241587830535
1.41555e-05	-0.004800227771023006
1.41558e-05	-0.004830231383263162
1.41560e-05	-0.004860234995503317
1.41563e-05	-0.00489023860774327
1.41565e-05	-0.004920242219983425
1.41568e-05	-0.004950245832223581
1.41570e-05	-0.004980249444463533
1.41573e-05	-0.005013444955912484
1.41575e-05	-0.0050479600188804204
1.41578e-05	-0.005082475081848123
1.41580e-05	-0.005116990144816059
1.41583e-05	-0.0051515052077839955
1.41585e-05	-0.0051860202707516975
1.41588e-05	-0.005220535333719634
1.41590e-05	-0.005254570643345059
1.41593e-05	-0.005286773760109683
1.41595e-05	-0.00531897687687409
1.41598e-05	-0.005350367177208742
1.41600e-05	-0.005378653306444963
1.41603e-05	-0.0054069394356809925
1.41605e-05	-0.005433172690241431
1.41608e-05	-0.005451565952889134
1.41610e-05	-0.005469959215536713
1.41613e-05	-0.005488352478184418
1.41615e-05	-0.005506745740832121
1.41618e-05	-0.0055251390034797
1.41620e-05	-0.005543532266127404
1.41623e-05	-0.005551021102567374
1.41625e-05	-0.005554001979567908
1.41628e-05	-0.005556982856568463
1.41630e-05	-0.005559963733569018
1.41633e-05	-0.0055629446105695535
1.41635e-05	-0.005565925487570109
1.41638e-05	-0.005565664615137407
1.41640e-05	-0.005553023401303195
1.41643e-05	-0.005540382187468898
1.41645e-05	-0.005527740973634601
1.41648e-05	-0.005515099759800389
1.41650e-05	-0.005502458545966093
1.41653e-05	-0.005489817332131795
1.41655e-05	-0.005477176118297584
1.41658e-05	-0.005456179923128144
1.41660e-05	-0.005431729725312248
1.41663e-05	-0.005407279527496519
1.41665e-05	-0.0053828293296806235
1.41668e-05	-0.005358379131864729
1.41670e-05	-0.0053339289340489995
1.41673e-05	-0.005309478736233104
1.41675e-05	-0.005284164707972672
1.41678e-05	-0.0052555516845127605
1.41680e-05	-0.005226938661053043
1.41683e-05	-0.005198325637593131
1.41685e-05	-0.00516971261413322
1.41688e-05	-0.005141099590673503
1.41690e-05	-0.005113077618590097
1.41693e-05	-0.005087312890004218
1.41695e-05	-0.005061548161418514
1.41698e-05	-0.005035783432832635
1.41700e-05	-0.005010018704246755
1.41703e-05	-0.004984253975661051
1.41705e-05	-0.004959715863888175
1.41708e-05	-0.0049398622396833805
1.41710e-05	-0.004920008615478721
1.41713e-05	-0.004900631379251753
1.41715e-05	-0.004883073483454612
1.41718e-05	-0.004865515587657591
1.41720e-05	-0.00484795769186045
1.41723e-05	-0.00483039979606331
1.41725e-05	-0.004812841900266289
1.41728e-05	-0.004795284004469148
1.41730e-05	-0.0047777261086720075
1.41733e-05	-0.004760168212874986
1.41735e-05	-0.004743117608414339
1.41738e-05	-0.00472627672143229
1.41740e-05	-0.0047094358344503566
1.41743e-05	-0.004692594947468308
1.41745e-05	-0.00467575406048626
1.41748e-05	-0.004658913173504326
1.41750e-05	-0.004642072286522278
1.41753e-05	-0.0046252313995402295
1.41755e-05	-0.0046082986592523864
1.41758e-05	-0.004591015128346544
1.41760e-05	-0.0045737315974407
1.41763e-05	-0.004556448066534858
1.41765e-05	-0.004539164535629132
1.41768e-05	-0.00452188100472329
1.41770e-05	-0.004504597473817447
1.41773e-05	-0.004487313942911721
1.41775e-05	-0.004470030412005878
1.41778e-05	-0.004452746881100035
1.41780e-05	-0.004435989170112969
1.41783e-05	-0.00442123958166814
1.41785e-05	-0.004406489993223311
1.41788e-05	-0.004391740404778582
1.41790e-05	-0.004376990816333753
1.41793e-05	-0.004362241227888924
1.41795e-05	-0.004347491639444195
1.41798e-05	-0.004332742050999366
1.41800e-05	-0.004317992462554537
1.41803e-05	-0.004303242874109808
1.41805e-05	-0.004289305892730094
1.41808e-05	-0.0042784722828808795
1.41810e-05	-0.004267638673031739
1.41813e-05	-0.004256485715064026
1.41815e-05	-0.004244113156748431
1.41818e-05	-0.00423174059843292
1.41820e-05	-0.004219368040117325
1.41823e-05	-0.004206995481801729
1.41825e-05	-0.004194622923486218
1.41828e-05	-0.004182250365170624
1.41830e-05	-0.004169877806855029
1.41833e-05	-0.004154443771680985
1.41835e-05	-0.004137744102419211
1.41838e-05	-0.004121044433157438
1.41840e-05	-0.004104344763895778
1.41843e-05	-0.004087645094634004
1.41845e-05	-0.004070945425372231
1.41848e-05	-0.004054245756110457
1.41850e-05	-0.004036682407048059
1.41853e-05	-0.004015820638096276
1.41855e-05	-0.003994958869144493
1.41858e-05	-0.003974097100192852
1.41860e-05	-0.0039532353312410696
1.41863e-05	-0.003932373562289287
1.41865e-05	-0.003911511793337645
1.41868e-05	-0.0038893593763462023
1.41870e-05	-0.003866673397211441
1.41873e-05	-0.0038439874180768332
1.41875e-05	-0.003821301438942072
1.41878e-05	-0.0037986154598073107
1.41880e-05	-0.003775929480672703
1.41883e-05	-0.003753368147595788
1.41885e-05	-0.0037312828416715712
1.41888e-05	-0.003709197535747504
1.41890e-05	-0.003687444088260724
1.41893e-05	-0.003666958018417551
1.41895e-05	-0.0036464719485745168
1.41898e-05	-0.003627002277733789
1.41900e-05	-0.0036114142661411624
1.41903e-05	-0.0035958262545486416
1.41905e-05	-0.003580238242956015
1.41908e-05	-0.0035646502313633885
1.41910e-05	-0.0035490622197708677
1.41913e-05	-0.003533474208178241
1.41915e-05	-0.0035178861965856146
1.41918e-05	-0.0035022981849930934
1.41920e-05	-0.0034874263762816335
1.41923e-05	-0.0034752897685403177
1.41925e-05	-0.0034631531607990837
1.41928e-05	-0.0034510165530577674
1.41930e-05	-0.003438879945316451
1.41933e-05	-0.0034267433375751353
1.41935e-05	-0.0034146067298339014
1.41938e-05	-0.003402470122092585
1.41940e-05	-0.0033903335143512688
1.41943e-05	-0.0033782624436588817
1.41945e-05	-0.003366441660984405
1.41948e-05	-0.0033546208783099287
1.41950e-05	-0.0033428000956355324
1.41953e-05	-0.003330979312961056
1.41955e-05	-0.0033191585302865794
1.41958e-05	-0.0033073377476121827
1.41960e-05	-0.003295516964937706
