Time(s)	Current(A)
6.25000e-06	0.002093159453916794
6.25025e-06	0.0021225334424259763
6.25050e-06	0.0021519074309352577
6.25075e-06	0.00218128141944444
6.25100e-06	0.0022106554079537218
6.25125e-06	0.002240029396462904
6.25150e-06	0.00226740537624089
6.25175e-06	0.002276294775709818
6.25200e-06	0.0022851841751787153
6.25225e-06	0.002294073574647613
6.25250e-06	0.002302962974116541
6.25275e-06	0.0023118523735854383
6.25300e-06	0.0023207417730543357
6.25325e-06	0.0023296311725232634
6.25350e-06	0.0023385205719921613
6.25375e-06	0.0023474099714610587
6.25400e-06	0.0023562993709299864
6.25425e-06	0.002365188770398884
6.25450e-06	0.0023740781698677817
6.25475e-06	0.0023748776562800625
6.25500e-06	0.0023702282944184595
6.25525e-06	0.002365578932556841
6.25550e-06	0.002360929570695238
6.25575e-06	0.0023562802088336354
6.25600e-06	0.0023516308469720168
6.25625e-06	0.002346981485110414
6.25650e-06	0.002342332123248811
6.25675e-06	0.0023376827613871922
6.25700e-06	0.0023330333995255897
6.25725e-06	0.002327979851477043
6.25750e-06	0.0023191865698196563
6.25775e-06	0.0023103932881623
6.25800e-06	0.0023016000065049433
6.25825e-06	0.0022928067248475566
6.25850e-06	0.0022840134431902004
6.25875e-06	0.0022752201615328436
6.25900e-06	0.0022664268798754574
6.25925e-06	0.0022576335982181007
6.25950e-06	0.0022488403165607145
6.25975e-06	0.0022400470349033578
6.26000e-06	0.0022312003033364467
6.26025e-06	0.002222317571327308
6.26050e-06	0.002213434839318199
6.26075e-06	0.00220455210730909
6.26100e-06	0.0021956693752999508
6.26125e-06	0.002186786643290842
6.26150e-06	0.002177903911281733
6.26175e-06	0.002169021179272594
6.26200e-06	0.002160138447263485
6.26225e-06	0.002151255715254376
6.26250e-06	0.002142372983245237
6.26275e-06	0.002132606958769623
6.26300e-06	0.002114668268752521
6.26325e-06	0.002096729578735359
6.26350e-06	0.0020787908887182575
6.26375e-06	0.002060852198701095
6.26400e-06	0.0020429135086839933
6.26425e-06	0.002024974818666892
6.26450e-06	0.0020070361286497296
6.26475e-06	0.0019890974386326276
6.26500e-06	0.001971158748615526
6.26525e-06	0.001953220058598364
6.26550e-06	0.0019352813685812621
6.26575e-06	0.0019133869592946667
6.26600e-06	0.0018888282303845324
6.26625e-06	0.001864269501474481
6.26650e-06	0.0018397107725644298
6.26675e-06	0.0018151520436542952
6.26700e-06	0.001790593314744244
6.26725e-06	0.0017660345858341927
6.26750e-06	0.0017414758569240581
6.26775e-06	0.0017173872660440025
6.26800e-06	0.0016936153300864379
6.26825e-06	0.001669843394128954
6.26850e-06	0.00164607145817147
6.26875e-06	0.0016222995222139056
6.26900e-06	0.0015985275862564216
6.26925e-06	0.0015747556502989377
6.26950e-06	0.001550983714341373
6.26975e-06	0.0015298513528235204
6.27000e-06	0.0015104968399085052
6.27025e-06	0.0014911423269934243
6.27050e-06	0.0014751961669756816
6.27075e-06	0.0014615456555842207
6.27100e-06	0.0014478951441927136
6.27125e-06	0.0014403173678581066
6.27150e-06	0.0014368297976468153
6.27175e-06	0.0014386134288013734
6.27200e-06	0.0014439474042245008
6.27225e-06	0.001454257566530251
6.27250e-06	0.001467919370207929
6.27275e-06	0.0014869177292027
6.27300e-06	0.0015095104507097299
6.27325e-06	0.001538248113129253
6.27350e-06	0.0015711246149204322
6.27375e-06	0.0016096365472298793
6.27400e-06	0.001651944145280563
6.27425e-06	0.001700288989929017
6.27450e-06	0.0017527001379433625
6.27475e-06	0.0018051112859575305
6.27500e-06	0.0018643936535643387
6.27525e-06	0.001928304035433037
6.27550e-06	0.0019922144173015184
6.27575e-06	0.002063384571595859
6.27600e-06	0.00213944444450153
6.27625e-06	0.0022155043174069433
6.27650e-06	0.002291564190312614
6.27675e-06	0.0023676240632180276
6.27700e-06	0.002443683936123441
6.27725e-06	0.002523055933827412
6.27750e-06	0.0026046587670611855
6.27775e-06	0.0026862616002949593
6.27800e-06	0.0027678644335290092
6.27825e-06	0.002849467266762783
6.27850e-06	0.0029310700999965566
6.27875e-06	0.0030052406133883732
6.27900e-06	0.00307440519125995
6.27925e-06	0.003143569769131527
6.27950e-06	0.0032127343470033376
6.27975e-06	0.003281898924874914
6.28000e-06	0.003351063502746491
6.28025e-06	0.003420228080618302
6.28050e-06	0.0034861602923607414
6.28075e-06	0.0035221850292222433
6.28100e-06	0.003558209766083623
6.28125e-06	0.003594234502945003
6.28150e-06	0.0036302592398065048
6.28175e-06	0.0036662839766678844
6.28200e-06	0.003702308713529264
6.28225e-06	0.003738333450390766
6.28250e-06	0.0037577192034435277
6.28275e-06	0.003765898000683586
6.28300e-06	0.0037740767979236724
6.28325e-06	0.0037733420443063314
6.28350e-06	0.003766603692648345
6.28375e-06	0.003759865340990335
6.28400e-06	0.003739438066881694
6.28425e-06	0.003709790809702679
6.28450e-06	0.0036801435525235632
6.28475e-06	0.0036504962953445483
6.28500e-06	0.003620849038165433
6.28525e-06	0.0035912017809864175
6.28550e-06	0.0035615545238074026
6.28575e-06	0.0035297726542566385
6.28600e-06	0.0034782402789408015
6.28625e-06	0.0034267079036249645
6.28650e-06	0.0033751755283089532
6.28675e-06	0.0033236431529931167
6.28700e-06	0.0032721107776772797
6.28725e-06	0.0032205784023612684
6.28750e-06	0.0031690460270454314
6.28775e-06	0.003114783782787268
6.28800e-06	0.003058682873321952
6.28825e-06	0.0030025819638568266
6.28850e-06	0.002946481054391701
6.28875e-06	0.0028903801449263852
6.28900e-06	0.0028342792354612597
6.28925e-06	0.002778178325995944
6.28950e-06	0.0027297430230985857
6.28975e-06	0.002686470782745104
6.29000e-06	0.002643198542391475
6.29025e-06	0.002599926302037993
6.29050e-06	0.002556654061684511
6.29075e-06	0.002513381821330882
6.29100e-06	0.0024701095809774
6.29125e-06	0.002432233825013215
6.29150e-06	0.002397992795951722
6.29175e-06	0.002363751766890345
6.29200e-06	0.002329510737828968
6.29225e-06	0.002295269708767475
6.29250e-06	0.002261028679706098
6.29275e-06	0.0022267876506447204
6.29300e-06	0.0021925466215832277
6.29325e-06	0.0021583055925218507
6.29350e-06	0.0021240645634603575
6.29375e-06	0.0020899347022004
6.29400e-06	0.0020558797164648345
6.29425e-06	0.0020218247307291536
6.29450e-06	0.0019877697449935884
6.29475e-06	0.001953714759258023
6.29500e-06	0.001919659773522342
6.29525e-06	0.0018856047877867767
6.29550e-06	0.0018515498020512111
6.29575e-06	0.0018174948163155304
6.29600e-06	0.001783439830579965
6.29625e-06	0.0017493329396395722
6.29650e-06	0.0017151910886712468
6.29675e-06	0.0016810492377030372
6.29700e-06	0.0016469073867348275
6.29725e-06	0.001612765535766502
6.29750e-06	0.0015786236847982924
6.29775e-06	0.0015444818338300828
6.29800e-06	0.0015107818140641727
6.29825e-06	0.0014811698384886926
6.29850e-06	0.001451557862913112
6.29875e-06	0.0014219458873376322
6.29900e-06	0.0013923339117621518
6.29925e-06	0.0013627219361865715
6.29950e-06	0.0013331099606110914
6.29975e-06	0.0013034979850356113
6.30000e-06	0.0012778942413721713
6.30025e-06	0.0012549901864895455
6.30050e-06	0.0012320861316069199
6.30075e-06	0.0012128697809536252
6.30100e-06	0.0011961372321244571
6.30125e-06	0.001184032223022558
6.30150e-06	0.0011750440288549136
6.30175e-06	0.001170767510235773
6.30200e-06	0.0011696644750614628
6.30225e-06	0.0011731311731924777
6.30250e-06	0.0011796757515472834
6.30275e-06	0.0011910438271393903
6.30300e-06	0.0012056607021173366
6.30325e-06	0.0012255671429575326
6.30350e-06	0.0012490362972149395
6.30375e-06	0.0012773937809421815
6.30400e-06	0.001309043730902592
6.30425e-06	0.0013450391447286773
6.30450e-06	0.0013839613852206338
6.30475e-06	0.001427932064827083
6.30500e-06	0.0014753030502880214
6.30525e-06	0.0015226740357487997
6.30550e-06	0.0015753569282221742
6.30575e-06	0.001631617581683384
6.30600e-06	0.0016878782351444034
6.30625e-06	0.00174887168796089
6.30650e-06	0.0018130528518681586
6.30675e-06	0.0018772340157752097
6.30700e-06	0.001941415179682478
6.30725e-06	0.0020055963435895293
6.30750e-06	0.0020697775074965804
6.30775e-06	0.0021346809618351128
6.30800e-06	0.0022000709048338005
6.30825e-06	0.0022654608478324878
6.30850e-06	0.0023308507908313967
6.30875e-06	0.0023962407338300844
6.30900e-06	0.0024616306768287717
6.30925e-06	0.002514818333725488
6.30950e-06	0.0025597873107638305
6.30975e-06	0.0026047562878021725
6.31000e-06	0.002649725264840667
6.31025e-06	0.002694694241879009
6.31050e-06	0.0027396632189173515
6.31075e-06	0.0027846321959558457
6.31100e-06	0.002829601172994188
6.31125e-06	0.002874570150032683
6.31150e-06	0.002919539127071025
6.31175e-06	0.0029606039837708166
6.31200e-06	0.002965545958315643
6.31225e-06	0.0029704879328604525
6.31250e-06	0.0029754299074052624
6.31275e-06	0.002980371881950089
6.31300e-06	0.0029853138564948987
6.31325e-06	0.0029902558310397087
6.31350e-06	0.002995197805584535
6.31375e-06	0.003000139780129345
6.31400e-06	0.0030050817546741545
6.31425e-06	0.003010023729218981
6.31450e-06	0.0029972152479739926
6.31475e-06	0.0029724511944504576
6.31500e-06	0.002947687140926839
6.31525e-06	0.002922923087403304
6.31550e-06	0.002898159033879685
6.31575e-06	0.00287339498035615
6.31600e-06	0.0028486309268326154
6.31625e-06	0.0028225783888453327
6.31650e-06	0.0027846041454825795
6.31675e-06	0.0027466299021198263
6.31700e-06	0.0027086556587569443
6.31725e-06	0.002670681415394191
6.31750e-06	0.002632707172031438
6.31775e-06	0.002594732928668556
6.31800e-06	0.0025567586853058027
6.31825e-06	0.002518314705056512
6.31850e-06	0.002479554340069425
6.31875e-06	0.002440793975082469
6.31900e-06	0.0024020336100955128
6.31925e-06	0.0023632732451084252
6.31950e-06	0.002324512880121469
6.31975e-06	0.0022920013128339043
6.32000e-06	0.0022636985362066617
6.32025e-06	0.002235395759579419
6.32050e-06	0.0022070929829520807
6.32075e-06	0.002178790206324838
6.32100e-06	0.0021504874296975956
6.32125e-06	0.002132670710196271
6.32150e-06	0.002121916728427186
6.32175e-06	0.002111162746658101
6.32200e-06	0.0021088154371350586
6.32225e-06	0.0021121303246189735
6.32250e-06	0.002115445212102888
6.32275e-06	0.002127548530730589
6.32300e-06	0.0021455711747536896
6.32325e-06	0.0021635938187767904
6.32350e-06	0.0021907129629861835
6.32375e-06	0.002223958928203734
6.32400e-06	0.0022572048934213973
6.32425e-06	0.002298309100282201
6.32450e-06	0.0023447061163554676
6.32475e-06	0.0023911031324288915
6.32500e-06	0.0024446233929675
6.32525e-06	0.0025029414156060594
6.32550e-06	0.002561259438244816
6.32575e-06	0.0026274229315685917
6.32600e-06	0.0026988706324037643
6.32625e-06	0.0027703183332391792
6.32650e-06	0.0028417660340743518
6.32675e-06	0.0029132137349095243
6.32700e-06	0.0029846614357449393
6.32725e-06	0.0030566459156270544
6.32750e-06	0.0031335969448360646
6.32775e-06	0.0032105479740453355
6.32800e-06	0.003287499003254346
6.32825e-06	0.003364450032463617
6.32850e-06	0.0034414010616726273
6.32875e-06	0.0035183520908816375
6.32900e-06	0.0035841965478878926
6.32925e-06	0.0036425603278750413
6.32950e-06	0.0037009241078621905
6.32975e-06	0.0037592878878495374
6.33000e-06	0.0038176516678366866
6.33025e-06	0.0038760154478238358
6.33050e-06	0.003934379227811182
6.33075e-06	0.003992743007798331
6.33100e-06	0.004051106787785481
6.33125e-06	0.004105252985858971
6.33150e-06	0.004120375997893491
6.33175e-06	0.00413549900992801
6.33200e-06	0.004150622021962581
6.33225e-06	0.0041657450339971
6.33250e-06	0.004180868046031671
6.33275e-06	0.0041959910580661895
6.33300e-06	0.004211114070100708
6.33325e-06	0.004226237082135279
6.33350e-06	0.004241360094169798
6.33375e-06	0.004233268806455823
6.33400e-06	0.00420954185046823
6.33425e-06	0.004185814894480717
6.33450e-06	0.004162087938493204
6.33475e-06	0.0041383609825056105
6.33500e-06	0.0041146340265180974
6.33525e-06	0.004090907070530584
6.33550e-06	0.004067180114542991
6.33575e-06	0.004029913517184145
6.33600e-06	0.003983527482956237
6.33625e-06	0.003937141448728173
6.33650e-06	0.003890755414500265
6.33675e-06	0.0038443693802722003
6.33700e-06	0.0037979833460442926
6.33725e-06	0.003751597311816385
6.33750e-06	0.0037052112775883203
6.33775e-06	0.0036561108736003194
6.33800e-06	0.0036051822436655202
6.33825e-06	0.0035542536137305484
6.33850e-06	0.003503324983795749
6.33875e-06	0.0034523963538609496
6.33900e-06	0.003401467723925978
6.33925e-06	0.0033505390939911786
6.33950e-06	0.003300853508044073
6.33975e-06	0.00326266918935246
6.34000e-06	0.0032244848706609766
6.34025e-06	0.003186300551969493
6.34050e-06	0.0031481162332778804
6.34075e-06	0.003109931914586397
6.34100e-06	0.003071747595894784
6.34125e-06	0.0030335632772033006
6.34150e-06	0.003001489486868198
6.34175e-06	0.002973531357801129
6.34200e-06	0.0029455732287341553
6.34225e-06	0.0029176150996671813
6.34250e-06	0.002889656970600113
6.34275e-06	0.002861698841533139
6.34300e-06	0.002833740712466165
6.34325e-06	0.0028057825833990965
6.34350e-06	0.0027778244543321226
6.34375e-06	0.0027498663252651483
6.34400e-06	0.00272190819619808
6.34425e-06	0.002693950067131106
6.34450e-06	0.002665991938064132
6.34475e-06	0.0026380338089970635
6.34500e-06	0.0026100756799300896
6.34525e-06	0.0025821175508630207
6.34550e-06	0.002556739746393779
6.34575e-06	0.0025330998836189077
6.34600e-06	0.002509460020843956
6.34625e-06	0.002485820158069085
6.34650e-06	0.0024621802952942136
6.34675e-06	0.002438540432519262
6.34700e-06	0.0024149005697443908
6.34725e-06	0.0023912607069695195
6.34750e-06	0.0023676208441945684
6.34775e-06	0.002343980981419697
6.34800e-06	0.002320341118644826
6.34825e-06	0.0022967012558698743
6.34850e-06	0.002273061393095003
6.34875e-06	0.0022494215303201317
6.34900e-06	0.00222578166754518
6.34925e-06	0.002202141804770309
6.34950e-06	0.0021834348453660707
6.34975e-06	0.002168050374322126
6.35000e-06	0.002152665903278182
6.35025e-06	0.0021372814322341855
6.35050e-06	0.002121896961190241
6.35075e-06	0.002106512490146297
6.35100e-06	0.0020911280191023003
6.35125e-06	0.0020757435480583558
6.35150e-06	0.0020603590770144117
6.35175e-06	0.002044974605970415
6.35200e-06	0.0020318543867386893
6.35225e-06	0.002020259222778679
6.35250e-06	0.0020086640588186304
6.35275e-06	0.0019970688948586206
6.35300e-06	0.0019854737308986105
6.35325e-06	0.0019738785669385617
6.35350e-06	0.0019622834029785516
6.35375e-06	0.0019506882390185026
6.35400e-06	0.0019390930750584929
6.35425e-06	0.001927497911098483
6.35450e-06	0.001916322028296269
6.35475e-06	0.0019054285464782082
6.35500e-06	0.0018945350646601472
6.35525e-06	0.0018836415828420495
6.35550e-06	0.0018727481010239885
6.35575e-06	0.0018618546192059274
6.35600e-06	0.0018509611373878298
6.35625e-06	0.0018400676555697687
6.35650e-06	0.001829174173751708
6.35675e-06	0.00181828069193361
6.35700e-06	0.0018073872101155492
6.35725e-06	0.0017964937282974882
6.35750e-06	0.0017856002464793903
6.35775e-06	0.0017749722571855373
6.35800e-06	0.0017668007380589035
6.35825e-06	0.0017586292189322973
6.35850e-06	0.0017504576998056912
6.35875e-06	0.0017422861806790574
6.35900e-06	0.0017341146615524512
6.35925e-06	0.0017259431424258452
6.35950e-06	0.0017177716232992112
6.35975e-06	0.0017096001041726051
6.36000e-06	0.0017014285850459991
6.36025e-06	0.0016932570659193651
6.36050e-06	0.001685085546792759
6.36075e-06	0.001676914027666153
6.36100e-06	0.001668742508539519
6.36125e-06	0.0016647298828408323
6.36150e-06	0.0016635184218851153
6.36175e-06	0.001662306960929394
6.36200e-06	0.0016610954999736768
6.36225e-06	0.0016598840390179557
6.36250e-06	0.0016586725780622386
6.36275e-06	0.0016574611171065216
6.36300e-06	0.0016562496561508002
6.36325e-06	0.0016550381951950831
6.36350e-06	0.001653826734239366
6.36375e-06	0.001652615273283645
6.36400e-06	0.0016514038123279279
6.36425e-06	0.0016501923513722106
6.36450e-06	0.001649560594373664
6.36475e-06	0.0016542925495183556
6.36500e-06	0.0016590245046630475
6.36525e-06	0.0016637564598077552
6.36550e-06	0.001668488414952447
6.36575e-06	0.0016732203700971387
6.36600e-06	0.0016779523252418466
6.36625e-06	0.0016826842803865383
6.36650e-06	0.0016874162355312462
6.36675e-06	0.0016921481906759378
6.36700e-06	0.0016968801458206297
6.36725e-06	0.0017016121009653374
6.36750e-06	0.0017063440561100292
6.36775e-06	0.0017110760112547209
6.36800e-06	0.0017161708862782701
6.36825e-06	0.001721510200931385
6.36850e-06	0.0017268495155845
6.36875e-06	0.0017321888302376327
6.36900e-06	0.0017375281448907475
6.36925e-06	0.0017428674595438625
6.36950e-06	0.0017482067741969953
6.36975e-06	0.0017535460888501101
6.37000e-06	0.0017588854035032252
6.37025e-06	0.001764224718156358
6.37050e-06	0.0017695640328094727
6.37075e-06	0.0017751631823021339
6.37100e-06	0.0017809373399319053
6.37125e-06	0.001786711497561677
6.37150e-06	0.0017924856551914683
6.37175e-06	0.00179825981282124
6.37200e-06	0.0018040339704510117
6.37225e-06	0.001809808128080803
6.37250e-06	0.0018155822857105746
6.37275e-06	0.0018213564433403463
6.37300e-06	0.0018271306009701375
6.37325e-06	0.001832904758599909
6.37350e-06	0.0018416413873258237
6.37375e-06	0.0018523733471965662
6.37400e-06	0.001863105307067272
6.37425e-06	0.0018738372669379782
6.37450e-06	0.0018845692268087205
6.37475e-06	0.0018953011866794265
6.37500e-06	0.0019060331465501688
6.37525e-06	0.001916765106420875
6.37550e-06	0.001927497066291581
6.37575e-06	0.0019382290261623233
6.37600e-06	0.0019489609860330293
6.37625e-06	0.0019596929459037354
6.37650e-06	0.0019715842109016613
6.37675e-06	0.0019842563097208278
6.37700e-06	0.001996928408539994
6.37725e-06	0.0020096005073592035
6.37750e-06	0.00202227260617837
6.37775e-06	0.0020349447049975364
6.37800e-06	0.0020476168038167457
6.37825e-06	0.002060288902635912
6.37850e-06	0.0020729610014550786
6.37875e-06	0.002085633100274288
6.37900e-06	0.0020983051990934544
6.37925e-06	0.0021109772979126637
6.37950e-06	0.0021218628119287625
6.37975e-06	0.0021315449966348944
6.38000e-06	0.002141227181341059
6.38025e-06	0.0021509093660471903
6.38050e-06	0.0021605915507533218
6.38075e-06	0.002170273735459486
6.38100e-06	0.002181768509742996
6.38125e-06	0.0021944841284899717
6.38150e-06	0.002207199747236991
6.38175e-06	0.002219915365983967
6.38200e-06	0.0022326309847309433
6.38225e-06	0.002245346603477962
6.38250e-06	0.0022649282941998783
6.38275e-06	0.002289134532067353
6.38300e-06	0.0023133407699349098
6.38325e-06	0.0023375470078023843
6.38350e-06	0.002361753245669941
6.38375e-06	0.0023859594835374154
6.38400e-06	0.00241016572140489
6.38425e-06	0.0024343719592724465
6.38450e-06	0.002458578197139921
6.38475e-06	0.0024827844350073956
6.38500e-06	0.0025144545045275835
6.38525e-06	0.0025511517338980584
6.38550e-06	0.0025878489632685333
6.38575e-06	0.0026245461926391322
6.38600e-06	0.002661243422009607
6.38625e-06	0.002697940651380082
6.38650e-06	0.002734637880750681
6.38675e-06	0.002771335110121156
6.38700e-06	0.002808032339491631
6.38725e-06	0.0028447295688622297
6.38750e-06	0.002882582924532959
6.38775e-06	0.0029212149729703285
6.38800e-06	0.0029598470214075674
6.38825e-06	0.002998479069844806
6.38850e-06	0.0030371111182821756
6.38875e-06	0.003075743166719414
6.38900e-06	0.0031136438424354857
6.38925e-06	0.0031447774904436914
6.38950e-06	0.0031759111384517913
6.38975e-06	0.003207044786459891
6.39000e-06	0.003238178434468097
6.39025e-06	0.003269312082476197
6.39050e-06	0.0033004457304842967
6.39075e-06	0.003327072147073466
6.39100e-06	0.00334506977678715
6.39125e-06	0.003359300316604496
6.39150e-06	0.0033735308564218913
6.39175e-06	0.0033877613962392376
6.39200e-06	0.0034019919360566324
6.39225e-06	0.003416222475873979
6.39250e-06	0.003430453015691326
6.39275e-06	0.0034446835555087207
6.39300e-06	0.0034589140953260674
6.39325e-06	0.003473144635143414
6.39350e-06	0.003487375174960809
6.39375e-06	0.0035016057147781556
6.39400e-06	0.0035158362545955023
6.39425e-06	0.0035247653995448807
6.39450e-06	0.0035261804463600772
6.39475e-06	0.003527595493175274
6.39500e-06	0.003529010539990476
6.39525e-06	0.003530425586805673
6.39550e-06	0.0035318406336208694
6.39575e-06	0.003533255680436071
6.39600e-06	0.003534670727251268
6.39625e-06	0.00353608577406647
6.39650e-06	0.0035375008208816663
6.39675e-06	0.0035389158676968633
6.39700e-06	0.003540330914512065
6.39725e-06	0.003541745961327262
6.39750e-06	0.003542702006528564
6.39775e-06	0.0035410940869700226
6.39800e-06	-0.02827532774908008
6.39825e-06	-0.023367478711774806
6.39850e-06	-0.015203498899009488
