Time(s)	Current(A)
1.50000e-06	-0.009076986065820197
1.50025e-06	-0.00906731959489985
1.50050e-06	-0.009057653123979511
1.50075e-06	-0.009047986653059172
1.50100e-06	-0.009038320182138826
1.50125e-06	-0.009028653711218486
1.50150e-06	-0.00901898724029814
1.50175e-06	-0.009009044216991354
1.50200e-06	-0.008998970333532374
1.50225e-06	-0.008988896450073402
1.50250e-06	-0.00897882256661443
1.50275e-06	-0.008969794314647986
1.50300e-06	-0.008961260838727428
1.50325e-06	-0.008952727362806863
1.50350e-06	-0.008944193886886305
1.50375e-06	-0.008935073713077809
1.50400e-06	-0.008925675923241871
1.50425e-06	-0.008916278133405942
1.50450e-06	-0.008906880343570005
1.50475e-06	-0.008897482553734076
1.50500e-06	-0.008888084763898147
1.50525e-06	-0.00887868697406221
1.50550e-06	-0.008868528044541987
1.50575e-06	-0.008854873365481993
1.50600e-06	-0.00884121868642201
1.50625e-06	-0.008827564007362015
1.50650e-06	-0.008813909328302031
1.50675e-06	-0.008800254649242048
1.50700e-06	-0.008786599970182054
1.50725e-06	-0.008772945291122072
1.50750e-06	-0.00875646811146523
1.50775e-06	-0.00873865536981097
1.50800e-06	-0.00872084262815671
1.50825e-06	-0.008703029886502435
1.50850e-06	-0.008685217144848175
1.50875e-06	-0.0086674044031939
1.50900e-06	-0.00864959166153964
1.50925e-06	-0.008630357139216246
1.50950e-06	-0.00861044985309166
1.50975e-06	-0.00859054256696709
1.51000e-06	-0.008570635280842504
1.51025e-06	-0.008550727994717932
1.51050e-06	-0.008530820708593347
1.51075e-06	-0.008510913422468775
1.51100e-06	-0.008491274573495675
1.51125e-06	-0.008471762744675747
1.51150e-06	-0.008452250915855837
1.51175e-06	-0.008433631308668213
1.51200e-06	-0.008415433886441942
1.51225e-06	-0.008397236464215672
1.51250e-06	-0.008380103533622733
1.51275e-06	-0.008363474303391686
1.51300e-06	-0.008348057285002815
1.51325e-06	-0.008333213865808594
1.51350e-06	-0.008319942686954152
1.51375e-06	-0.008307415467002989
1.51400e-06	-0.00829742161702434
1.51425e-06	-0.008288626517070522
1.51450e-06	-0.008279831417116712
1.51475e-06	-0.008274246755653263
1.51500e-06	-0.008270181222174208
1.51525e-06	-0.008266115688695154
1.51550e-06	-0.008267021646181953
1.51575e-06	-0.008270280033429675
1.51600e-06	-0.0082735384206774
1.51625e-06	-0.00827679680792512
1.51650e-06	-0.008280055195172841
1.51675e-06	-0.008283313582420565
1.51700e-06	-0.00829258645802885
1.51725e-06	-0.008304705293031045
1.51750e-06	-0.008316824128033229
1.51775e-06	-0.008328942963035412
1.51800e-06	-0.008341061798037607
1.51825e-06	-0.00835318063303979
1.51850e-06	-0.008369842654693354
1.51875e-06	-0.008388654439378012
1.51900e-06	-0.008407466224062686
1.51925e-06	-0.008426278008747344
1.51950e-06	-0.008445089793432002
1.51975e-06	-0.008463901578116675
1.52000e-06	-0.008482713362801333
1.52025e-06	-0.00850303525321993
1.52050e-06	-0.00852407170144318
1.52075e-06	-0.008545108149666431
1.52100e-06	-0.008566144597889699
1.52125e-06	-0.00858718104611295
1.52150e-06	-0.008608217494336217
1.52175e-06	-0.008629253942559468
1.52200e-06	-0.008648947392218
1.52225e-06	-0.008668005356503231
1.52250e-06	-0.008687063320788446
1.52275e-06	-0.00870449320185891
1.52300e-06	-0.008721152700073632
1.52325e-06	-0.008736009527066421
1.52350e-06	-0.008750013358959627
1.52375e-06	-0.008760637854006645
1.52400e-06	-0.00876966330107725
1.52425e-06	-0.008778688748147849
1.52450e-06	-0.008782859658198168
1.52475e-06	-0.008784733479218295
1.52500e-06	-0.008786607300238421
1.52525e-06	-0.008783616258574583
1.52550e-06	-0.008778323241942184
1.52575e-06	-0.008773030225309782
1.52600e-06	-0.008760885688303063
1.52625e-06	-0.008745499121783327
1.52650e-06	-0.008730112555263576
1.52675e-06	-0.00871472598874384
1.52700e-06	-0.00869933942222409
1.52725e-06	-0.0086765011824701
1.52750e-06	-0.008650136930498832
1.52775e-06	-0.008623772678527587
1.52800e-06	-0.008597408426556343
1.52825e-06	-0.008571044174585075
1.52850e-06	-0.00854036362661696
1.52875e-06	-0.008507640676635243
1.52900e-06	-0.008472757555667948
1.52925e-06	-0.008436852276448798
1.52950e-06	-0.008400946997229616
1.52975e-06	-0.008363508989138763
1.53000e-06	-0.008325345718337426
1.53025e-06	-0.008286566384725033
1.53050e-06	-0.008247276172403707
1.53075e-06	-0.008207813883003083
1.53100e-06	-0.008168402102618566
1.53125e-06	-0.00812926341734542
1.53150e-06	-0.008090613459260654
1.53175e-06	-0.008052648133140473
1.53200e-06	-0.008015555566145015
1.53225e-06	-0.00797954790840694
1.53250e-06	-0.007944864481931383
1.53275e-06	-0.007913098005851065
1.53300e-06	-0.007882498471339473
1.53325e-06	-0.007851898936827906
1.53350e-06	-0.007825054150791794
1.53375e-06	-0.007799986051491705
1.53400e-06	-0.007774917952191638
1.53425e-06	-0.007751241920936724
1.53450e-06	-0.007728224593945961
1.53475e-06	-0.007705207266955198
1.53500e-06	-0.007684045609235655
1.53525e-06	-0.007663762024442246
1.53550e-06	-0.00764347843964882
1.53575e-06	-0.00762484040932304
1.53600e-06	-0.007606981028969445
1.53625e-06	-0.007589121648615866
1.53650e-06	-0.007571262268262286
1.53675e-06	-0.007553402887908692
1.53700e-06	-0.007535901091278015
1.53725e-06	-0.007520041599154873
1.53750e-06	-0.007504182107031745
1.53775e-06	-0.0074883226149086175
1.53800e-06	-0.007472463122785476
1.53825e-06	-0.007456603630662347
1.53850e-06	-0.007441587155223246
1.53875e-06	-0.007426969581753369
1.53900e-06	-0.007412352008283492
1.53925e-06	-0.007397734434813602
1.53950e-06	-0.007383116861343725
1.53975e-06	-0.007369428471167577
1.54000e-06	-0.0073561797556178695
1.54025e-06	-0.007342931040068162
1.54050e-06	-0.007329682324518443
1.54075e-06	-0.0073164336089687355
1.54100e-06	-0.007303838855630348
1.54125e-06	-0.007291553546717951
1.54150e-06	-0.007279727677156973
1.54175e-06	-0.0072683979998448105
1.54200e-06	-0.00725741486916381
1.54225e-06	-0.007246745709854666
1.54250e-06	-0.00723643309559142
1.54275e-06	-0.0072265419198151905
1.54300e-06	-0.0072171386394732
1.54325e-06	-0.007208289361515576
1.54350e-06	-0.007200157100441297
1.54375e-06	-0.007193235420738925
1.54400e-06	-0.007188225200586386
1.54425e-06	-0.007185533615924989
1.54450e-06	-0.007185193221840096
1.54475e-06	-0.00718712645031985
1.54500e-06	-0.007191253374145034
1.54525e-06	-0.007197493416960291
1.54550e-06	-0.007205826875500158
1.54575e-06	-0.007217360217437468
1.54600e-06	-0.007230089068726025
1.54625e-06	-0.007247308951528273
1.54650e-06	-0.007266653918386915
1.54675e-06	-0.00728599888524554
1.54700e-06	-0.007310949458232241
1.54725e-06	-0.007338552514100123
1.54750e-06	-0.0073661555699680034
1.54775e-06	-0.0073937586258359085
1.54800e-06	-0.007422870002811793
1.54825e-06	-0.0074589087716000054
1.54850e-06	-0.007494947540388187
1.54875e-06	-0.00753098630917637
1.54900e-06	-0.0075670250779645825
1.54925e-06	-0.007606162810221266
1.54950e-06	-0.007646766922270244
1.54975e-06	-0.007687371034319188
1.55000e-06	-0.007729319063104222
1.55025e-06	-0.007771903011726369
1.55050e-06	-0.007814486960348517
1.55075e-06	-0.007857082604365266
1.55100e-06	-0.007899683782455045
1.55125e-06	-0.007942284960544858
1.55150e-06	-0.007983747154713287
1.55175e-06	-0.008024670399964465
1.55200e-06	-0.00806406249680263
1.55225e-06	-0.00810273007877809
1.55250e-06	-0.008138464118631637
1.55275e-06	-0.008172810053420023
1.55300e-06	-0.008207155988208408
1.55325e-06	-0.008232857091042997
1.55350e-06	-0.00825446759809833
1.55375e-06	-0.00827607810515368
1.55400e-06	-0.008297688612209012
1.55425e-06	-0.008319299119264361
1.55450e-06	-0.008340909626319693
1.55475e-06	-0.008362520133375025
1.55500e-06	-0.008384130640430375
1.55525e-06	-0.008405741147485707
1.55550e-06	-0.008424737957103098
1.55575e-06	-0.008431730621095177
1.55600e-06	-0.008438723285087256
1.55625e-06	-0.008445715949079342
1.55650e-06	-0.008452708613071422
1.55675e-06	-0.008459701277063506
1.55700e-06	-0.008466693941055585
1.55725e-06	-0.008473686605047664
1.55750e-06	-0.008480679269039748
1.55775e-06	-0.008487671933031828
1.55800e-06	-0.008488294446297975
1.55825e-06	-0.008485902706446077
1.55850e-06	-0.008483510966594176
1.55875e-06	-0.008481119226742277
1.55900e-06	-0.008478727486890379
1.55925e-06	-0.008476335747038478
1.55950e-06	-0.00847394400718658
1.55975e-06	-0.008471552267334679
1.56000e-06	-0.00846916052748278
1.56025e-06	-0.008464069293885455
1.56050e-06	-0.008457700703159656
1.56075e-06	-0.008451332112433863
1.56100e-06	-0.008444963521708065
1.56125e-06	-0.008438594930982273
1.56150e-06	-0.00843222634025648
1.56175e-06	-0.008425857749530682
1.56200e-06	-0.00841948915880489
1.56225e-06	-0.00841312056807909
1.56250e-06	-0.00840732558412608
1.56275e-06	-0.00840180202169474
1.56300e-06	-0.008396278459263405
1.56325e-06	-0.008390754896832069
1.56350e-06	-0.00838523133440073
1.56375e-06	-0.008379707771969395
1.56400e-06	-0.008374184209538053
1.56425e-06	-0.008368660647106719
1.56450e-06	-0.008363137084675384
1.56475e-06	-0.008357613522244043
1.56500e-06	-0.008352089959812709
1.56525e-06	-0.008346566397381369
1.56550e-06	-0.00834098192778913
1.56575e-06	-0.008335117724812902
1.56600e-06	-0.008329253521836671
1.56625e-06	-0.008323389318860444
1.56650e-06	-0.008317525115884211
1.56675e-06	-0.008311660912907986
1.56700e-06	-0.008305796709931753
1.56725e-06	-0.008299932506955526
1.56750e-06	-0.008294068303979298
1.56775e-06	-0.008288204101003067
1.56800e-06	-0.00828233989802684
1.56825e-06	-0.008276475695050607
1.56850e-06	-0.00827061149207438
1.56875e-06	-0.008264283354922086
1.56900e-06	-0.008257735691561246
1.56925e-06	-0.008251188028200412
1.56950e-06	-0.008244640364839573
1.56975e-06	-0.008238092701478739
1.57000e-06	-0.008231545038117905
1.57025e-06	-0.008224997374757063
1.57050e-06	-0.00821844971139623
1.57075e-06	-0.00821190204803539
1.57100e-06	-0.008205354384674556
1.57125e-06	-0.008199420128954195
1.57150e-06	-0.008193776127887511
1.57175e-06	-0.008188132126820825
1.57200e-06	-0.008182488125754136
1.57225e-06	-0.008176844124687452
1.57250e-06	-0.008171200123620763
1.57275e-06	-0.008165556122554077
1.57300e-06	-0.008159912121487393
1.57325e-06	-0.008154268120420704
1.57350e-06	-0.008148624119354018
1.57375e-06	-0.008143215733074104
1.57400e-06	-0.008137918835930978
1.57425e-06	-0.008132621938787853
1.57450e-06	-0.008127325041644724
1.57475e-06	-0.008122028144501598
1.57500e-06	-0.008116731247358467
1.57525e-06	-0.008111434350215342
1.57550e-06	-0.008106137453072216
1.57575e-06	-0.008100840555929087
1.57600e-06	-0.008095543658785962
1.57625e-06	-0.008089038975084914
1.57650e-06	-0.008081962786162985
1.57675e-06	-0.008074886597241052
1.57700e-06	-0.008067810408319123
1.57725e-06	-0.008060734219397195
1.57750e-06	-0.00805365803047526
1.57775e-06	-0.008046581841553331
1.57800e-06	-0.008039505652631397
1.57825e-06	-0.008032429463709469
1.57850e-06	-0.00802535327478754
1.57875e-06	-0.008017443797782985
1.57900e-06	-0.008009140022227426
1.57925e-06	-0.008000836246671863
1.57950e-06	-0.007992532471116304
1.57975e-06	-0.007984228695560747
1.58000e-06	-0.007975924920005182
1.58025e-06	-0.007967621144449624
1.58050e-06	-0.00795931736889406
1.58075e-06	-0.007951013593338501
1.58100e-06	-0.007943201797023493
1.58125e-06	-0.007935622797391559
1.58150e-06	-0.007928043797759623
1.58175e-06	-0.007920464798127682
1.58200e-06	-0.007912885798495747
1.58225e-06	-0.007905306798863806
1.58250e-06	-0.007897727799231872
1.58275e-06	-0.007890148799599936
1.58300e-06	-0.007882569799967995
1.58325e-06	-0.007877276942662647
1.58350e-06	-0.007873065851226197
1.58375e-06	-0.007868854759789752
1.58400e-06	-0.007864643668353306
1.58425e-06	-0.007860432576916855
1.58450e-06	-0.00785622148548041
1.58475e-06	-0.00785201039404396
1.58500e-06	-0.007847799302607514
1.58525e-06	-0.007847247921395569
1.58550e-06	-0.007848428256343572
1.58575e-06	-0.007849608591291576
1.58600e-06	-0.007850788926239579
1.58625e-06	-0.007851969261187582
1.58650e-06	-0.007853149596135587
1.58675e-06	-0.00785432993108359
1.58700e-06	-0.007855510266031594
1.58725e-06	-0.007860089465788304
1.58750e-06	-0.007866276953839325
1.58775e-06	-0.007872464441890353
1.58800e-06	-0.007878651929941376
1.58825e-06	-0.007884839417992397
1.58850e-06	-0.007891026906043425
1.58875e-06	-0.007897214394094448
1.58900e-06	-0.007903401882145474
1.58925e-06	-0.007910049265339078
1.58950e-06	-0.007918808847206471
1.58975e-06	-0.007927568429073857
1.59000e-06	-0.007936328010941242
1.59025e-06	-0.007945087592808635
1.59050e-06	-0.007953847174676022
1.59075e-06	-0.007962606756543415
1.59100e-06	-0.007971366338410802
1.59125e-06	-0.007980125920278186
1.59150e-06	-0.007987889759433639
1.59175e-06	-0.007995182429114022
1.59200e-06	-0.008002475098794412
1.59225e-06	-0.008009767768474795
1.59250e-06	-0.008017060438155178
1.59275e-06	-0.008024353107835568
1.59300e-06	-0.008031645777515951
1.59325e-06	-0.008038938447196341
1.59350e-06	-0.008046231116876724
1.59375e-06	-0.008049317799554435
1.59400e-06	-0.008050414276665616
1.59425e-06	-0.008051510753776796
1.59450e-06	-0.008052607230887979
1.59475e-06	-0.008053703707999158
1.59500e-06	-0.00805480018511034
1.59525e-06	-0.00805589666222152
1.59550e-06	-0.008056993139332702
1.59575e-06	-0.008058089616443883
1.59600e-06	-0.008054239468472332
1.59625e-06	-0.008048048656878
1.59650e-06	-0.008041857845283672
1.59675e-06	-0.008035667033689345
1.59700e-06	-0.008029476222095011
1.59725e-06	-0.008023285410500684
1.59750e-06	-0.00801709459890635
1.59775e-06	-0.008009988004008121
1.59800e-06	-0.007998675414958772
1.59825e-06	-0.007987362825909434
1.59850e-06	-0.007976050236860096
1.59875e-06	-0.007964737647810747
1.59900e-06	-0.007953425058761409
1.59925e-06	-0.00794211246971206
1.59950e-06	-0.007930799880662722
1.59975e-06	-0.007917933112269342
1.60000e-06	-0.007904330931146477
1.60025e-06	-0.007890728750023623
1.60050e-06	-0.007877126568900756
1.60075e-06	-0.007863524387777904
1.60100e-06	-0.00784992220665505
1.60125e-06	-0.0078364661551699
1.60150e-06	-0.007823681245426371
1.60175e-06	-0.0078108963356828326
1.60200e-06	-0.007798111425939304
1.60225e-06	-0.007785326516195765
1.60250e-06	-0.0077725416064522365
1.60275e-06	-0.0077597566967087086
1.60300e-06	-0.007748409335749707
1.60325e-06	-0.007737742199810705
1.60350e-06	-0.007728564224764765
1.60375e-06	-0.007720090896760484
1.60400e-06	-0.007711617568756204
1.60425e-06	-0.007705541375182758
1.60450e-06	-0.00770059946716099
1.60475e-06	-0.007695657559139218
1.60500e-06	-0.00769470634992379
1.60525e-06	-0.007695643475354447
1.60550e-06	-0.007696580600785105
1.60575e-06	-0.007697517726215763
1.60600e-06	-0.0076984548516464205
1.60625e-06	-0.007699391977077078
1.60650e-06	-0.007701718486912112
1.60675e-06	-0.007710426138064173
1.60700e-06	-0.0077191337892162344
1.60725e-06	-0.007727841440368303
1.60750e-06	-0.007736549091520364
1.60775e-06	-0.007745256742672433
1.60800e-06	-0.007753964393824494
1.60825e-06	-0.0077667206036242595
1.60850e-06	-0.007781392526418682
1.60875e-06	-0.007796064449213092
1.60900e-06	-0.007810736372007515
1.60925e-06	-0.007825408294801925
1.60950e-06	-0.007840080217596334
1.60975e-06	-0.007854752140390758
1.61000e-06	-0.007870998109763803
1.61025e-06	-0.007887988892722938
1.61050e-06	-0.007904979675682058
1.61075e-06	-0.007921970458641193
1.61100e-06	-0.007938961241600314
1.61125e-06	-0.007955952024559435
1.61150e-06	-0.00797294280751857
1.61175e-06	-0.007989170304173227
1.61200e-06	-0.008005036625995249
1.61225e-06	-0.008020902947817257
1.61250e-06	-0.008033384125381376
1.61275e-06	-0.008044263506995959
1.61300e-06	-0.008055142888610532
1.61325e-06	-0.008066022270225112
1.61350e-06	-0.008076901651839686
1.61375e-06	-0.008087781033454257
1.61400e-06	-0.00809866041506884
1.61425e-06	-0.008109539796683411
1.61450e-06	-0.008118756287579994
1.61475e-06	-0.008120335481964457
1.61500e-06	-0.00812191467634892
1.61525e-06	-0.008123493870733384
1.61550e-06	-0.008125073065117847
1.61575e-06	-0.00812665225950231
1.61600e-06	-0.008128231453886773
1.61625e-06	-0.008129810648271238
1.61650e-06	-0.0081313898426557
1.61675e-06	-0.00812740707274821
1.61700e-06	-0.008120792470577318
1.61725e-06	-0.008114177868406434
1.61750e-06	-0.008107563266235544
1.61775e-06	-0.00810094866406466
1.61800e-06	-0.008094334061893775
1.61825e-06	-0.008087719459722885
1.61850e-06	-0.008081104857552
1.61875e-06	-0.008071094244694705
1.61900e-06	-0.008059476694068307
1.61925e-06	-0.00804785914344191
1.61950e-06	-0.008036241592815505
1.61975e-06	-0.008024624042189107
1.62000e-06	-0.0080130064915627
1.62025e-06	-0.008001388940936303
1.62050e-06	-0.007989771390309895
1.62075e-06	-0.00797733173773645
1.62100e-06	-0.00796450307971198
1.62125e-06	-0.007951674421687496
1.62150e-06	-0.007938845763663025
1.62175e-06	-0.00792619583946965
1.62200e-06	-0.007914366801008602
1.62225e-06	-0.007902537762547554
1.62250e-06	-0.007890708724086495
1.62275e-06	-0.007878879685625447
1.62300e-06	-0.00786819289736727
1.62325e-06	-0.007858046603578122
1.62350e-06	-0.007848308594959729
1.62375e-06	-0.007838763780333345
1.62400e-06	-0.00782921896570697
1.62425e-06	-0.00781795777290468
1.62450e-06	-0.007805884417488224
1.62475e-06	-0.007793811062071756
1.62500e-06	-0.007780253129092467
1.62525e-06	-0.0077659927178299545
1.62550e-06	-0.00775173230656743
1.62575e-06	-0.0077347190522968155
1.62600e-06	-0.0077164031968831245
1.62625e-06	-0.007698087341469449
1.62650e-06	-0.007679771486055774
1.62675e-06	-0.007661455630642083
1.62700e-06	-0.007639675915448861
1.62725e-06	-0.0076162571573843325
1.62750e-06	-0.007592838399319825
1.62775e-06	-0.007569419641255316
1.62800e-06	-0.007546000883190788
1.62825e-06	-0.007519823789146057
1.62850e-06	-0.0074923414947719895
1.62875e-06	-0.007464859200397945
1.62900e-06	-0.0074373769060238765
1.62925e-06	-0.007409560050041733
1.62950e-06	-0.007380206625135005
1.62975e-06	-0.007350853200228252
1.63000e-06	-0.0073214997753215235
1.63025e-06	-0.007292146350414771
1.63050e-06	-0.00726246166135917
1.63075e-06	-0.007232698614176128
1.63100e-06	-0.007203168321029746
1.63125e-06	-0.007174043858349414
1.63150e-06	-0.007145480750996232
1.63175e-06	-0.007117573044523863
1.63200e-06	-0.007090371323481586
1.63225e-06	-0.00706397218125714
1.63250e-06	-0.007038535385595056
1.63275e-06	-0.007014240249996225
1.63300e-06	-0.006991266353195386
1.63325e-06	-0.006969792974788114
1.63350e-06	-0.006949975371397432
1.63375e-06	-0.006931872403681663
1.63400e-06	-0.006915441692385481
1.63425e-06	-0.006900652451075331
1.63450e-06	-0.006887534762329358
1.63475e-06	-0.0068767474026522795
1.63500e-06	-0.00686680623266019
1.63525e-06	-0.006859357762170025
1.63550e-06	-0.0068530887970896445
1.63575e-06	-0.006849840352043571
1.63600e-06	-0.006848021168614489
1.63625e-06	-0.006846201985185407
1.63650e-06	-0.006848738314203328
1.63675e-06	-0.0068533356018284025
1.63700e-06	-0.006857932889453481
1.63725e-06	-0.006862530177078555
1.63750e-06	-0.006867127464703634
1.63775e-06	-0.006876325025150356
1.63800e-06	-0.006887699360886392
1.63825e-06	-0.006899073696622437
1.63850e-06	-0.006910448032358474
1.63875e-06	-0.0069218223680945195
1.63900e-06	-0.006936508544553573
1.63925e-06	-0.006952761830905333
1.63950e-06	-0.006969015117257108
1.63975e-06	-0.006985268403608868
1.64000e-06	-0.007001521689960642
1.64025e-06	-0.007017774976312402
1.64050e-06	-0.007035146489894456
1.64075e-06	-0.007053047130660297
1.64100e-06	-0.007070947771426123
1.64125e-06	-0.007088848412191964
1.64150e-06	-0.007106749052957789
1.64175e-06	-0.007124649693723631
1.64200e-06	-0.00714176948251511
1.64225e-06	-0.007158519784680857
1.64250e-06	-0.007172619955061949
1.64275e-06	-0.007185466125603066
1.64300e-06	-0.007198312296144194
1.64325e-06	-0.0072111584666853116
1.64350e-06	-0.00722400463722643
1.64375e-06	-0.007236850807767558
1.64400e-06	-0.007249696978308675
1.64425e-06	-0.007262543148849804
1.64450e-06	-0.0072752088485046485
1.64475e-06	-0.007287045684509608
1.64500e-06	-0.007298882520514576
1.64525e-06	-0.0073107193565195355
1.64550e-06	-0.007322556192524504
1.64575e-06	-0.007334393028529463
1.64600e-06	-0.007346229864534433
1.64625e-06	-0.007358066700539391
1.64650e-06	-0.00736990353654435
1.64675e-06	-0.007383458912235031
1.64700e-06	-0.007397827473331521
