Time(s)	Current(A)
1.47500e-05	0.006837433738459094
1.47503e-05	0.006839107325125679
1.47505e-05	0.006840780911792252
1.47508e-05	0.006842454498458838
1.47510e-05	0.006844128085125423
1.47513e-05	0.0068458016717919965
1.47515e-05	0.006847475258458582
1.47518e-05	0.006849148845125167
1.47520e-05	0.006850822431791742
1.47523e-05	0.0068524960184583265
1.47525e-05	0.006854169605124911
1.47528e-05	0.006855843191791486
1.47530e-05	0.006857516778458071
1.47533e-05	0.0068591903651246565
1.47535e-05	0.00686086395179123
1.47538e-05	0.006862537538457815
1.47540e-05	0.006866516778169143
1.47543e-05	0.006876234374108786
1.47545e-05	0.006885951970048493
1.47548e-05	0.006895669565988201
1.47550e-05	0.0069053871619278425
1.47553e-05	0.006915104757867551
1.47555e-05	0.006924822353807258
1.47558e-05	0.0069345399497469
1.47560e-05	0.006944257545686608
1.47563e-05	0.006953975141626316
1.47565e-05	0.006963692737565958
1.47568e-05	0.006973410333505666
1.47570e-05	0.0069831279294453735
1.47573e-05	0.006992845525385081
1.47575e-05	0.0070025631213247235
1.47578e-05	0.007012280717264431
1.47580e-05	0.007021998313204139
1.47583e-05	0.007031715909143781
1.47585e-05	0.007041433505083489
1.47588e-05	0.0070444892014382785
1.47590e-05	0.007045737884434431
1.47593e-05	0.007046986567430591
1.47595e-05	0.007048235250426752
1.47598e-05	0.0070494839334229046
1.47600e-05	0.007050732616419065
1.47603e-05	0.007051981299415225
1.47605e-05	0.007053229982411377
1.47608e-05	0.0070544786654075375
1.47610e-05	0.007055727348403699
1.47613e-05	0.00705697603139985
1.47615e-05	0.007058224714396011
1.47618e-05	0.007059473397392171
1.47620e-05	0.007060722080388324
1.47623e-05	0.007061970763384484
1.47625e-05	0.007063219446380645
1.47628e-05	0.0070644681293767966
1.47630e-05	0.007065716812372958
1.47633e-05	0.007066965495369118
1.47635e-05	0.007059478737194045
1.47638e-05	0.007049622525878393
1.47640e-05	0.0070397663145627416
1.47643e-05	0.007029910103247157
1.47645e-05	0.007020053891931505
1.47648e-05	0.007010197680615854
1.47650e-05	0.007000341469300269
1.47653e-05	0.006990485257984618
1.47655e-05	0.006980629046668967
1.47658e-05	0.006970772835353315
1.47660e-05	0.0069609166240377305
1.47663e-05	0.006951060412722079
1.47665e-05	0.006941204201406427
1.47668e-05	0.006931347990090843
1.47670e-05	0.006921491778775191
1.47673e-05	0.00691163556745954
1.47675e-05	0.006901779356143956
1.47678e-05	0.006891923144828304
1.47680e-05	0.006882066933512653
1.47683e-05	0.006872055604803697
1.47685e-05	0.006862002201128141
1.47688e-05	0.006851948797452585
1.47690e-05	0.006841895393777097
1.47693e-05	0.006831841990101541
1.47695e-05	0.006821788586425985
1.47698e-05	0.006811735182750496
1.47700e-05	0.00680168177907494
1.47703e-05	0.006791628375399384
1.47705e-05	0.006781574971723896
1.47708e-05	0.00677152156804834
1.47710e-05	0.006761468164372783
1.47713e-05	0.006748971606821986
1.47715e-05	0.006730394478173228
1.47718e-05	0.00671181734952447
1.47720e-05	0.006693240220875839
1.47723e-05	0.006674663092227081
1.47725e-05	0.006656085963578323
1.47728e-05	0.006637508834929691
1.47730e-05	0.006618931706280933
1.47733e-05	0.006600354577632175
1.47735e-05	0.006581777448983543
1.47738e-05	0.006563200320334785
1.47740e-05	0.006544623191686027
1.47743e-05	0.006526046063037269
1.47745e-05	0.0065060163441117815
1.47748e-05	0.006485592615939504
1.47750e-05	0.006465168887767228
1.47753e-05	0.006442984821486818
1.47755e-05	0.00412566463438147
1.47758e-05	-0.0053054925340335745
1.47760e-05	-0.0078058767089482
1.47763e-05	-0.005845162201987492
1.47765e-05	-0.0030462614263677256
1.47768e-05	0.003937347475963275
1.47770e-05	0.007621315107504028
1.47773e-05	0.0069590343230234815
1.47775e-05	0.005643439784665746
1.47778e-05	0.0004051545825483117
1.47780e-05	-0.002380822755540282
1.47783e-05	-0.00085329927778843
1.47785e-05	0.0008384971632784117
1.47788e-05	0.004683145411401487
1.47790e-05	0.007493201121662803
1.47793e-05	0.007443228185546452
1.47795e-05	0.006678101115401979
1.47798e-05	0.004986133998915324
1.47800e-05	0.0033585433654617584
1.47803e-05	0.0026978792167006893
1.47805e-05	0.003256564056531868
1.47808e-05	0.004741378204648444
1.47810e-05	0.00618501067741625
1.47813e-05	0.006984915483517179
1.47815e-05	0.006784655732221879
1.47818e-05	0.005719693826623157
1.47820e-05	0.004697395037518966
1.47823e-05	0.004282829784766512
1.47825e-05	0.004633820754536502
1.47828e-05	0.005566422913222705
1.47830e-05	0.00647449559173716
1.47833e-05	0.006980447177771373
1.47835e-05	0.006860890609586198
1.47838e-05	0.006200581153924402
1.47840e-05	0.005567773004835455
1.47843e-05	0.005316275112287003
1.47845e-05	0.005544783831545078
1.47848e-05	0.006137920513244034
1.47850e-05	0.0067158717612447036
1.47853e-05	0.007042020534029031
1.47855e-05	0.006976364760207207
1.47858e-05	0.006571930182769621
1.47860e-05	0.006184590659842677
1.47863e-05	0.006035868265635275
1.47865e-05	0.006187472194605997
1.47868e-05	0.006567017900153628
1.47870e-05	0.006936496017880879
1.47873e-05	0.007147613786287618
1.47875e-05	0.007112610497512721
1.47878e-05	0.00686464200168491
1.47880e-05	0.006626556027736287
1.47883e-05	0.0065370278966540305
1.47885e-05	0.006634619242151462
1.47888e-05	0.006873895490333101
1.47890e-05	0.007105685446110486
1.47893e-05	0.007237026043727016
1.47895e-05	0.0072128299775843
1.47898e-05	0.007053673794831611
1.47900e-05	0.006898985203159648
1.47903e-05	0.006835603494547883
1.47905e-05	0.006887751506352602
1.47908e-05	0.007027058528688213
1.47910e-05	0.007160178175496552
1.47913e-05	0.0072289795913038
1.47915e-05	0.007199062379751119
1.47918e-05	0.0070834226391648545
1.47920e-05	0.00696950013112275
1.47923e-05	0.0069117874156656225
1.47925e-05	0.006925550522660177
1.47928e-05	0.006993110950614023
1.47930e-05	0.007056093808200723
1.47933e-05	0.0070781873266195445
1.47935e-05	0.007037946787179609
1.47938e-05	0.0069436174874675915
1.47940e-05	0.00685007336561381
1.47943e-05	0.006791546296071579
1.47945e-05	0.006777694620296415
1.47948e-05	0.006797540096261028
1.47950e-05	0.006814615068774527
1.47953e-05	0.006806274593837087
1.47955e-05	0.006759187939248437
1.47958e-05	0.006678622985372729
1.47960e-05	0.006599053269818096
1.47963e-05	0.006542019989782624
1.47965e-05	0.006513670892176934
1.47968e-05	0.0065072264938965865
1.47970e-05	0.0064999414078173836
1.47973e-05	0.0064777315383747385
1.47975e-05	0.006428578564587563
1.47978e-05	0.006364286107632628
1.47980e-05	0.006303957343358324
1.47983e-05	0.006256237631587036
1.47985e-05	0.006230975378930168
1.47988e-05	0.00621734710286513
1.47990e-05	0.006203263237496888
1.47993e-05	0.006183924931592237
1.47995e-05	0.006149645567760167
1.47998e-05	0.006106762819811851
1.48000e-05	0.006069804310605565
1.48003e-05	0.006037412212968399
1.48005e-05	0.006017615943348827
1.48008e-05	0.006007528555712591
1.48010e-05	0.005995752660765078
1.48013e-05	0.005982675262002971
1.48015e-05	0.005961188723418878
1.48018e-05	0.0059332204080111495
1.48020e-05	0.0059090656314645384
1.48023e-05	0.0058878503360455135
1.48025e-05	0.005874611074773136
1.48028e-05	0.00586751975185937
1.48030e-05	0.005857327810802271
1.48033e-05	0.005844745908911355
1.48035e-05	0.005832164007020441
1.48038e-05	0.005819590620635831
1.48040e-05	0.005807140301320101
1.48043e-05	0.005794689982004371
1.48045e-05	0.005782239662688725
1.48048e-05	0.005774428559191209
1.48050e-05	0.005770193369783145
1.48053e-05	0.005762829800492322
1.48055e-05	0.005753054871579785
1.48058e-05	0.0057432799426672485
1.48060e-05	0.0057335050137547776
1.48063e-05	0.0057263385143931375
1.48065e-05	0.005721182596204727
1.48068e-05	0.005716026678016351
1.48070e-05	0.005710870759827941
1.48073e-05	0.00570565341531609
1.48075e-05	0.005700388723307616
1.48078e-05	0.005695124031299107
1.48080e-05	0.005689859339290597
1.48083e-05	0.005684594647282088
1.48085e-05	0.005679329955273613
1.48088e-05	0.005674065263265104
1.48090e-05	0.005668800571256594
1.48093e-05	0.00566353587924812
1.48095e-05	0.00565827118723961
1.48098e-05	0.005653006495231101
1.48100e-05	0.005647741803222627
1.48103e-05	0.005642959659551565
1.48105e-05	0.0056451513595928635
1.48108e-05	0.005647343059634147
1.48110e-05	0.005649534759675446
1.48113e-05	0.005651726459716745
1.48115e-05	0.00565391815975803
1.48118e-05	0.005656109859799328
1.48120e-05	0.005658301559840627
1.48123e-05	0.005660493259881911
1.48125e-05	0.00566268495992321
1.48128e-05	0.0056648766599645085
1.48130e-05	0.0056670683600057925
1.48133e-05	0.005669260060047091
1.48135e-05	0.005676074059152341
1.48138e-05	0.00568645093288885
1.48140e-05	0.00569682780662543
1.48143e-05	0.005707204680362011
1.48145e-05	0.005717581554098521
1.48148e-05	0.005727958427835101
1.48150e-05	0.0057383353015716815
1.48153e-05	0.005748712175308191
1.48155e-05	0.005759089049044771
1.48158e-05	0.005769465922781351
1.48160e-05	0.0057798427965178615
1.48163e-05	0.0057902196702544415
1.48165e-05	0.005800793571572841
1.48168e-05	0.005811519342028937
1.48170e-05	0.00582224511248496
1.48173e-05	0.005832970882941055
1.48175e-05	0.00584369665339715
1.48178e-05	0.005854422423853174
1.48180e-05	0.005865148194309269
1.48183e-05	0.005875873964765364
1.48185e-05	0.005886599735221387
1.48188e-05	0.005897325505677483
1.48190e-05	0.005908051276133579
1.48193e-05	0.005918777046589601
1.48195e-05	0.0059192999665921365
1.48198e-05	0.005911958515087473
1.48200e-05	0.00590461706358286
1.48203e-05	0.005897275612078197
1.48205e-05	0.005889934160573534
1.48208e-05	0.005882592709068921
1.48210e-05	0.005875251257564258
1.48213e-05	0.005867909806059595
1.48215e-05	0.005858491833702049
1.48218e-05	0.005819063744668862
1.48220e-05	0.005779635655635676
1.48223e-05	0.005740207566602757
1.48225e-05	0.00570077947756957
1.48228e-05	0.005661351388536384
1.48230e-05	0.005621923299503465
1.48233e-05	0.005582495210470279
1.48235e-05	0.005543067121437093
1.48238e-05	0.0054887866702986845
1.48240e-05	0.005423057997518588
1.48243e-05	0.005357329324738491
1.48245e-05	0.005291600651958841
1.48248e-05	0.005225871979178744
1.48250e-05	0.005160143306398648
1.48253e-05	0.005094414633618551
1.48255e-05	0.0050286859608388995
1.48258e-05	0.004957955666963306
1.48260e-05	0.004883370116498616
1.48263e-05	0.004808784566034432
1.48265e-05	0.004734199015569742
1.48268e-05	0.0046596134651050525
1.48270e-05	0.0045850279146408685
1.48273e-05	0.004510442364176179
1.48275e-05	0.004435856813711489
1.48278e-05	0.004368655022532764
1.48280e-05	0.004307144643417023
1.48283e-05	0.004245634264301283
1.48285e-05	0.004184123885185959
1.48288e-05	0.0041226135060702185
1.48290e-05	0.004061103126954478
1.48293e-05	0.003999592747839155
1.48295e-05	0.003939612441881447
1.48298e-05	0.0039017449280857527
1.48300e-05	0.0038638774142903155
1.48303e-05	0.003826009900494622
1.48305e-05	0.003788142386698928
1.48308e-05	0.0037502748729034913
1.48310e-05	0.0037124073591077974
1.48313e-05	0.003674539845312104
1.48315e-05	0.0036460378451032187
1.48318e-05	0.0036247547959668185
1.48320e-05	0.0036034717468304183
1.48323e-05	0.0035821886976941625
1.48325e-05	0.0035615262008847795
1.48328e-05	0.0035498319972364772
1.48330e-05	0.0035381377935882544
1.48333e-05	0.003526443589939952
1.48335e-05	0.00351474938629165
1.48338e-05	0.0035062557760230356
1.48340e-05	0.0035042725090551736
1.48343e-05	0.0035054058399310935
1.48345e-05	0.003506539170807013
1.48348e-05	0.003507672501682925
1.48350e-05	0.0035088058325588446
1.48353e-05	0.0035099391634347645
1.48355e-05	0.0035110724943106767
1.48358e-05	0.003512205825186596
1.48360e-05	0.003513339156062516
1.48363e-05	0.0035144724869384278
1.48365e-05	0.003515963074439672
1.48368e-05	0.003522616775527939
1.48370e-05	0.0035292704766161603
1.48373e-05	0.0035359241777044273
1.48375e-05	0.003542577878792694
1.48378e-05	0.0035492315798809158
1.48380e-05	0.0035558852809691823
1.48383e-05	0.0035625389820574493
1.48385e-05	0.003569192683145671
1.48388e-05	0.0035758463842339378
1.48390e-05	0.0035825000853222048
1.48393e-05	0.003584970739831747
1.48395e-05	0.0035842170961420694
1.48398e-05	0.003583463452452392
1.48400e-05	0.00358270980876272
1.48403e-05	0.0035819561650730423
1.48405e-05	0.0035812025213833648
1.48408e-05	0.0035804488776936924
1.48410e-05	0.003579695234004015
1.48413e-05	0.0035789415903143378
1.48415e-05	0.0035781879466246654
1.48418e-05	0.003577434302934988
1.48420e-05	0.0035766806592453103
1.48423e-05	0.0035759270155556327
1.48425e-05	0.0035751733718659604
1.48428e-05	0.0035744197281762833
1.48430e-05	0.0035736660844866057
1.48433e-05	0.0035674455417307963
1.48435e-05	0.003557011105468202
1.48438e-05	0.003546576669205608
1.48440e-05	0.0035361422329430845
1.48443e-05	0.0035257077966804906
1.48445e-05	0.0035152733604178967
1.48448e-05	0.003504838924155373
1.48450e-05	0.003494404487892779
1.48453e-05	0.0034839700516301852
1.48455e-05	0.0034735356153676616
1.48458e-05	0.0034631011791050677
1.48460e-05	0.0034526667428424734
1.48463e-05	0.00344223230657995
1.48465e-05	0.0034317978703173563
1.48468e-05	0.003421363434054762
1.48470e-05	0.0034109289977922387
1.48473e-05	0.0033997988701991613
1.48475e-05	0.0033881325027477985
1.48478e-05	0.0033764661352965143
1.48480e-05	0.0033647997678451515
1.48483e-05	0.0033531334003937883
1.48485e-05	0.003341467032942504
1.48488e-05	0.0033333181041743684
1.48490e-05	0.003327880422102041
1.48493e-05	0.00332244274002975
1.48495e-05	0.0033170050579574223
1.48498e-05	0.0033115673758850944
1.48500e-05	0.0033061296938128037
1.48503e-05	0.003312711987144924
1.48505e-05	0.0033285592944644377
1.48508e-05	0.003344406601783952
1.48510e-05	0.00336960232110607
1.48513e-05	0.003402003809579088
1.48515e-05	0.003434405298052106
1.48518e-05	0.0034779083955745515
1.48520e-05	0.0035299686290036257
1.48523e-05	0.0035820288624327
1.48525e-05	0.003645536111288799
1.48528e-05	0.0037178667357748085
1.48530e-05	0.0037901973602608176
1.48533e-05	0.003871772349706367
1.48535e-05	0.003960472908696607
1.48538e-05	0.004049173467686847
1.48540e-05	0.004150626056734602
1.48543e-05	0.004261907928530257
1.48545e-05	0.004373189800325911
1.48548e-05	0.0044844716721208116
1.48550e-05	0.004595753543916466
1.48553e-05	0.00470703541571212
1.48555e-05	0.004819197511478008
1.48558e-05	0.004944080704714139
1.48560e-05	0.00506896389795027
1.48563e-05	0.0051938470911855545
1.48565e-05	0.005318730284421686
1.48568e-05	0.005443613477657816
1.48570e-05	0.005568496670893101
1.48573e-05	0.00568701008949564
1.48575e-05	0.005800613676829613
1.48578e-05	0.005914217264162816
1.48580e-05	0.006027820851496789
1.48583e-05	0.006141424438830761
1.48585e-05	0.006255028026163964
1.48588e-05	0.006366060263118234
1.48590e-05	0.0064399310503719795
1.48593e-05	0.006513801837625726
1.48595e-05	0.0065876726248789725
1.48598e-05	0.006661543412132719
1.48600e-05	0.006735414199386466
1.48603e-05	0.006809284986639711
1.48605e-05	0.006859522200587498
1.48608e-05	0.006891542622907141
1.48610e-05	0.006923563045226568
1.48613e-05	0.0069395104347138616
1.48615e-05	0.006943068707830617
1.48618e-05	0.0069466269809473485
1.48620e-05	0.006934497116398586
1.48623e-05	0.00691027481321659
1.48625e-05	0.006886052510034758
1.48628e-05	0.0068379440037405195
1.48630e-05	0.006771423978407751
1.48633e-05	0.006704903953075433
1.48635e-05	0.006638383927742664
1.48638e-05	0.006571863902409895
1.48640e-05	0.0065053438770775775
1.48643e-05	0.006438823851744808
1.48645e-05	0.006369661156886145
1.48648e-05	0.006262306299859342
1.48650e-05	0.006154951442831812
1.48653e-05	0.006047596585804281
1.48655e-05	0.005940241728777477
1.48658e-05	0.005832886871749947
1.48660e-05	0.005725532014722416
1.48663e-05	0.005618177157695613
1.48665e-05	0.005504772179910224
1.48668e-05	0.005386703760513346
1.48670e-05	0.005268635341117269
1.48673e-05	0.005152215195169999
1.48675e-05	0.005037065540721967
1.48678e-05	0.004921915886274715
1.48680e-05	0.0048161275969152125
1.48683e-05	0.004717555060966892
1.48685e-05	0.004618982525018573
1.48688e-05	0.00452040998907092
1.48690e-05	0.004421837453122601
1.48693e-05	0.004325247894346435
1.48695e-05	0.004257316548428934
1.48698e-05	0.004189385202510972
1.48700e-05	0.004121453856593011
1.48703e-05	0.004053522510675509
1.48705e-05	0.003985591164757547
1.48708e-05	0.003929559168361977
1.48710e-05	0.0038826992073592295
1.48713e-05	0.0038358392463561644
1.48715e-05	0.003803649005677934
1.48718e-05	0.003782766206114003
1.48720e-05	0.0037618834065499306
1.48723e-05	0.0037410006069858582
1.48725e-05	0.0037201178074219277
1.48728e-05	0.0036992350078578554
1.48730e-05	0.003678352208293783
1.48733e-05	0.003657469408729852
1.48735e-05	0.003638369862924328
1.48738e-05	0.003645042104375448
1.48740e-05	0.0036517143458265227
1.48743e-05	0.0036583865872776423
1.48745e-05	0.003665058828728762
1.48748e-05	0.003671731070179837
1.48750e-05	0.0036784033116309565
1.48753e-05	0.003685075553082076
1.48755e-05	0.003691747794533151
1.48758e-05	0.003706059772182028
1.48760e-05	0.0037262604692662954
1.48763e-05	0.003746461166350427
1.48765e-05	0.0037666618634346945
1.48768e-05	0.0037868625605189626
1.48770e-05	0.0038070632576032307
1.48773e-05	0.0038272639546873617
1.48775e-05	0.0038474646517716294
1.48778e-05	0.0038676653488558975
1.48780e-05	0.003886241527122867
1.48783e-05	0.003903565523994577
1.48785e-05	0.003920889520866286
1.48788e-05	0.003938213517737879
1.48790e-05	0.003955537514609589
1.48793e-05	0.0039728615114812986
1.48795e-05	0.003990185508352891
1.48798e-05	0.004007509505224601
1.48800e-05	0.004024833502096311
1.48803e-05	0.004039465205048521
1.48805e-05	0.0040520216840505595
1.48808e-05	0.0040645781630525984
1.48810e-05	0.0040771346420545515
1.48813e-05	0.00408969112105659
1.48815e-05	0.004102247600058629
1.48818e-05	0.004114804079060582
1.48820e-05	0.004127360558062621
1.48823e-05	0.004139917037064659
1.48825e-05	0.004152473516066613
1.48828e-05	0.004165029995068652
1.48830e-05	0.00417758647407069
1.48833e-05	0.004190142953072644
1.48835e-05	0.004202699432074683
1.48838e-05	0.004215255911076721
1.48840e-05	0.004227812390078675
1.48843e-05	0.004240368869080713
1.48845e-05	0.004252925348082752
1.48848e-05	0.004264445622560783
1.48850e-05	0.0042751671891302565
1.48853e-05	0.004285888755699731
1.48855e-05	0.0042966103222692046
1.48858e-05	0.004307331888838606
1.48860e-05	0.00431805345540808
1.48863e-05	0.004328775021977554
1.48865e-05	0.004339496588546956
1.48868e-05	0.0043502181551164296
1.48870e-05	0.004360939721685903
1.48873e-05	0.004371661288255305
1.48875e-05	0.004382382854824779
1.48878e-05	0.004393104421394253
1.48880e-05	0.0044038259879636546
1.48883e-05	0.004414547554533128
1.48885e-05	0.004425269121102603
1.48888e-05	0.0044359906876720034
1.48890e-05	0.004446712254241478
1.48893e-05	0.004449973600594499
1.48895e-05	0.004447484598681009
1.48898e-05	0.004444995596767502
1.48900e-05	0.004442506594853995
1.48903e-05	0.004440017592940504
1.48905e-05	0.004437528591026997
1.48908e-05	0.00443503958911349
1.48910e-05	0.004432550587199999
1.48913e-05	0.004430061585286492
1.48915e-05	0.004427572583372985
1.48918e-05	0.004425083581459494
1.48920e-05	0.004409328856567653
1.48923e-05	0.004383348893690385
1.48925e-05	0.004357368930813294
1.48928e-05	0.004331388967936026
1.48930e-05	0.004305409005058758
1.48933e-05	0.004279429042181666
1.48935e-05	0.004253449079304398
1.48938e-05	0.00422746911642713
1.48940e-05	0.004201489153549862
1.48943e-05	0.00417550919067277
1.48945e-05	0.004149529227795503
1.48948e-05	0.004115717479807377
1.48950e-05	0.004075868980807574
1.48953e-05	0.004036020481807501
1.48955e-05	0.003996171982807429
1.48958e-05	0.003956323483807627
1.48960e-05	0.003916474984807555
1.48963e-05	0.003876626485807482
1.48965e-05	0.0038367779868076794
1.48968e-05	0.003797045030103035
1.48970e-05	0.0037589819038703408
1.48973e-05	0.0037209187776379043
1.48975e-05	0.0036828556514052102
1.48978e-05	0.003644792525172516
1.48980e-05	0.0036067293989400797
1.48983e-05	0.0035686662727073856
1.48985e-05	0.0035306031464746915
1.48988e-05	0.003492540020242255
1.48990e-05	0.003465932385585189
1.48993e-05	0.0034481546599966282
1.48995e-05	0.003430376934408188
1.48998e-05	0.003412599208819628
1.49000e-05	0.0033948214832310677
1.49003e-05	0.0033770437576426276
