Time(s)	Current(A)
5.00000e-06	0.01114243898582054
5.00025e-06	0.01112488228530371
5.00050e-06	0.01110732558478682
5.00075e-06	0.011089768884269989
5.00100e-06	0.011072212183753158
5.00125e-06	0.011054655483236269
5.00150e-06	0.011037098782719437
5.00175e-06	0.011019542082202606
5.00200e-06	0.011004328221907353
5.00225e-06	0.010995091886152957
5.00250e-06	0.010985855550398561
5.00275e-06	0.010976619214644132
5.00300e-06	0.010967382878889737
5.00325e-06	0.01095814654313534
5.00350e-06	0.010948910207380914
5.00375e-06	0.010939673871626518
5.00400e-06	0.010930437535872091
5.00425e-06	0.010921201200117695
5.00450e-06	0.0109119648643633
5.00475e-06	0.010902728528608872
5.00500e-06	0.010893492192854477
5.00525e-06	0.010891757093006922
5.00550e-06	0.01089211829715426
5.00575e-06	0.0108924795013016
5.00600e-06	0.01089284070544894
5.00625e-06	0.010893201909596278
5.00650e-06	0.010893563113743617
5.00675e-06	0.010893924317890956
5.00700e-06	0.010894285522038296
5.00725e-06	0.010894646726185635
5.00750e-06	0.010895007930332974
5.00775e-06	0.010895369134480314
5.00800e-06	0.010895730338627653
5.00825e-06	0.010897477265676912
5.00850e-06	0.01090275972732013
5.00875e-06	0.010908042188963346
5.00900e-06	0.010913324650606583
5.00925e-06	0.010918607112249802
5.00950e-06	0.010923889573893019
5.00975e-06	0.010929172035536255
5.01000e-06	0.010934454497179473
5.01025e-06	0.01093973695882269
5.01050e-06	0.01094499304471589
5.01075e-06	0.010950241759611701
5.01100e-06	0.010955490474507513
5.01125e-06	0.01096073918940334
5.01150e-06	0.010965987904299151
5.01175e-06	0.010971236619194961
5.01200e-06	0.010976485334090789
5.01225e-06	0.0109817340489866
5.01250e-06	0.010987051757481272
5.01275e-06	0.010992545496302845
5.01300e-06	0.010998039235124421
5.01325e-06	0.011003532973946014
5.01350e-06	0.011009026712767588
5.01375e-06	0.011014520451589163
5.01400e-06	0.011020014190410756
5.01425e-06	0.01102776162757232
5.01450e-06	0.01104125915260014
5.01475e-06	0.011054756677628005
5.01500e-06	0.011068254202655826
5.01525e-06	0.011081751727683645
5.01550e-06	0.011095249252711511
5.01575e-06	0.01110874677773933
5.01600e-06	0.011125416243880892
5.01625e-06	0.011150178603284407
5.01650e-06	0.01117494096268784
5.01675e-06	0.011199703322091357
5.01700e-06	0.011224465681494789
5.01725e-06	0.011249228040898222
5.01750e-06	0.011273990400301739
5.01775e-06	0.01129875275970517
5.01800e-06	0.011323515119108604
5.01825e-06	0.011348277478512121
5.01850e-06	0.011373039837915553
5.01875e-06	0.011402104723193467
5.01900e-06	0.011432371997289463
5.01925e-06	0.011462639271385357
5.01950e-06	0.011492906545481251
5.01975e-06	0.011523173819577246
5.02000e-06	0.01155344109367314
5.02025e-06	0.011583708367769034
5.02050e-06	0.01161397564186503
5.02075e-06	0.011644242915960924
5.02100e-06	0.01167451019005692
5.02125e-06	0.011702359228375963
5.02150e-06	0.011724038377873083
5.02175e-06	0.011745717527370277
5.02200e-06	0.011767396676867395
5.02225e-06	0.011789075826364515
5.02250e-06	0.011810754975861709
5.02275e-06	0.011832434125358827
5.02300e-06	0.011854113274855946
5.02325e-06	0.01187579242435314
5.02350e-06	0.011897471573850259
5.02375e-06	0.011919150723347378
5.02400e-06	0.0119353545925516
5.02425e-06	0.011950028333642468
5.02450e-06	0.011964702074733337
5.02475e-06	0.011979375815824254
5.02500e-06	0.011994049556915121
5.02525e-06	0.012008723298006039
5.02550e-06	0.012023397039096906
5.02575e-06	0.012038070780187773
5.02600e-06	0.012052744521278691
5.02625e-06	0.01206741826236956
5.02650e-06	0.012081776132932594
5.02675e-06	0.01209532809116187
5.02700e-06	0.012108880049391098
5.02725e-06	0.012122432007620327
5.02750e-06	0.012135983965849601
5.02775e-06	0.01214953592407883
5.02800e-06	0.01216308788230806
5.02825e-06	0.012176639840537334
5.02850e-06	0.012190191798766563
5.02875e-06	0.012203743756995792
5.02900e-06	0.012217295715225066
5.02925e-06	0.012230847673454295
5.02950e-06	0.012242505566882436
5.02975e-06	0.012253634142787947
5.03000e-06	0.01226476271869346
5.03025e-06	0.012275891294599007
5.03050e-06	0.012287019870504519
5.03075e-06	0.01229814844641003
5.03100e-06	0.01230927702231558
5.03125e-06	0.01232040559822109
5.03150e-06	0.012331534174126602
5.03175e-06	0.012342662750032152
5.03200e-06	0.012353791325937662
5.03225e-06	0.012363872279831002
5.03250e-06	0.012371280330030376
5.03275e-06	0.012378688380229725
5.03300e-06	0.012387416551146675
5.03325e-06	0.01239951287918668
5.03350e-06	0.012411609207226644
5.03375e-06	0.012427730511989291
5.03400e-06	0.012454121145789112
5.03425e-06	0.012480511779588933
5.03450e-06	0.012506902413388843
5.03475e-06	0.012533293047188664
5.03500e-06	0.012559683680988485
5.03525e-06	0.012602258095102986
5.03550e-06	0.012649355247032654
5.03575e-06	0.01269645239896232
5.03600e-06	0.012743549550892148
5.03625e-06	0.012790646702821816
5.03650e-06	0.012844233482756743
5.03675e-06	0.012914377905109294
5.03700e-06	0.012984522327461608
5.03725e-06	0.013054666749813922
5.03750e-06	0.013124811172166474
5.03775e-06	0.013194955594518788
5.03800e-06	0.01326510001687134
5.03825e-06	0.013335244439223654
5.03850e-06	0.013409357385977328
5.03875e-06	0.013493595629266905
5.03900e-06	0.013577833872556197
5.03925e-06	0.013662072115845489
5.03950e-06	0.013746310359135067
5.03975e-06	0.013830548602424358
5.04000e-06	0.01391478684571365
5.04025e-06	0.013999025089003227
5.04050e-06	0.014082452800287455
5.04075e-06	0.014163812519524147
5.04100e-06	0.014245172238761115
5.04125e-06	0.014324514101644379
5.04150e-06	0.014398707604110262
5.04175e-06	0.014472901106576397
5.04200e-06	0.01454383338114267
5.04225e-06	0.014606444956070849
5.04250e-06	0.014669056530998814
5.04275e-06	0.014726739550350549
5.04300e-06	0.014771847848811345
5.04325e-06	0.014816956147271987
5.04350e-06	0.014853435024120093
5.04375e-06	0.014867896787323285
5.04400e-06	0.01488235855052643
5.04425e-06	0.014896820313729573
5.04450e-06	0.014911282076932767
5.04475e-06	0.014914436064742506
5.04500e-06	0.014888739384792746
5.04525e-06	0.014863042704842898
5.04550e-06	0.014837346024893137
5.04575e-06	0.014811649344943377
5.04600e-06	0.014777209885378527
5.04625e-06	0.014720464090466347
5.04650e-06	0.014663718295553976
5.04675e-06	0.01460129175073481
5.04700e-06	0.014524371335770453
5.04725e-06	0.014447450920805833
5.04750e-06	0.014366344922456729
5.04775e-06	0.014274559823099362
5.04800e-06	0.014180380979790784
5.04825e-06	0.014080094736130082
5.04850e-06	0.013993014494505303
5.04875e-06	0.010910669014341292
5.04900e-06	0.004544369359384887
5.04925e-06	0.002692266364051988
5.04950e-06	0.003960712042396129
5.04975e-06	0.006791558822256068
5.05000e-06	0.01085790855041095
5.05025e-06	0.013207428817425256
5.05050e-06	0.01296536014558519
5.05075e-06	0.010957908278609657
5.05100e-06	0.00784477465986194
5.05125e-06	0.005959593260812228
5.05150e-06	0.006449528161414169
5.05175e-06	0.008327377906160869
5.05200e-06	0.01063315602376051
5.05225e-06	0.01229372750487807
5.05250e-06	0.012322286154994113
5.05275e-06	0.01108237475848932
5.05300e-06	0.009897025234304713
5.05325e-06	0.008758946820588802
5.05350e-06	0.00900898704325404
5.05375e-06	0.010065467078043852
5.05400e-06	0.011332791235331666
5.05425e-06	0.012109894815580015
5.05450e-06	0.01204780141604982
5.05475e-06	0.011355557867417316
5.05500e-06	0.010397503601046994
5.05525e-06	0.009843522907203844
5.05550e-06	0.010032504478445036
5.05575e-06	0.010697406330978397
5.05600e-06	0.011494819870061727
5.05625e-06	0.011985553269263151
5.05650e-06	0.011950991644597862
5.05675e-06	0.011522070981601051
5.05700e-06	0.010926986134003102
5.05725e-06	0.010585295441813981
5.05750e-06	0.01070919417241222
5.05775e-06	0.011131321867929546
5.05800e-06	0.011636499783694472
5.05825e-06	0.011949572438001323
5.05850e-06	0.011933573884076799
5.05875e-06	0.011670498468411774
5.05900e-06	0.011303253817509348
5.05925e-06	0.011094599087066358
5.05950e-06	0.011177382487555954
5.05975e-06	0.011446698617489523
5.06000e-06	0.011767700070700882
5.06025e-06	0.01196798419593552
5.06050e-06	0.011961721347625893
5.06075e-06	0.011800241257839142
5.06100e-06	0.011573022596771537
5.06125e-06	0.011444606421840227
5.06150e-06	0.011498147786392913
5.06175e-06	0.011667872212562384
5.06200e-06	0.011869256213070431
5.06225e-06	0.011994261334576215
5.06250e-06	0.011989084756208858
5.06275e-06	0.01188589541022738
5.06300e-06	0.011741017438103712
5.06325e-06	0.011658086969186651
5.06350e-06	0.011689646464554884
5.06375e-06	0.011794610794691693
5.06400e-06	0.0119200043511254
5.06425e-06	0.011998116528406844
5.06450e-06	0.011995217288690652
5.06475e-06	0.011931428116011505
5.06500e-06	0.011841998386425821
5.06525e-06	0.01179181111757348
5.06550e-06	0.011813738211388718
5.06575e-06	0.011882002709045622
5.06600e-06	0.011963383016543106
5.06625e-06	0.012015431991189962
5.06650e-06	0.01201698874058915
5.06675e-06	0.011980626263884834
5.06700e-06	0.01192839230861797
5.06725e-06	0.011900893288814244
5.06750e-06	0.011918682202004021
5.06775e-06	0.011965574629762653
5.06800e-06	0.01202072309923109
5.06825e-06	0.01205750377890805
5.06850e-06	0.01206262917791194
5.06875e-06	0.012043941863134705
5.06900e-06	0.01201521976569928
5.06925e-06	0.012001863628139741
5.06950e-06	0.012016709914100242
5.06975e-06	0.01204958323046015
5.07000e-06	0.012087389330975576
5.07025e-06	0.012113416020462868
5.07050e-06	0.01211930622811561
5.07075e-06	0.012109939519235753
5.07100e-06	0.01209906717291323
5.07125e-06	0.012091129510609783
5.07150e-06	0.012097506152954544
5.07175e-06	0.012118721770156625
5.07200e-06	0.012138652982573212
5.07225e-06	0.012155350199352205
5.07250e-06	0.01216101858023829
5.07275e-06	0.012153497951058656
5.07300e-06	0.012144248323863419
5.07325e-06	0.012136438252752693
5.07350e-06	0.012137137313114384
5.07375e-06	0.012146493865235308
5.07400e-06	0.012154439116014036
5.07425e-06	0.012160055456800274
5.07450e-06	0.012158410626762109
5.07475e-06	0.01214753274681769
5.07500e-06	0.01213387443559962
5.07525e-06	0.012123397051930966
5.07550e-06	0.012118651263278886
5.07575e-06	0.012117347754329953
5.07600e-06	0.012116752173543487
5.07625e-06	0.012112658382647018
5.07650e-06	0.012102774708780897
5.07675e-06	0.012088799694967392
5.07700e-06	0.012073493408453534
5.07725e-06	0.012058187121939729
5.07750e-06	0.01204615767953197
5.07775e-06	0.012036519626307755
5.07800e-06	0.012026748500295746
5.07825e-06	0.01201697737428374
5.07850e-06	0.012003879572857357
5.07875e-06	0.011987240677155172
5.07900e-06	0.011969866544084861
5.07925e-06	0.011952492411014494
5.07950e-06	0.011937351975048468
5.07975e-06	0.011923286748319413
5.08000e-06	0.011908697021394469
5.08025e-06	0.011894107294469571
5.08050e-06	0.011879517567544627
5.08075e-06	0.011864927840619731
5.08100e-06	0.011850327319815302
5.08125e-06	0.01183571836107919
5.08150e-06	0.011821109402343127
5.08175e-06	0.011806500443607065
5.08200e-06	0.011792971787559814
5.08225e-06	0.011780287639754838
5.08250e-06	0.011767603491949863
5.08275e-06	0.011754919344144844
5.08300e-06	0.011743120969227553
5.08325e-06	0.011732015032190955
5.08350e-06	0.01172090909515432
5.08375e-06	0.011709803158117723
5.08400e-06	0.011698697221081125
5.08425e-06	0.011687649780835859
5.08450e-06	0.01167749887276668
5.08475e-06	0.011667347964697499
5.08500e-06	0.011657197056628285
5.08525e-06	0.011647046148559104
5.08550e-06	0.01163689524048989
5.08575e-06	0.01162735070796916
5.08600e-06	0.011618280199213989
5.08625e-06	0.011609209690458788
5.08650e-06	0.011600139181703618
5.08675e-06	0.011591068672948448
5.08700e-06	0.011581998164193247
5.08725e-06	0.011572927655438076
5.08750e-06	0.011563857146682906
5.08775e-06	0.011554786637927705
5.08800e-06	0.011545716129172535
5.08825e-06	0.011536645620417365
5.08850e-06	0.011527575111662164
5.08875e-06	0.011518504602906992
5.08900e-06	0.011510074409039412
5.08925e-06	0.011502144770438118
5.08950e-06	0.011494215131836853
5.08975e-06	0.011486285493235559
5.09000e-06	0.011478355854634291
5.09025e-06	0.011470426216033025
5.09050e-06	0.011462496577431732
5.09075e-06	0.011454566938830466
5.09100e-06	0.0114466373002292
5.09125e-06	0.011438707661627906
5.09150e-06	0.01143077802302664
5.09175e-06	0.011422848384425373
5.09200e-06	0.01141491874582408
5.09225e-06	0.011407554614835797
5.09250e-06	0.011400632559799968
5.09275e-06	0.011394619229198493
5.09300e-06	0.011389316278458633
5.09325e-06	0.011390295383031117
5.09350e-06	0.011396185377433863
5.09375e-06	0.011402075371836589
5.09400e-06	0.011418898111342328
5.09425e-06	0.011444267338274854
5.09450e-06	0.01146963656520738
5.09475e-06	0.011495005792139992
5.09500e-06	0.011520375019072517
5.09525e-06	0.011561053051150166
5.09550e-06	0.011613698481119178
5.09575e-06	0.011666343911088011
5.09600e-06	0.011718989341056845
5.09625e-06	0.011771634771025857
5.09650e-06	0.011841264592592063
5.09675e-06	0.011924171673242374
5.09700e-06	0.012007078753892966
5.09725e-06	0.012089985834543278
5.09750e-06	0.012172892915193589
5.09775e-06	0.01225579999584418
5.09800e-06	0.01233870707649449
5.09825e-06	0.012422918450976535
5.09850e-06	0.012527119663501927
5.09875e-06	0.012631320876027316
5.09900e-06	0.012735522088553062
5.09925e-06	0.012839723301078453
5.09950e-06	0.012943924513603844
5.09975e-06	0.013048125726129588
5.10000e-06	0.013152326938654979
5.10025e-06	0.01325692338663373
5.10050e-06	0.013361828803202207
5.10075e-06	0.013466734219770328
5.10100e-06	0.013567648775793757
5.10125e-06	0.01366544354450502
5.10150e-06	0.013763238313215952
5.10175e-06	0.013852600221974088
5.10200e-06	0.013935369885978814
5.10225e-06	0.01401813954998326
5.10250e-06	0.014100909213987985
5.10275e-06	0.014171399467918094
5.10300e-06	0.014232290501999673
5.10325e-06	0.014293181536081457
5.10350e-06	0.014354072570163036
5.10375e-06	0.014397410980164713
5.10400e-06	0.01442702792501146
5.10425e-06	0.014456644869858109
5.10450e-06	0.014486261814704757
5.10475e-06	0.014515878759551504
5.10500e-06	0.014545495704398153
5.10525e-06	0.014575112649244801
5.10550e-06	0.014604729594091549
5.10575e-06	0.014634346538938197
5.10600e-06	0.014663963483784846
5.10625e-06	0.014691450013911207
5.10650e-06	0.014686285431096718
5.10675e-06	0.01468112084828221
5.10700e-06	0.01467595626546772
5.10725e-06	0.01467079168265323
5.10750e-06	0.014665627099838723
5.10775e-06	0.014660462517024233
5.10800e-06	0.014655297934209744
5.10825e-06	0.014650133351395235
5.10850e-06	0.014644968768580745
5.10875e-06	0.014639804185766256
5.10900e-06	0.014627585386377259
5.10925e-06	0.014608102140560637
5.10950e-06	0.014587250914658002
5.10975e-06	0.014566399688755293
5.11000e-06	0.014545548462852656
5.11025e-06	0.01452469723695002
5.11050e-06	0.014503846011047311
5.11075e-06	0.014482373287674075
5.11100e-06	0.014460414719230145
5.11125e-06	0.01443845615078629
5.11150e-06	0.014416497582342437
5.11175e-06	0.014394539013898507
5.11200e-06	0.014372580445454652
5.11225e-06	0.014352631420346167
5.11250e-06	0.014334253321540359
5.11275e-06	0.014315875222734614
5.11300e-06	0.014295636290459247
5.11325e-06	0.014273942683287797
5.11350e-06	0.01425224907611642
5.11375e-06	0.01422207739887961
5.11400e-06	0.01418527813465438
5.11425e-06	0.014148478870429276
5.11450e-06	0.014111679606204172
5.11475e-06	0.014074880341978943
5.11500e-06	0.014036742994763322
5.11525e-06	0.013978097950902359
5.11550e-06	0.013919452907041595
5.11575e-06	0.01386080786318083
5.11600e-06	0.013802162819319867
5.11625e-06	0.013743517775459103
5.11650e-06	0.013672542254727332
5.11675e-06	0.01359192759355006
5.11700e-06	0.01351131293237306
5.11725e-06	0.013430698271196062
5.11750e-06	0.01335008361001879
5.11775e-06	0.01326946894884179
5.11800e-06	0.013180021426920745
5.11825e-06	0.013083668966436708
5.11850e-06	0.012987316505952999
5.11875e-06	0.012890964045469288
5.11900e-06	0.012794611584985252
5.11925e-06	0.012698259124501541
5.11950e-06	0.012599333730698447
5.11975e-06	0.012498396990061621
5.12000e-06	0.012397689194666297
5.12025e-06	0.012297160373316811
5.12050e-06	0.012198174318817654
5.12075e-06	0.012100394296047487
5.12100e-06	0.012005094774746294
5.12125e-06	0.011911734343253965
5.12150e-06	0.01182272840146914
5.12175e-06	0.011737126507904785
5.12200e-06	0.011651524614340719
5.12225e-06	0.011575125788067357
5.12250e-06	0.011505921303023239
5.12275e-06	0.011436716817979356
5.12300e-06	0.011367512332935472
5.12325e-06	0.011305823968585305
5.12350e-06	0.011250011203672462
5.12375e-06	0.011194198438759429
5.12400e-06	0.011138385673846585
5.12425e-06	0.011089605277075868
5.12450e-06	0.011046322314417519
5.12475e-06	0.011003039351759317
5.12500e-06	0.010959756389101115
5.12525e-06	0.010916473426442768
5.12550e-06	0.01087382503988351
5.12575e-06	0.010840902278876732
5.12600e-06	0.010807979517869841
5.12625e-06	0.010775056756863062
5.12650e-06	0.010742133995856284
5.12675e-06	0.010709211234849393
5.12700e-06	0.010683334735082014
5.12725e-06	0.010662966530119193
5.12750e-06	0.010642598325156303
5.12775e-06	0.010622230120193482
5.12800e-06	0.010601861915230593
5.12825e-06	0.010581493710267773
5.12850e-06	0.010561125505304952
5.12875e-06	0.010540757300342063
5.12900e-06	0.010520389095379242
5.12925e-06	0.010500020890416422
5.12950e-06	0.010479652685453531
5.12975e-06	0.010459284480490712
5.13000e-06	0.010438916275527892
5.13025e-06	0.010418548070565001
5.13050e-06	0.01039817986560218
5.13075e-06	0.010378371604481552
5.13100e-06	0.010367145141740461
5.13125e-06	0.010355918678999407
5.13150e-06	0.010344692216258354
5.13175e-06	0.010333465753517262
5.13200e-06	0.01032223929077621
5.13225e-06	0.01031101282803512
5.13250e-06	0.010299786365294066
5.13275e-06	0.010288559902553012
5.13300e-06	0.01027733343981192
5.13325e-06	0.010266106977070867
5.13350e-06	0.010254880514329816
5.13375e-06	0.010243654051588724
5.13400e-06	0.01023242758884767
5.13425e-06	0.010221201126106617
5.13450e-06	0.010209974663365526
5.13475e-06	0.010197514473254699
5.13500e-06	0.01018408983776933
5.13525e-06	0.010170665202283916
5.13550e-06	0.010157240566798549
5.13575e-06	0.01014381593131318
5.13600e-06	0.010130391295827766
5.13625e-06	0.010116966660342399
5.13650e-06	0.010103542024856985
5.13675e-06	0.010090117389371616
5.13700e-06	0.010076692753886249
5.13725e-06	0.010063268118400834
5.13750e-06	0.010049843482915466
5.13775e-06	0.010036418847430098
5.13800e-06	0.010022847175948904
5.13825e-06	0.010007022004787324
5.13850e-06	0.009991196833625746
5.13875e-06	0.009975371662464113
5.13900e-06	0.009959546491302535
5.13925e-06	0.009943721320140955
5.13950e-06	0.009927896148979322
5.13975e-06	0.009912070977817744
5.14000e-06	0.009896245806656165
5.14025e-06	0.009880420635494533
5.14050e-06	0.009864595464332953
5.14075e-06	0.00984877029317132
5.14100e-06	0.009832945122009742
5.14125e-06	0.009817119950848163
5.14150e-06	0.009803650366514554
5.14175e-06	0.00979202222209387
5.14200e-06	0.009780394077673187
5.14225e-06	0.009768765933252465
5.14250e-06	0.009757137788831782
5.14275e-06	0.009745509644411099
5.14300e-06	0.009733881499990375
5.14325e-06	0.009722253355569692
5.14350e-06	0.009717897750833817
5.14375e-06	0.009719227330224407
5.14400e-06	0.009720556909614993
5.14425e-06	0.009721886489005578
5.14450e-06	0.009723216068396167
5.14475e-06	0.009724545647786752
5.14500e-06	0.009725875227177343
5.14525e-06	0.009727204806567928
5.14550e-06	0.009739328610856716
5.14575e-06	0.009759890616751313
5.14600e-06	0.009780452622645841
5.14625e-06	0.00980101462854037
5.14650e-06	0.009821576634434968
5.14675e-06	0.009842138640329496
5.14700e-06	0.009862700646224024
5.14725e-06	0.009883262652118622
5.14750e-06	0.00990382465801315
5.14775e-06	0.009924386663907677
5.14800e-06	0.009945718464170002
5.14825e-06	0.009978848269070712
5.14850e-06	0.01001197807397142
5.14875e-06	0.010045107878872242
5.14900e-06	0.01007823768377295
5.14925e-06	0.010111367488673771
5.14950e-06	0.010144497293574481
5.14975e-06	0.01017762709847519
5.15000e-06	0.01021075690337601
5.15025e-06	0.01024388670827672
5.15050e-06	0.01027701651317743
5.15075e-06	0.010309657662611594
5.15100e-06	0.010341916813951125
5.15125e-06	0.010374175965290656
5.15150e-06	0.010406435116630296
5.15175e-06	0.010435672896434336
5.15200e-06	0.010462548770461946
