Time(s)	Current(A)
1.40000e-05	0.00416205596641806
1.40003e-05	0.0041524424926219425
1.40005e-05	0.004142829018825761
1.40008e-05	0.004133215545029579
1.40010e-05	0.0041236020712334615
1.40013e-05	0.004113988597437279
1.40015e-05	0.004104375123641097
1.40018e-05	0.00409476164984498
1.40020e-05	0.004085148176048797
1.40023e-05	0.004075534702252616
1.40025e-05	0.004065921228456499
1.40028e-05	0.00406214549576861
1.40030e-05	0.004059567801842646
1.40033e-05	0.004056990107916701
1.40035e-05	0.004054412413990737
1.40038e-05	0.004051834720064773
1.40040e-05	0.004049257026138827
1.40043e-05	0.004046679332212864
1.40045e-05	0.0040441016382869
1.40048e-05	0.004041523944360954
1.40050e-05	0.004038946250434991
1.40053e-05	0.0040363685565090275
1.40055e-05	0.004033790862583064
1.40058e-05	0.004031213168657117
1.40060e-05	0.004028635474731155
1.40063e-05	0.004026057780805191
1.40065e-05	0.0040234800868792445
1.40068e-05	0.004020902392953281
1.40070e-05	0.004018324699027318
1.40073e-05	0.004015206210599849
1.40075e-05	0.004011976738700634
1.40078e-05	0.00400874726680142
1.40080e-05	0.0040055177949022275
1.40083e-05	0.004002288323003014
1.40085e-05	0.003999058851103799
1.40088e-05	0.003995829379204607
1.40090e-05	0.003992599907305393
1.40093e-05	0.003989370435406179
1.40095e-05	0.003986140963506986
1.40098e-05	0.003982911491607772
1.40100e-05	0.003979682019708558
1.40103e-05	0.003976452547809366
1.40105e-05	0.003973223075910151
1.40108e-05	0.0039699936040109365
1.40110e-05	0.0039667641321117445
1.40113e-05	0.00396353466021253
1.40115e-05	0.003960305188313316
1.40118e-05	0.003957075716414123
1.40120e-05	0.00395384624451491
1.40123e-05	0.003950616772615695
1.40125e-05	0.0039452072389810884
1.40128e-05	0.00393935030652976
1.40130e-05	0.003933493374078433
1.40133e-05	0.0039276364416271446
1.40135e-05	0.003921779509175817
1.40138e-05	0.00391592257672449
1.40140e-05	0.003910065644273162
1.40143e-05	0.003904208711821874
1.40145e-05	0.0038983517793705464
1.40148e-05	0.0038924948469192186
1.40150e-05	0.0038866379144679307
1.40153e-05	0.003880780982016603
1.40155e-05	0.0038749240495652756
1.40158e-05	0.0038690671171139877
1.40160e-05	0.00386321018466266
1.40163e-05	0.003857353252211332
1.40165e-05	0.0038514963197600442
1.40168e-05	0.003845639387308717
1.40170e-05	0.003839782454857389
1.40173e-05	0.003833925522406101
1.40175e-05	0.0038280685899547734
1.40178e-05	0.0038276465636312186
1.40180e-05	0.0038283399050661198
1.40183e-05	0.0038290332465010252
1.40185e-05	0.0038297265879359307
1.40188e-05	0.003830419929370832
1.40190e-05	0.0038311132708057373
1.40193e-05	0.003831806612240643
1.40195e-05	0.003832499953675544
1.40198e-05	0.0038331932951104495
1.40200e-05	0.003833886636545355
1.40203e-05	0.0038345799779802557
1.40205e-05	0.0038352733194151616
1.40208e-05	0.003835966660850067
1.40210e-05	0.0038366600022849678
1.40213e-05	0.0038373533437198737
1.40215e-05	0.003838046685154779
1.40218e-05	0.0038413522140007803
1.40220e-05	0.0038499679496932955
1.40223e-05	0.003858583685385811
1.40225e-05	0.0038671994210783263
1.40228e-05	0.0038758151567707833
1.40230e-05	0.003884430892463299
1.40233e-05	0.003893046628155814
1.40235e-05	0.003901662363848271
1.40238e-05	0.003910278099540787
1.40240e-05	0.0039188938352333015
1.40243e-05	0.003927509570925759
1.40245e-05	0.0039361253066182746
1.40248e-05	0.003944741042310789
1.40250e-05	0.003953356778003247
1.40253e-05	0.0039619725136957615
1.40255e-05	0.003970588249388277
1.40258e-05	0.003979203985080735
1.40260e-05	0.0039843789804180465
1.40263e-05	0.0039888478566856836
1.40265e-05	0.00399331673295329
1.40268e-05	0.003997785609220927
1.40270e-05	0.0040022544854885645
1.40273e-05	0.004006723361756171
1.40275e-05	0.004011192238023808
1.40278e-05	0.0040156611142914455
1.40280e-05	0.004020129990559052
1.40283e-05	0.004024598866826689
1.40285e-05	0.004029067743094326
1.40288e-05	0.004033536619361933
1.40290e-05	0.00403800549562957
1.40293e-05	0.0040424743718972065
1.40295e-05	0.004046943248164813
1.40298e-05	0.004046269938171119
1.40300e-05	0.004035143292180192
1.40303e-05	0.00402401664618934
1.40305e-05	0.004012890000198412
1.40308e-05	0.004001763354207485
1.40310e-05	0.003990636708216557
1.40313e-05	0.003979510062225705
1.40315e-05	0.003968383416234777
1.40318e-05	0.00395725677024385
1.40320e-05	0.003946130124252998
1.40323e-05	0.003935003478262071
1.40325e-05	0.003923876832271143
1.40328e-05	0.003912750186280291
1.40330e-05	0.0039016235402893635
1.40333e-05	0.003890496894298436
1.40335e-05	0.0038793702483075837
1.40338e-05	0.0038621527414138554
1.40340e-05	0.003843685249751895
1.40343e-05	0.0038252177580900596
1.40345e-05	0.003806750266428099
1.40348e-05	0.003788282774766139
1.40350e-05	0.0037698152831043036
1.40353e-05	0.003751347791442343
1.40355e-05	0.0037328802997803824
1.40358e-05	0.003714412808118547
1.40360e-05	0.003695945316456587
1.40363e-05	0.0036774778247946264
1.40365e-05	0.0036644274077266455
1.40368e-05	0.003652488698976961
1.40370e-05	0.0036405499902272768
1.40373e-05	0.003628611281477673
1.40375e-05	0.0036166725727279888
1.40378e-05	0.0036047338639783044
1.40380e-05	0.0035927951552287007
1.40383e-05	0.0035808564464790164
1.40385e-05	0.003568917737729332
1.40388e-05	0.0035569790289797284
1.40390e-05	0.003545040320230044
1.40393e-05	0.0035459116355085673
1.40395e-05	0.0035494118623936514
1.40398e-05	0.003552912089278712
1.40400e-05	0.003556412316163796
1.40403e-05	0.0035599125430488803
1.40405e-05	0.0035634127699339406
1.40408e-05	0.0035669129968190247
1.40410e-05	0.0035704132237041088
1.40413e-05	0.0035739134505891695
1.40415e-05	0.0035774136774742536
1.40418e-05	0.0035809139043593377
1.40420e-05	0.003584414131244398
1.40423e-05	0.0035917535762772703
1.40425e-05	0.0036068976077721425
1.40428e-05	0.0036220416392669123
1.40430e-05	0.0036371856707617845
1.40433e-05	0.003652329702256657
1.40435e-05	0.0036674737337514265
1.40438e-05	0.003682617765246299
1.40440e-05	0.0036977617967411712
1.40443e-05	0.003712905828235941
1.40445e-05	0.0037280498597308132
1.40448e-05	0.0037431938912256854
1.40450e-05	0.003758337922720455
1.40453e-05	0.0037734819542153274
1.40455e-05	0.0037851099399933094
1.40458e-05	0.003796016352308455
1.40460e-05	0.0038069227646236746
1.40463e-05	0.003817829176938894
1.40465e-05	0.00382873558925404
1.40468e-05	0.0038396420015692594
1.40470e-05	0.0038505484138844793
1.40473e-05	0.0038614548261996246
1.40475e-05	0.0038723612385148445
1.40478e-05	0.003883267650830064
1.40480e-05	0.0038941740631452835
1.40483e-05	0.0039050804754604293
1.40485e-05	0.003915986887775649
1.40488e-05	0.003926893300090869
1.40490e-05	0.003937799712406014
1.40493e-05	0.003948706124721234
1.40495e-05	0.003959612537036453
1.40498e-05	0.003970518949351599
1.40500e-05	0.003981425361666818
1.40503e-05	0.003982465536523294
1.40505e-05	0.00398148093249402
1.40508e-05	0.003980496328464741
1.40510e-05	0.003979511724435461
1.40513e-05	0.003978527120406188
1.40515e-05	0.003977542516376909
1.40518e-05	0.003976557912347629
1.40520e-05	0.003975573308318356
1.40523e-05	0.003974588704289076
1.40525e-05	0.0039736041002597965
1.40528e-05	0.003972619496230523
1.40530e-05	0.003971634892201243
1.40533e-05	0.003970650288171964
1.40535e-05	0.003969665684142691
1.40538e-05	0.0039686810801134115
1.40540e-05	0.003967696476084131
1.40543e-05	0.003966711872054858
1.40545e-05	0.003965727268025579
1.40548e-05	0.003964742663996299
1.40550e-05	0.003961750904832489
1.40553e-05	0.003958347231263125
1.40555e-05	0.003954943557693761
1.40558e-05	0.003951539884124419
1.40560e-05	0.003948136210555055
1.40563e-05	0.0039447325369856906
1.40565e-05	0.003941328863416326
1.40568e-05	0.003937925189846985
1.40570e-05	0.00393452151627762
1.40573e-05	0.003931117842708256
1.40575e-05	0.003927714169138914
1.40578e-05	0.00392431049556955
1.40580e-05	0.003920906822000186
1.40583e-05	0.003917503148430844
1.40585e-05	0.00391409947486148
1.40588e-05	0.0039173866374443145
1.40590e-05	0.003922046913519491
1.40593e-05	0.003926707189594699
1.40595e-05	0.003931367465669908
1.40598e-05	0.0039360277417450846
1.40600e-05	0.003940688017820293
1.40603e-05	0.003945348293895501
1.40605e-05	0.003950008569970679
1.40608e-05	0.003954668846045887
1.40610e-05	0.0039593291221210955
1.40613e-05	0.003963989398196272
1.40615e-05	0.003968649674271481
1.40618e-05	0.003973309950346689
1.40620e-05	0.003977970226421866
1.40623e-05	0.003982630502497074
1.40625e-05	0.003993532813754711
1.40628e-05	0.004005716134221748
1.40630e-05	0.0040178994546888665
1.40633e-05	0.004030082775155985
1.40635e-05	0.004042266095623022
1.40638e-05	0.0040544494160901405
1.40640e-05	0.004066632736557259
1.40643e-05	0.004078816057024296
1.40645e-05	0.0040909993774914145
1.40648e-05	0.004103182697958533
1.40650e-05	0.004115366018425652
1.40653e-05	0.0041275493388926885
1.40655e-05	0.004139732659359807
1.40658e-05	0.004151081206675401
1.40660e-05	0.004160732778463505
1.40663e-05	0.004170384350251675
1.40665e-05	0.004180035922039844
1.40668e-05	0.004189687493827948
1.40670e-05	0.004199339065616118
1.40673e-05	0.004208990637404288
1.40675e-05	0.0042186422091923925
1.40678e-05	0.0042282937809805625
1.40680e-05	0.004237945352768732
1.40683e-05	0.004247596924556836
1.40685e-05	0.004257248496345006
1.40688e-05	0.004266900068133176
1.40690e-05	0.00427655163992128
1.40693e-05	0.004284680300949445
1.40695e-05	0.004293207388280486
1.40698e-05	0.004301880381496677
1.40700e-05	0.0043105533747129264
1.40703e-05	0.0043192263679291765
1.40705e-05	0.004327899361145368
1.40708e-05	0.004336572354361617
1.40710e-05	0.004345245347577867
1.40713e-05	0.004353918340794057
1.40715e-05	0.004362591334010307
1.40718e-05	0.004371264327226557
1.40720e-05	0.004379937320442747
1.40723e-05	0.0043886103136589975
1.40725e-05	0.0043972833068752475
1.40728e-05	0.004405956300091438
1.40730e-05	0.004414629293307688
1.40733e-05	0.004423302286523937
1.40735e-05	0.004431975279740187
1.40738e-05	0.004440648272956378
1.40740e-05	0.004448369058789526
1.40743e-05	0.004455894429763205
1.40745e-05	0.004463419800736834
1.40748e-05	0.0044709451717105135
1.40750e-05	0.004478470542684194
1.40753e-05	0.004485995913657823
1.40755e-05	0.004493521284631502
1.40758e-05	0.004501046655605182
1.40760e-05	0.004508572026578811
1.40763e-05	0.00451609739755249
1.40765e-05	0.00452362276852617
1.40768e-05	0.0045311481394997985
1.40770e-05	0.004538673510473479
1.40773e-05	0.004546198881447159
1.40775e-05	0.004553724252420787
1.40778e-05	0.004561249623394467
1.40780e-05	0.004568774994368146
1.40783e-05	0.004576300365341775
1.40785e-05	0.004574644642065223
1.40788e-05	0.0045711047470472785
1.40790e-05	0.004567564852029357
1.40793e-05	0.004564024957011412
1.40795e-05	0.004560485061993467
1.40798e-05	0.004556945166975546
1.40800e-05	0.004553405271957601
1.40803e-05	0.004549865376939656
1.40805e-05	0.0045463254819217355
1.40808e-05	0.00454278558690379
1.40810e-05	0.004539245691885845
1.40813e-05	0.004535705796867924
1.40815e-05	0.00453216590184998
1.40818e-05	0.004528626006832034
1.40820e-05	0.0045250861118140894
1.40823e-05	0.004513936645731321
1.40825e-05	0.0045012255206157625
1.40828e-05	0.004488514395500203
1.40830e-05	0.00447580327038473
1.40833e-05	0.004463092145269171
1.40835e-05	0.004450381020153611
1.40838e-05	0.004437669895038138
1.40840e-05	0.0044249587699225785
1.40843e-05	0.00441224764480702
1.40845e-05	0.004399536519691547
1.40848e-05	0.004386825394575987
1.40850e-05	0.004374114269460428
1.40853e-05	0.004361403144344955
1.40855e-05	0.004348692019229395
1.40858e-05	0.0043359808941138365
1.40860e-05	0.004327095510128605
1.40863e-05	0.004318995256230556
1.40865e-05	0.004310895002332507
1.40868e-05	0.004302794748434513
1.40870e-05	0.004294694494536463
1.40873e-05	0.004286594240638414
1.40875e-05	0.00427849398674042
1.40878e-05	0.004270393732842371
1.40880e-05	0.004262293478944322
1.40883e-05	0.004254193225046328
1.40885e-05	0.004246092971148279
1.40888e-05	0.00423799271725023
1.40890e-05	0.004229892463352236
1.40893e-05	0.004221792209454186
1.40895e-05	0.004213691955556137
1.40898e-05	0.004205591701658143
1.40900e-05	0.004197491447760094
1.40903e-05	0.004189391193862045
1.40905e-05	0.004181290939963996
1.40908e-05	0.004173190686066002
1.40910e-05	0.004165090432167952
1.40913e-05	0.0041592652655520574
1.40915e-05	0.004158065028998696
1.40918e-05	0.004156864792445325
1.40920e-05	0.004155664555891956
1.40923e-05	0.004154464319338594
1.40925e-05	0.004153264082785224
1.40928e-05	0.004152063846231854
1.40930e-05	0.004150863609678492
1.40933e-05	0.004149663373125122
1.40935e-05	0.004148463136571752
1.40938e-05	0.00414726290001839
1.40940e-05	0.004146062663465021
1.40943e-05	0.00414486242691165
1.40945e-05	0.004143662190358288
1.40948e-05	0.004142461953804919
1.40950e-05	0.004141261717251549
1.40953e-05	0.004140061480698187
1.40955e-05	0.004138861244144817
1.40958e-05	0.004137661007591447
1.40960e-05	0.004136460771038086
1.40963e-05	0.004135260534484715
1.40965e-05	0.0041340602979313456
1.40968e-05	0.004131503053255532
1.40970e-05	0.004128667319296224
1.40973e-05	0.004125831585336916
1.40975e-05	0.004122995851377627
1.40978e-05	0.004120160117418319
1.40980e-05	0.004117324383459011
1.40983e-05	0.004114488649499723
1.40985e-05	0.004111652915540415
1.40988e-05	0.004108817181581107
1.40990e-05	0.004105981447621798
1.40993e-05	0.004103145713662509
1.40995e-05	0.004100309979703201
1.40998e-05	0.004097474245743893
1.41000e-05	0.0040946385117846045
1.41003e-05	0.004091802777825297
1.41005e-05	0.004088967043865989
1.41008e-05	0.0040861313099067
1.41010e-05	0.004083295575947392
1.41013e-05	0.004080459841988083
1.41015e-05	0.004075663733079326
1.41018e-05	0.004066882459683739
1.41020e-05	0.004058101186288151
1.41023e-05	0.0040493199128926235
1.41025e-05	0.004040538639497037
1.41028e-05	0.004031757366101449
1.41030e-05	0.004022976092705921
1.41033e-05	0.004014194819310334
1.41035e-05	0.004005413545914747
1.41038e-05	0.00399663227251922
1.41040e-05	0.003987850999123632
1.41043e-05	0.003979069725728045
1.41045e-05	0.0039702884523325176
1.41048e-05	0.00396150717893693
1.41050e-05	0.003952725905541343
1.41053e-05	0.003943944632145815
1.41055e-05	0.003935163358750228
1.41058e-05	0.003926382085354641
1.41060e-05	0.003917600811959113
1.41063e-05	0.003908819538563525
1.41065e-05	0.00390049755280353
1.41068e-05	0.00389226982343197
1.41070e-05	0.0038840420940603544
1.41073e-05	0.0038758143646887384
1.41075e-05	0.003867586635317123
1.41078e-05	0.0038593589059455627
1.41080e-05	0.0038511311765739467
1.41083e-05	0.003842903447202331
1.41085e-05	0.003834675717830771
1.41088e-05	0.003826447988459155
1.41090e-05	0.0038182202590875394
1.41093e-05	0.0038099925297159793
1.41095e-05	0.0038017648003443633
1.41098e-05	0.0037935370709727477
1.41100e-05	0.0037853093416011876
1.41103e-05	0.0037770816122295716
1.41105e-05	0.003768853882857956
1.41108e-05	0.0037589982654176314
1.41110e-05	0.0037458333822042475
1.41113e-05	0.0037326684989908636
1.41115e-05	0.003719503615777569
1.41118e-05	0.003706338732564185
1.41120e-05	0.0036931738493508016
1.41123e-05	0.0036800089661375066
1.41125e-05	0.003666844082924123
1.41128e-05	0.0036536791997107392
1.41130e-05	0.0036405143164974446
1.41133e-05	0.0036273494332840607
1.41135e-05	0.003614184550070677
1.41138e-05	0.0036010196668573823
1.41140e-05	0.0035878547836439983
1.41143e-05	0.003574689900430615
1.41145e-05	0.0035615250172173203
1.41148e-05	0.0035483601340039364
1.41150e-05	0.0035351952507905525
1.41153e-05	0.003522032761119439
1.41155e-05	0.0035088707626581544
1.41158e-05	0.003495708764196869
1.41160e-05	0.003482546765735673
1.41163e-05	0.0034693847672743884
1.41165e-05	0.003456222768813103
1.41168e-05	0.0034430607703518183
1.41170e-05	0.0034298987718906224
1.41173e-05	0.00341974373059533
1.41175e-05	0.0034157014071357263
1.41178e-05	0.0034116590836761503
1.41180e-05	0.0034076167602165464
1.41183e-05	0.003403574436756943
1.41185e-05	0.0033995321132973665
1.41188e-05	0.003395489789837763
1.41190e-05	0.0033914474663781593
1.41193e-05	0.0033874051429185832
1.41195e-05	0.0034007971736248212
1.41198e-05	0.0034177671348720948
1.41200e-05	0.003434737096119254
1.41203e-05	0.003451707057366528
1.41205e-05	0.0034686770186138013
1.41208e-05	0.0034856469798609604
1.41210e-05	0.0035026169411082344
1.41213e-05	0.003519586902355508
1.41215e-05	0.003536556863602667
1.41218e-05	0.003553526824849941
1.41220e-05	0.0035766850998103896
1.41223e-05	0.0036124233396732596
1.41225e-05	0.0036481615795363716
1.41228e-05	0.003683899819399484
1.41230e-05	0.003719638059262354
1.41233e-05	0.003755376299125466
1.41235e-05	0.0037911145389885785
1.41238e-05	0.0038268527788514486
1.41240e-05	0.0038625910187145606
1.41243e-05	0.003898329258577673
1.41245e-05	0.003934067498440543
1.41248e-05	0.003970807557356928
1.41250e-05	0.004007753212589312
1.41253e-05	0.004044698867821696
1.41255e-05	0.004081644523053829
1.41258e-05	0.004118590178286214
1.41260e-05	0.004155535833518598
1.41263e-05	0.004192481488750731
1.41265e-05	0.004229427143983115
1.41268e-05	0.004266372799215499
1.41270e-05	0.004303318454447634
1.41273e-05	0.004335052858112603
1.41275e-05	0.004356193525766822
1.41278e-05	0.004377334193420898
1.41280e-05	0.004398474861075117
1.41283e-05	0.004419615528729336
1.41285e-05	0.004440756196383413
1.41288e-05	0.004461896864037631
1.41290e-05	0.004483037531691851
1.41293e-05	0.004504178199345926
1.41295e-05	0.004525318867000146
1.41298e-05	0.004546459534654364
1.41300e-05	0.0045544289063105415
1.41303e-05	0.004559695225029139
1.41305e-05	0.004564961543747736
1.41308e-05	0.004570227862466298
1.41310e-05	0.004575494181184895
1.41313e-05	0.0045807604999034916
1.41315e-05	0.004586026818622053
1.41318e-05	0.00459129313734065
1.41320e-05	0.004596559456059247
1.41323e-05	0.004601825774777808
1.41325e-05	0.004607092093496406
1.41328e-05	0.004612358412215003
1.41330e-05	0.004617624730933564
1.41333e-05	0.004622891049652161
1.41335e-05	0.004628157368370758
1.41338e-05	0.004626792351829061
1.41340e-05	0.004624066432741348
1.41343e-05	0.004621340513653619
1.41345e-05	0.004618614594565888
1.41348e-05	0.004615888675478176
1.41350e-05	0.004613162756390446
1.41353e-05	0.004610436837302716
1.41355e-05	0.004607710918215003
1.41358e-05	0.0046049849991272734
1.41360e-05	0.004602259080039543
1.41363e-05	0.004599533160951831
1.41365e-05	0.0045968072418641
1.41368e-05	0.004594081322776371
1.41370e-05	0.004591355403688659
1.41373e-05	0.004588629484600928
1.41375e-05	0.0045834223920668115
1.41378e-05	0.004577706105663283
1.41380e-05	0.004571989819259714
1.41383e-05	0.004566273532856146
1.41385e-05	0.004560557246452617
1.41388e-05	0.004554840960049048
1.41390e-05	0.00454912467364548
1.41393e-05	0.004543408387241951
1.41395e-05	0.004537692100838383
1.41398e-05	0.0045319758144348144
1.41400e-05	0.004526259528031285
1.41403e-05	0.004520543241627717
1.41405e-05	0.0045148269552241485
1.41408e-05	0.004509110668820619
1.41410e-05	0.004503394382417051
1.41413e-05	0.004497678096013483
1.41415e-05	0.004491961809609954
1.41418e-05	0.004486245523206385
1.41420e-05	0.004480529236802817
1.41423e-05	0.004470949846136273
1.41425e-05	0.004460577657605874
1.41428e-05	0.004450205469075403
1.41430e-05	0.0044398332805449334
1.41433e-05	0.004429461092014533
1.41435e-05	0.0044190889034840634
1.41438e-05	0.004408716714953593
1.41440e-05	0.004398344526423193
1.41443e-05	0.004387972337892723
1.41445e-05	0.004377600149362252
1.41448e-05	0.004367227960831853
1.41450e-05	0.004356855772301382
1.41453e-05	0.004346483583770913
1.41455e-05	0.004336111395240512
1.41458e-05	0.004325739206710042
1.41460e-05	0.004315367018179572
1.41463e-05	0.004304994829649172
1.41465e-05	0.004294622641118702
1.41468e-05	0.0042842504525882315
1.41470e-05	0.00427971153818631
1.41473e-05	0.004276369745828015
1.41475e-05	0.00427302795346972
1.41478e-05	0.004269686161111448
1.41480e-05	0.004266344368753153
1.41483e-05	0.004263002576394857
1.41485e-05	0.004259660784036585
1.41488e-05	0.00425631899167829
1.41490e-05	0.004252977199319995
1.41493e-05	0.004249635406961723
1.41495e-05	0.004246293614603428
1.41498e-05	0.004242951822245133
1.41500e-05	0.004239610029886861
1.41503e-05	0.004236268237528566
