Time(s)	Current(A)
2.50000e-06	0.004903866817034533
2.50025e-06	0.004920064491010956
2.50050e-06	0.0049362621649873505
2.50075e-06	0.004952459838963773
2.50100e-06	0.004968657512940195
2.50125e-06	0.0049848551869165906
2.50150e-06	0.005001052860893013
2.50175e-06	0.005017250534869435
2.50200e-06	0.005027683382602131
2.50225e-06	0.0050379816496089885
2.50250e-06	0.005048279916615863
2.50275e-06	0.005058578183622738
2.50300e-06	0.005068876450629595
2.50325e-06	0.00507917471763647
2.50350e-06	0.005089472984643345
2.50375e-06	0.005099771251650203
2.50400e-06	0.005110069518657077
2.50425e-06	0.005120367785663952
2.50450e-06	0.005130666052670827
2.50475e-06	0.005140964319677684
2.50500e-06	0.005149205103319085
2.50525e-06	0.005155191682081616
2.50550e-06	0.005161178260844138
2.50575e-06	0.005167164839606669
2.50600e-06	0.005173151418369201
2.50625e-06	0.0051791379971317325
2.50650e-06	0.005185124575894254
2.50675e-06	0.005191111154656786
2.50700e-06	0.005197097733419318
2.50725e-06	0.005203084312181839
2.50750e-06	0.005209070890944371
2.50775e-06	0.005215057469706902
2.50800e-06	0.005221044048469424
2.50825e-06	0.005208653055933973
2.50850e-06	0.005195833036263815
2.50875e-06	0.005183013016593658
2.50900e-06	0.005170192996923522
2.50925e-06	0.0051573729772533645
2.50950e-06	0.0051445529575832065
2.50975e-06	0.005131732937913071
2.51000e-06	0.005118912918242914
2.51025e-06	0.005106092898572756
2.51050e-06	0.0050932728789025985
2.51075e-06	0.005080452859232462
2.51100e-06	0.005054914424060732
2.51125e-06	0.0050154415315042215
2.51150e-06	0.004975968638947778
2.51175e-06	0.004936495746391268
2.51200e-06	0.004897022853834758
2.51225e-06	0.004857549961278315
2.51250e-06	0.004818077068721805
2.51275e-06	0.004778604176165295
2.51300e-06	0.004739131283608785
2.51325e-06	0.0046996583910523405
2.51350e-06	0.00466018549849583
2.51375e-06	0.00462071260593932
2.51400e-06	0.004571253392306835
2.51425e-06	0.004521561046523721
2.51450e-06	0.0044718687007406065
2.51475e-06	0.004422176354957492
2.51500e-06	0.004372484009174462
2.51525e-06	0.004322791663391347
2.51550e-06	0.004273099317608233
2.51575e-06	0.004223406971825203
2.51600e-06	0.004182078629062108
2.51625e-06	0.004140945545193336
2.51650e-06	0.004099812461324633
2.51675e-06	0.004058679377455862
2.51700e-06	0.00401754629358709
2.51725e-06	0.003976413209718318
2.51750e-06	0.0039352801258496165
2.51775e-06	0.0038941470419808447
2.51800e-06	0.003863339692711363
2.51825e-06	0.0038327733992517426
2.51850e-06	0.00380220710579207
2.51875e-06	0.003771640812332398
2.51900e-06	0.0037410745188727257
2.51925e-06	0.0037105082254131052
2.51950e-06	0.003679941931953433
2.51975e-06	0.003649375638493761
2.52000e-06	0.0036188093450341408
2.52025e-06	0.0035882430515744683
2.52050e-06	0.0035576767581147963
2.52075e-06	0.003527110464655176
2.52100e-06	0.003496544171195504
2.52125e-06	0.0034642610530466176
2.52150e-06	0.003431937855370032
2.52175e-06	0.0033996146576935017
2.52200e-06	0.003367291460016916
2.52225e-06	0.003334968262340331
2.52250e-06	0.0033026450646638007
2.52275e-06	0.003270321866987215
2.52300e-06	0.00323799866931063
2.52325e-06	0.0032056754716340446
2.52350e-06	0.003173352273957514
2.52375e-06	0.003141029076280929
2.52400e-06	0.0031087058786043436
2.52425e-06	0.003076382680927813
2.52450e-06	0.003047889366023079
2.52475e-06	0.0030194854603012677
2.52500e-06	0.0029910815545795047
2.52525e-06	0.0029626776488576936
2.52550e-06	0.002934273743135882
2.52575e-06	0.002905869837414071
2.52600e-06	0.002877465931692308
2.52625e-06	0.002849062025970497
2.52650e-06	0.0028206581202486858
2.52675e-06	0.002792254214526923
2.52700e-06	0.0027638503088051117
2.52725e-06	0.0027354464030833006
2.52750e-06	0.0027070424973614894
2.52775e-06	0.0026923744492594465
2.52800e-06	0.002678027066796505
2.52825e-06	0.002663679684333563
2.52850e-06	0.0026493323018706456
2.52875e-06	0.002634984919407704
2.52900e-06	0.0026206375369447624
2.52925e-06	0.0026062901544818447
2.52950e-06	0.002591942772018903
2.52975e-06	0.0025775953895559615
2.53000e-06	0.00256324800709302
2.53025e-06	0.0025489006246301026
2.53050e-06	0.0025345532421671606
2.53075e-06	0.002520205859704219
2.53100e-06	0.0025152599701283567
2.53125e-06	0.002510533559802326
2.53150e-06	0.002505807149476295
2.53175e-06	0.002501080739150264
2.53200e-06	0.0024963543288242414
2.53225e-06	0.002491627918498211
2.53250e-06	0.00248690150817218
2.53275e-06	0.002482175097846157
2.53300e-06	0.002477448687520126
2.53325e-06	0.0024727222771940955
2.53350e-06	0.0024679958668680727
2.53375e-06	0.0024632694565420417
2.53400e-06	0.002458543046216011
2.53425e-06	0.002455701204131787
2.53450e-06	0.0024549241189235575
2.53475e-06	0.002454147033715327
2.53500e-06	0.002453369948507096
2.53525e-06	0.002452592863298867
2.53550e-06	0.002451815778090636
2.53575e-06	0.0024510386928824055
2.53600e-06	0.002450261607674175
2.53625e-06	0.0024494845224659455
2.53650e-06	0.0024487074372577153
2.53675e-06	0.0024479303520494847
2.53700e-06	0.0024471532668412553
2.53725e-06	0.0024463761816330247
2.53750e-06	0.002445599096424794
2.53775e-06	0.002454135777230967
2.53800e-06	0.0024628898892902194
2.53825e-06	0.0024716440013494716
2.53850e-06	0.0024803981134087242
2.53875e-06	0.0024891522254679617
2.53900e-06	0.002497906337527214
2.53925e-06	0.002506660449586466
2.53950e-06	0.0025154145616457036
2.53975e-06	0.002547940616512425
2.54000e-06	0.002581021630920238
2.54025e-06	0.0026141026453280506
2.54050e-06	0.0026471836597358072
2.54075e-06	0.0026802646741436197
2.54100e-06	0.0027133456885514327
2.54125e-06	0.0027464267029591893
2.54150e-06	0.002779507717367002
2.54175e-06	0.0028339917923353667
2.54200e-06	0.0028889755249362865
2.54225e-06	0.0029439592575372995
2.54250e-06	0.0029989429901383126
2.54275e-06	0.0030539267227393256
2.54300e-06	0.0031089104553402454
2.54325e-06	0.0031638941879412585
2.54350e-06	0.003223893089204453
2.54375e-06	0.003289386672883534
2.54400e-06	0.003354880256562726
2.54425e-06	0.0034203738402419177
2.54450e-06	0.0034858674239209987
2.54475e-06	0.0035513610076001907
2.54500e-06	0.0036168545912793823
2.54525e-06	0.003682348174958574
2.54550e-06	0.0037424744642972426
2.54575e-06	0.003802475453351173
2.54600e-06	0.003862476442405104
2.54625e-06	0.0039224774314589326
2.54650e-06	0.0039824784205128635
2.54675e-06	0.0040424794095667935
2.54700e-06	0.0041024803986207245
2.54725e-06	0.004139439415762268
2.54750e-06	0.004175860514641674
2.54775e-06	0.0042122816135210794
2.54800e-06	0.004248702712400423
2.54825e-06	0.004285123811279829
2.54850e-06	0.0043215449101592345
2.54875e-06	0.004357966009038578
2.54900e-06	0.004368835317818747
2.54925e-06	0.0043791081162576255
2.54950e-06	0.004389380914696504
2.54975e-06	0.004383169645571409
2.55000e-06	0.004376573553436691
2.55025e-06	0.004369977461301974
2.55050e-06	0.004336010296744005
2.55075e-06	0.004301404150428267
2.55100e-06	0.004266798004112529
2.55125e-06	0.004232191857796792
2.55150e-06	0.004197585711481113
2.55175e-06	0.004162979565165375
2.55200e-06	0.0041283734188496376
2.55225e-06	0.00407949075334798
2.55250e-06	0.004014966552292605
2.55275e-06	0.00395044235123723
2.55300e-06	0.003885918150181964
2.55325e-06	0.003821393949126589
2.55350e-06	0.003756869748071214
2.55375e-06	0.003692345547015839
2.55400e-06	0.003627821345960573
2.55425e-06	0.0035534449579241265
2.55450e-06	0.003477224320572535
2.55475e-06	0.003400965998348643
2.55500e-06	0.003324707676124622
2.55525e-06	0.003248449353900601
2.55550e-06	0.00317219103167658
2.55575e-06	0.0030959327094526885
2.55600e-06	0.003028293496122721
2.55625e-06	0.0029608554971722397
2.55650e-06	0.0028934174982218727
2.55675e-06	0.0028259794992713913
2.55700e-06	0.00275854150032091
2.55725e-06	0.0026911035013705426
2.55750e-06	0.002640155182123444
2.55775e-06	0.0025895918169024203
2.55800e-06	0.0025390284516813967
2.55825e-06	0.0024998173831997737
2.55850e-06	0.0024608713357745036
2.55875e-06	0.0024219252883492335
2.55900e-06	0.0023943438236987565
2.55925e-06	0.002367027666923997
2.55950e-06	0.002339711510149238
2.55975e-06	0.00232454775921136
2.56000e-06	0.002309667707995896
2.56025e-06	0.002294787656780406
2.56050e-06	0.0022899578859072816
2.56075e-06	0.0022853627403241314
2.56100e-06	0.0022807675947409734
2.56125e-06	0.0022859409090825213
2.56150e-06	0.002291342269574427
2.56175e-06	0.0022967436300663415
2.56200e-06	0.002315516959843144
2.56225e-06	0.0023346024602324835
2.56250e-06	0.0023536879606217906
2.56275e-06	0.0023727734610111306
2.56300e-06	0.0023918589614004703
2.56325e-06	0.0024109444617897774
2.56350e-06	0.0024300299621791174
2.56375e-06	0.0024542429646324895
2.56400e-06	0.0024840737234027997
2.56425e-06	0.0025139044821730593
2.56450e-06	0.0025437352409433695
2.56475e-06	0.0025735659997136798
2.56500e-06	0.0026033967584839397
2.56525e-06	0.00263322751725425
2.56550e-06	0.0026630582760245602
2.56575e-06	0.0026913377462233034
2.56600e-06	0.002719581001359572
2.56625e-06	0.0027478242564958405
2.56650e-06	0.002776067511632109
2.56675e-06	0.0028043107667683298
2.56700e-06	0.002832554021904598
2.56725e-06	0.002860797277040867
2.56750e-06	0.0028836436148402937
2.56775e-06	0.0029063639608014895
2.56800e-06	0.0029290843067626858
2.56825e-06	0.0029518046527238816
2.56850e-06	0.0029745249986850393
2.56875e-06	0.0029972453446462355
2.56900e-06	0.0030199656906074314
2.56925e-06	0.0030503692697145287
2.56950e-06	0.0030809522150427346
2.56975e-06	0.0031115351603709404
2.57000e-06	0.0031421181056990946
2.57025e-06	0.0031727010510273004
2.57050e-06	0.0032032839963555063
2.57075e-06	0.003233866941683712
2.57100e-06	0.003264449887011866
2.57125e-06	0.0032950328323400717
2.57150e-06	0.0033256157776682775
2.57175e-06	0.0033561987229964317
2.57200e-06	0.0033867816683246376
2.57225e-06	0.0034280228441896754
2.57250e-06	0.0034695128380326148
2.57275e-06	0.0035110028318754843
2.57300e-06	0.0035524928257184237
2.57325e-06	0.003593982819561363
2.57350e-06	0.0036354728134042327
2.57375e-06	0.003676962807247172
2.57400e-06	0.0037184528010901115
2.57425e-06	0.003759942794932981
2.57450e-06	0.0038014327887759204
2.57475e-06	0.00384292278261886
2.57500e-06	0.0038844127764617997
2.57525e-06	0.003922545566511325
2.57550e-06	0.0039605999821387666
2.57575e-06	0.003998654397766208
2.57600e-06	0.004036708813393584
2.57625e-06	0.004074763229021026
2.57650e-06	0.004112817644648467
2.57675e-06	0.004150872060275908
2.57700e-06	0.0041889264759032855
2.57725e-06	0.004217761088620126
2.57750e-06	0.004236494368290115
2.57775e-06	0.0042552276479600705
2.57800e-06	0.004273960927630059
2.57825e-06	0.004292694207300047
2.57850e-06	0.004311427486970003
2.57875e-06	0.004330160766639991
2.57900e-06	0.004348894046309979
2.57925e-06	0.004367627325979967
2.57950e-06	0.004355742396566581
2.57975e-06	0.004343142680505538
2.58000e-06	0.004330542964444494
2.58025e-06	0.004317943248383472
2.58050e-06	0.004305343532322429
2.58075e-06	0.004292743816261386
2.58100e-06	0.0042801441002003416
2.58125e-06	0.00426754438413932
2.58150e-06	0.004254944668078277
2.58175e-06	0.004229495931778619
2.58200e-06	0.004189969645880931
2.58225e-06	0.004150443359983176
2.58250e-06	0.004110917074085421
2.58275e-06	0.004071390788187733
2.58300e-06	0.004031864502289978
2.58325e-06	0.003992338216392223
2.58350e-06	0.0039528119304944685
2.58375e-06	0.00391328564459678
2.58400e-06	0.003873759358699026
2.58425e-06	0.003824804962174633
2.58450e-06	0.0037756304650046085
2.58475e-06	0.003726455967834501
2.58500e-06	0.003677281470664393
2.58525e-06	0.0036281069734942855
2.58550e-06	0.0035789324763242612
2.58575e-06	0.0035297579791541533
2.58600e-06	0.0034871029139229752
2.58625e-06	0.003444600045800759
2.58650e-06	0.0034020971776784707
2.58675e-06	0.0033595943095561824
2.58700e-06	0.0033170914414339665
2.58725e-06	0.0032745885733116782
2.58750e-06	0.00323208570518939
2.58775e-06	0.0032035538253350018
2.58800e-06	0.0031753481002811034
2.58825e-06	0.0031471423752271574
2.58850e-06	0.0031331343775499966
2.58875e-06	0.003119457827931569
2.58900e-06	0.003105781278313119
2.58925e-06	0.003106673160646714
2.58950e-06	0.0031079051451925028
2.58975e-06	0.0031091371297382892
2.59000e-06	0.003125699204593183
2.59025e-06	0.0031426191626879483
2.59050e-06	0.0031595391207826853
2.59075e-06	0.003191623838586286
2.59100e-06	0.0032240625799622885
2.59125e-06	0.003256501321338236
2.59150e-06	0.003302169923522033
2.59175e-06	0.003348147378775435
2.59200e-06	0.0033941248340288374
2.59225e-06	0.003457899662526682
2.59250e-06	0.0035220899733518765
2.59275e-06	0.0035862802841770715
2.59300e-06	0.003650470595002157
2.59325e-06	0.0037146609058273518
2.59350e-06	0.0037788512166525463
2.59375e-06	0.003843041527477741
2.59400e-06	0.0039190291625471815
2.59425e-06	0.003995292207907117
2.59450e-06	0.004071555253267052
2.59475e-06	0.004147818298626858
2.59500e-06	0.004224081343986793
2.59525e-06	0.004300344389346728
2.59550e-06	0.004376607434706534
2.59575e-06	0.004445178739328856
2.59600e-06	0.004513570479118802
2.59625e-06	0.004581962218908747
2.59650e-06	0.0046503539586985766
2.59675e-06	0.004718745698488521
2.59700e-06	0.004787137438278467
2.59725e-06	0.004855529178068296
2.59750e-06	0.004893507519705181
2.59775e-06	0.004930775856035322
2.59800e-06	0.004968044192365463
2.59825e-06	0.005005312528695542
2.59850e-06	0.005042580865025683
2.59875e-06	0.005079849201355824
2.59900e-06	0.005117117537685902
2.59925e-06	0.005122961467324908
2.59950e-06	0.005128071789512255
2.59975e-06	0.005133182111699593
2.60000e-06	0.005118348254716043
2.60025e-06	0.005103048797901101
2.60050e-06	0.005087749341086159
2.60075e-06	0.00504064161156228
2.60100e-06	0.004992791313177449
2.60125e-06	0.004944941014792618
2.60150e-06	0.004897090716407869
2.60175e-06	0.0048492404180230375
2.60200e-06	0.004801390119638207
2.60225e-06	0.004753539821253376
2.60250e-06	0.0046897470088185424
2.60275e-06	0.004608487375714545
2.60300e-06	0.004527227742610548
2.60325e-06	0.004445968109506688
2.60350e-06	0.004364708476402691
2.60375e-06	0.0042834488432986935
2.60400e-06	0.004202189210194834
2.60425e-06	0.004120929577090837
2.60450e-06	0.0040291521041572
2.60475e-06	0.003937129090687126
2.60500e-06	0.0038451060772172084
2.60525e-06	0.0037530830637471347
2.60550e-06	0.0036610600502770614
2.60575e-06	0.003569037036807144
2.60600e-06	0.003487448507725044
2.60625e-06	0.003406103573234224
2.60650e-06	0.0033247586387434042
2.60675e-06	0.0032434137042527222
2.60700e-06	0.0031620687697619027
2.60725e-06	0.003080723835271083
2.60750e-06	0.0030191854687702338
2.60775e-06	0.00295810948954738
2.60800e-06	0.002897033510324526
2.60825e-06	0.002848700349195996
2.60850e-06	0.002800664671052693
2.60875e-06	0.0027526289929093906
2.60900e-06	0.002717128787052475
2.60925e-06	0.0026819212236622
2.60950e-06	0.0026467136602718656
2.60975e-06	0.0026239797977119783
2.61000e-06	0.002601537135554898
2.61025e-06	0.002596945755849251
2.61050e-06	0.0025734442249511214
2.61075e-06	-0.010623645870642632
2.61100e-06	-0.02244869087848188
2.61125e-06	-0.016194528576482663
2.61150e-06	-0.01149306514296185
2.61175e-06	-7.89865620659403e-05
2.61200e-06	0.010933247174202944
2.61225e-06	0.009308815593051181
2.61250e-06	0.008136794371944978
2.61275e-06	0.0018531283455957906
2.61300e-06	-0.005028331887312582
2.61325e-06	-0.006149485453764819
2.61350e-06	-0.003636590846937701
2.61375e-06	0.0015671095427081888
2.61400e-06	0.006862823861009906
2.61425e-06	0.008421400783977418
2.61450e-06	0.007319076962797697
2.61475e-06	0.0032594898801341053
2.61500e-06	-0.0011399373169286879
2.61525e-06	-0.0019076301352243465
2.61550e-06	-0.0003818577860786299
2.61575e-06	0.0028417396867661906
2.61600e-06	0.006131717230147764
2.61625e-06	0.007086961701709706
2.61650e-06	0.006379802485896285
2.61675e-06	0.0038232261711747665
2.61700e-06	0.001055700495955358
2.61725e-06	0.000564010479171393
2.61750e-06	0.0015089863677855584
2.61775e-06	0.0035169279016830845
2.61800e-06	0.005565749907826422
2.61825e-06	0.006151599969871604
2.61850e-06	0.005695760258656579
2.61875e-06	0.004081106419723526
2.61900e-06	0.0023339814955069833
2.61925e-06	0.002012021435113124
2.61950e-06	0.00258946172892267
2.61975e-06	0.0038321567584451333
2.62000e-06	0.005099865414660202
2.62025e-06	0.00545064812066615
2.62050e-06	0.00514850469879465
2.62075e-06	0.004120174039161163
2.62100e-06	0.0030086395545880947
2.62125e-06	0.0027896132842913602
2.62150e-06	0.0031337414160045062
2.62175e-06	0.003894362760652164
2.62200e-06	0.004670465438911336
2.62225e-06	0.00487209920461213
2.62250e-06	0.004664732589221914
2.62275e-06	0.004002571153510092
2.62300e-06	0.003288456840429949
2.62325e-06	0.0031336076337321623
2.62350e-06	0.0033317319523763233
2.62375e-06	0.0037909897753665416
2.62400e-06	0.004260231912668517
2.62425e-06	0.0043699880086873625
2.62450e-06	0.004223991993008859
2.62475e-06	0.0037936394484879223
2.62500e-06	0.0033313422518026045
2.62525e-06	0.0032200095971097287
2.62550e-06	0.003330451454499972
2.62575e-06	0.0036051792055854476
2.62600e-06	0.0038869230292310204
2.62625e-06	0.003944313937026798
2.62650e-06	0.0038424066464750216
2.62675e-06	0.0035633561958682463
2.62700e-06	0.003265339128140841
2.62725e-06	0.003188258129763391
2.62750e-06	0.003251229319801275
2.62775e-06	0.003418353220471378
2.62800e-06	0.003591403124320348
2.62825e-06	0.003625756290864843
2.62850e-06	0.003562228762092046
2.62875e-06	0.0033895556301319486
2.62900e-06	0.0032067217062932652
2.62925e-06	0.0031638937817091563
2.62950e-06	0.0032102939586956063
2.62975e-06	0.003323325280836329
2.63000e-06	0.0034413538300879106
2.63025e-06	0.0034736895278165104
2.63050e-06	0.003445804324773508
2.63075e-06	0.0033505455636415045
2.63100e-06	0.003249819153669244
2.63125e-06	0.003237582808260419
2.63150e-06	0.003281921513433631
2.63175e-06	0.003368573997063776
2.63200e-06	0.0034588286711781093
2.63225e-06	0.0034957783247222952
2.63250e-06	0.0034952802918154172
2.63275e-06	0.0034527564162736674
2.63300e-06	0.0034068842998425824
2.63325e-06	0.0034164154230255854
2.63350e-06	0.0034612517317536744
2.63375e-06	0.0035323558792794327
2.63400e-06	0.00360537544874131
2.63425e-06	0.0036445640370966243
2.63450e-06	0.0036597554595362587
2.63475e-06	0.00364798236564074
2.63500e-06	0.0036333723443176995
2.63525e-06	0.003652624195915874
2.63550e-06	0.0036930439907559716
2.63575e-06	0.0037488675630529176
2.63600e-06	0.0038047386102427667
2.63625e-06	0.003830110104781405
2.63650e-06	0.003855106802684106
2.63675e-06	0.0038523493707868445
2.63700e-06	0.003849250860581096
2.63725e-06	0.003869821493084187
2.63750e-06	0.0038906830023402697
2.63775e-06	0.003924503055286456
2.63800e-06	0.003958482359421273
2.63825e-06	0.003973006310211488
2.63850e-06	0.003987291168691596
2.63875e-06	0.0039849028029255405
2.63900e-06	0.003982309535216526
2.63925e-06	0.003995181050427308
2.63950e-06	0.004008242616705657
2.63975e-06	0.004027055587817105
2.64000e-06	0.004045939239560448
2.64025e-06	0.004064822891303791
2.64050e-06	0.004071989062925729
2.64075e-06	0.004074452554687527
2.64100e-06	0.004076860023542909
2.64125e-06	0.0040792674923982915
2.64150e-06	0.004091515914925137
2.64175e-06	0.004104058041605988
2.64200e-06	0.004116602291455657
2.64225e-06	0.004129146541305305
2.64250e-06	0.004137787168156867
2.64275e-06	0.004142329893583681
2.64300e-06	0.004146872619010494
2.64325e-06	0.0041514153444373
2.64350e-06	0.004162746519189322
2.64375e-06	0.004174161119104668
2.64400e-06	0.004185575719019994
2.64425e-06	0.004191545560624954
2.64450e-06	0.004197448490063438
2.64475e-06	0.004203351419501912
2.64500e-06	0.004209254348940396
2.64525e-06	0.004215799736276737
2.64550e-06	0.00422301955583573
2.64575e-06	0.00423023937539471
2.64600e-06	0.004237459194953703
2.64625e-06	0.004244679014512695
2.64650e-06	0.004249260652542752
2.64675e-06	0.0042538098692178825
2.64700e-06	0.004258359085893013
2.64725e-06	0.004262908302568143
2.64750e-06	0.004267457519243266
2.64775e-06	0.004272006735918397
2.64800e-06	0.004276555952593527
2.64825e-06	0.00428110516926865
2.64850e-06	0.004285654385943781
2.64875e-06	0.00429557374332791
2.64900e-06	0.004311130506597285
2.64925e-06	0.0043266872698666855
2.64950e-06	0.004342244033136086
