Time(s)	Current(A)
1.75000e-06	-0.00815186068744511
1.75025e-06	-0.008149495327168852
1.75050e-06	-0.008145534101818156
1.75075e-06	-0.008141572876467454
1.75100e-06	-0.008136676264785543
1.75125e-06	-0.008127653468402265
1.75150e-06	-0.008118630672018994
1.75175e-06	-0.008109607875635716
1.75200e-06	-0.008100585079252447
1.75225e-06	-0.008091562282869176
1.75250e-06	-0.008082539486485898
1.75275e-06	-0.008068403825795493
1.75300e-06	-0.008051914831252109
1.75325e-06	-0.00803542583670874
1.75350e-06	-0.00801893684216537
1.75375e-06	-0.008002447847621984
1.75400e-06	-0.007985958853078614
1.75425e-06	-0.0079683278101568
1.75450e-06	-0.007945658953029372
1.75475e-06	-0.007922990095901944
1.75500e-06	-0.007900321238774497
1.75525e-06	-0.007877652381647069
1.75550e-06	-0.007854983524519622
1.75575e-06	-0.007831729479442084
1.75600e-06	-0.0078058940479507274
1.75625e-06	-0.0077800586164593925
1.75650e-06	-0.0077542231849680576
1.75675e-06	-0.0077283877534767
1.75700e-06	-0.007702552321985365
1.75725e-06	-0.007676692838137635
1.75750e-06	-0.007650727254316498
1.75775e-06	-0.00762476167049536
1.75800e-06	-0.007599004870306706
1.75825e-06	-0.007574169058378792
1.75850e-06	-0.007549582332481339
1.75875e-06	-0.007526094377149537
1.75900e-06	-0.007502961269372304
1.75925e-06	-0.007481393468358697
1.75950e-06	-0.007460298022923387
1.75975e-06	-0.0074412862367158146
1.76000e-06	-0.007422980459597373
1.76025e-06	-0.00740778903620109
1.76050e-06	-0.007392597612804821
1.76075e-06	-0.007378281081321934
1.76100e-06	-0.007367823881013284
1.76125e-06	-0.007357366680704643
1.76150e-06	-0.007348379740117885
1.76175e-06	-0.007345878422603062
1.76200e-06	-0.007343377105088239
1.76225e-06	-0.007340875787573415
1.76250e-06	-0.007338374470058592
1.76275e-06	-0.007335873152543766
1.76300e-06	-0.0073333718350289435
1.76325e-06	-0.007337609305835166
1.76350e-06	-0.007344948485924134
1.76375e-06	-0.007352287666013094
1.76400e-06	-0.007359626846102061
1.76425e-06	-0.0073669660261910215
1.76450e-06	-0.007374305206279982
1.76475e-06	-0.007382994804969521
1.76500e-06	-0.007397641382485293
1.76525e-06	-0.007412287960001079
1.76550e-06	-0.007426934537516851
1.76575e-06	-0.007441581115032635
1.76600e-06	-0.0074562276925484085
1.76625e-06	-0.007470874270064181
1.76650e-06	-0.007486071341045883
1.76675e-06	-0.007503696753816563
1.76700e-06	-0.007521322166587258
1.76725e-06	-0.007538947579357938
1.76750e-06	-0.007556572992128618
1.76775e-06	-0.007574198404899313
1.76800e-06	-0.007591823817669993
1.76825e-06	-0.0076092466325193755
1.76850e-06	-0.007625775745573651
1.76875e-06	-0.0076423048586279265
1.76900e-06	-0.0076576740707885544
1.76925e-06	-0.007667926717566496
1.76950e-06	-0.0076781793643444455
1.76975e-06	-0.007688432011122387
1.77000e-06	-0.007698684657900337
1.77025e-06	-0.007708937304678278
1.77050e-06	-0.00771918995145622
1.77075e-06	-0.007729442598234169
1.77100e-06	-0.007739695245012111
1.77125e-06	-0.00774994789179006
1.77150e-06	-0.007760200538568002
1.77175e-06	-0.007770453185345943
1.77200e-06	-0.00777487286017303
1.77225e-06	-0.007776607752160395
1.77250e-06	-0.007778342644147762
1.77275e-06	-0.0077800775361351274
1.77300e-06	-0.007781812428122492
1.77325e-06	-0.007783547320109859
1.77350e-06	-0.007785282212097224
1.77375e-06	-0.007787017104084591
1.77400e-06	-0.007788751996071956
1.77425e-06	-0.007790486888059322
1.77450e-06	-0.007792221780046687
1.77475e-06	-0.007793077745843878
1.77500e-06	-0.0077900565844288006
1.77525e-06	-0.007787035423013726
1.77550e-06	-0.007784014261598649
1.77575e-06	-0.007780993100183573
1.77600e-06	-0.0077779719387684985
1.77625e-06	-0.007774950777353421
1.77650e-06	-0.007771929615938347
1.77675e-06	-0.0077689084545232686
1.77700e-06	-0.007765887293108194
1.77725e-06	-0.007761947036300562
1.77750e-06	-0.007757583741021507
1.77775e-06	-0.007753220445742456
1.77800e-06	-0.007748857150463401
1.77825e-06	-0.00774449385518435
1.77850e-06	-0.0077401305599052945
1.77875e-06	-0.007735767264626244
1.77900e-06	-0.007731403969347192
1.77925e-06	-0.007727040674068137
1.77950e-06	-0.007722780969313064
1.77975e-06	-0.007718978224020476
1.78000e-06	-0.007715175478727893
1.78025e-06	-0.007711094030162139
1.78050e-06	-0.00770578316318039
1.78075e-06	-0.007700472296198645
1.78100e-06	-0.007694355259897694
1.78125e-06	-0.007684682042156352
1.78150e-06	-0.00767500882441501
1.78175e-06	-0.00766533560667366
1.78200e-06	-0.0076556623889323175
1.78225e-06	-0.007645989171190967
1.78250e-06	-0.007636315953449625
1.78275e-06	-0.007622147086717295
1.78300e-06	-0.007605908976147486
1.78325e-06	-0.007589670865577679
1.78350e-06	-0.007573432755007856
1.78375e-06	-0.007557194644438049
1.78400e-06	-0.007540956533868226
1.78425e-06	-0.007523991179600523
1.78450e-06	-0.007503817801311777
1.78475e-06	-0.007483135838313929
1.78500e-06	-0.007460210401817196
1.78525e-06	-0.007437284965320444
1.78550e-06	-0.007414359528823711
1.78575e-06	-0.007391434092326978
1.78600e-06	-0.007368508655830226
1.78625e-06	-0.007344346754968691
1.78650e-06	-0.00731961573799682
1.78675e-06	-0.0072948847210249695
1.78700e-06	-0.0072701537040530985
1.78725e-06	-0.007245422687081248
1.78750e-06	-0.007220751474382721
1.78775e-06	-0.007196344070839108
1.78800e-06	-0.007172114671943701
1.78825e-06	-0.007148670488772886
1.78850e-06	-0.0071254625694462245
1.78875e-06	-0.0071032968593397324
1.78900e-06	-0.007081572883594632
1.78925e-06	-0.007061797490486106
1.78950e-06	-0.007042022097377562
1.78975e-06	-0.007022872266329731
1.79000e-06	-0.007006481920339073
1.79025e-06	-0.006990091574348402
1.79050e-06	-0.006973727618540055
1.79075e-06	-0.006957480075344158
1.79100e-06	-0.0069412325321482745
1.79125e-06	-0.006924973715754934
1.79150e-06	-0.006908665170930413
1.79175e-06	-0.006892356626105892
1.79200e-06	-0.00687604337694451
1.79225e-06	-0.006859709375969617
1.79250e-06	-0.006843375374994709
1.79275e-06	-0.006826714743880743
1.79300e-06	-0.006808613278923744
1.79325e-06	-0.00679051181396673
1.79350e-06	-0.006772410349009731
1.79375e-06	-0.006754308884052717
1.79400e-06	-0.006735938944886663
1.79425e-06	-0.006716384709845522
1.79450e-06	-0.006696830474804364
1.79475e-06	-0.0066772762397632225
1.79500e-06	-0.006657722004722064
1.79525e-06	-0.0066379775939953865
1.79550e-06	-0.006617394278553363
1.79575e-06	-0.006596810963111358
1.79600e-06	-0.006576236712123276
1.79625e-06	-0.0065557024463368495
1.79650e-06	-0.00653514632259509
1.79675e-06	-0.006514493778841687
1.79700e-06	-0.006493858015802055
1.79725e-06	-0.006473337066042356
1.79750e-06	-0.006453059386127712
1.79775e-06	-0.006433146290875894
1.79800e-06	-0.006413706161935479
1.79825e-06	-0.006394788236335815
1.79850e-06	-0.006376377552601337
1.79875e-06	-0.006358493376580316
1.79900e-06	-0.006341230658142828
1.79925e-06	-0.006324707088153016
1.79950e-06	-0.006309041703790573
1.79975e-06	-0.006294353987791643
1.80000e-06	-0.006280821316951009
1.80025e-06	-0.006268925465801639
1.80050e-06	-0.006259429026639996
1.80075e-06	-0.006252831912897284
1.80100e-06	-0.006249199450625785
1.80125e-06	-0.0062484599279872596
1.80150e-06	-0.006250541719198401
1.80175e-06	-0.006255374008356966
1.80200e-06	-0.0062632132513293646
1.80225e-06	-0.006274628006465149
1.80250e-06	-0.006287265516276449
1.80275e-06	-0.006305296852643579
1.80300e-06	-0.006325100691342824
1.80325e-06	-0.006352723408465059
1.80350e-06	-0.006380346125587317
1.80375e-06	-0.006407968842709551
1.80400e-06	-0.006435591559831785
1.80425e-06	-0.006470970849947472
1.80450e-06	-0.006509920312222185
1.80475e-06	-0.006548869774496932
1.80500e-06	-0.0065878192367716465
1.80525e-06	-0.006628101173773417
1.80550e-06	-0.006674260935420799
1.80575e-06	-0.006720420697068183
1.80600e-06	-0.006767203180963282
1.80625e-06	-0.006816732622906054
1.80650e-06	-0.0068662620648488664
1.80675e-06	-0.006916084495185291
1.80700e-06	-0.006967199358590915
1.80725e-06	-0.007018314221996584
1.80750e-06	-0.007069303330446483
1.80775e-06	-0.007119737707490965
1.80800e-06	-0.007169824594678274
1.80825e-06	-0.007218378631444564
1.80850e-06	-0.007266407603980263
1.80875e-06	-0.007312120408402046
1.80900e-06	-0.007355050560786994
1.80925e-06	-0.007385705853176181
1.80950e-06	-0.007416361145565394
1.80975e-06	-0.00744701643795458
1.81000e-06	-0.007477671730343766
1.81025e-06	-0.007508327022732979
1.81050e-06	-0.007538982315122166
1.81075e-06	-0.007569637607511379
1.81100e-06	-0.007600292899900565
1.81125e-06	-0.007630948192289752
1.81150e-06	-0.007661603484678965
1.81175e-06	-0.007692258777068152
1.81200e-06	-0.007710340244426788
1.81225e-06	-0.007722634269303715
1.81250e-06	-0.00773492829418064
1.81275e-06	-0.007747222319057576
1.81300e-06	-0.0077595163439345026
1.81325e-06	-0.0077718103688114385
1.81350e-06	-0.007784104393688364
1.81375e-06	-0.007796398418565301
1.81400e-06	-0.007808692443442226
1.81425e-06	-0.007820986468319153
1.81450e-06	-0.007833280493196088
1.81475e-06	-0.007843817400867842
1.81500e-06	-0.007846603297129377
1.81525e-06	-0.007849389193390911
1.81550e-06	-0.007852175089652443
1.81575e-06	-0.00785496098591398
1.81600e-06	-0.007857746882175512
1.81625e-06	-0.007860532778437047
1.81650e-06	-0.007863318674698581
1.81675e-06	-0.007866104570960115
1.81700e-06	-0.00786889046722165
1.81725e-06	-0.007871676363483184
1.81750e-06	-0.007871929336350164
1.81775e-06	-0.007871016462832265
1.81800e-06	-0.007870103589314364
1.81825e-06	-0.007869190715796465
1.81850e-06	-0.007868277842278566
1.81875e-06	-0.007867364968760667
1.81900e-06	-0.007866452095242768
1.81925e-06	-0.007865539221724867
1.81950e-06	-0.007864626348206968
1.81975e-06	-0.007863713474689069
1.82000e-06	-0.007862293732096988
1.82025e-06	-0.00785863808403105
1.82050e-06	-0.00785498243596511
1.82075e-06	-0.007851326787899172
1.82100e-06	-0.007847671139833234
1.82125e-06	-0.007844015491767293
1.82150e-06	-0.007840359843701355
1.82175e-06	-0.007836704195635414
1.82200e-06	-0.007833048547569476
1.82225e-06	-0.007828349215601174
1.82250e-06	-0.007819045975702625
1.82275e-06	-0.007809742735804076
1.82300e-06	-0.007800439495905519
1.82325e-06	-0.00779113625600697
1.82350e-06	-0.0077818330161084125
1.82375e-06	-0.007772529776209864
1.82400e-06	-0.007763226536311315
1.82425e-06	-0.007753923296412757
1.82450e-06	-0.007743789987976353
1.82475e-06	-0.007729995073650095
1.82500e-06	-0.007716200159323849
1.82525e-06	-0.007702405244997602
1.82550e-06	-0.007688610330671344
1.82575e-06	-0.007674815416345098
1.82600e-06	-0.00766102050201884
1.82625e-06	-0.007647225587692593
1.82650e-06	-0.007633430673366335
1.82675e-06	-0.007619082923981824
1.82700e-06	-0.007604480717334427
1.82725e-06	-0.007589878510687018
1.82750e-06	-0.007575276304039621
1.82775e-06	-0.007560674097392212
1.82800e-06	-0.007546071890744815
1.82825e-06	-0.007531469684097418
1.82850e-06	-0.007516867477450009
1.82875e-06	-0.007503167712847673
1.82900e-06	-0.007493448808808773
1.82925e-06	-0.007483729904769882
1.82950e-06	-0.007474011000730991
1.82975e-06	-0.007464292096692092
1.83000e-06	-0.007454573192653201
1.83025e-06	-0.007444854288614301
1.83050e-06	-0.0074351353845754095
1.83075e-06	-0.0074254164805365105
1.83100e-06	-0.007415697576497619
1.83125e-06	-0.007405978672458728
1.83150e-06	-0.007396259768419828
1.83175e-06	-0.007386540864380937
1.83200e-06	-0.007376821960342038
1.83225e-06	-0.007367103056303147
1.83250e-06	-0.007357384152264256
1.83275e-06	-0.007348292981380739
1.83300e-06	-0.007341970872705945
1.83325e-06	-0.007335648764031144
1.83350e-06	-0.00732932665535635
1.83375e-06	-0.007323004546681555
1.83400e-06	-0.0073166824380067556
1.83425e-06	-0.007310360329331961
1.83450e-06	-0.0073040382206571615
1.83475e-06	-0.007297716111982367
1.83500e-06	-0.007291394003307567
1.83525e-06	-0.007285071894632773
1.83550e-06	-0.0072787497859579785
1.83575e-06	-0.007272427677283179
1.83600e-06	-0.0072661055686083845
1.83625e-06	-0.007259783459933585
1.83650e-06	-0.00725346135125879
1.83675e-06	-0.007247315771585563
1.83700e-06	-0.007241948898250804
1.83725e-06	-0.00723658202491605
1.83750e-06	-0.007231215151581292
1.83775e-06	-0.007225848278246537
1.83800e-06	-0.007220481404911783
1.83825e-06	-0.007215612862779152
1.83850e-06	-0.007210973691037926
1.83875e-06	-0.007206334519296696
1.83900e-06	-0.007201695347555471
1.83925e-06	-0.00719705617581424
1.83950e-06	-0.007192531504085401
1.83975e-06	-0.007188511915853361
1.84000e-06	-0.007184713316713276
1.84025e-06	-0.007181889546667042
1.84050e-06	-0.007179795809381757
1.84075e-06	-0.007180922399256184
1.84100e-06	-0.007182048989130611
1.84125e-06	-0.007184049294834741
1.84150e-06	-0.007189903743759204
1.84175e-06	-0.00719575819268367
1.84200e-06	-0.007203121169301816
1.84225e-06	-0.007217138577012551
1.84250e-06	-0.007231155984723297
1.84275e-06	-0.007245173392434032
1.84300e-06	-0.007259190800144779
1.84325e-06	-0.007273208207855514
1.84350e-06	-0.007287225615566249
1.84375e-06	-0.007308460189037483
1.84400e-06	-0.007333016657923163
1.84425e-06	-0.007357573126808864
1.84450e-06	-0.007382129595694544
1.84475e-06	-0.007406686064580245
1.84500e-06	-0.007431242533465925
1.84525e-06	-0.007457072722357888
1.84550e-06	-0.007488521556534489
1.84575e-06	-0.007519970390711064
1.84600e-06	-0.007551419224887665
1.84625e-06	-0.007582868059064239
1.84650e-06	-0.007614316893240814
1.84675e-06	-0.007645765727417415
1.84700e-06	-0.00767727353381663
1.84725e-06	-0.007709041479021119
1.84750e-06	-0.007740809424225581
1.84775e-06	-0.007772577369430043
1.84800e-06	-0.007804345314634533
1.84825e-06	-0.007836113259838995
1.84850e-06	-0.007867881205043484
1.84875e-06	-0.007897815556239167
1.84900e-06	-0.007919661540854961
1.84925e-06	-0.007941507525470739
1.84950e-06	-0.007963353510086514
1.84975e-06	-0.00798519949470231
1.85000e-06	-0.008007045479318086
1.85025e-06	-0.008028891463933882
1.85050e-06	-0.008050737448549658
1.85075e-06	-0.008072583433165435
1.85100e-06	-0.00809442941778123
1.85125e-06	-0.008107357414531684
1.85150e-06	-0.008116180666569644
1.85175e-06	-0.008125003918607597
1.85200e-06	-0.008133827170645548
1.85225e-06	-0.008142650422683508
1.85250e-06	-0.00815147367472146
1.85275e-06	-0.00816029692675942
1.85300e-06	-0.008169120178797371
1.85325e-06	-0.008177943430835331
1.85350e-06	-0.008184948397473234
1.85375e-06	-0.008183932527005758
1.85400e-06	-0.00818291665653828
1.85425e-06	-0.008181900786070805
1.85450e-06	-0.008180884915603327
1.85475e-06	-0.008179869045135851
1.85500e-06	-0.008178853174668375
1.85525e-06	-0.008177837304200897
1.85550e-06	-0.008176821433733421
1.85575e-06	-0.008175805563265946
1.85600e-06	-0.008174789692798468
1.85625e-06	-0.008173773822330992
1.85650e-06	-0.008169623888865784
1.85675e-06	-0.008164031418282076
1.85700e-06	-0.008158438947698363
1.85725e-06	-0.008152846477114655
1.85750e-06	-0.008147254006530942
1.85775e-06	-0.008141661535947234
1.85800e-06	-0.008136069065363526
1.85825e-06	-0.008130476594779813
1.85850e-06	-0.008124884124196105
1.85875e-06	-0.008119291653612392
1.85900e-06	-0.008113699183028684
1.85925e-06	-0.00810852701362707
1.85950e-06	-0.008105208880625091
1.85975e-06	-0.008101890747623113
1.86000e-06	-0.008098572614621132
1.86025e-06	-0.008095254481619154
1.86050e-06	-0.008091936348617176
1.86075e-06	-0.008088618215615196
1.86100e-06	-0.008085300082613218
1.86125e-06	-0.008081981949611239
1.86150e-06	-0.008078663816609261
1.86175e-06	-0.00807534568360728
1.86200e-06	-0.008073114330649262
1.86225e-06	-0.00807567699171185
1.86250e-06	-0.00807823965277444
1.86275e-06	-0.008080802313837027
1.86300e-06	-0.008083364974899617
1.86325e-06	-0.008085927635962204
1.86350e-06	-0.00808849029702479
1.86375e-06	-0.00809105295808738
1.86400e-06	-0.008093615619149968
1.86425e-06	-0.008096178280212557
1.86450e-06	-0.008098740941275145
1.86475e-06	-0.008102099935046389
1.86500e-06	-0.008108971718909338
1.86525e-06	-0.008115843502772281
1.86550e-06	-0.00812271528663523
1.86575e-06	-0.008129587070498172
1.86600e-06	-0.008136458854361121
1.86625e-06	-0.008143330638224065
1.86650e-06	-0.008150202422087006
1.86675e-06	-0.008157074205949955
1.86700e-06	-0.008163945989812899
1.86725e-06	-0.008170817773675848
1.86750e-06	-0.008177689557538791
1.86775e-06	-0.008183927008648182
1.86800e-06	-0.008189872490979959
1.86825e-06	-0.008195817973311733
1.86850e-06	-0.008201763455643512
1.86875e-06	-0.008207708937975285
1.86900e-06	-0.008213654420307059
1.86925e-06	-0.008219599902638838
1.86950e-06	-0.008225545384970612
1.86975e-06	-0.00823149086730239
1.87000e-06	-0.008237436349634164
1.87025e-06	-0.008243381831965943
1.87050e-06	-0.008248904509340882
1.87075e-06	-0.00825256210564246
1.87100e-06	-0.008256219701944041
1.87125e-06	-0.008259877298245621
1.87150e-06	-0.008263534894547203
1.87175e-06	-0.008267192490848783
1.87200e-06	-0.008270850087150361
1.87225e-06	-0.008274507683451943
1.87250e-06	-0.008278165279753523
1.87275e-06	-0.008281822876055105
1.87300e-06	-0.008285480472356683
1.87325e-06	-0.008289138068658263
1.87350e-06	-0.008292795664959845
1.87375e-06	-0.008296453261261424
1.87400e-06	-0.008300110857563006
1.87425e-06	-0.008303768453864584
1.87450e-06	-0.008307426050166166
1.87475e-06	-0.008311106444493834
1.87500e-06	-0.008743734083340787
1.87525e-06	-0.0341123793593368
1.87550e-06	-0.02902209661868348
1.87575e-06	-0.02399439002005438
1.87600e-06	-0.019124467343949382
1.87625e-06	-0.00035997785908154206
1.87650e-06	-0.0016488227789348614
1.87675e-06	-0.003392668747066563
1.87700e-06	-0.007625349857662689
1.87725e-06	-0.013967448584550353
1.87750e-06	-0.016648371023528705
1.87775e-06	-0.0149978491556666
1.87800e-06	-0.010884687010442894
1.87825e-06	-0.005872187672851321
1.87850e-06	-0.0034033566786923755
1.87875e-06	-0.003960009459643648
1.87900e-06	-0.006893366538982888
1.87925e-06	-0.010986398349105081
1.87950e-06	-0.01275896122251742
1.87975e-06	-0.011797846190598281
1.88000e-06	-0.00927861242453028
1.88025e-06	-0.006183727236766092
1.88050e-06	-0.004671653319458453
1.88075e-06	-0.005045479397662297
1.88100e-06	-0.0069001824236625256
1.88125e-06	-0.009474676992729025
1.88150e-06	-0.01059010599362165
1.88175e-06	-0.009988625279225284
1.88200e-06	-0.008407403316494437
1.88225e-06	-0.00646246603423751
1.88250e-06	-0.005506294544175302
1.88275e-06	-0.005729023273060191
1.88300e-06	-0.006877174009347528
1.88325e-06	-0.008474221722291475
1.88350e-06	-0.009155604523748823
1.88375e-06	-0.008760126880260736
1.88400e-06	-0.007749834003156111
1.88425e-06	-0.006510835619101096
1.88450e-06	-0.005890490416878412
1.88475e-06	-0.0060080112787709835
1.88500e-06	-0.006704728452931616
1.88525e-06	-0.007682273181149334
1.88550e-06	-0.00808605998166339
1.88575e-06	-0.00781533179976203
1.88600e-06	-0.0071597186354866674
1.88625e-06	-0.006361257832969936
1.88650e-06	-0.0059508764760661335
1.88675e-06	-0.0060033633289650655
1.88700e-06	-0.006419442749701202
1.88725e-06	-0.007012343395079777
1.88750e-06	-0.0072469141869267225
1.88775e-06	-0.0070602274698665516
1.88800e-06	-0.006633888262742141
1.88825e-06	-0.006119673980256651
1.88850e-06	-0.005850299412676097
1.88875e-06	-0.005872738389480097
1.88900e-06	-0.006124930725288863
1.88925e-06	-0.006490017987982664
1.88950e-06	-0.006632937242125627
1.88975e-06	-0.006514442445176071
1.89000e-06	-0.006248448726589973
1.89025e-06	-0.005930120813725113
1.89050e-06	-0.005767832685894397
1.89075e-06	-0.0057908699710674345
1.89100e-06	-0.0059602000017118925
1.89125e-06	-0.00620247497015584
1.89150e-06	-0.006307676176882254
1.89175e-06	-0.006251095218977035
1.89200e-06	-0.006103962019565107
1.89225e-06	-0.005925754208287976
1.89250e-06	-0.00584685595127269
1.89275e-06	-0.005885462967683427
1.89300e-06	-0.006016977269722221
1.89325e-06	-0.006195309202557273
1.89350e-06	-0.00628876638323923
1.89375e-06	-0.006281741402458679
1.89400e-06	-0.006218720818132745
1.89425e-06	-0.006136826362476512
1.89450e-06	-0.006117589805942081
1.89475e-06	-0.006172263916445437
1.89500e-06	-0.006285295992140983
1.89525e-06	-0.006427671952869903
1.89550e-06	-0.0065167627097086015
1.89575e-06	-0.006542658227040328
1.89600e-06	-0.006533090034847241
1.89625e-06	-0.006511175071006636
1.89650e-06	-0.006527844279804832
1.89675e-06	-0.00659000334119464
