Time(s)	Current(A)
1.15500e-05	0.0009622599710287647
1.15503e-05	0.0010449663633052364
1.15505e-05	0.0011264644270191232
1.15508e-05	0.0012033401287986228
1.15510e-05	0.0012802158305776014
1.15513e-05	0.001357091532357101
1.15515e-05	0.00143199966599607
1.15517e-05	0.0014993810288920259
1.15520e-05	0.001564862344715869
1.15523e-05	0.0016230751861111576
1.15525e-05	0.0016793184951529555
1.15528e-05	0.0017280275195177051
1.15530e-05	0.0017767365438824548
1.15532e-05	0.001823870305854372
1.15535e-05	0.001864978030585539
1.15538e-05	0.0019060857553167064
1.15540e-05	0.0019451978801597427
1.15543e-05	0.0019766760011049236
1.15545e-05	0.0020081541220503176
1.15548e-05	0.0020381618056287128
1.15550e-05	0.002062544451513697
1.15553e-05	0.0020869270973988465
1.15555e-05	0.0021089314576663463
1.15558e-05	0.002121837881125719
1.15560e-05	0.002134744304585179
1.15563e-05	0.0021476507280446394
1.15565e-05	0.002160557151504012
1.15568e-05	0.002173463574963472
1.15570e-05	0.002186369998422932
1.15573e-05	0.0021992764218823047
1.15575e-05	0.002212182845341765
1.15578e-05	0.0022227122645125125
1.15580e-05	0.002224148648493349
1.15583e-05	0.0022255850324741948
1.15585e-05	0.0022270214164550406
1.15588e-05	0.002228457800435877
1.15590e-05	0.002229894184416723
1.15593e-05	0.0022313305683975687
1.15595e-05	0.002232766952378405
1.15598e-05	0.002234203336359251
1.15600e-05	0.0022348293658687613
1.15602e-05	0.0022323554507297054
1.15605e-05	0.002229881535590633
1.15608e-05	0.0022274076204515606
1.15610e-05	0.0022249337053125047
1.15613e-05	0.0022224597901734323
1.15615e-05	0.0022199858750343595
1.15617e-05	0.0022160178294939347
1.15620e-05	0.002211431280734548
1.15623e-05	0.0022068447319751605
1.15625e-05	0.0022022581832157736
1.15628e-05	0.0021976716344564175
1.15630e-05	0.0021930850856970306
1.15633e-05	0.0021860778746803948
1.15635e-05	0.0021698106184901257
1.15638e-05	0.002153543362299746
1.15640e-05	0.002135482122502024
1.15643e-05	0.002110558145370548
1.15645e-05	0.0020856341682389027
1.15648e-05	0.002058399714052894
1.15650e-05	0.0020223267191603425
1.15653e-05	0.001986253724267547
1.15655e-05	0.0019478953347335255
1.15658e-05	0.0019007943552094904
1.15660e-05	0.0018536933756851362
1.15663e-05	0.0018047617499306109
1.15665e-05	0.0017488271369813005
1.15668e-05	0.0016928925240316114
1.15670e-05	0.0016351150895477467
1.15673e-05	0.0015702880922407465
1.15675e-05	0.0015054610949333067
1.15678e-05	0.001439202121567882
1.15680e-05	0.0013674652410937478
1.15683e-05	0.0012957283606191273
1.15685e-05	0.0012239914801445068
1.15687e-05	0.0011522545996703727
1.15690e-05	0.0010780642934960572
1.15693e-05	0.0010028583787163876
1.15695e-05	0.0009276524639372274
1.15698e-05	0.0008524465491575577
1.15700e-05	0.0007777514797918995
1.15702e-05	0.000705010607712265
1.15705e-05	0.0006322697356321376
1.15708e-05	0.0005604511207197084
1.15710e-05	0.000492160525055997
1.15713e-05	0.00042463772746853556
1.15715e-05	0.0003606964086444632
1.15718e-05	0.0002999644087813419
1.15720e-05	0.0002429250200567414
1.15723e-05	0.00019004774801261432
1.15725e-05	0.00014166270983426857
1.15728e-05	9.768431375214916e-05
1.15730e-05	5.775169767613438e-05
1.15733e-05	2.174361988518645e-05
1.15735e-05	-1.020504073074168e-05
1.15738e-05	-3.792802636253643e-05
1.15740e-05	-6.125914193162477e-05
1.15743e-05	-8.004086703424316e-05
1.15745e-05	-9.420298985236216e-05
1.15748e-05	-0.00010393571244622333
1.15750e-05	-0.00010960162944142011
1.15753e-05	-0.00011141323066796593
1.15755e-05	-0.00010942256341881952
1.15758e-05	-0.00010366201776811764
1.15760e-05	-9.416403747406503e-05
1.15763e-05	-8.096649320205607e-05
1.15765e-05	-6.41619434559081e-05
1.15768e-05	-4.400606822663926e-05
1.15770e-05	-2.0862511260900556e-05
1.15772e-05	4.999135980619315e-06
1.15775e-05	3.340979405703424e-05
1.15778e-05	6.421270608740839e-05
1.15780e-05	9.725109171143186e-05
1.15783e-05	0.0001323647687151084
1.15785e-05	0.00016935933563159435
1.15787e-05	0.00020803824386733357
1.15790e-05	0.0002481198718253221
1.15793e-05	0.00028854854786176443
1.15795e-05	0.0003303048278944162
1.15798e-05	0.000372061107926785
1.15800e-05	0.00041381738795943674
1.15803e-05	0.0004552289745951955
1.15805e-05	0.0004964978735673591
1.15808e-05	0.0005377667725398023
1.15810e-05	0.0005784325261002025
1.15813e-05	0.0006167909962921217
1.15815e-05	0.0006543961798593157
1.15818e-05	0.000689119727146601
1.15820e-05	0.0007228646019414569
1.15823e-05	0.0007528656452835108
1.15825e-05	0.0007818590455040002
1.15828e-05	0.0008069977895016917
1.15830e-05	0.0008321365334995537
1.15833e-05	0.0008564800266846359
1.15835e-05	0.0008777813530264186
1.15838e-05	0.0008990826793683457
1.15840e-05	0.0009193702910203706
1.15843e-05	0.0009357800201620014
1.15845e-05	0.0009521897493037434
1.15848e-05	0.0009678601946265353
1.15850e-05	0.0009807025702563404
1.15853e-05	0.0009935449458862323
1.15855e-05	0.0010052361921194526
1.15857e-05	0.0010125238871372165
1.15860e-05	0.00101981158215503
1.15863e-05	0.0010270992771728433
1.15865e-05	0.0010343869721906075
1.15868e-05	0.001041674667208421
1.15870e-05	0.0010489623622262343
1.15872e-05	0.0010562500572439983
1.15875e-05	0.001063537752261812
1.15878e-05	0.0010668185084840157
1.15880e-05	0.0010684405710987524
1.15883e-05	0.001070062633713478
1.15885e-05	0.0010716846963282148
1.15888e-05	0.0010733067589429515
1.15890e-05	0.0010749288215576773
1.15893e-05	0.001076550884172414
1.15895e-05	0.0010781729467871507
1.15898e-05	0.0010792992412602441
1.15900e-05	0.0010785290153166886
1.15903e-05	0.001077758789373133
1.15905e-05	0.0010769885634295828
1.15908e-05	0.0010762183374860273
1.15910e-05	0.0010754481115424718
1.15913e-05	0.0010746778855989215
1.15915e-05	0.001073907659655366
1.15918e-05	0.0010731374337118104
1.15920e-05	0.0010723672077682601
1.15923e-05	0.0010715969818247046
1.15925e-05	0.00107180230900072
1.15928e-05	0.0010724114715747301
1.15930e-05	0.0010730206341487444
1.15933e-05	0.0010736297967227587
1.15935e-05	0.0010742389592967687
1.15938e-05	0.001074848121870783
1.15940e-05	0.0010754572844447973
1.15942e-05	0.0010760664470188075
1.15945e-05	0.0010766756095928216
1.15948e-05	0.0010772847721668359
1.15950e-05	0.0010786102853209878
1.15953e-05	0.0010826761389421777
1.15955e-05	0.0010867419925633674
1.15957e-05	0.0010908078461845296
1.15960e-05	0.0010948736998057196
1.15963e-05	0.0010989395534269093
1.15965e-05	0.001103005407048099
1.15968e-05	0.0011070712606692614
1.15970e-05	0.0011111371142904511
1.15973e-05	0.0011152029679116408
1.15975e-05	0.0011192688215328032
1.15978e-05	0.001123334675153993
1.15980e-05	0.0011277643323287087
1.15983e-05	0.001133585690197902
1.15985e-05	0.0011394070480671345
1.15988e-05	0.0011452284059363673
1.15990e-05	0.0011510497638055606
1.15993e-05	0.0011568711216747931
1.15995e-05	0.001162692479544026
1.15998e-05	0.0011685138374132192
1.16000e-05	0.001174335195282452
1.16003e-05	0.0011801565531516845
1.16005e-05	0.0011859779110208778
1.16008e-05	0.0011917992688901106
1.16010e-05	0.0011974045492901396
1.16013e-05	0.0012021832430306738
1.16015e-05	0.0012069619367712405
1.16018e-05	0.001211740630511807
1.16020e-05	0.0012165193242523412
1.16023e-05	0.0012219163212646368
1.16025e-05	0.0012275692682020521
1.16027e-05	0.0012332222151394292
1.16030e-05	0.0012388751620768445
1.16033e-05	0.0012458961231750268
1.16035e-05	0.001258150310391305
1.16038e-05	0.0012704044976076666
1.16040e-05	0.001283728028750957
1.16042e-05	0.0013011422474969647
1.16045e-05	0.0013185564662430904
1.16048e-05	0.0013374047894452105
1.16050e-05	0.0013617391617769094
1.16053e-05	0.0013860735341084433
1.16055e-05	0.0014118389147982965
1.16058e-05	0.0014430785007492671
1.16060e-05	0.0014743180867000261
1.16063e-05	0.0015073458834716806
1.16065e-05	0.0015472143342669092
1.16068e-05	0.0015870827850618678
1.16070e-05	0.0016269512358570964
1.16073e-05	0.0016668196866523252
1.16075e-05	0.0017066881374472836
1.16078e-05	0.0017465565882425122
1.16080e-05	0.001791819212303226
1.16083e-05	0.0018393147830530947
1.16085e-05	0.0018868103538032853
1.16088e-05	0.0019343059245534762
1.16090e-05	0.001981801495303345
1.16093e-05	0.0020292970660535357
1.16095e-05	0.002076439142544637
1.16098e-05	0.002122228955701498
1.16100e-05	0.002168018768858669
1.16103e-05	0.00221380858201584
1.16105e-05	0.0022595983951727004
1.16108e-05	0.0023053882083298714
1.16110e-05	0.0023511780214870424
1.16113e-05	0.0023969678346439033
1.16115e-05	0.002439811340828345
1.16118e-05	0.0024713839910150627
1.16120e-05	0.0025029566412015664
1.16123e-05	0.002534529291388284
1.16125e-05	0.0025661019415750014
1.16127e-05	0.002597674591761505
1.16130e-05	0.0026292472419482227
1.16133e-05	0.00266081989213494
1.16135e-05	0.0026890654635715705
1.16138e-05	0.0027045835677633346
1.16140e-05	0.002720101671955204
1.16143e-05	0.0027356197761470736
1.16145e-05	0.002751137880338838
1.16148e-05	0.0027666559845307076
1.16150e-05	0.002782174088722577
1.16153e-05	0.0027976921929143417
1.16155e-05	0.002813210297106211
1.16158e-05	0.0028287284012980807
1.16160e-05	0.002844246505489845
1.16163e-05	0.0028597646096817143
1.16165e-05	0.0028729109823379746
1.16168e-05	0.002876984490266547
1.16170e-05	0.0028810579981951466
1.16173e-05	0.0028851315061237466
1.16175e-05	0.002889205014052319
1.16178e-05	0.002893278521980919
1.16180e-05	0.0028973520299095186
1.16183e-05	0.002901425537838091
1.16185e-05	0.002905499045766691
1.16188e-05	0.002909572553695291
1.16190e-05	0.0029136460616238633
1.16193e-05	0.002917719569552463
1.16195e-05	0.002920965622656947
1.16198e-05	0.002921046315105733
1.16200e-05	0.0029211270075545194
1.16203e-05	0.0029212077000033056
1.16205e-05	0.002921288392452092
1.16208e-05	0.002921369084900878
1.16210e-05	0.0029214497773496647
1.16212e-05	0.0029211470545623774
1.16215e-05	0.0029193776081936455
1.16218e-05	0.0029176081618249136
1.16220e-05	0.0029158387154561817
1.16223e-05	0.002914069269087462
1.16225e-05	0.0029122998227187305
1.16228e-05	0.0029105303763499986
1.16230e-05	0.0029060624377786576
1.16233e-05	0.002891271638309902
1.16235e-05	0.002876480838841146
1.16238e-05	0.002859240712389071
1.16240e-05	0.002832630886176943
1.16243e-05	0.0028060210599648154
1.16245e-05	0.002776725590069047
1.16248e-05	0.0027371564102311443
1.16250e-05	0.0026975872303932422
1.16253e-05	0.0026548686033809913
1.16255e-05	0.0026001020241602987
1.16258e-05	0.0025453354449396066
1.16260e-05	0.0024880710787743214
1.16263e-05	0.0024212516332338136
1.16265e-05	0.0023544321876933063
1.16268e-05	0.002285192381778573
1.16270e-05	0.0022066936854911
1.16273e-05	0.002128194989203627
1.16275e-05	0.0020477776612204063
1.16278e-05	0.0019600207648288953
1.16280e-05	0.0018722638684373844
1.16283e-05	0.001783282931795463
1.16285e-05	0.0016896195294280798
1.16288e-05	0.0015959561270606965
1.16290e-05	0.001502292724693948
1.16293e-05	0.0014082464757616152
1.16295e-05	0.0013127356786521603
1.16297e-05	0.0012172248815433527
1.16300e-05	0.0011217140844338978
1.16303e-05	0.0010269966462995714
1.16305e-05	0.0009353141379445649
1.16308e-05	0.0008446112791609534
1.16310e-05	0.0007576559895717122
1.16313e-05	0.0006716779792290275
1.16315e-05	0.000590258663093481
1.16318e-05	0.0005129246215897907
1.16320e-05	0.00044029107350621326
1.16323e-05	0.00037295907628560144
1.16325e-05	0.0003113853865120171
1.16328e-05	0.00025558712377456616
1.16330e-05	0.0002052646476947006
1.16333e-05	0.00016032790949891448
1.16335e-05	0.00012093531218171393
1.16338e-05	8.727660793111233e-05
1.16340e-05	5.9541480171952694e-05
1.16343e-05	3.7910731332134244e-05
1.16345e-05	2.247473472499476e-05
1.16348e-05	1.3048480138462786e-05
1.16350e-05	9.248547922816309e-06
1.16353e-05	1.0822835786248032e-05
1.16355e-05	1.767487868018505e-05
1.16358e-05	2.9727845169827775e-05
1.16360e-05	4.690484803008366e-05
1.16363e-05	6.912344884860673e-05
1.16365e-05	9.624455912838546e-05
1.16368e-05	0.00012795661226894378
1.16370e-05	0.0001638237717135113
1.16373e-05	0.00020349247483012246
1.16375e-05	0.0002467066999945556
1.16378e-05	0.0002932227251733243
1.16380e-05	0.0003427967656724823
1.16382e-05	0.0003951816440151603
1.16385e-05	0.00045027688474523334
1.16388e-05	0.0005078421950166902
1.16390e-05	0.0005661026358217954
1.16393e-05	0.0006270222415490892
1.16395e-05	0.0006879418472767958
1.16398e-05	0.0007488614530045024
1.16400e-05	0.0008097810587317962
1.16403e-05	0.0008707006644595029
1.16405e-05	0.0009316202701872095
1.16408e-05	0.000991716190977717
1.16410e-05	0.0010486611725055422
1.16413e-05	0.0011056061540333673
1.16415e-05	0.0011612480804821992
1.16418e-05	0.0012119052764526152
1.16420e-05	0.001261130169334899
1.16423e-05	0.0013048759040634754
1.16425e-05	0.0013469566860704002
1.16428e-05	0.0013826683278042452
1.16430e-05	0.0014183799695378482
1.16433e-05	0.0014524813026653217
1.16435e-05	0.001480422532108077
1.16438e-05	0.001508363761550643
1.16440e-05	0.0015344236089734008
1.16443e-05	0.001553286383569019
1.16445e-05	0.0015721491581645096
1.16448e-05	0.0015894235783018179
1.16450e-05	0.0016006218785492088
1.16453e-05	0.0016118201787965242
1.16455e-05	0.0016216308160568644
1.16458e-05	0.0016261330622132197
1.16460e-05	0.0016306353083695444
1.16463e-05	0.0016330033540065236
1.16465e-05	0.0016272071903531845
1.16467e-05	0.0016214110266998844
1.16470e-05	0.0016156148630465453
1.16473e-05	0.001609818699393206
1.16475e-05	0.0016040225357398668
1.16478e-05	0.0015982263720865668
1.16480e-05	0.0015924302084332276
1.16483e-05	0.0015804554946452286
1.16485e-05	0.001565923137191014
1.16488e-05	0.001551390779736701
1.16490e-05	0.001536858422282388
1.16493e-05	0.0015223260648281733
1.16495e-05	0.0015077937073738603
1.16498e-05	0.0014932613499195472
1.16500e-05	0.0014783473105012793
1.16503e-05	0.0014619731779899887
1.16505e-05	0.0014455990454786982
1.16508e-05	0.0014292249129675184
1.16510e-05	0.0014128507804562279
1.16513e-05	0.001396476647944937
1.16515e-05	0.0013826574911075104
1.16518e-05	0.0013698959800295752
1.16520e-05	0.0013571344689516402
1.16523e-05	0.0013443729578737917
1.16525e-05	0.0013316114467958565
1.16528e-05	0.0013207102050555432
1.16530e-05	0.0013169252713072072
1.16533e-05	0.0013131403375588454
1.16535e-05	0.0013109891382161224
1.16538e-05	0.0013150876560363474
1.16540e-05	0.0013204126628386162
1.16543e-05	0.0013304295027899268
1.16545e-05	0.001341777946253538
1.16548e-05	0.0013582203298930524
1.16550e-05	0.0013765336974887142
1.16552e-05	0.0014020043609714859
1.16555e-05	0.0014274750244544301
1.16558e-05	0.0014548833143931234
1.16560e-05	0.0014897038356434906
1.16563e-05	0.0015245243568936218
1.16565e-05	0.0015610576796493893
1.16568e-05	0.0016041431842830742
1.16570e-05	0.0016472286889164672
1.16573e-05	0.0016923201914951073
1.16575e-05	0.0017450854749182726
1.16578e-05	0.0017978507583410806
1.16580e-05	0.0018506160417642462
1.16583e-05	0.0019033813251874115
1.16585e-05	0.0019561466086102193
1.16588e-05	0.002010022458288936
1.16590e-05	0.0020681466882217607
1.16593e-05	0.002126270918154192
1.16595e-05	0.0021843951480870166
1.16598e-05	0.0022425193780198412
1.16600e-05	0.002300643607952272
1.16603e-05	0.002357456822561691
1.16605e-05	0.0024092548554244904
1.16608e-05	0.002461052888286939
1.16610e-05	0.0025128509211497386
1.16613e-05	0.002564648954012538
1.16615e-05	0.0026164469868749864
1.16618e-05	0.002668245019737786
1.16620e-05	0.0027158640098859104
1.16623e-05	0.0027474964143940316
1.16625e-05	0.0027791288189023666
1.16628e-05	0.002810761223410702
1.16630e-05	0.0028423936279188228
1.16633e-05	0.002874026032427158
1.16635e-05	0.002905658436935493
1.16637e-05	0.002933551021845544
1.16640e-05	0.0029471372331742796
1.16643e-05	0.0029607234445030157
1.16645e-05	0.002970127106346495
1.16648e-05	0.0029635307676852563
1.16650e-05	0.002956934429023973
1.16653e-05	0.00295033809036269
1.16655e-05	0.0029437417517014512
1.16658e-05	0.002937145413040168
1.16660e-05	0.0029305490743788847
1.16663e-05	0.0029239527357176466
1.16665e-05	0.0029173563970563633
1.16668e-05	0.002894738056855078
1.16670e-05	0.0028654873239582703
1.16673e-05	0.0028362365910612644
1.16675e-05	0.002806985858164259
1.16678e-05	0.0027777351252674513
1.16680e-05	0.0027484843923704454
1.16683e-05	0.00271923365947344
1.16685e-05	0.0026899829265766323
1.16688e-05	0.002658816063244063
1.16690e-05	0.00262031919986055
1.16693e-05	0.0025818223364772975
1.16695e-05	0.002543325473093784
1.16698e-05	0.0025048286097102707
1.16700e-05	0.0024663317463270184
1.16703e-05	0.002427834882943505
1.16705e-05	0.002391496540062494
1.16708e-05	0.002356051728216533
1.16710e-05	0.002320606916370332
1.16713e-05	0.0022851621045241305
1.16715e-05	0.0022497172926781695
1.16718e-05	0.002214272480831968
1.16720e-05	0.00218041014846588
1.16722e-05	0.002152601461747724
1.16725e-05	0.002124792775029379
1.16728e-05	0.0020969840883110344
1.16730e-05	0.0020691754015926896
1.16733e-05	0.002040299844611556
1.16735e-05	0.002007343062814445
1.16738e-05	0.001974386281017334
1.16740e-05	0.0019414294992204462
1.16743e-05	0.0019084727174233352
1.16745e-05	0.0018742568354872828
1.16748e-05	0.0018352243690883743
1.16750e-05	0.0017961919026892013
1.16753e-05	0.0017555943467964842
1.16755e-05	0.0017090096692247481
1.16758e-05	0.0016624249916526964
1.16760e-05	0.0016143070825926336
1.16763e-05	0.00156032392204441
1.16765e-05	0.0015063407614958205
1.16768e-05	0.0014523576009472313
1.16770e-05	0.0013983744403990076
1.16773e-05	0.0013443912798504181
1.16775e-05	0.001284838345086901
1.16778e-05	0.0012229797726828273
1.16780e-05	0.0011611212002783343
1.16783e-05	0.0010992626278738412
1.16785e-05	0.0010374040554697675
1.16788e-05	0.0009750559439477341
1.16790e-05	0.0009108351406236009
1.16793e-05	0.0008466143372999029
1.16795e-05	0.0007823935339757698
1.16798e-05	0.0007186907565646215
1.16800e-05	0.0006569696448590474
1.16803e-05	0.0005952485331530551
1.16805e-05	0.0005335274214470627
1.16807e-05	0.00047258522511758405
1.16810e-05	0.0004149980674154465
1.16813e-05	0.00035930152310230287
1.16815e-05	0.0003058827363862441
1.16818e-05	0.000255145306071643
1.16820e-05	0.0002074926754880158
1.16823e-05	0.00016330732190654497
1.16825e-05	0.00012276486232375524
1.16828e-05	8.544849613854865e-05
1.16830e-05	5.061969351254143e-05
1.16833e-05	1.8001179622827035e-05
1.16835e-05	-1.2258114945426162e-05
1.16838e-05	-3.9959504480491826e-05
1.16840e-05	-6.490436693534367e-05
1.16843e-05	-8.690728253833467e-05
1.16845e-05	-0.00010591239501665934
1.16848e-05	-0.00012223493925499104
1.16850e-05	-0.0001363916490880029
1.16853e-05	-0.0001486102788974934
1.16855e-05	-0.00015885162076174645
1.16858e-05	-0.00016704530463453773
1.16860e-05	-0.0001731209961311051
1.16863e-05	-0.00017701667088365757
1.16865e-05	-0.00017875141805750083
1.16868e-05	-0.00017857681796460437
1.16870e-05	-0.000176870612587479
1.16873e-05	-0.00017382951356272706
1.16875e-05	-0.00016948300773636055
1.16878e-05	-0.00016384102607249973
1.16880e-05	-0.00015691358028871818
1.16883e-05	-0.00014871583891494877
1.16885e-05	-0.00013931381322671458
1.16888e-05	-0.00012891912708629254
1.16890e-05	-0.00011782238997592617
1.16892e-05	-0.00010620082081307035
1.16895e-05	-9.40911797857415e-05
1.16898e-05	-8.152422219207884e-05
1.16900e-05	-6.884109571751422e-05
1.16903e-05	-5.571357470239263e-05
1.16905e-05	-4.2556489848683043e-05
1.16908e-05	-2.9330188336744318e-05
1.16910e-05	-1.6353240188604605e-05
1.16913e-05	-3.7905754605606156e-06
1.16915e-05	8.258509636227643e-06
1.16918e-05	1.9702389577772994e-05
1.16920e-05	3.0449432629427054e-05
1.16923e-05	4.042069323078827e-05
1.16925e-05	4.9672712082099016e-05
1.16928e-05	5.859908607584409e-05
1.16930e-05	6.762235159529942e-05
1.16933e-05	7.711480655205307e-05
1.16935e-05	8.698421377419365e-05
1.16938e-05	9.69192534945285e-05
1.16940e-05	0.00010710536496165142
1.16943e-05	0.00011731726576737255
1.16945e-05	0.00012762782157561868
1.16948e-05	0.00013812917189665389
1.16950e-05	0.00014936039100161072
1.16953e-05	0.00016082722214268649
1.16955e-05	0.00017319536783243659
1.16958e-05	0.0001857208807339383
1.16960e-05	0.0001988483890161341
1.16963e-05	0.00021211748697653923
1.16965e-05	0.00022592822465594125
1.16968e-05	0.00023973896233534328
