Time(s)	Current(A)
2.25000e-06	0.00550229414269997
2.25025e-06	0.005439985539788392
2.25050e-06	0.005377676936876814
2.25075e-06	0.0053153683339653415
2.25100e-06	0.005253059731053763
2.25125e-06	0.005190751128142185
2.25150e-06	0.005128442525230712
2.25175e-06	0.00506780876325888
2.25200e-06	0.005035628907384265
2.25225e-06	0.005003449051509651
2.25250e-06	0.004971269195635091
2.25275e-06	0.004939089339760477
2.25300e-06	0.004906909483885863
2.25325e-06	0.004874729628011303
2.25350e-06	0.004842549772136689
2.25375e-06	0.004810369916262074
2.25400e-06	0.004778190060387514
2.25425e-06	0.0047460102045129
2.25450e-06	0.004734799025745451
2.25475e-06	0.004740360485022811
2.25500e-06	0.004745921944300162
2.25525e-06	0.004751483403577521
2.25550e-06	0.004757044862854881
2.25575e-06	0.004762606322132231
2.25600e-06	0.00476816778140959
2.25625e-06	0.00477372924068695
2.25650e-06	0.00477929069996431
2.25675e-06	0.00478485215924166
2.25700e-06	0.00479175539697291
2.25725e-06	0.004821454135594251
2.25750e-06	0.004851152874215542
2.25775e-06	0.004880851612836882
2.25800e-06	0.004910550351458223
2.25825e-06	0.004940249090079514
2.25850e-06	0.004969947828700855
2.25875e-06	0.004999646567322196
2.25900e-06	0.005029345305943536
2.25925e-06	0.005059305319198576
2.25950e-06	0.005093704132413143
2.25975e-06	0.00512810294562771
2.26000e-06	0.005162501758842219
2.26025e-06	0.005196900572056786
2.26050e-06	0.005231299385271353
2.26075e-06	0.00526569819848592
2.26100e-06	0.005300097011700428
2.26125e-06	0.0053344958249149955
2.26150e-06	0.005368388391202739
2.26175e-06	0.005393680318361526
2.26200e-06	0.005418972245520357
2.26225e-06	0.005444264172679187
2.26250e-06	0.005469556099837974
2.26275e-06	0.005494848026996805
2.26300e-06	0.005520139954155635
2.26325e-06	0.005545431881314465
2.26350e-06	0.005570723808473252
2.26375e-06	0.005596015735632083
2.26400e-06	0.005623755066467693
2.26425e-06	0.005653452051370454
2.26450e-06	0.005683149036273265
2.26475e-06	0.005712846021176075
2.26500e-06	0.005742543006078887
2.26525e-06	0.005772239990981648
2.26550e-06	0.005801936975884459
2.26575e-06	0.00583163396078727
2.26600e-06	0.005861330945690031
2.26625e-06	0.005891511880110705
2.26650e-06	0.005929914642536691
2.26675e-06	0.005968317404962611
2.26700e-06	0.006006720167388596
2.26725e-06	0.006045122929814581
2.26750e-06	0.006083525692240566
2.26775e-06	0.006121928454666487
2.26800e-06	0.006160331217092472
2.26825e-06	0.006198733979518457
2.26850e-06	0.006237136741944377
2.26875e-06	0.006275539504370362
2.26900e-06	0.006313942266796348
2.26925e-06	0.006350730255776638
2.26950e-06	0.006386226603400899
2.26975e-06	0.006421722951025218
2.27000e-06	0.006457219298649538
2.27025e-06	0.006492715646273799
2.27050e-06	0.006528211993898118
2.27075e-06	0.0065637083415224385
2.27100e-06	0.006599204689146698
2.27125e-06	0.006634701036771018
2.27150e-06	0.006670197384395339
2.27175e-06	0.006705693732019659
2.27200e-06	0.006739884922190888
2.27225e-06	0.006751902766372556
2.27250e-06	0.006763920610554225
2.27275e-06	0.006775938454735873
2.27300e-06	0.00678795629891754
2.27325e-06	0.006799974143099209
2.27350e-06	0.006811991987280877
2.27375e-06	0.006824009831462525
2.27400e-06	0.006836027675644193
2.27425e-06	0.006818966598696215
2.27450e-06	0.0067981980825078895
2.27475e-06	0.006777429566319528
2.27500e-06	0.006756661050131167
2.27525e-06	0.006735892533942842
2.27550e-06	0.0067151240177544804
2.27575e-06	0.006694355501566119
2.27600e-06	0.006673586985377758
2.27625e-06	0.006642310752936887
2.27650e-06	0.002657023706420958
2.27675e-06	-0.029146975243401048
2.27700e-06	-0.017087728161330192
2.27725e-06	-0.00913363704895795
2.27750e-06	0.002640009665428992
2.27775e-06	0.018640176616017315
2.27800e-06	0.02070554878924267
2.27825e-06	0.014374034699088729
2.27850e-06	0.0029806499015193567
2.27875e-06	-0.00702959749425207
2.27900e-06	-0.007241456620238764
2.27925e-06	-0.0010777171256573783
2.27950e-06	0.007620195951586265
2.27975e-06	0.015086037228811735
2.28000e-06	0.015945614082205833
2.28025e-06	0.011767759627292295
2.28050e-06	0.004477868497193789
2.28075e-06	-0.0019054421360191823
2.28100e-06	-0.002123443485576291
2.28125e-06	0.0016713365898373405
2.28150e-06	0.007067132486981769
2.28175e-06	0.011701329209559389
2.28200e-06	0.012205575104374075
2.28225e-06	0.009561385849556849
2.28250e-06	0.004973424052750278
2.28275e-06	0.0009569622736087726
2.28300e-06	0.0008042066471618446
2.28325e-06	0.003165837518936278
2.28350e-06	0.006530760288115021
2.28375e-06	0.009418876336621078
2.28400e-06	0.009720303870268659
2.28425e-06	0.008050009896086788
2.28450e-06	0.005162696640155043
2.28475e-06	0.0026339375392751612
2.28500e-06	0.0025258192654737848
2.28525e-06	0.00399293279403202
2.28550e-06	0.006088619268223525
2.28575e-06	0.00788572399099061
2.28600e-06	0.008062701342112209
2.28625e-06	0.0070048914845851525
2.28650e-06	0.005185127062768306
2.28675e-06	0.003590366377494293
2.28700e-06	0.003512215456412758
2.28725e-06	0.004420994917298351
2.28750e-06	0.005723654242351487
2.28775e-06	0.006839413825596837
2.28800e-06	0.006940512814437192
2.28825e-06	0.006268408840122676
2.28850e-06	0.005119339732910358
2.28875e-06	0.004111549577659102
2.28900e-06	0.004054048486597075
2.28925e-06	0.0046149743307879985
2.28950e-06	0.00542280098976806
2.28975e-06	0.00611372328292129
2.29000e-06	0.00616926800466889
2.29025e-06	0.005740734978628806
2.29050e-06	0.005013723556542346
2.29075e-06	0.004375511737671247
2.29100e-06	0.004332831710965381
2.29125e-06	0.004677761191493515
2.29150e-06	0.005177553302022342
2.29175e-06	0.005604318516185656
2.29200e-06	0.005633308917799168
2.29225e-06	0.005359528021033262
2.29250e-06	0.004900266715470467
2.29275e-06	0.004500011752940505
2.29300e-06	0.004477632755827297
2.29325e-06	0.00470311858126115
2.29350e-06	0.0050303838339885104
2.29375e-06	0.00531639359479419
2.29400e-06	0.005357456923915982
2.29425e-06	0.005212821278214304
2.29450e-06	0.0049556889519896995
2.29475e-06	0.004738927774770218
2.29500e-06	0.0047619820098259965
2.29525e-06	0.004943112899967051
2.29550e-06	0.005190520605870608
2.29575e-06	0.005414324427132409
2.29600e-06	0.005486659204871241
2.29625e-06	0.00544436777674092
2.29650e-06	0.005333030492234179
2.29675e-06	0.005248124222680265
2.29700e-06	0.005314291072773761
2.29725e-06	0.00548003656686977
2.29750e-06	0.00568757016065839
2.29775e-06	0.005880307705764673
2.29800e-06	0.005977878724641096
2.29825e-06	0.006003087744783723
2.29850e-06	0.005984210487946646
2.29875e-06	0.005980773849501222
2.29900e-06	0.006070566930733125
2.29925e-06	0.006221046132935421
2.29950e-06	0.006395726414736145
2.29975e-06	0.006558881719449367
2.30000e-06	0.006659890461988517
2.30025e-06	0.0067127616089052745
2.30050e-06	0.006734930333749674
2.30075e-06	0.006763404070077932
2.30100e-06	0.006846625972631326
2.30125e-06	0.006963925860659163
2.30150e-06	0.007092167167249508
2.30175e-06	0.007208690590491696
2.30200e-06	0.007281508284611647
2.30225e-06	0.007319235400625056
2.30250e-06	0.007333149169699481
2.30275e-06	0.007347449660806335
2.30300e-06	0.007393466237355985
2.30325e-06	0.0074592562961443626
2.30350e-06	0.0075296738288416236
2.30375e-06	0.007589394647563818
2.30400e-06	0.0076209561437548465
2.30425e-06	0.0076279573606285265
2.30450e-06	0.007622061933510778
2.30475e-06	0.00761616650639303
2.30500e-06	0.007619398582960737
2.30525e-06	0.007636852074635612
2.30550e-06	0.0076521256096388855
2.30575e-06	0.007667399144642159
2.30600e-06	0.007671345952111723
2.30625e-06	0.0076509089443069726
2.30650e-06	0.007621735109436698
2.30675e-06	0.007592561274566471
2.30700e-06	0.007568869624597015
2.30725e-06	0.007553664179042881
2.30750e-06	0.0075370551274676085
2.30775e-06	0.007520446075892364
2.30800e-06	0.007496872623740722
2.30825e-06	0.007458592661608843
2.30850e-06	0.007415426946818468
2.30875e-06	0.007372261232028021
2.30900e-06	0.007333027731318756
2.30925e-06	0.007300667533978325
2.30950e-06	0.007268636401449147
2.30975e-06	0.007236605268919967
2.31000e-06	0.007201075888831621
2.31025e-06	0.007158881449735522
2.31050e-06	0.00711545946601665
2.31075e-06	0.007072037482297778
2.31100e-06	0.007032309994484438
2.31125e-06	0.007000424647781383
2.31150e-06	0.006971200055830807
2.31175e-06	0.0069419754638802315
2.31200e-06	0.00691215752552271
2.31225e-06	0.006884414198812278
2.31250e-06	0.00686190709548292
2.31275e-06	0.0068393999921536
2.31300e-06	0.006816892888824241
2.31325e-06	0.006794385785494883
2.31350e-06	0.006771878682165562
2.31375e-06	0.006761459847307948
2.31400e-06	0.0067528385095690395
2.31425e-06	0.006744217171830131
2.31450e-06	0.0067355958340912375
2.31475e-06	0.00672697449635233
2.31500e-06	0.006725479495971209
2.31525e-06	0.0067360898847324095
2.31550e-06	0.0067467002734936275
2.31575e-06	0.006757310662254846
2.31600e-06	0.006767921051016047
2.31625e-06	0.006778531439777266
2.31650e-06	0.006789141828538485
2.31675e-06	0.006799752217299703
2.31700e-06	0.006810362606060903
2.31725e-06	0.006820972994822122
2.31750e-06	0.006831583383583341
2.31775e-06	0.006847108849093633
2.31800e-06	0.0068709834726252824
2.31825e-06	0.006894858096156931
2.31850e-06	0.00691873271968858
2.31875e-06	0.0069426073432201875
2.31900e-06	0.006966481966751837
2.31925e-06	0.006990356590283485
2.31950e-06	0.007014231213815093
2.31975e-06	0.007038105837346742
2.32000e-06	0.007061980460878391
2.32025e-06	0.007085855084409999
2.32050e-06	0.007107929089625095
2.32075e-06	0.007126944414858439
2.32100e-06	0.0071459597400917825
2.32125e-06	0.007164975065325094
2.32150e-06	0.007183990390558437
2.32175e-06	0.00720300571579178
2.32200e-06	0.007222021041025092
2.32225e-06	0.007241036366258435
2.32250e-06	0.007260051691491779
2.32275e-06	0.007279067016725122
2.32300e-06	0.007289545452618041
2.32325e-06	0.007285522418492473
2.32350e-06	0.007281499384366905
2.32375e-06	0.007277476350241344
2.32400e-06	0.007273453316115776
2.32425e-06	0.007269430281990208
2.32450e-06	0.007265407247864648
2.32475e-06	0.0072613842137390795
2.32500e-06	0.007257361179613512
2.32525e-06	0.0072533381454879435
2.32550e-06	0.007239455327892844
2.32575e-06	0.007208823862321579
2.32600e-06	0.007178192396750314
2.32625e-06	0.0071475609311791016
2.32650e-06	0.007116929465607836
2.32675e-06	0.007086298000036572
2.32700e-06	0.007055666534465307
2.32725e-06	0.007025035068894094
2.32750e-06	0.006994403603322829
2.32775e-06	0.0069637721377515645
2.32800e-06	0.006933140672180351
2.32825e-06	0.006891756817301873
2.32850e-06	0.006848774107397358
2.32875e-06	0.006805791397492915
2.32900e-06	0.0067628086875884
2.32925e-06	0.006719825977683885
2.32950e-06	0.006676843267779369
2.32975e-06	0.006633860557874927
2.33000e-06	0.006590877847970412
2.33025e-06	0.006547895138065896
2.33050e-06	0.006504912428161454
2.33075e-06	0.006465700673560823
2.33100e-06	0.006432894577169265
2.33125e-06	0.0064000884807777075
2.33150e-06	0.006367282384386205
2.33175e-06	0.006334476287994648
2.33200e-06	0.00630167019160309
2.33225e-06	0.006268864095211588
2.33250e-06	0.00623605799882003
2.33275e-06	0.006203251902428472
2.33300e-06	0.006181460695024169
2.33325e-06	0.006178380293868484
2.33350e-06	0.006175299892712799
2.33375e-06	0.006172219491557114
2.33400e-06	0.006169139090401434
2.33425e-06	0.006166058689245749
2.33450e-06	0.006162978288090064
2.33475e-06	0.006159897886934385
2.33500e-06	0.0061568174857787004
2.33525e-06	0.006166568622465424
2.33550e-06	0.006198116476188592
2.33575e-06	0.006229664329911707
2.33600e-06	0.006261212183634875
2.33625e-06	0.006292760037358043
2.33650e-06	0.006324307891081158
2.33675e-06	0.006355855744804326
2.33700e-06	0.006387403598527495
2.33725e-06	0.00641895145225061
2.33750e-06	0.006450499305973779
2.33775e-06	0.006489433839319756
2.33800e-06	0.0065409160008267665
2.33825e-06	0.00659239816233369
2.33850e-06	0.0066438803238407
2.33875e-06	0.006695362485347711
2.33900e-06	0.006746844646854634
2.33925e-06	0.0067983268083616445
2.33950e-06	0.006849808969868655
2.33975e-06	0.006901291131375665
2.34000e-06	0.006952773292882589
2.34025e-06	0.007001767630821819
2.34050e-06	0.0070465359448025925
2.34075e-06	0.00709130425878329
2.34100e-06	0.007136072572764063
2.34125e-06	0.007180840886744836
2.34150e-06	0.0072256092007255334
2.34175e-06	0.007270377514706307
2.34200e-06	0.00731514582868708
2.34225e-06	0.007359914142667854
2.34250e-06	0.007393008249140756
2.34275e-06	0.007406271576106859
2.34300e-06	0.007419534903072961
2.34325e-06	0.007432798230039042
2.34350e-06	0.007446061557005145
2.34375e-06	0.007459324883971248
2.34400e-06	0.00747258821093735
2.34425e-06	0.00748585153790343
2.34450e-06	0.007499114864869533
2.34475e-06	0.00749731003252719
2.34500e-06	0.007469909171964311
2.34525e-06	0.007442508311401386
2.34550e-06	0.007415107450838461
2.34575e-06	0.007387706590275582
2.34600e-06	0.007360305729712657
2.34625e-06	0.007332904869149732
2.34650e-06	0.007305504008586807
2.34675e-06	0.0072781031480239275
2.34700e-06	0.007250702287461002
2.34725e-06	0.0072131200201294415
2.34750e-06	0.007158242768742892
2.34775e-06	0.007103365517356249
2.34800e-06	0.007048488265969607
2.34825e-06	0.0069936110145829644
2.34850e-06	0.006938733763196415
2.34875e-06	0.006883856511809772
2.34900e-06	0.00682897926042313
2.34925e-06	0.006774102009036581
2.34950e-06	0.006719224757649939
2.34975e-06	0.006664046814052454
2.35000e-06	0.006608358089665111
2.35025e-06	0.006552669365277674
2.35050e-06	0.006496980640890237
2.35075e-06	0.0064412919165028
2.35100e-06	0.006385603192115457
2.35125e-06	0.00632991446772802
2.35150e-06	0.006274225743340583
2.35175e-06	0.006226113681871717
2.35200e-06	0.00619087196998698
2.35225e-06	0.006155630258102243
2.35250e-06	0.006120388546217506
2.35275e-06	0.006085146834332829
2.35300e-06	0.006049905122448092
2.35325e-06	0.006014663410563355
2.35350e-06	0.005979421698678678
2.35375e-06	0.0059551412454414854
2.35400e-06	0.005949480497501594
2.35425e-06	0.005943819749561712
2.35450e-06	0.00593815900162182
2.35475e-06	0.005932498253681928
2.35500e-06	0.005926837505742037
2.35525e-06	0.005921176757802154
2.35550e-06	0.005915516009862262
2.35575e-06	0.00590985526192237
2.35600e-06	0.005904194513982488
2.35625e-06	0.005898533766042597
2.35650e-06	0.005901962079448315
2.35675e-06	0.005920829828153145
2.35700e-06	0.005939697576857942
2.35725e-06	0.005958565325562772
2.35750e-06	0.005977433074267601
2.35775e-06	0.005996300822972398
2.35800e-06	0.006015168571677228
2.35825e-06	0.006034036320382057
2.35850e-06	0.006052904069086855
2.35875e-06	0.006071771817791684
2.35900e-06	0.006090639566496513
2.35925e-06	0.006111553914809044
2.35950e-06	0.006135944787376899
2.35975e-06	0.006160335659944794
2.36000e-06	0.00618472653251269
2.36025e-06	0.006209117405080545
2.36050e-06	0.00623350827764844
2.36075e-06	0.006257899150216337
2.36100e-06	0.006282290022784232
2.36125e-06	0.006306680895352087
2.36150e-06	0.0063310717679199826
2.36175e-06	0.006355462640487878
2.36200e-06	0.006374277015797921
2.36225e-06	0.0063836186892154475
2.36250e-06	0.0063929603626329745
2.36275e-06	0.006402302036050485
2.36300e-06	0.006411643709468011
2.36325e-06	0.006420985382885537
2.36350e-06	0.006430327056303063
2.36375e-06	0.006439668729720574
2.36400e-06	0.0064490104031381
2.36425e-06	0.006458352076555627
2.36450e-06	0.0064676937499731375
2.36475e-06	0.006469186566677672
2.36500e-06	0.0064573466627865835
2.36525e-06	0.006445506758895495
2.36550e-06	0.006433666855004427
2.36575e-06	0.006421826951113338
2.36600e-06	0.006409987047222249
2.36625e-06	0.006398147143331181
2.36650e-06	0.006386307239440093
2.36675e-06	0.006374467335549004
2.36700e-06	0.006362627431657936
2.36725e-06	0.006350787527766848
2.36750e-06	0.006334381069382527
2.36775e-06	0.006310217481855681
2.36800e-06	0.006286053894328877
2.36825e-06	0.006261890306802032
2.36850e-06	0.006237726719275186
2.36875e-06	0.006213563131748382
2.36900e-06	0.006189399544221537
2.36925e-06	0.006165235956694691
2.36950e-06	0.006141072369167846
2.36975e-06	0.006116908781641042
2.37000e-06	0.006092745194114196
2.37025e-06	0.006069606937790567
2.37050e-06	0.006048210394298634
2.37075e-06	0.006026813850806664
2.37100e-06	0.006005417307314693
2.37125e-06	0.005984020763822759
2.37150e-06	0.005962624220330788
2.37175e-06	0.005941227676838818
2.37200e-06	0.005919831133346848
2.37225e-06	0.005898434589854913
2.37250e-06	0.005877038046362943
2.37275e-06	0.005855641502870972
2.37300e-06	0.00583423582984657
2.37325e-06	0.0058128146486392165
2.37350e-06	0.005791393467431863
2.37375e-06	0.005769972286224509
2.37400e-06	0.005748551105017192
2.37425e-06	0.0057271299238098395
2.37450e-06	0.005705708742602486
2.37475e-06	0.005684287561395169
2.37500e-06	0.005662866380187815
2.37525e-06	0.005641445198980462
2.37550e-06	0.0056200240177731444
2.37575e-06	0.005595279255710119
2.37600e-06	0.005564888782870409
2.37625e-06	0.005534498310030698
2.37650e-06	0.00550410783719104
2.37675e-06	0.005473717364351329
2.37700e-06	0.005443326891511619
2.37725e-06	0.005412936418671961
2.37750e-06	0.00538254594583225
2.37775e-06	0.00535215547299254
2.37800e-06	0.00532176500015283
2.37825e-06	0.005291374527313171
2.37850e-06	0.005260984054473461
2.37875e-06	0.005229688487128582
2.37900e-06	0.005198258334357372
2.37925e-06	0.005166828181586109
2.37950e-06	0.005135398028814846
2.37975e-06	0.005103967876043636
2.38000e-06	0.005072537723272373
2.38025e-06	0.005041107570501109
2.38050e-06	0.005009677417729846
2.38075e-06	0.004978247264958636
2.38100e-06	0.004946817112187372
2.38125e-06	0.004915386959416109
2.38150e-06	0.004889267050424638
2.38175e-06	0.004872167563031835
2.38200e-06	0.004855068075639032
2.38225e-06	0.00483796858824623
2.38250e-06	0.004820869100853456
2.38275e-06	0.004803769613460654
2.38300e-06	0.004786670126067851
2.38325e-06	0.004769570638675078
2.38350e-06	0.004752471151282275
2.38375e-06	0.004735371663889472
2.38400e-06	0.004718272176496699
2.38425e-06	0.004701172689103897
2.38450e-06	0.004700466953302242
2.38475e-06	0.004702198929845027
2.38500e-06	0.004703930906387808
2.38525e-06	0.004705662882930593
2.38550e-06	0.004707394859473377
2.38575e-06	0.004709126836016159
2.38600e-06	0.004710858812558943
2.38625e-06	0.0047125907891017275
2.38650e-06	0.004714322765644512
2.38675e-06	0.004716054742187293
2.38700e-06	0.004717786718730078
2.38725e-06	0.004723767651773009
2.38750e-06	0.004736966215602051
2.38775e-06	0.004750164779431115
2.38800e-06	0.00476336334326018
2.38825e-06	0.004776561907089222
2.38850e-06	0.004789760470918287
2.38875e-06	0.004802959034747351
2.38900e-06	0.004816157598576415
2.38925e-06	0.004829356162405457
2.38950e-06	0.004842554726234521
2.38975e-06	0.004855974949464768
2.39000e-06	0.004869771701783485
2.39025e-06	0.004883568454102225
2.39050e-06	0.004897365206420964
2.39075e-06	0.004911161958739681
2.39100e-06	0.0049249587110584215
2.39125e-06	0.004938755463377161
2.39150e-06	0.004952552215695901
2.39175e-06	0.004966348968014617
2.39200e-06	0.004980145720333357
2.39225e-06	0.004996079848361635
2.39250e-06	0.005015644700480096
2.39275e-06	0.005035209552598591
2.39300e-06	0.005054774404717085
2.39325e-06	0.0050743392568355795
2.39350e-06	0.00509390410895404
2.39375e-06	0.005113468961072534
2.39400e-06	0.005133033813191029
2.39425e-06	0.005175790296104601
2.39450e-06	0.005221995320029106
2.39475e-06	0.00526820034395361
2.39500e-06	0.0053144053678780365
2.39525e-06	0.005360610391802541
2.39550e-06	0.005406815415727045
2.39575e-06	0.00545302043965155
2.39600e-06	0.0055095460302599895
2.39625e-06	0.005583602993531952
2.39650e-06	0.005657659956803914
2.39675e-06	0.00573171692007575
2.39700e-06	0.005805773883347712
2.39725e-06	0.005879830846619674
2.39750e-06	0.005953887809891635
2.39775e-06	0.006027944773163472
2.39800e-06	0.006102001736435434
2.39825e-06	0.006188012459413251
2.39850e-06	0.006275800678374136
2.39875e-06	0.00636358889733517
2.39900e-06	0.006451377116296204
2.39925e-06	0.006539165335257089
2.39950e-06	0.0066269535542181224
2.39975e-06	0.006714741773179156
2.40000e-06	0.00680252999214019
2.40025e-06	0.006885413092732139
2.40050e-06	0.006959963951430924
2.40075e-06	0.007034514810129709
2.40100e-06	0.007109065668828368
