Time(s)	Current(A)
4.80000e-06	0.014066040850399987
4.80025e-06	0.01408997682090716
4.80050e-06	0.014113912791414336
4.80075e-06	0.014137848761921592
4.80100e-06	0.014161784732428765
4.80125e-06	0.01418572070293594
4.80150e-06	0.014209656673443195
4.80175e-06	0.014233592643950368
4.80200e-06	0.014257528614457544
4.80225e-06	0.0142814645849648
4.80250e-06	0.01431290121842206
4.80275e-06	0.014344780157320504
4.80300e-06	0.014376659096219055
4.80325e-06	0.0144085380351175
4.80350e-06	0.014440416974016051
4.80375e-06	0.014472295912914495
4.80400e-06	0.01450417485181294
4.80425e-06	0.014536053790711491
4.80450e-06	0.014561983720663807
4.80475e-06	0.014587562844421587
4.80500e-06	0.014613141968179453
4.80525e-06	0.014638721091937233
4.80550e-06	0.014664300215695012
4.80575e-06	0.014689879339452878
4.80600e-06	0.014715458463210658
4.80625e-06	0.014741037586968438
4.80650e-06	0.014748998725809311
4.80675e-06	0.014755920952404562
4.80700e-06	0.014762843178999813
4.80725e-06	0.014769765405595088
4.80750e-06	0.01477668763219034
4.80775e-06	0.014783609858785613
4.80800e-06	0.014790532085380866
4.80825e-06	0.014797454311976117
4.80850e-06	0.014804376538571392
4.80875e-06	0.014811298765166642
4.80900e-06	0.014818220991761893
4.80925e-06	0.014825143218357168
4.80950e-06	0.014832065444952419
4.80975e-06	0.01483898767154767
4.81000e-06	0.014845909898142945
4.81025e-06	0.014852832124738197
4.81050e-06	0.014859754351333448
4.81075e-06	0.014866676577928723
4.81100e-06	0.014873598804523974
4.81125e-06	0.014868430468966829
4.81150e-06	0.014862549166908112
4.81175e-06	0.014856667864849415
4.81200e-06	0.014850786562790699
4.81225e-06	0.014844905260732002
4.81250e-06	0.014839023958673305
4.81275e-06	0.014833142656614588
4.81300e-06	0.014827261354555891
4.81325e-06	0.014821380052497194
4.81350e-06	0.014815498750438479
4.81375e-06	0.014809617448379782
4.81400e-06	0.014803736146321085
4.81425e-06	0.014797854844262368
4.81450e-06	0.01479197354220367
4.81475e-06	0.014786092240144974
4.81500e-06	0.014780210938086258
4.81525e-06	0.014774329636027561
4.81550e-06	0.014768448333968865
4.81575e-06	0.014762567031910147
4.81600e-06	0.014754191252370185
4.81625e-06	0.014745668376371006
4.81650e-06	0.014737145500371855
4.81675e-06	0.014728622624372703
4.81700e-06	0.014720099748373523
4.81725e-06	0.014711576872374373
4.81750e-06	0.01470305399637522
4.81775e-06	0.014694531120376041
4.81800e-06	0.01468600824437689
4.81825e-06	0.01467400983667231
4.81850e-06	0.014657664733351934
4.81875e-06	0.014641319630031615
4.81900e-06	0.014624974526711295
4.81925e-06	0.01460862942339092
4.81950e-06	0.0145922843200706
4.81975e-06	0.01457593921675028
4.82000e-06	0.014559594113429906
4.82025e-06	0.014543249010109586
4.82050e-06	0.01452690390678921
4.82075e-06	0.014504209300168627
4.82100e-06	0.014481140270664024
4.82125e-06	0.014458071241159344
4.82150e-06	0.014435002211654741
4.82175e-06	0.014411933182150139
4.82200e-06	0.014388864152645457
4.82225e-06	0.014365795123140854
4.82250e-06	0.014342726093636252
4.82275e-06	0.014319657064131571
4.82300e-06	0.014296588034626969
4.82325e-06	0.014273519005122366
4.82350e-06	0.014252112238240362
4.82375e-06	0.01423080349306747
4.82400e-06	0.014209494747894581
4.82425e-06	0.014188186002721617
4.82450e-06	0.014166877257548727
4.82475e-06	0.014145568512375764
4.82500e-06	0.014124259767202873
4.82525e-06	0.014102951022029983
4.82550e-06	0.014081642276857018
4.82575e-06	0.014060333531684129
4.82600e-06	0.014039024786511237
4.82625e-06	0.01402255651114037
4.82650e-06	0.014006373672689074
4.82675e-06	0.013990190834237776
4.82700e-06	0.013974007995786424
4.82725e-06	0.013957825157335126
4.82750e-06	0.01394164231888383
4.82775e-06	0.013925459480432476
4.82800e-06	0.01390927664198118
4.82825e-06	0.013893093803529882
4.82850e-06	0.01387691096507853
4.82875e-06	0.013859902535627652
4.82900e-06	0.01384186157559386
4.82925e-06	0.013823820615560128
4.82950e-06	0.013805779655526396
4.82975e-06	0.013787738695492604
4.83000e-06	0.013769697735458872
4.83025e-06	0.01375165677542514
4.83050e-06	0.013733615815391346
4.83075e-06	0.013715574855357614
4.83100e-06	0.013697533895323882
4.83125e-06	0.01367949293529009
4.83150e-06	0.01366022422002946
4.83175e-06	0.013640883105459667
4.83200e-06	0.013621541990889807
4.83225e-06	0.013602200876320013
4.83250e-06	0.01358285976175022
4.83275e-06	0.01356351864718036
4.83300e-06	0.013544177532610566
4.83325e-06	0.013524836418040706
4.83350e-06	0.013505495303470913
4.83375e-06	0.013486154188901117
4.83400e-06	0.013466813074331258
4.83425e-06	0.013451599593469584
4.83450e-06	0.013436629514405215
4.83475e-06	0.013421659435340795
4.83500e-06	0.013406689356276426
4.83525e-06	0.013391719277212057
4.83550e-06	0.013376749198147637
4.83575e-06	0.013361779119083268
4.83600e-06	0.013346809040018899
4.83625e-06	0.01333183896095448
4.83650e-06	0.01331686888189011
4.83675e-06	0.013301898802825741
4.83700e-06	0.013293221749869213
4.83725e-06	0.013284915789401329
4.83750e-06	0.013276609828933415
4.83775e-06	0.01326830386846553
4.83800e-06	0.013259997907997647
4.83825e-06	0.013251691947529735
4.83850e-06	0.01324338598706185
4.83875e-06	0.013235080026593966
4.83900e-06	0.013226774066126053
4.83925e-06	0.013218468105658169
4.83950e-06	0.013210162145190284
4.83975e-06	0.013201856184722372
4.84000e-06	0.013193550224254488
4.84025e-06	0.013185244263786604
4.84050e-06	0.01317693830331869
4.84075e-06	0.013168632342850806
4.84100e-06	0.013160326382382922
4.84125e-06	0.013153608446143814
4.84150e-06	0.013148876582406707
4.84175e-06	0.013144144718669586
4.84200e-06	0.01313941285493248
4.84225e-06	0.013134680991195373
4.84250e-06	0.013129949127458252
4.84275e-06	0.013125217263721145
4.84300e-06	0.01312048539998404
4.84325e-06	0.013115753536246917
4.84350e-06	0.013111021672509812
4.84375e-06	0.013106289808772707
4.84400e-06	0.013101557945035584
4.84425e-06	0.013096826081298479
4.84450e-06	0.013092094217561372
4.84475e-06	0.013087362353824251
4.84500e-06	0.013082630490087146
4.84525e-06	0.013077898626350039
4.84550e-06	0.013073166762612918
4.84575e-06	0.01307270011237934
4.84600e-06	0.013072484976864604
4.84625e-06	0.013072269841349867
4.84650e-06	0.013072054705835131
4.84675e-06	0.013071839570320395
4.84700e-06	0.013071624434805659
4.84725e-06	0.013071409299290923
4.84750e-06	0.013084843786755306
4.84775e-06	0.013099083176736847
4.84800e-06	0.01311332256671839
4.84825e-06	0.01312756195669998
4.84850e-06	0.013141801346681522
4.84875e-06	0.013156040736663065
4.84900e-06	0.013170280126644656
4.84925e-06	0.013197636115997814
4.84950e-06	0.013225765576080939
4.84975e-06	0.013253895036164158
4.85000e-06	0.013282024496247283
4.85025e-06	0.013314172234506988
4.85050e-06	0.01335134545767132
4.85075e-06	0.013388518680835654
4.85100e-06	0.013425691904000111
4.85125e-06	0.013462865127164445
4.85150e-06	0.01350442119672488
4.85175e-06	0.01354938904865667
4.85200e-06	0.013594542848877393
4.85225e-06	0.013639696649098117
4.85250e-06	0.013684850449318994
4.85275e-06	0.013730004249539718
4.85300e-06	0.013775158049760441
4.85325e-06	0.01382031184998132
4.85350e-06	0.013865465650202042
4.85375e-06	0.013910619450422766
4.85400e-06	0.013955773250643644
4.85425e-06	0.013995811058634119
4.85450e-06	0.014029450518726727
4.85475e-06	0.014063089978819221
4.85500e-06	0.014096729438911715
4.85525e-06	0.014130368899004321
4.85550e-06	0.014164008359096815
4.85575e-06	0.01419764781918931
4.85600e-06	0.014231287279281917
4.85625e-06	0.014264926739374411
4.85650e-06	0.014298566199466903
4.85675e-06	0.014332205659559512
4.85700e-06	0.014339325376552711
4.85725e-06	0.014344881254897046
4.85750e-06	0.014350437133241401
4.85775e-06	0.014355993011585737
4.85800e-06	0.014361548889930072
4.85825e-06	0.014367104768274427
4.85850e-06	0.014372660646618764
4.85875e-06	0.014378216524963119
4.85900e-06	0.014383772403307455
4.85925e-06	0.014378201492621928
4.85950e-06	0.014358714793172477
4.85975e-06	0.01433922809372309
4.86000e-06	0.014319741394273706
4.86025e-06	0.014300254694824256
4.86050e-06	0.014280767995374869
4.86075e-06	0.014261281295925484
4.86100e-06	0.014241794596476034
4.86125e-06	0.01422230789702665
4.86150e-06	0.014202821197577263
4.86175e-06	0.014170293791277905
4.86200e-06	0.014136997389543972
4.86225e-06	0.014103700987810039
4.86250e-06	0.014070404586075993
4.86275e-06	0.01403710818434206
4.86300e-06	0.014003811782608016
4.86325e-06	0.013970515380874083
4.86350e-06	0.01393721897914015
4.86375e-06	0.013903922577406105
4.86400e-06	0.013870626175672172
4.86425e-06	0.01383732977393824
4.86450e-06	0.013808041479286302
4.86475e-06	0.013783765948994657
4.86500e-06	0.013759490418703014
4.86525e-06	0.013735214888411288
4.86550e-06	0.013710939358119643
4.86575e-06	0.013686663827828
4.86600e-06	0.013662388297536274
4.86625e-06	0.01363811276724463
4.86650e-06	0.013613837236952987
4.86675e-06	0.01358956170666126
4.86700e-06	0.013565286176369616
4.86725e-06	0.01354101064607789
4.86750e-06	0.013541067109041098
4.86775e-06	0.013542558401567945
4.86800e-06	0.013544049694094798
4.86825e-06	0.013545540986621646
4.86850e-06	0.013547032279148495
4.86875e-06	0.013548523571675348
4.86900e-06	0.013550014864202195
4.86925e-06	0.013551506156729043
4.86950e-06	0.013552997449255895
4.86975e-06	0.013563996699919362
4.87000e-06	0.013586887138294078
4.87025e-06	0.013609777576668872
4.87050e-06	0.013632668015043588
4.87075e-06	0.013655558453418305
4.87100e-06	0.013678448891793097
4.87125e-06	0.013701339330167813
4.87150e-06	0.013724229768542607
4.87175e-06	0.013747120206917323
4.87200e-06	0.01377001064529204
4.87225e-06	0.013801596368090946
4.87250e-06	0.01383369484177786
4.87275e-06	0.013865793315464775
4.87300e-06	0.0138978917891518
4.87325e-06	0.013929990262838714
4.87350e-06	0.01396208873652563
4.87375e-06	0.013994187210212655
4.87400e-06	0.01402628568389957
4.87425e-06	0.014058384157586484
4.87450e-06	0.014086737345234487
4.87475e-06	0.014110406467315545
4.87500e-06	0.014134075589396604
4.87525e-06	0.014157744711477741
4.87550e-06	0.0141814138335588
4.87575e-06	0.014205082955639938
4.87600e-06	0.014228752077720997
4.87625e-06	0.014252421199802055
4.87650e-06	0.014276090321883192
4.87675e-06	0.014299759443964251
4.87700e-06	0.014303529841770374
4.87725e-06	0.014306126834769698
4.87750e-06	0.014308723827769014
4.87775e-06	0.014311320820768329
4.87800e-06	0.014313917813767653
4.87825e-06	0.014316514806766968
4.87850e-06	0.014319111799766283
4.87875e-06	0.014321708792765607
4.87900e-06	0.014324305785764923
4.87925e-06	0.014326902778764238
4.87950e-06	0.014329499771763564
4.87975e-06	0.014332096764762879
4.88000e-06	0.014317088106517958
4.88025e-06	0.014301041263336905
4.88050e-06	0.01428499442015585
4.88075e-06	0.014268947576974743
4.88100e-06	0.014252900733793688
4.88125e-06	0.014236853890612635
4.88150e-06	0.014220807047431526
4.88175e-06	0.014204760204250473
4.88200e-06	0.01418871336106942
4.88225e-06	0.01417266651788831
4.88250e-06	0.014156619674707258
4.88275e-06	0.014140572831526203
4.88300e-06	0.01411984141817189
4.88325e-06	0.014098833761120805
4.88350e-06	0.014077826104069718
4.88375e-06	0.01405681844701856
4.88400e-06	0.014035810789967474
4.88425e-06	0.014014803132916316
4.88450e-06	0.01399379547586523
4.88475e-06	0.013972787818814144
4.88500e-06	0.013951780161762985
4.88525e-06	0.0139307725047119
4.88550e-06	0.013917177214970603
4.88575e-06	0.013904019023975103
4.88600e-06	0.013890860832979648
4.88625e-06	0.013877702641984194
4.88650e-06	0.013864544450988696
4.88675e-06	0.01385138625999324
4.88700e-06	0.013838228068997786
4.88725e-06	0.013825069878002286
4.88750e-06	0.013811911687006831
4.88775e-06	0.013798753496011376
4.88800e-06	0.013799434443895246
4.88825e-06	0.01380093146982728
4.88850e-06	0.013802428495759321
4.88875e-06	0.013803925521691357
4.88900e-06	0.013805422547623392
4.88925e-06	0.013806919573555431
4.88950e-06	0.013808416599487467
4.88975e-06	0.013809913625419503
4.89000e-06	0.013811410651351544
4.89025e-06	0.01381290767728358
4.89050e-06	0.013814404703215613
4.89075e-06	0.013815901729147654
4.89100e-06	0.01381739875507969
4.89125e-06	0.013818895781011725
4.89150e-06	0.013820392806943764
4.89175e-06	0.01382539469593974
4.89200e-06	0.013834779963993439
4.89225e-06	0.01384416523204717
4.89250e-06	0.01385355050010087
4.89275e-06	0.013862935768154602
4.89300e-06	0.013872321036208302
4.89325e-06	0.013881706304262002
4.89350e-06	0.013891091572315734
4.89375e-06	0.013900476840369434
4.89400e-06	0.013909862108423134
4.89425e-06	0.013919247376476864
4.89450e-06	0.013928632644530564
4.89475e-06	0.013938017912584264
4.89500e-06	0.013947403180637996
4.89525e-06	0.013956788448691696
4.89550e-06	0.013966173716745396
4.89575e-06	0.013968114798705349
4.89600e-06	0.013969616905602882
4.89625e-06	0.013971119012500414
4.89650e-06	0.013972621119397953
4.89675e-06	0.013974123226295486
4.89700e-06	0.013975625333193022
4.89725e-06	0.013977127440090555
4.89750e-06	0.013978629546988088
4.89775e-06	0.013964030248642786
4.89800e-06	0.013948481469013615
4.89825e-06	0.013932932689384444
4.89850e-06	0.013917383909755221
4.89875e-06	0.01390183513012605
4.89900e-06	0.01388628635049688
4.89925e-06	0.013870737570867656
4.89950e-06	0.013855188791238485
4.89975e-06	0.013822014329289915
4.90000e-06	0.013787800501197527
4.90025e-06	0.013753586673105255
4.90050e-06	0.013719372845012984
4.90075e-06	0.013685159016920596
4.90100e-06	0.013650945188828324
4.90125e-06	0.013616731360735938
4.90150e-06	0.013582517532643666
4.90175e-06	0.013548303704551394
4.90200e-06	0.013514089876459006
4.90225e-06	0.013479876048366734
4.90250e-06	0.013439422119486191
4.90275e-06	0.013398600219064132
4.90300e-06	0.013357778318642209
4.90325e-06	0.013316956418220284
4.90350e-06	0.013276134517798225
4.90375e-06	0.013235312617376302
4.90400e-06	0.013194490716954378
4.90425e-06	0.013153668816532318
4.90450e-06	0.013112846916110393
4.90475e-06	0.01307202501568847
4.90500e-06	0.013031203115266411
4.90525e-06	0.013002323644227728
4.90550e-06	0.012974148404465969
4.90575e-06	0.012945973164704305
4.90600e-06	0.012917797924942642
4.90625e-06	0.01288962268518088
4.90650e-06	0.012861447445419217
4.90675e-06	0.012833272205657553
4.90700e-06	0.012814373875291388
4.90725e-06	0.012807077770065504
4.90750e-06	0.012799781664839622
4.90775e-06	0.012792485559613716
4.90800e-06	0.012785189454387834
4.90825e-06	0.01277789334916195
4.90850e-06	0.012770597243936043
4.90875e-06	0.012763301138710161
4.90900e-06	0.012780141327926892
4.90925e-06	0.01279840480656888
4.90950e-06	0.012816668285210808
4.90975e-06	0.012834931763852798
4.91000e-06	0.012853195242494725
4.91025e-06	0.012871458721136653
4.91050e-06	0.01288972219977864
4.91075e-06	0.012907985678420568
4.91100e-06	0.012926249157062496
4.91125e-06	0.012944512635704486
4.91150e-06	0.012962776114346413
4.91175e-06	0.012987723333744018
4.91200e-06	0.013021029615595812
4.91225e-06	0.013054335897447492
4.91250e-06	0.013087642179299173
4.91275e-06	0.013120948461150967
4.91300e-06	0.013154254743002646
4.91325e-06	0.013187561024854327
4.91350e-06	0.013220867306706121
4.91375e-06	0.013254173588557802
4.91400e-06	0.013287479870409595
4.91425e-06	0.013320786152261276
4.91450e-06	0.013354092434112957
4.91475e-06	0.013380000597845769
4.91500e-06	0.013405472503092146
4.91525e-06	0.013430944408338523
4.91550e-06	0.013456416313584987
4.91575e-06	0.013481888218831364
4.91600e-06	0.01350736012407774
4.91625e-06	0.013532832029324204
4.91650e-06	0.013558303934570581
4.91675e-06	0.013564297411456663
4.91700e-06	0.013569142267905152
4.91725e-06	0.013573987124353624
4.91750e-06	0.013578831980802095
4.91775e-06	0.013583676837250582
4.91800e-06	0.013588521693699054
4.91825e-06	0.013593366550147543
4.91850e-06	0.013598211406596014
4.91875e-06	0.013578699167305808
4.91900e-06	0.013557750618194048
4.91925e-06	0.01353680206908236
4.91950e-06	0.013515853519970674
4.91975e-06	0.013494904970858914
4.92000e-06	0.013473956421747228
4.92025e-06	0.01345300787263554
4.92050e-06	0.013432059323523782
4.92075e-06	0.013411110774412094
4.92100e-06	0.013390162225300406
4.92125e-06	0.01336150473155259
4.92150e-06	0.013323205997665379
4.92175e-06	0.013284907263778166
4.92200e-06	0.013246608529890824
4.92225e-06	0.013208309796003612
4.92250e-06	0.013170011062116271
4.92275e-06	0.013131712328229059
4.92300e-06	0.013093413594341846
4.92325e-06	0.013055114860454504
4.92350e-06	0.013016816126567292
4.92375e-06	0.01297851739268008
4.92400e-06	0.012941760430590405
4.92425e-06	0.01290509438500413
4.92450e-06	0.012868428339417853
4.92475e-06	0.012831762293831452
4.92500e-06	0.012795096248245175
4.92525e-06	0.0127584302026589
4.92550e-06	0.012721764157072499
4.92575e-06	0.012691296897313119
4.92600e-06	0.01266858218807094
4.92625e-06	0.012645867478828683
4.92650e-06	0.012623152769586504
4.92675e-06	0.012600438060344247
4.92700e-06	0.012577723351102067
4.92725e-06	0.012555008641859888
4.92750e-06	0.01253229393261763
4.92775e-06	0.012530525670118064
4.92800e-06	0.012529992595404393
4.92825e-06	0.012529459520690721
4.92850e-06	0.012528926445977051
4.92875e-06	0.01252839337126338
4.92900e-06	0.012527860296549708
4.92925e-06	0.012527327221836039
4.92950e-06	0.012526794147122367
4.92975e-06	0.012526261072408696
4.93000e-06	0.012525727997695026
4.93025e-06	0.012525194922981354
4.93050e-06	0.012524661848267683
4.93075e-06	0.012524128773554013
4.93100e-06	0.012540097445213649
4.93125e-06	0.012557039205808734
4.93150e-06	0.012573980966403763
4.93175e-06	0.012590922726998847
4.93200e-06	0.012607864487593877
4.93225e-06	0.012624806248188904
4.93250e-06	0.01264174800878399
4.93275e-06	0.012658689769379018
4.93300e-06	0.012675631529974047
4.93325e-06	0.012692573290569132
4.93350e-06	0.01270951505116416
4.93375e-06	0.012726456811759188
4.93400e-06	0.012743398572354275
4.93425e-06	0.012758683711180942
4.93450e-06	0.012773871160934225
4.93475e-06	0.012789058610687562
4.93500e-06	0.012804246060440847
4.93525e-06	0.01281943351019413
4.93550e-06	0.012834620959947467
4.93575e-06	0.012849808409700752
4.93600e-06	0.012864995859454087
4.93625e-06	0.012880183309207371
4.93650e-06	0.012895370758960656
4.93675e-06	0.012898400265899003
4.93700e-06	0.01290071283298403
4.93725e-06	0.012903025400069058
4.93750e-06	0.012905337967154094
4.93775e-06	0.012907650534239121
4.93800e-06	0.012909963101324149
4.93825e-06	0.012912275668409185
4.93850e-06	0.012914588235494212
4.93875e-06	0.01291690080257924
4.93900e-06	0.012919213369664275
4.93925e-06	0.012907871325959474
4.93950e-06	0.012895724085618765
4.93975e-06	0.012883576845278013
4.94000e-06	0.012871429604937304
4.94025e-06	0.012859282364596552
4.94050e-06	0.012847135124255843
4.94075e-06	0.012834987883915133
4.94100e-06	0.012822840643574383
4.94125e-06	0.012810693403233674
4.94150e-06	0.012798546162892964
4.94175e-06	0.012786398922552213
4.94200e-06	0.012774251682211503
4.94225e-06	0.012762104441870793
4.94250e-06	0.012749957201530042
4.94275e-06	0.01273362717837543
4.94300e-06	0.012717050501346808
4.94325e-06	0.01270047382431813
4.94350e-06	0.012683897147289508
4.94375e-06	0.012667320470260885
4.94400e-06	0.012650743793232208
4.94425e-06	0.012634167116203585
4.94450e-06	0.012617590439174908
4.94475e-06	0.012601013762146285
4.94500e-06	0.012584437085117663
4.94525e-06	0.012567860408088986
4.94550e-06	0.012551283731060363
4.94575e-06	0.012534707054031742
4.94600e-06	0.012518130377003063
4.94625e-06	0.012513654569911534
4.94650e-06	0.012509892337150944
4.94675e-06	0.012506130104390343
4.94700e-06	0.012502367871629755
4.94725e-06	0.012498605638869167
4.94750e-06	0.012494843406108565
4.94775e-06	0.012491081173347978
4.94800e-06	0.012487318940587388
4.94825e-06	0.012483556707826788
4.94850e-06	0.012497486704438081
4.94875e-06	0.01251245999139137
4.94900e-06	0.012527433278344607
4.94925e-06	0.012542406565297844
4.94950e-06	0.012557379852251133
4.94975e-06	0.01257235313920437
4.95000e-06	0.012587326426157607
4.95025e-06	0.012602299713110896
4.95050e-06	0.012617273000064133
4.95075e-06	0.012646688240809079
4.95100e-06	0.012676955106897099
4.95125e-06	0.012707221972985017
4.95150e-06	0.012737488839072934
4.95175e-06	0.012767755705160954
