Time(s)	Current(A)
6.55000e-06	-0.0036580633739262806
6.55025e-06	-0.003716393100968895
6.55050e-06	-0.003769909068734683
6.55075e-06	-0.003819489039427793
6.55100e-06	-0.003866807977201593
6.55125e-06	-0.003912584706718086
6.55150e-06	-0.003956586316099896
6.55175e-06	-0.003998476216501376
6.55200e-06	-0.004037917209946451
6.55225e-06	-0.004074571706803003
6.55250e-06	-0.004108259903719104
6.55275e-06	-0.004139528103225077
6.55300e-06	-0.004169422383142973
6.55325e-06	-0.004198388576129063
6.55350e-06	-0.004226276998942452
6.55375e-06	-0.004252873545313668
6.55400e-06	-0.004277962614066504
6.55425e-06	-0.0043013290548853415
6.55450e-06	-0.004322856470646358
6.55475e-06	-0.00434288346761052
6.55500e-06	-0.004362061050448893
6.55525e-06	-0.004380665408749086
6.55550e-06	-0.004398598516892734
6.55575e-06	-0.004415722074621392
6.55600e-06	-0.004431369117307038
6.55625e-06	-0.004446968537601204
6.55650e-06	-0.0044609108211081635
6.55675e-06	-0.0044738807519059615
6.55700e-06	-0.0044862989024678146
6.55725e-06	-0.00449833518228146
6.55750e-06	-0.004509923055336546
6.55775e-06	-0.004520667694432485
6.55800e-06	-0.004531385121790553
6.55825e-06	-0.004540722916834872
6.55850e-06	-0.004550015420653773
6.55875e-06	-0.004558125768941086
6.55900e-06	-0.0045661973088646345
6.55925e-06	-0.0045736351647303886
6.55950e-06	-0.004581052217714626
6.55975e-06	-0.004587916065192676
6.56000e-06	-0.004594314949286265
6.56025e-06	-0.0046001928494933215
6.56050e-06	-0.004605546459494031
6.56075e-06	-0.0046106286674761
6.56100e-06	-0.004615852649320276
6.56125e-06	-0.004621398514659426
6.56150e-06	-0.004627223948698849
6.56175e-06	-0.004633333694570041
6.56200e-06	-0.004639452483885265
6.56225e-06	-0.004645741698368677
6.56250e-06	-0.004652036507650503
6.56275e-06	-0.004658735963991693
6.56300e-06	-0.004665448704278877
6.56325e-06	-0.004673058881860347
6.56350e-06	-0.004680698520939944
6.56375e-06	-0.004689051646338635
6.56400e-06	-0.00469742819440537
6.56425e-06	-0.004706258984157137
6.56450e-06	-0.004715104685970835
6.56475e-06	-0.0047244413745785455
6.56500e-06	-0.0047337941815341535
6.56525e-06	-0.004743836804646609
6.56550e-06	-0.004753902073371766
6.56575e-06	-0.004764350573295225
6.56600e-06	-0.004774974865519032
6.56625e-06	-0.004785696942072224
6.56650e-06	-0.004796458572520426
6.56675e-06	-0.004807265135296596
6.56700e-06	-0.0048181610515205305
6.56725e-06	-0.0048291333441679895
6.56750e-06	-0.004840114361430524
6.56775e-06	-0.004851030211174029
6.56800e-06	-0.004861807754974216
6.56825e-06	-0.00487237343314878
6.56850e-06	-0.004882662688419028
6.56875e-06	-0.004892649582647067
6.56900e-06	-0.004902334233097535
6.56925e-06	-0.0049116801496936775
6.56950e-06	-0.0049206162502138965
6.56975e-06	-0.004929068553717759
6.57000e-06	-0.00493696302006061
6.57025e-06	-0.004944224256517013
6.57050e-06	-0.004950724526171392
6.57075e-06	-0.004956106239907863
6.57100e-06	-0.004959896563681382
6.57125e-06	-0.004961886486113391
6.57150e-06	-0.004962093538342998
6.57175e-06	-0.004959735811461122
6.57200e-06	-0.004957295746315621
6.57225e-06	-0.004951627747330027
6.57250e-06	-0.004945853780198055
6.57275e-06	-0.0049360764897967615
6.57300e-06	-0.00492616777639639
6.57325e-06	-0.004913965391713233
6.57350e-06	-0.004899157921570352
6.57375e-06	-0.00488435045142752
6.57400e-06	-0.0048650293293173285
6.57425e-06	-0.004845560030894925
6.57450e-06	-0.0048260907324725886
6.57475e-06	-0.004802203003764153
6.57500e-06	-0.004778170224726119
6.57525e-06	-0.004754137445688166
6.57550e-06	-0.004726793098236701
6.57575e-06	-0.004699340037043473
6.57600e-06	-0.004669927762706533
6.57625e-06	-0.00464045117038921
6.57650e-06	-0.004609577813069285
6.57675e-06	-0.004578658602083982
6.57700e-06	-0.00454669001390561
6.57725e-06	-0.004514686976274098
6.57750e-06	-0.004482207830236242
6.57775e-06	-0.004449713054285223
6.57800e-06	-0.004417466702322854
6.57825e-06	-0.0043852285057412515
6.57850e-06	-0.004353931029036289
6.57875e-06	-0.004322664434730655
6.57900e-06	-0.004292896725270575
6.57925e-06	-0.004263178221914495
6.57950e-06	-0.00423565743676567
6.57975e-06	-0.004208208799354579
6.58000e-06	-0.004182904678643215
6.58025e-06	-0.004159365291901993
6.58050e-06	-0.004137546554363236
6.58075e-06	-0.004116411427142485
6.58100e-06	-0.0040942865696092885
6.58125e-06	-0.004070444579942619
6.58150e-06	-0.004045048648923813
6.58175e-06	-0.004017856210367336
6.58200e-06	-0.003990606410325926
6.58225e-06	-0.003962110658029904
6.58250e-06	-0.0039329351340705344
6.58275e-06	-0.0039025763193360945
6.58300e-06	-0.00386783884087521
6.58325e-06	-0.0038329588702004963
6.58350e-06	-0.0037980788995256648
6.58375e-06	-0.0037583942992031466
6.58400e-06	-0.003718551970214996
6.58425e-06	-0.003675528709566008
6.58450e-06	-0.0036324010237807143
6.58475e-06	-0.0035892733379952746
6.58500e-06	-0.003541548981844752
6.58525e-06	-0.0034936737240149267
6.58550e-06	-0.0034457984661849395
6.58575e-06	-0.0033947061327320835
6.58600e-06	-0.0033435081875917813
6.58625e-06	-0.003291119069714921
6.58650e-06	-0.0032386908474535516
6.58675e-06	-0.003185520621963225
6.58700e-06	-0.0031323260376380888
6.58725e-06	-0.0030784517815114275
6.58750e-06	-0.003024555212795855
6.58775e-06	-0.002971106911867064
6.58800e-06	-0.0029176733268863973
6.58825e-06	-0.0028659361035333676
6.58850e-06	-0.0028142545691461963
6.58875e-06	-0.002765055358488555
6.58900e-06	-0.002715937638733812
6.58925e-06	-0.0026698456420049693
6.58950e-06	-0.002623852975149515
6.58975e-06	-0.0025820968164762034
6.59000e-06	-0.002540479735906936
6.59025e-06	-0.002502850964961531
6.59050e-06	-0.0024682075202767575
6.59075e-06	-0.002435546885442536
6.59100e-06	-0.0024032106676803453
6.59125e-06	-0.002370482925674405
6.59150e-06	-0.0023375973215982605
6.59175e-06	-0.002304706966383784
6.59200e-06	-0.0022725534295054907
6.59225e-06	-0.002240424081249797
6.59250e-06	-0.0022093962972590444
6.59275e-06	-0.0021786537762224726
6.59300e-06	-0.0021462611688300927
6.59325e-06	-0.0021138141231610234
6.59350e-06	-0.0020813670774920637
6.59375e-06	-0.0020472882559236676
6.59400e-06	-0.0020131558656405037
6.59425e-06	-0.0019788297745297156
6.59450e-06	-0.001944497324516108
6.59475e-06	-0.0019096919221176301
6.59500e-06	-0.0018748709934136366
6.59525e-06	-0.0018385753572439784
6.59550e-06	-0.001802231308676739
6.59575e-06	-0.0017651192760596865
6.59600e-06	-0.0017279820316973024
6.59625e-06	-0.001691078877725103
6.59650e-06	-0.0016541834085836
6.59675e-06	-0.0016172879394419717
6.59700e-06	-0.0015804756164418312
6.59725e-06	-0.001543666023002729
6.59750e-06	-0.0015071060934177072
6.59775e-06	-0.0014705543599164517
6.59800e-06	-0.0014351306223614525
6.59825e-06	-0.00139974391519326
6.59850e-06	-0.0013657208911584207
6.59875e-06	-0.0013327363307157288
6.59900e-06	-0.0013006996380695553
6.59925e-06	-0.001269677895742778
6.59950e-06	-0.0012398775174687648
6.59975e-06	-0.00121152003932579
6.60000e-06	-0.00118482689805722
6.60025e-06	-0.0011600199664653023
6.60050e-06	-0.0011374699160303621
6.60075e-06	-0.0011181778711545256
6.60100e-06	-0.0011034574247031454
6.60125e-06	-0.0010938890737047155
6.60150e-06	-0.0010894275993154753
6.60175e-06	-0.0010899635193377562
6.60200e-06	-0.0010953853263945778
6.60225e-06	-0.0011055818327527897
6.60250e-06	-0.0011205350771333411
6.60275e-06	-0.0011406222940628982
6.60300e-06	-0.0011664159642493235
6.60325e-06	-0.0011980294930961938
6.60350e-06	-0.0012351844377097168
6.60375e-06	-0.0012775618138514727
6.60400e-06	-0.0013248415995021838
6.60425e-06	-0.0013787920408276223
6.60450e-06	-0.0014329563647833966
6.60475e-06	-0.0014955182423730194
6.60500e-06	-0.001558355798843205
6.60525e-06	-0.0016274290341281741
6.60550e-06	-0.0017003843060185843
6.60575e-06	-0.0017767017586527772
6.60600e-06	-0.00185593065040646
6.60625e-06	-0.0019376207847282814
6.60650e-06	-0.0020213582778177796
6.60675e-06	-0.0021068839552688227
6.60700e-06	-0.002194016270930857
6.60725e-06	-0.002282392674223961
6.60750e-06	-0.0023714976138034596
6.60775e-06	-0.0024607987653840007
6.60800e-06	-0.002549764088743553
6.60825e-06	-0.002637861791291783
6.60850e-06	-0.002724582630849651
6.60875e-06	-0.0028095150402418887
6.60900e-06	-0.0028922945933925596
6.60925e-06	-0.0029724451414090665
6.60950e-06	-0.0030493934922668224
6.60975e-06	-0.003122556852649648
6.61000e-06	-0.00319135244005544
6.61025e-06	-0.0032551972539534937
6.61050e-06	-0.00331374498803416
6.61075e-06	-0.0033677362405103366
6.61100e-06	-0.003418679007506348
6.61125e-06	-0.003467218472578072
6.61150e-06	-0.0035131219612195043
6.61175e-06	-0.0035560626594862378
6.61200e-06	-0.003595711577678488
6.61225e-06	-0.0036317401769571604
6.61250e-06	-0.00366396713915036
6.61275e-06	-0.0036928927198402405
6.61300e-06	-0.003719497915848611
6.61325e-06	-0.0037442224151411387
6.61350e-06	-0.003766956753257881
6.61375e-06	-0.003787532558356668
6.61400e-06	-0.0038057791951778695
6.61425e-06	-0.003821527351440257
6.61450e-06	-0.003834699734753613
6.61475e-06	-0.0038456454299016455
6.61500e-06	-0.0038550150686867506
6.61525e-06	-0.0038631202110233223
6.61550e-06	-0.003869928015328632
6.61575e-06	-0.0038753690104084016
6.61600e-06	-0.0038793728814082618
6.61625e-06	-0.0038818686371834468
6.61650e-06	-0.0038828445525083484
6.61675e-06	-0.0038825550525926856
6.61700e-06	-0.003881443805587252
6.61725e-06	-0.0038797417402517604
6.61750e-06	-0.003877464534837055
6.61775e-06	-0.0038746043550789734
6.61800e-06	-0.0038711530445044552
6.61825e-06	-0.003867102228610841
6.61850e-06	-0.003862480496034123
6.61875e-06	-0.00385748288937219
6.61900e-06	-0.003852423718018189
6.61925e-06	-0.0038474832908300394
6.61950e-06	-0.0038428021151304228
6.61975e-06	-0.0038381293205276114
6.62000e-06	-0.003833771564512872
6.62025e-06	-0.0038296739273038435
6.62050e-06	-0.003825709829023586
6.62075e-06	-0.0038210812197102214
6.62100e-06	-0.003814591601541908
6.62125e-06	-0.0038057187779522656
6.62150e-06	-0.003794553495855608
6.62175e-06	-0.0037802961609104332
6.62200e-06	-0.003765939707007414
6.62225e-06	-0.0037488682854940314
6.62250e-06	-0.0037300043857723883
6.62275e-06	-0.003709017373499015
6.62300e-06	-0.0036825269274196426
6.62325e-06	-0.003655858039834241
6.62350e-06	-0.0036291891522488395
6.62375e-06	-0.003596323641615692
6.62400e-06	-0.0035632547052975327
6.62425e-06	-0.0035253384954668696
6.62450e-06	-0.0034872631570385215
6.62475e-06	-0.003449187818610302
6.62500e-06	-0.003406111500901663
6.62525e-06	-0.0033628710086693724
6.62550e-06	-0.003315982944434053
6.62575e-06	-0.0032689751359722677
6.62600e-06	-0.0032194198544766074
6.62625e-06	-0.0031697809433262115
6.62650e-06	-0.003118545085229146
6.62675e-06	-0.0030672568017989323
6.62700e-06	-0.003014651893772329
6.62725e-06	-0.0029620037629678503
6.62750e-06	-0.0029088543882990745
6.62775e-06	-0.00285568855855861
6.62800e-06	-0.002803244894196806
6.62825e-06	-0.0027508249374232864
6.62850e-06	-0.00270025677634338
6.62875e-06	-0.002649749406891984
6.62900e-06	-0.002601803487141746
6.62925e-06	-0.0025539416558790383
6.62950e-06	-0.0025086222254723026
6.62975e-06	-0.002465513867650131
6.63000e-06	-0.0024249282611011613
6.63025e-06	-0.002387202282164526
6.63050e-06	-0.0023526978595248115
6.63075e-06	-0.0023218557421450714
6.63100e-06	-0.002295082719891827
6.63125e-06	-0.00227256571653332
6.63150e-06	-0.0022564454939114726
6.63175e-06	-0.0022405308209257997
6.63200e-06	-0.00223306076011177
6.63225e-06	-0.0022258679230373465
6.63250e-06	-0.0022272919267437804
6.63275e-06	-0.002228998808192407
6.63300e-06	-0.0022373617392668185
6.63325e-06	-0.0022503377129949815
6.63350e-06	-0.002267701449112342
6.63375e-06	-0.0022892906390444574
6.63400e-06	-0.0023149434432922743
6.63425e-06	-0.0023444975936982794
6.63450e-06	-0.0023778007262290936
6.63475e-06	-0.0024147319118303025
6.63500e-06	-0.0024551561389027053
6.63525e-06	-0.0024988531382879628
6.63550e-06	-0.0025455450787108085
6.63575e-06	-0.002594950527127586
6.63600e-06	-0.0026467864132789735
6.63625e-06	-0.002700770516822913
6.63650e-06	-0.0027566267336326363
6.63675e-06	-0.002814098320954961
6.63700e-06	-0.002872920373307499
6.63725e-06	-0.002932773593359321
6.63750e-06	-0.0029933035439951533
6.63775e-06	-0.0030541528893814015
6.63800e-06	-0.0031149640090501465
6.63825e-06	-0.003175379500562439
6.63850e-06	-0.003235045575762344
6.63875e-06	-0.0032936207381286517
6.63900e-06	-0.0033507584804452067
6.63925e-06	-0.0034060785287964215
6.63950e-06	-0.003459178090727082
6.63975e-06	-0.003509652543580785
6.64000e-06	-0.003557098129419674
6.64025e-06	-0.0036011097673266214
6.64050e-06	-0.0036412945052081416
6.64075e-06	-0.0036773441014628064
6.64100e-06	-0.0037090969067003457
6.64125e-06	-0.0037343136950790043
6.64150e-06	-0.0037593204046994454
6.64175e-06	-0.0037755485274298356
6.64200e-06	-0.003791488462540345
6.64225e-06	-0.0037960470697767095
6.64250e-06	-0.003800232045375959
6.64275e-06	-0.0038044170209752077
6.64300e-06	-0.003799442019498649
6.64325e-06	-0.003789744272774629
6.64350e-06	-0.0037756042084293546
6.64375e-06	-0.0037571503637791135
6.64400e-06	-0.0037325484413130764
6.64425e-06	-0.0037077491837961313
6.64450e-06	-0.0036753745726371516
6.64475e-06	-0.003642751274170946
6.64500e-06	-0.0036033101799697108
6.64525e-06	-0.0035636452679321594
6.64550e-06	-0.003518141265011414
6.64575e-06	-0.0034724455736417853
6.64600e-06	-0.0034219048254887628
6.64625e-06	-0.003371205021510558
6.64650e-06	-0.0033166698622413963
6.64675e-06	-0.0032620087941073865
6.64700e-06	-0.003204669841616881
6.64725e-06	-0.0031472429782667126
6.64750e-06	-0.003088615812260268
6.64775e-06	-0.0030295844962193075
6.64800e-06	-0.002970502657575607
6.64825e-06	-0.0029117067514107023
6.64850e-06	-0.0028535354723054425
6.64875e-06	-0.002796340663793512
6.64900e-06	-0.002740496239929764
6.64925e-06	-0.002686388998445958
6.64950e-06	-0.0026344059112727476
6.64975e-06	-0.002584934168369812
6.65000e-06	-0.002538360741667275
6.65025e-06	-0.002496836360928448
6.65050e-06	-0.002455474695575269
6.65075e-06	-0.0024213155224512475
6.65100e-06	-0.0023873927961628096
6.65125e-06	-0.0023606263489297412
6.65150e-06	-0.0023340948314240053
6.65175e-06	-0.0023150422961858443
6.65200e-06	-0.002296235284529381
6.65225e-06	-0.0022872803579791234
6.65250e-06	-0.002278648860357587
6.65275e-06	-0.002270017362736022
6.65300e-06	-0.002269131193064933
6.65325e-06	-0.0022721206000931317
6.65350e-06	-0.002278771523470272
6.65375e-06	-0.002289008341054603
6.65400e-06	-0.002302755615717591
6.65425e-06	-0.0023199381357608684
6.65450e-06	-0.0023404651422083743
6.65475e-06	-0.0023641626325950054
6.65500e-06	-0.0023907731844805295
6.65525e-06	-0.002420060621628187
6.65550e-06	-0.0024518326094096197
6.65575e-06	-0.0024859020590091313
6.65600e-06	-0.0025220824582798764
6.65625e-06	-0.002560186633586047
6.65650e-06	-0.002600018597315727
6.65675e-06	-0.0026413295480188542
6.65700e-06	-0.0026838191398673326
6.65725e-06	-0.0027271993681832955
6.65750e-06	-0.002771210415026328
6.65775e-06	-0.0028155956270220052
6.65800e-06	-0.002860098650230836
6.65825e-06	-0.0029044631381143077
6.65850e-06	-0.002948426432090637
6.65875e-06	-0.0029916936552862624
6.65900e-06	-0.0030339368688766756
6.65925e-06	-0.003074836551227434
6.65950e-06	-0.0031140903987845604
6.65975e-06	-0.003151398691905073
6.66000e-06	-0.003186461326690475
6.66025e-06	-0.0032189781844408497
6.66050e-06	-0.003248596395809339
6.66075e-06	-0.003274755767459285
6.66100e-06	-0.0032968499065027723
6.66125e-06	-0.00331460476153279
6.66150e-06	-0.003327998895007014
6.66175e-06	-0.0033370354845768248
6.66200e-06	-0.003341718480962654
6.66225e-06	-0.00334205161685528
6.66250e-06	-0.0033380052538877557
6.66275e-06	-0.003327130018692625
6.66300e-06	-0.0033160351728612307
6.66325e-06	-0.003298093788954437
6.66350e-06	-0.0032755493399173013
6.66375e-06	-0.003246670170550498
6.66400e-06	-0.0032175877605129803
6.66425e-06	-0.003180866876399817
6.66450e-06	-0.0031438952328327317
6.66475e-06	-0.0030997958271195684
6.66500e-06	-0.003055462427845963
6.66525e-06	-0.0030046028266929223
6.66550e-06	-0.0029535289802855146
6.66575e-06	-0.002897082345190969
6.66600e-06	-0.00284045932963821
6.66625e-06	-0.0027796705909580153
6.66650e-06	-0.0027187450979411763
6.66675e-06	-0.0026547163339372907
6.66700e-06	-0.002590585694279695
6.66725e-06	-0.002524470818734762
6.66750e-06	-0.0024582908037519423
6.66775e-06	-0.0023915334622399225
6.66800e-06	-0.002324872813628594
6.66825e-06	-0.0022587073991420688
6.66850e-06	-0.0021934165556885435
6.66875e-06	-0.002129348447630339
6.66900e-06	-0.0020668432371233015
6.66925e-06	-0.0020062931566940437
6.66950e-06	-0.001948128450040842
6.66975e-06	-0.0018927835956525643
6.67000e-06	-0.0018406928337808006
6.67025e-06	-0.0017922905062908274
6.67050e-06	-0.0017479292403309108
6.67075e-06	-0.001709312180992069
6.67100e-06	-0.0016708794669283947
6.67125e-06	-0.0016392844428081948
6.67150e-06	-0.0016079138896201689
6.67175e-06	-0.0015837914782608124
6.67200e-06	-0.0015599070123427866
6.67225e-06	-0.0015438322346743524
6.67250e-06	-0.0015280138371598303
6.67275e-06	-0.0015180642873046562
6.67300e-06	-0.0015118178005450091
6.67325e-06	-0.0015089922620223335
6.67350e-06	-0.0015095424035082368
6.67375e-06	-0.0015134421621997825
6.67400e-06	-0.0015206662648713594
6.67425e-06	-0.0015311891112529175
6.67450e-06	-0.0015449530788970902
6.67475e-06	-0.001561745187566819
6.67500e-06	-0.001581221488644013
6.67525e-06	-0.0016031261012342064
6.67550e-06	-0.0016273103199724121
6.67575e-06	-0.0016536373121662114
6.67600e-06	-0.0016819708607883504
6.67625e-06	-0.0017121745344822776
6.67650e-06	-0.0017440920566403385
6.67675e-06	-0.001777469451743545
6.67700e-06	-0.0018119709959504109
6.67725e-06	-0.001847316096445364
6.67750e-06	-0.0018832912042518052
6.67775e-06	-0.001919690544898339
6.67800e-06	-0.0019563085289263735
6.67825e-06	-0.001992939116017574
6.67850e-06	-0.0020293643032558706
6.67875e-06	-0.0020653048293661166
6.67900e-06	-0.0021004302911654445
6.67925e-06	-0.0021344445155443256
6.67950e-06	-0.0021670937597887394
6.67975e-06	-0.0021981290169328207
6.68000e-06	-0.0022273009401580536
6.68025e-06	-0.00225323639871317
6.68050e-06	-0.0022790675616427927
6.68075e-06	-0.002299536343241679
6.68100e-06	-0.0023198290860404047
6.68125e-06	-0.0023401218288391992
6.68150e-06	-0.002355346639611428
6.68175e-06	-0.002370405077905064
6.68200e-06	-0.0023799220306403007
6.68225e-06	-0.002389257064856744
6.68250e-06	-0.00239859209907322
6.68275e-06	-0.00240336833518183
6.68300e-06	-0.0024059394410972726
6.68325e-06	-0.0024065027919935446
6.68350e-06	-0.0024050874177129564
6.68375e-06	-0.0024017115052335186
6.68400e-06	-0.0023963934333750088
6.68425e-06	-0.002389151370328188
6.68450e-06	-0.002380021285862474
6.68475e-06	-0.0023691238198224347
6.68500e-06	-0.0023566527066457045
6.68525e-06	-0.0023427550713988722
6.68550e-06	-0.002327520301135096
6.68575e-06	-0.002311031431574154
6.68600e-06	-0.0022928447456723846
6.68625e-06	-0.00227460362889526
6.68650e-06	-0.00225487580049815
6.68675e-06	-0.0022342819814528568
6.68700e-06	-0.0022130323854718825
6.68725e-06	-0.002191290091356381
6.68750e-06	-0.0021691822075661626
6.68775e-06	-0.0021468319903181913
6.68800e-06	-0.0021243621561626534
6.68825e-06	-0.0021018956322787943
6.68850e-06	-0.0020795623415802364
6.68875e-06	-0.0020575253491937535
6.68900e-06	-0.0020359763031972933
6.68925e-06	-0.0020150888184034986
6.68950e-06	-0.001995013570398969
6.68975e-06	-0.0019758984732471023
6.69000e-06	-0.001957892050697102
6.69025e-06	-0.001941141834264026
6.69050e-06	-0.0019259531232423144
6.69075e-06	-0.0019133016415699678
6.69100e-06	-0.0019045162216962247
6.69125e-06	-0.001900182620119216
6.69150e-06	-0.0019002387534320362
6.69175e-06	-0.0019045551937072376
6.69200e-06	-0.001913001311852924
6.69225e-06	-0.0019254461517328309
6.69250e-06	-0.0019418572590709868
6.69275e-06	-0.0019626224593375383
6.69300e-06	-0.001990824083926131
6.69325e-06	-0.0020192652783711223
6.69350e-06	-0.0020548611738620717
6.69375e-06	-0.0020950770139066682
6.69400e-06	-0.0021414225421759045
6.69425e-06	-0.00218796457293506
6.69450e-06	-0.0022417553090989892
