Time(s)	Current(A)
4.50000e-06	0.00045984449191790577
4.50025e-06	0.0005103570123812331
4.50050e-06	0.0005618910340037344
4.50075e-06	0.0006164012055044539
4.50100e-06	0.000672008468270631
4.50125e-06	0.0007302474344322009
4.50150e-06	0.0007894565193465773
4.50175e-06	0.0008486656042611541
4.50200e-06	0.0009092952413288756
4.50225e-06	0.0009704485332604354
4.50250e-06	0.0010316018251922024
4.50275e-06	0.0010927551171237622
4.50300e-06	0.0011530056460454215
4.50325e-06	0.0012102450936625055
4.50350e-06	0.0012674845412793956
4.50375e-06	0.0013247239888962857
4.50400e-06	0.0013819634365133697
4.50425e-06	0.0014329124689459226
4.50450e-06	0.00148154268013796
4.50475e-06	0.0015301728913298329
4.50500e-06	0.0015710556492164662
4.50525e-06	0.0016090824812607196
4.50550e-06	0.0016471093133048442
4.50575e-06	0.0016772919505948299
4.50600e-06	0.0017045830004652743
4.50625e-06	0.0017318740503356263
4.50650e-06	0.00175088273360223
4.50675e-06	0.0017668383071710256
4.50700e-06	0.001782793880739767
4.50725e-06	0.0017902365470480054
4.50750e-06	0.0017945411199878926
4.50775e-06	0.0017988456929277654
4.50800e-06	0.0017955638309350873
4.50825e-06	0.0017894853989314096
4.50850e-06	0.0017834069669277527
4.50875e-06	0.0017701483460287773
4.50900e-06	0.0017542429086586358
4.50925e-06	0.0017383374712884945
4.50950e-06	0.0017162705789789357
4.50975e-06	0.0016919324037467241
4.51000e-06	0.0016675942285145123
4.51025e-06	0.0016365519587709814
4.51050e-06	0.0016030383741311043
4.51075e-06	0.0015695247894912273
4.51100e-06	0.0015360112048512368
4.51125e-06	0.0015024976202113597
4.51150e-06	0.0014689840355714826
4.51175e-06	0.0014312372895344681
4.51200e-06	0.0013919300829757838
4.51225e-06	0.0013526228764170992
4.51250e-06	0.0013133156698582815
4.51275e-06	0.001274008463299597
4.51300e-06	0.0012347012567407792
4.51325e-06	0.0011971326516625907
4.51350e-06	0.001160204943237963
4.51375e-06	0.00112327723481321
4.51400e-06	0.0010863495263885824
4.51425e-06	0.0010494218179639544
4.51450e-06	0.0010193496560211054
4.51475e-06	0.0009918046383651667
4.51500e-06	0.0009642596207092278
4.51525e-06	0.0009367146030531955
4.51550e-06	0.0009091695853972567
4.51575e-06	0.0008886211817987617
4.51600e-06	0.0008706519239019348
4.51625e-06	0.0008570263556417763
4.51650e-06	0.000845001991673255
4.51675e-06	0.0008374630483839766
4.51700e-06	0.0008315775553736941
4.51725e-06	0.0008302718569912799
4.51750e-06	0.0008306543977388032
4.51775e-06	0.0008354929071785223
4.51800e-06	0.0008419740100791238
4.51825e-06	0.0008526631533558897
4.51850e-06	0.0008649034968502304
4.51875e-06	0.0008810987424864898
4.51900e-06	0.0008987518745768348
4.51925e-06	0.0009200770846729204
4.51950e-06	0.000942755924414272
4.51975e-06	0.0009693969885363552
4.52000e-06	0.0009974986382925881
4.52025e-06	0.0010256002880489163
4.52050e-06	0.0010585736837532846
4.52075e-06	0.0010933429399292143
4.52100e-06	0.001128112196105262
4.52125e-06	0.0011628814522811916
4.52150e-06	0.001197650708457239
4.52175e-06	0.0012332424826030834
4.52200e-06	0.0012715776882515047
4.52225e-06	0.0013099128939000559
4.52250e-06	0.0013482480995484771
4.52275e-06	0.0013865833051968984
4.52300e-06	0.0014249185108454496
4.52325e-06	0.0014603929758103054
4.52350e-06	0.0014948128925357125
4.52375e-06	0.001529232809261236
4.52400e-06	0.0015636527259866432
4.52425e-06	0.00159807264271205
4.52450e-06	0.0016324925594375739
4.52475e-06	0.0016607612567631827
4.52500e-06	0.0016867624442702459
4.52525e-06	0.0017127636317773973
4.52550e-06	0.0017387648192844604
4.52575e-06	0.0017647660067916116
4.52600e-06	0.0017907671942986748
4.52625e-06	0.0018175192479897566
4.52650e-06	0.0018445480917503386
4.52675e-06	0.001871576935510829
4.52700e-06	0.0018986057792713194
4.52725e-06	0.0019256346230319013
4.52750e-06	0.001952663466792392
4.52775e-06	0.0019796923105528824
4.52800e-06	0.0020067211543134643
4.52825e-06	0.0020337499980739547
4.52850e-06	0.002060778841834445
4.52875e-06	0.002087807685595027
4.52900e-06	0.0021148365293555175
4.52925e-06	0.002141865373116008
4.52950e-06	0.0021726288433459653
4.52975e-06	0.00220476900031654
4.53000e-06	0.0022369091572872228
4.53025e-06	0.0022690493142577973
4.53050e-06	0.002301189471228372
4.53075e-06	0.0023333296281990547
4.53100e-06	0.0023654697851696292
4.53125e-06	0.0023976099421402033
4.53150e-06	0.0024297500991108867
4.53175e-06	0.002461890256081461
4.53200e-06	0.0024940304130520352
4.53225e-06	0.0025261705700227186
4.53250e-06	0.0025583107269932927
4.53275e-06	0.0025884237889962393
4.53300e-06	0.0026177896076573395
4.53325e-06	0.00264715542631834
4.53350e-06	0.0026765212449793405
4.53375e-06	0.0027058870636404403
4.53400e-06	0.0027352528823014408
4.53425e-06	0.002762175238947691
4.53450e-06	0.002780947657343517
4.53475e-06	0.0027997200757393435
4.53500e-06	0.002818492494135233
4.53525e-06	0.0028372649125310593
4.53550e-06	0.0028560373309268854
4.53575e-06	0.002874809749322775
4.53600e-06	0.002880127577433072
4.53625e-06	0.0028804856709630116
4.53650e-06	0.0028808437644929526
4.53675e-06	0.0028714112377910732
4.53700e-06	0.0028583696173378743
4.53725e-06	0.0028453279968846316
4.53750e-06	0.0028213937202572438
4.53775e-06	0.002793444108911317
4.53800e-06	0.0027654944975652952
4.53825e-06	0.0027268368100076836
4.53850e-06	0.0026842318290172485
4.53875e-06	0.002641626848026958
4.53900e-06	0.0025899545394075974
4.53925e-06	0.0025349397627205837
4.53950e-06	0.0024799249860337565
4.53975e-06	0.002416508050062144
4.54000e-06	0.002349993845495241
4.54025e-06	0.002283479640928564
4.54050e-06	0.002209413348611533
4.54075e-06	0.002132563147608019
4.54100e-06	0.0020557129466047654
4.54125e-06	0.001978862745601512
4.54150e-06	0.0019020125445979984
4.54175e-06	0.0018212122303241205
4.54200e-06	0.0017389557949074816
4.54225e-06	0.001656699359490564
4.54250e-06	0.0015744429240739251
4.54275e-06	0.0014921864886570076
4.54300e-06	0.0014121197556742503
4.54325e-06	0.0013328602076484238
4.54350e-06	0.0012536006596223287
4.54375e-06	0.0011782747771196726
4.54400e-06	0.0011043989526645008
4.54425e-06	0.0010353437273880103
4.54450e-06	0.0009680655084667364
4.54475e-06	0.0009053809064063772
4.54500e-06	0.0008479385500173071
4.54525e-06	0.0007961339477742116
4.54550e-06	0.0007459253291426252
4.54575e-06	0.000698165223256201
4.54600e-06	0.000652709451441747
4.54625e-06	0.0006103478224659972
4.54650e-06	0.0005689363022511056
4.54675e-06	0.0005305769222952187
4.54700e-06	0.0004956717982158599
4.54725e-06	0.00046448095867423594
4.54750e-06	0.0004343428071869004
4.54775e-06	0.00040586670469649333
4.54800e-06	0.00037895665201245906
4.54825e-06	0.00035411020937821505
4.54850e-06	0.00032989492021938643
4.54875e-06	0.0003076738176654359
4.54900e-06	0.00028769145247008654
4.54925e-06	0.000269640718614871
4.54950e-06	0.0002530238049777116
4.54975e-06	0.00023736259739297864
4.55000e-06	0.00022253908694522706
4.55025e-06	0.0002086328694688274
4.55050e-06	0.00019575439512611108
4.55075e-06	0.00018401409840170744
4.55100e-06	0.00017351373767152662
4.55125e-06	0.00016419310877155996
4.55150e-06	0.00015572994493983885
4.55175e-06	0.0001478143488243406
4.55200e-06	0.00014036200317492638
4.55225e-06	0.00013362326805928845
4.55250e-06	0.00012710194366501767
4.55275e-06	0.00012125627656286795
4.55300e-06	0.00011616194347108263
4.55325e-06	0.00011181850956236337
4.55350e-06	0.0001076836265059546
4.55375e-06	0.00010384170300334848
4.55400e-06	0.00010010777250521973
4.55425e-06	9.654715950851434e-05
4.55450e-06	9.319174720202543e-05
4.55475e-06	9.00490457200424e-05
4.55500e-06	8.715653381014358e-05
4.55525e-06	8.475207737751658e-05
4.55550e-06	8.337275279861152e-05
4.55575e-06	8.347797328055146e-05
4.55600e-06	8.519461343464791e-05
4.55625e-06	8.84786749530457e-05
4.55650e-06	9.326025295758231e-05
4.55675e-06	9.946943277155036e-05
4.55700e-06	0.00010704321083437235
4.55725e-06	0.00011604412781597389
4.55750e-06	0.0001267221090409628
4.55775e-06	0.00013927841155937545
4.55800e-06	0.0001537059945676946
4.55825e-06	0.00016989075362940944
4.55850e-06	0.00018770239368925547
4.55875e-06	0.0002070105889201292
4.55900e-06	0.00022768939966672454
4.55925e-06	0.0002496914881183048
4.55950e-06	0.0002730868764072237
4.55975e-06	0.0002983925662388986
4.56000e-06	0.0003242613604212141
4.56025e-06	0.0003517941493456885
4.56050e-06	0.00037994033281325395
4.56075e-06	0.0004094696787057813
4.56100e-06	0.00043950889657211757
4.56125e-06	0.00046954811443855566
4.56150e-06	0.0005007574799547721
4.56175e-06	0.0005323981942996392
4.56200e-06	0.0005640389086446134
4.56225e-06	0.0005956796229894805
4.56250e-06	0.0006271194737056199
4.56275e-06	0.0006578893626382419
4.56300e-06	0.0006886592515707598
4.56325e-06	0.0007194291405032776
4.56350e-06	0.0007501990294358997
4.56375e-06	0.0007786788084040482
4.56400e-06	0.0008063143894194406
4.56425e-06	0.0008339499704347394
4.56450e-06	0.000858349036789636
4.56475e-06	0.0008815550342120521
4.56500e-06	0.0009047610316343897
4.56525e-06	0.0009244615833755517
4.56550e-06	0.0009428699307624808
4.56575e-06	0.0009612782781493476
4.56600e-06	0.0009746213563068695
4.56625e-06	0.00098609723595416
4.56650e-06	0.0009975731156014118
4.56675e-06	0.0010090489952486632
4.56700e-06	0.0010205248748959537
4.56725e-06	0.0010320007545432054
4.56750e-06	0.001043476634190457
4.56775e-06	0.0010549525138377476
4.56800e-06	0.0010664283934849993
4.56825e-06	0.0010715535552084316
4.56850e-06	0.0010743376664350299
4.56875e-06	0.0010771217776616283
4.56900e-06	0.0010799058888882362
4.56925e-06	0.0010826900001148347
4.56950e-06	0.0010854741113414332
4.56975e-06	0.001088258222568041
4.57000e-06	0.0010910423337946392
4.57025e-06	0.0010938264450212377
4.57050e-06	0.0010928813605243267
4.57075e-06	0.0010905615912113887
4.57100e-06	0.0010882418218984505
4.57125e-06	0.0010859220525855048
4.57150e-06	0.0010836022832725666
4.57175e-06	0.0010812825139596286
4.57200e-06	0.0010789627446466826
4.57225e-06	0.0010766429753337446
4.57250e-06	0.0010743232060207988
4.57275e-06	0.0010710191142027686
4.57300e-06	0.0010673521738506135
4.57325e-06	0.001063685233498446
4.57350e-06	0.001060018293146291
4.57375e-06	0.0010563513527941358
4.57400e-06	0.0010526844124419683
4.57425e-06	0.0010490174720898132
4.57450e-06	0.001045350531737658
4.57475e-06	0.0010416835913854906
4.57500e-06	0.0010379789222463055
4.57525e-06	0.0010342603452314022
4.57550e-06	0.0010305417682164866
4.57575e-06	0.0010225115620537152
4.57600e-06	0.0010128919699856193
4.57625e-06	0.0010032723779174906
4.57650e-06	0.0009897274136647185
4.57675e-06	0.000974735448519795
4.57700e-06	0.0009569836939594406
4.57725e-06	0.0009382146045940626
4.57750e-06	0.0009156893555196089
4.57775e-06	0.0008917794819576753
4.57800e-06	0.0008637095630611875
4.57825e-06	0.0008341061362507332
4.57850e-06	0.0008009981568877461
4.57875e-06	0.0007665983024028006
4.57900e-06	0.0007292965021600514
4.57925e-06	0.0006909249643479973
4.57950e-06	0.0006494395327958513
4.57975e-06	0.0006068062337783818
4.58000e-06	0.0005612183794610194
4.58025e-06	0.0005145413942400358
4.58050e-06	0.00046573265930560616
4.58075e-06	0.00041613810239282635
4.58100e-06	0.00036492799588934817
4.58125e-06	0.00031312235306783255
4.58150e-06	0.000261316710246317
4.58175e-06	0.0002082733609564686
4.58200e-06	0.00015477375878704928
4.58225e-06	0.00010127415661762996
4.58250e-06	4.7835910982450925e-05
4.58275e-06	-5.155334533754912e-06
4.58300e-06	-5.733309050337816e-05
4.58325e-06	-0.00010844171115162184
4.58350e-06	-0.00015832282658521544
4.58375e-06	-0.0002067973476221417
4.58400e-06	-0.00025358345680035106
4.58425e-06	-0.0002983459238621966
4.58450e-06	-0.00034074141371357163
4.58475e-06	-0.00038042667744602946
4.58500e-06	-0.00041707167786976296
4.58525e-06	-0.00045060152661543384
4.58550e-06	-0.00048137230715397975
4.58575e-06	-0.000509765525271703
4.58600e-06	-0.0005358459725659562
4.58625e-06	-0.000558540342982454
4.58650e-06	-0.0005802171669449338
4.58675e-06	-0.0005978608336644926
4.58700e-06	-0.0006140177669348874
4.58725e-06	-0.0006261620211309508
4.58750e-06	-0.0006368270906980265
4.58775e-06	-0.0006442417879303242
4.58800e-06	-0.0006504583079082216
4.58825e-06	-0.0006535429439789974
4.58850e-06	-0.0006554730809110575
4.58875e-06	-0.0006542058378202082
4.58900e-06	-0.000651759951908616
4.58925e-06	-0.0006463297184701318
4.58950e-06	-0.0006397993718883973
4.58975e-06	-0.0006309622648683449
4.59000e-06	-0.0006212748220701774
4.59025e-06	-0.000609079572693852
4.59050e-06	-0.0005959598763648147
4.59075e-06	-0.0005828401800357774
4.59100e-06	-0.0005671464438270722
4.59125e-06	-0.0005505038452365691
4.59150e-06	-0.0005338612466460659
4.59175e-06	-0.0005156038899943961
4.59200e-06	-0.0004967512888043949
4.59225e-06	-0.0004778986876143937
4.59250e-06	-0.00045904608642432853
4.59275e-06	-0.0004401220060906726
4.59300e-06	-0.00042095951378150025
4.59325e-06	-0.00040179702147226295
4.59350e-06	-0.0003826345291630906
4.59375e-06	-0.0003634720368538533
4.59400e-06	-0.00034554630944719694
4.59425e-06	-0.00032807648783298365
4.59450e-06	-0.00031198713508087363
4.59475e-06	-0.00029640666138033535
4.59500e-06	-0.00028259284971029986
4.59525e-06	-0.0002694302785883167
4.59550e-06	-0.00025781270342195947
4.59575e-06	-0.0002478603130008873
4.59600e-06	-0.00023942583064412608
4.59625e-06	-0.000232531197763437
4.59650e-06	-0.00022719719057430487
4.59675e-06	-0.00022344455731420558
4.59700e-06	-0.00022129419394966245
4.59725e-06	-0.00022076618337470887
4.59750e-06	-0.00022186827238068147
4.59775e-06	-0.00022458119540329008
4.59800e-06	-0.00022886366736888899
4.59825e-06	-0.0002346673560719349
4.59850e-06	-0.00024194317118931584
4.59875e-06	-0.00025064204645654096
4.59900e-06	-0.0002611940165687043
4.59925e-06	-0.00027228910978265735
4.59950e-06	-0.0002852055160069266
4.59975e-06	-0.00029879330864375324
4.60000e-06	-0.0003139598022178593
4.60025e-06	-0.00032970824867593196
4.60050e-06	-0.00034703536771794115
4.60075e-06	-0.00036494442919204586
4.60100e-06	-0.0003828534906662113
4.60125e-06	-0.0004017540811085452
4.60150e-06	-0.0004218157204785652
4.60175e-06	-0.0004421706193579387
4.60200e-06	-0.00046252551823724325
4.60225e-06	-0.00048288041711661673
4.60250e-06	-0.0005032353159959213
4.60275e-06	-0.0005233141402412546
4.60300e-06	-0.0005432911957313392
4.60325e-06	-0.0005632682512213561
4.60350e-06	-0.0005832453067113731
4.60375e-06	-0.0006032223622014577
4.60400e-06	-0.0006213856629612589
4.60425e-06	-0.0006388803634998743
4.60450e-06	-0.0006563750640385489
4.60475e-06	-0.0006713711019370478
4.60500e-06	-0.0006854460635918897
4.60525e-06	-0.0006995210252467793
4.60550e-06	-0.0007102161746779582
4.60575e-06	-0.0007196654317276678
4.60600e-06	-0.0007257277102579464
4.60625e-06	-0.0007305414547116597
4.60650e-06	-0.0007320074970504027
4.60675e-06	-0.0007322394836829733
4.60700e-06	-0.0007291416945725048
4.60725e-06	-0.000724816457912993
4.60750e-06	-0.0007168614605412089
4.60775e-06	-0.000707568432853391
4.60800e-06	-0.0006946410086891991
4.60825e-06	-0.0006803738453380209
4.60850e-06	-0.0006628089525575626
4.60875e-06	-0.0006440284253867515
4.60900e-06	-0.0006222734814309458
4.60925e-06	-0.0005994220850788931
4.60950e-06	-0.0005737204168520477
4.60975e-06	-0.0005469680594808962
4.61000e-06	-0.0005176745059800761
4.61025e-06	-0.00048744419721349685
4.61050e-06	-0.00045519562989237446
4.61075e-06	-0.0004222030765771372
4.61100e-06	-0.0003874115242962371
4.61125e-06	-0.00035195681117766405
4.61150e-06	-0.0003165020980589709
4.61175e-06	-0.0002797077377372548
4.61200e-06	-0.00024241954635820684
4.61225e-06	-0.00020513135497903255
4.61250e-06	-0.00016784316359998462
4.61275e-06	-0.00013055497222093672
4.61300e-06	-9.363375047486921e-05
4.61325e-06	-5.73272652364647e-05
4.61350e-06	-2.180269992358275e-05
4.61375e-06	1.2748554737946406e-05
4.61400e-06	4.610083762187898e-05
4.61425e-06	7.801188146590562e-05
4.61450e-06	0.00010823699609179414
4.61475e-06	0.00013653152602252687
4.61500e-06	0.00016264289696106326
4.61525e-06	0.0001861842067570767
4.61550e-06	0.00020659816373679702
4.61575e-06	0.00022345438584563666
4.61600e-06	0.00023660953092494632
4.61625e-06	0.00024605600378295103
4.61650e-06	0.00025180585340547597
4.61675e-06	0.0002538712032056898
4.61700e-06	0.0002522592173967492
4.61725e-06	0.0002468928627405115
4.61750e-06	0.00023758846864570588
4.61775e-06	0.0002242418579322134
4.61800e-06	0.00020692864749707822
4.61825e-06	0.00018580949439806868
4.61850e-06	0.0001610573733320265
4.61875e-06	0.00013284525228268628
4.61900e-06	0.00010134300657736057
4.61925e-06	6.666780007393902e-05
4.61950e-06	2.886994191051324e-05
4.61975e-06	-1.195043209960926e-05
4.62000e-06	-5.5580572773367106e-05
4.62025e-06	-0.00010175448237213474
4.62050e-06	-0.00015019845490238002
4.62075e-06	-0.00020063882592069062
4.62100e-06	-0.00025280385519215327
4.62125e-06	-0.0003069075653623758
4.62150e-06	-0.0003615619396155658
4.62175e-06	-0.0004178600415735127
4.62200e-06	-0.0004747640670823743
4.62225e-06	-0.0005316680925914287
4.62250e-06	-0.0005884418080655466
4.62275e-06	-0.0006447808866483971
4.62300e-06	-0.0007011199652314386
4.62325e-06	-0.0007574590438142892
4.62350e-06	-0.0008108912856950649
4.62375e-06	-0.0008632519870697745
4.62400e-06	-0.0009156126884444841
4.62425e-06	-0.0009639706414862842
4.62450e-06	-0.001010853070646462
4.62475e-06	-0.0010532539068192725
4.62500e-06	-0.0010940027037108317
4.62525e-06	-0.0011292374081324943
4.62550e-06	-0.0011624394653711625
4.62575e-06	-0.0011895412824338486
4.62600e-06	-0.0012143943820370545
4.62625e-06	-0.0012329291479045983
4.62650e-06	-0.0012491348009872325
4.62675e-06	-0.0012588368598923341
4.62700e-06	-0.001266141513883348
4.62725e-06	-0.0012667988650116627
4.62750e-06	-0.0012650058362248843
4.62775e-06	-0.001256701345220715
4.62800e-06	-0.0012459965489250656
4.62825e-06	-0.0012291466008310214
4.62850e-06	-0.0012100313796099566
4.62875e-06	-0.001185158029092857
4.62900e-06	-0.0011581620726607827
4.62925e-06	-0.0011258208676416036
4.62950e-06	-0.0010915092559706028
4.62975e-06	-0.0010524403722065611
4.63000e-06	-0.0010116178262086243
4.63025e-06	-0.0009667704163060269
4.63050e-06	-0.0009204393301100215
4.63075e-06	-0.000870165037504046
4.63100e-06	-0.0008184371698187876
4.63125e-06	-0.0007667093021335292
4.63150e-06	-0.0007117156207043967
4.63175e-06	-0.0006555180698913672
4.63200e-06	-0.0005993205190783378
4.63225e-06	-0.0005428777076709589
4.63250e-06	-0.00048561685256993763
4.63275e-06	-0.0004283559974687224
4.63300e-06	-0.0003710951423677012
4.63325e-06	-0.0003152321827742608
4.63350e-06	-0.00025988452617575867
4.63375e-06	-0.00020613135975727326
4.63400e-06	-0.00015439534487389297
4.63425e-06	-0.00010489281626515369
4.63450e-06	-5.8003172862044056e-05
4.63475e-06	-1.4105760995507354e-05
4.63500e-06	2.647593281091641e-05
4.63525e-06	6.445061617877399e-05
4.63550e-06	0.00010213645565690656
4.63575e-06	0.0001416216290636819
4.63600e-06	0.00018342743933395483
4.63625e-06	0.00022724332047163883
4.63650e-06	0.00027263067270667676
4.63675e-06	0.00031915094776315315
4.63700e-06	0.0003664006431665111
4.63725e-06	0.0004146227927175992
4.63750e-06	0.0004650685135782968
4.63775e-06	0.00051884474975171
4.63800e-06	0.0005771480879208169
4.63825e-06	0.0006367641996054075
4.63850e-06	0.0006999696260252313
4.63875e-06	0.0007644981732526139
4.63900e-06	0.0008314678755462766
4.63925e-06	0.0008993374551988307
4.63950e-06	0.0009705704305166779
4.63975e-06	0.001043043246617022
4.64000e-06	0.0011204508165257876
4.64025e-06	0.0011996774733426872
4.64050e-06	0.001278904130159587
4.64075e-06	0.0013581307869767552
4.64100e-06	0.001437357443793655
4.64125e-06	0.0015190976033671287
4.64150e-06	0.00160176430966095
4.64175e-06	0.0016844310159547713
4.64200e-06	0.0017670977222488727
4.64225e-06	0.001849764428542694
4.64250e-06	0.0019293952112439075
4.64275e-06	0.002007906868437501
4.64300e-06	0.002086418525630828
4.64325e-06	0.0021649301828241554
4.64350e-06	0.0022434418400177486
4.64375e-06	0.002318473570294482
4.64400e-06	0.0023818983309395482
4.64425e-06	0.00244532309158483
4.64450e-06	0.0025087478522298964
4.64475e-06	0.002572172612874963
4.64500e-06	0.0026355973735202446
