Time(s)	Current(A)
2.00000e-06	0.007762593542877856
2.00025e-06	0.007787763547763946
2.00050e-06	0.007812933552650078
2.00075e-06	0.007838103557536209
2.00100e-06	0.007869601576556575
2.00125e-06	0.007903493295877119
2.00150e-06	0.007937385015197662
2.00175e-06	0.007971276734518149
2.00200e-06	0.008005168453838692
2.00225e-06	0.008039060173159236
2.00250e-06	0.00807295189247978
2.00275e-06	0.008106843611800266
2.00300e-06	0.00814073533112081
2.00325e-06	0.008174627050441353
2.00350e-06	0.008208518769761839
2.00375e-06	0.008240424772863516
2.00400e-06	0.008265512492025819
2.00425e-06	0.008290600211188121
2.00450e-06	0.00831568793035038
2.00475e-06	0.008340775649512683
2.00500e-06	0.008365863368674986
2.00525e-06	0.008390951087837245
2.00550e-06	0.008416038806999548
2.00575e-06	0.008445153447096128
2.00600e-06	0.008475791352097719
2.00625e-06	0.008506429257099364
2.00650e-06	0.008537067162101007
2.00675e-06	0.008567705067102652
2.00700e-06	0.008598342972104243
2.00725e-06	0.008628980877105888
2.00750e-06	0.008662802837443005
2.00775e-06	0.008707557776596719
2.00800e-06	0.00875231271575051
2.00825e-06	0.0087970676549043
2.00850e-06	0.00884182259405809
2.00875e-06	0.008886577533211806
2.00900e-06	0.008931332472365596
2.00925e-06	0.008976087411519387
2.00950e-06	0.009020842350673101
2.00975e-06	0.009065597289826892
2.01000e-06	0.009110352228980682
2.01025e-06	0.009155107168134396
2.01050e-06	0.009200678161440271
2.01075e-06	0.00924905121118623
2.01100e-06	0.009297424260932186
2.01125e-06	0.00934579731067806
2.01150e-06	0.009394170360424017
2.01175e-06	0.009442543410169976
2.01200e-06	0.00949091645991585
2.01225e-06	0.009539289509661807
2.01250e-06	0.009587662559407763
2.01275e-06	0.00963603560915364
2.01300e-06	0.009684408658899597
2.01325e-06	0.009732781708645553
2.01350e-06	0.009775991283526035
2.01375e-06	0.00980147121636805
2.01400e-06	0.009826951149210105
2.01425e-06	0.009852431082052162
2.01450e-06	0.009877911014894176
2.01475e-06	0.009903390947736233
2.01500e-06	0.009928870880578288
2.01525e-06	0.009954350813420346
2.01550e-06	0.00997983074626236
2.01575e-06	0.010005310679104417
2.01600e-06	0.010030790611946472
2.01625e-06	0.010056270544788486
2.01650e-06	0.010059231194380189
2.01675e-06	0.010053673466177741
2.01700e-06	0.010048115737975304
2.01725e-06	0.010042558009772856
2.01750e-06	0.010037000281570407
2.01775e-06	0.010031442553367959
2.01800e-06	0.010025884825165522
2.01825e-06	0.010020327096963074
2.01850e-06	0.010014769368760626
2.01875e-06	0.010009211640558187
2.01900e-06	0.010003653912355739
2.01925e-06	0.009993567715159309
2.01950e-06	0.00996793227325084
2.01975e-06	0.009942296831342413
2.02000e-06	0.009916661389433944
2.02025e-06	0.009891025947525474
2.02050e-06	0.009865390505617048
2.02075e-06	0.009839755063708579
2.02100e-06	0.00981411962180011
2.02125e-06	0.009788484179891683
2.02150e-06	0.009762848737983214
2.02175e-06	0.009737213296074744
2.02200e-06	0.009711577854166275
2.02225e-06	0.009685942412257847
2.02250e-06	0.009661304951415364
2.02275e-06	0.009640094223058893
2.02300e-06	0.009618883494702456
2.02325e-06	0.009597672766345985
2.02350e-06	0.009576462037989513
2.02375e-06	0.009555251309633042
2.02400e-06	0.009534040581276607
2.02425e-06	0.009512829852920134
2.02450e-06	0.009491619124563663
2.02475e-06	0.009470408396207228
2.02500e-06	0.009449197667850757
2.02525e-06	0.009427986939494285
2.02550e-06	0.00940677621113785
2.02575e-06	0.009390639444259314
2.02600e-06	0.009391924960450588
2.02625e-06	0.009393210476641862
2.02650e-06	0.009394495992833134
2.02675e-06	0.009395781509024408
2.02700e-06	0.009397067025215684
2.02725e-06	0.009398352541406956
2.02750e-06	0.00939963805759823
2.02775e-06	0.009400923573789504
2.02800e-06	0.009402209089980778
2.02825e-06	0.00940349460617205
2.02850e-06	0.009404780122363324
2.02875e-06	0.009406065638554598
2.02900e-06	0.00940735115474587
2.02925e-06	0.009408636670937144
2.02950e-06	0.009409922187128418
2.02975e-06	0.009414112490426419
2.03000e-06	0.009428276859048427
2.03025e-06	0.009442441227670436
2.03050e-06	0.009456605596292442
2.03075e-06	0.009470769964914427
2.03100e-06	0.009484934333536435
2.03125e-06	0.009499098702158443
2.03150e-06	0.009513263070780428
2.03175e-06	0.009527427439402434
2.03200e-06	0.009541591808024443
2.03225e-06	0.009555756176646451
2.03250e-06	0.009569920545268435
2.03275e-06	0.009584084913890442
2.03300e-06	0.00959824928251245
2.03325e-06	0.009612413651134435
2.03350e-06	0.009626578019756443
2.03375e-06	0.009638530146251878
2.03400e-06	0.009642886174763993
2.03425e-06	0.009647242203276115
2.03450e-06	0.009651598231788235
2.03475e-06	0.009655954260300357
2.03500e-06	0.00966031028881247
2.03525e-06	0.009664666317324593
2.03550e-06	0.009669022345836715
2.03575e-06	0.009673378374348828
2.03600e-06	0.00967773440286095
2.03625e-06	0.009682090431373072
2.03650e-06	0.009686446459885192
2.03675e-06	0.009686681886683065
2.03700e-06	0.009672768548300022
2.03725e-06	0.009658855209916979
2.03750e-06	0.009644941871533958
2.03775e-06	0.009631028533150916
2.03800e-06	0.009617115194767873
2.03825e-06	0.009603201856384854
2.03850e-06	0.009589288518001811
2.03875e-06	0.009575375179618768
2.03900e-06	0.009561461841235725
2.03925e-06	0.009547548502852707
2.03950e-06	0.009533635164469664
2.03975e-06	0.009517625643400167
2.04000e-06	0.009494418533564787
2.04025e-06	0.009471211423729371
2.04050e-06	0.009448004313893954
2.04075e-06	0.009424797204058536
2.04100e-06	0.009400210427528845
2.04125e-06	0.009375101763956645
2.04150e-06	0.009349993100384443
2.04175e-06	0.009324884436812286
2.04200e-06	0.009299772248949503
2.04225e-06	0.009275719881003152
2.04250e-06	0.009255348131006043
2.04275e-06	0.0092349763810089
2.04300e-06	0.009214604631011756
2.04325e-06	0.009194232881014612
2.04350e-06	0.009173861131017504
2.04375e-06	0.00915348938102036
2.04400e-06	0.009133117631023218
2.04425e-06	0.009112745881026108
2.04450e-06	0.009092374131028964
2.04475e-06	0.009072002381031822
2.04500e-06	0.009051630631034677
2.04525e-06	0.009040874235525034
2.04550e-06	0.00903375504379553
2.04575e-06	0.009026635852066025
2.04600e-06	0.009019516660336534
2.04625e-06	0.009012397468607028
2.04650e-06	0.009005278276877525
2.04675e-06	0.008998159085148031
2.04700e-06	0.008991039893418526
2.04725e-06	0.008983920701689022
2.04750e-06	0.008976801509959517
2.04775e-06	0.008969682318230025
2.04800e-06	0.008964183270510006
2.04825e-06	0.008964247254293919
2.04850e-06	0.008964311238077831
2.04875e-06	0.008467022426427578
2.04900e-06	0.0004362179429719844
2.04925e-06	-0.005602980742232805
2.04950e-06	-0.003651200451279899
2.04975e-06	-0.0014755262855288662
2.05000e-06	0.004459741275804835
2.05025e-06	0.00987482575895858
2.05050e-06	0.009830985737089197
2.05075e-06	0.009018500818327332
2.05100e-06	0.004835778397455767
2.05125e-06	0.00015021259380722495
2.05150e-06	0.0014678587054602226
2.05175e-06	0.0030169465247996186
2.05200e-06	0.006343398225809937
2.05225e-06	0.009430047774830995
2.05250e-06	0.010332638966904607
2.05275e-06	0.009666785272222594
2.05300e-06	0.007886943657186798
2.05325e-06	0.006002347238481421
2.05350e-06	0.0056242266579790805
2.05375e-06	0.006366151269009372
2.05400e-06	0.007903334137909
2.05425e-06	0.009498039399325585
2.05450e-06	0.010113505825921108
2.05475e-06	0.00988231540613376
2.05500e-06	0.008801333379157452
2.05525e-06	0.00761237836234101
2.05550e-06	0.00737043764679628
2.05575e-06	0.00783309710088802
2.05600e-06	0.008796597788359329
2.05625e-06	0.009798558571085763
2.05650e-06	0.010189355663578653
2.05675e-06	0.010051880885671272
2.05700e-06	0.009384021071108169
2.05725e-06	0.008650289517056209
2.05750e-06	0.008511327204280843
2.05775e-06	0.008815068475672814
2.05800e-06	0.009433679122485102
2.05825e-06	0.010077352604910342
2.05850e-06	0.010339029097358919
2.05875e-06	0.01027051578629799
2.05900e-06	0.009870374404472611
2.05925e-06	0.009429453260826646
2.05950e-06	0.009361423408953616
2.05975e-06	0.009570866047757412
2.06000e-06	0.009977551308005282
2.06025e-06	0.010399804488172074
2.06050e-06	0.010582524191147689
2.06075e-06	0.010558055142094222
2.06100e-06	0.010325388958928088
2.06125e-06	0.010066597527695878
2.06150e-06	0.010040670199418336
2.06175e-06	0.010187694782256236
2.06200e-06	0.010457278937737012
2.06225e-06	0.010735493067103231
2.06250e-06	0.010862426575853373
2.06275e-06	0.010858232028076086
2.06300e-06	0.01072216903672211
2.06325e-06	0.010568173972287941
2.06350e-06	0.01055835062864563
2.06375e-06	0.010655038882062077
2.06400e-06	0.010826544904021886
2.06425e-06	0.01100137791689898
2.06450e-06	0.011078785366275714
2.06475e-06	0.01106986886946616
2.06500e-06	0.010972596578891172
2.06525e-06	0.010857788474395821
2.06550e-06	0.01082718393515073
2.06575e-06	0.010857541790852946
2.06600e-06	0.010929359558831524
2.06625e-06	0.010998209532204425
2.06650e-06	0.011001339105882718
2.06675e-06	0.010946063822531979
2.06700e-06	0.010831471788013587
2.06725e-06	0.010702284085018783
2.06750e-06	0.010622585281354407
2.06775e-06	0.010578168120367047
2.06800e-06	0.010557170359863852
2.06825e-06	0.010532116890303993
2.06850e-06	0.010464059021969735
2.06875e-06	0.010357938750209905
2.06900e-06	0.01021354402565878
2.06925e-06	0.010059246728895124
2.06950e-06	0.009935543917389442
2.06975e-06	0.009833891194222283
2.07000e-06	0.009747212360689607
2.07025e-06	0.009658653371224592
2.07050e-06	0.009544172881009052
2.07075e-06	0.009407226114259428
2.07100e-06	0.009248038547160723
2.07125e-06	0.00908473995625344
2.07150e-06	0.008947028361374856
2.07175e-06	0.008819678846860649
2.07200e-06	0.00870544658665013
2.07225e-06	0.008595246292096233
2.07250e-06	0.008470254384653897
2.07275e-06	0.00833923266522798
2.07300e-06	0.008198510305986036
2.07325e-06	0.008059119635785403
2.07350e-06	0.007943072021481756
2.07375e-06	0.007835993674126629
2.07400e-06	0.0077434347962093055
2.07425e-06	0.007660626642234133
2.07450e-06	0.007577359187552465
2.07475e-06	0.00749324818620993
2.07500e-06	0.007409366917111976
2.07525e-06	0.0073328173700976315
2.07550e-06	0.007277797741860702
2.07575e-06	0.007230652330488598
2.07600e-06	0.007197460216048141
2.07625e-06	0.007175406412507189
2.07650e-06	0.007158337688198825
2.07675e-06	0.00714245305036617
2.07700e-06	0.007130299603560382
2.07725e-06	0.007126379708253399
2.07750e-06	0.007139586062443124
2.07775e-06	0.007158894474890712
2.07800e-06	0.007191510714981011
2.07825e-06	0.007229809260386247
2.07850e-06	0.00727356492556958
2.07875e-06	0.007319650724682496
2.07900e-06	0.00737450121138728
2.07925e-06	0.007433094129405681
2.07950e-06	0.007491687047424181
2.07975e-06	0.007564591783907396
2.08000e-06	0.0076436075194440765
2.08025e-06	0.00772262325498089
2.08050e-06	0.007806661364865829
2.08075e-06	0.007892843976860128
2.08100e-06	0.007979026588854573
2.08125e-06	0.008065209200849018
2.08150e-06	0.008156279578454603
2.08175e-06	0.008249436981625507
2.08200e-06	0.00834259438479657
2.08225e-06	0.008435751787967632
2.08250e-06	0.008521338620058074
2.08275e-06	0.008603692896284203
2.08300e-06	0.008686047172510331
2.08325e-06	0.008768401448736458
2.08350e-06	0.008850755724962446
2.08375e-06	0.008933110001188575
2.08400e-06	0.009009170405540312
2.08425e-06	0.009060176937026362
2.08450e-06	0.0091111834685125
2.08475e-06	0.009162189999998639
2.08500e-06	0.00921319653148469
2.08525e-06	0.009264203062970827
2.08550e-06	0.009315209594456964
2.08575e-06	0.009333278159705275
2.08600e-06	0.00933728255267425
2.08625e-06	0.009341286945643231
2.08650e-06	0.009345291338612213
2.08675e-06	0.009349295731581189
2.08700e-06	0.00935330012455017
2.08725e-06	0.009357304517519153
2.08750e-06	0.009361308910488128
2.08775e-06	0.00936531330345711
2.08800e-06	0.00935998268850937
2.08825e-06	0.009317492419500924
2.08850e-06	0.009275002150492548
2.08875e-06	0.009232511881484102
2.08900e-06	0.009190021612475655
2.08925e-06	0.00914753134346728
2.08950e-06	0.009105041074458833
2.08975e-06	0.009062550805450384
2.09000e-06	0.009020060536441938
2.09025e-06	0.008977570267433562
2.09050e-06	0.0089199695305848
2.09075e-06	0.00885591677962569
2.09100e-06	0.008791864028666689
2.09125e-06	0.00872781127770758
2.09150e-06	0.00866375852674847
2.09175e-06	0.00859970577578947
2.09200e-06	0.00853565302483036
2.09225e-06	0.008471600273871251
2.09250e-06	0.008409238282579619
2.09275e-06	0.008353606659907626
2.09300e-06	0.00829797503723554
2.09325e-06	0.008242343414563454
2.09350e-06	0.008186711791891461
2.09375e-06	0.008131080169219375
2.09400e-06	0.008075448546547287
2.09425e-06	0.008019816923875201
2.09450e-06	0.007964185301203209
2.09475e-06	0.007931015016831676
2.09500e-06	0.007907435492533874
2.09525e-06	0.007883855968236111
2.09550e-06	0.007860276443938309
2.09575e-06	0.007836696919640507
2.09600e-06	0.007813117395342744
2.09625e-06	0.007789537871044942
2.09650e-06	0.00776595834674714
2.09675e-06	0.007742378822449338
2.09700e-06	0.007718799298151576
2.09725e-06	0.007695219773853773
2.09750e-06	0.007671640249555971
2.09775e-06	0.0076480607252582085
2.09800e-06	0.007624481200960406
2.09825e-06	0.007620684592458201
2.09850e-06	0.007625335085211503
2.09875e-06	0.007629985577964798
2.09900e-06	0.007634636070718101
2.09925e-06	0.007639286563471403
2.09950e-06	0.007643937056224698
2.09975e-06	0.007648587548978
2.10000e-06	0.007653238041731303
2.10025e-06	0.007657888534484597
2.10050e-06	0.0076625390272379
2.10075e-06	0.0076671895199912025
2.10100e-06	0.007671840012744504
2.10125e-06	0.007676490505497799
2.10150e-06	0.007681140998251102
2.10175e-06	0.007690063774190389
2.10200e-06	0.00770081077104015
2.10225e-06	0.007711557767889928
2.10250e-06	0.007722304764739707
2.10275e-06	0.0077330517615894845
2.10300e-06	0.007743798758439245
2.10325e-06	0.007754545755289023
2.10350e-06	0.007765292752138802
2.10375e-06	0.0077760397489885615
2.10400e-06	0.00778678674583834
2.10425e-06	0.007797533742688118
2.10450e-06	0.007808280739537879
2.10475e-06	0.00781063832163873
2.10500e-06	0.007809413710063326
2.10525e-06	0.007808189098487921
2.10550e-06	0.007806964486912518
2.10575e-06	0.007805739875337113
2.10600e-06	0.007804515263761708
2.10625e-06	0.007803290652186305
2.10650e-06	0.0078020660406109
2.10675e-06	0.007800841429035495
2.10700e-06	0.00779961681746009
2.10725e-06	0.007798392205884687
2.10750e-06	0.007797167594309282
2.10775e-06	0.007785164753900894
2.10800e-06	0.007768559720810102
2.10825e-06	0.007751954687719282
2.10850e-06	0.007735349654628462
2.10875e-06	0.00771874462153767
2.10900e-06	0.0077021395884468505
2.10925e-06	0.00768553455535603
2.10950e-06	0.007668929522265211
2.10975e-06	0.007652324489174418
2.11000e-06	0.007635719456083599
2.11025e-06	0.007619114422992779
2.11050e-06	0.007602509389901987
2.11075e-06	0.007585904356811167
2.11100e-06	0.007568619057600143
2.11125e-06	0.007548625838489441
2.11150e-06	0.007528632619378773
2.11175e-06	0.0075086394002680705
2.11200e-06	0.0074886461811573685
2.11225e-06	0.0074686529620467
2.11250e-06	0.007448659742935998
2.11275e-06	0.007428666523825296
2.11300e-06	0.007408673304714628
2.11325e-06	0.007388680085603926
2.11350e-06	0.007368686866493224
2.11375e-06	0.007348693647382522
2.11400e-06	0.007328700428271853
2.11425e-06	0.007308707209161151
2.11450e-06	0.0072995843053309615
2.11475e-06	0.007295102914148001
2.11500e-06	0.007290621522965032
2.11525e-06	0.0072861401317820635
2.11550e-06	0.007281658740599094
2.11575e-06	0.007277177349416133
2.11600e-06	0.007272695958233165
2.11625e-06	0.007268214567050196
2.11650e-06	0.0072637331758672345
2.11675e-06	0.007259251784684266
2.11700e-06	0.007259213546170867
2.11725e-06	0.00727686206461111
2.11750e-06	0.007294510583051384
2.11775e-06	0.0073121591014916575
2.11800e-06	0.007329807619931931
2.11825e-06	0.0073474561383721744
2.11850e-06	0.007365104656812448
2.11875e-06	0.007382753175252722
2.11900e-06	0.007400401693692965
2.11925e-06	0.007418050212133239
2.11950e-06	0.007435698730573512
2.11975e-06	0.0074627819656755716
2.12000e-06	0.007493893727603123
2.12025e-06	0.007525005489530728
2.12050e-06	0.007556117251458333
2.12075e-06	0.0075872290133858844
2.12100e-06	0.007618340775313489
2.12125e-06	0.007649452537241094
2.12150e-06	0.007680564299168646
2.12175e-06	0.007711676061096251
2.12200e-06	0.007742787823023856
2.12225e-06	0.0077738995849514604
2.12250e-06	0.007800432780874522
2.12275e-06	0.007825010976278444
2.12300e-06	0.007849589171682367
2.12325e-06	0.007874167367086248
2.12350e-06	0.007898745562490171
2.12375e-06	0.007923323757894094
2.12400e-06	0.007947901953298015
2.12425e-06	0.007972480148701897
2.12450e-06	0.00799705834410582
2.12475e-06	0.008021636539509743
2.12500e-06	0.008046214734913624
2.12525e-06	0.008051141581805404
2.12550e-06	0.008047677505314774
2.12575e-06	0.00804421342882415
2.12600e-06	0.00804074935233352
2.12625e-06	0.00803728527584289
2.12650e-06	0.008033821199352259
2.12675e-06	0.008030357122861634
2.12700e-06	0.008026893046371004
2.12725e-06	0.008023428969880375
2.12750e-06	0.00801996489338975
2.12775e-06	0.00801078421951614
2.12800e-06	0.007978847616228276
2.12825e-06	0.007946911012940412
2.12850e-06	0.007914974409652603
2.12875e-06	0.00788303780636474
2.12900e-06	0.007851101203076876
2.12925e-06	0.007819164599789067
2.12950e-06	0.0077872279965012035
2.12975e-06	0.00775529139321334
2.13000e-06	0.00772335478992553
2.13025e-06	0.0076914181866376665
2.13050e-06	0.007650749121874364
2.13075e-06	0.007606351386015704
2.13100e-06	0.007561953650157119
2.13125e-06	0.0075175559142984585
2.13150e-06	0.007473158178439798
2.13175e-06	0.0074287604425812125
2.13200e-06	0.007384362706722552
2.13225e-06	0.007339964970863892
2.13250e-06	0.007296921780805466
2.13275e-06	0.007259270600461056
2.13300e-06	0.007221619420116583
2.13325e-06	0.00718396823977211
2.13350e-06	0.007146317059427701
2.13375e-06	0.007108665879083227
2.13400e-06	0.007071014698738754
2.13425e-06	0.007033363518394345
2.13450e-06	0.006995712338049871
2.13475e-06	0.006966737477197565
2.13500e-06	0.006941467315392236
2.13525e-06	0.006916197153586952
2.13550e-06	0.006890926991781624
2.13575e-06	0.0068656568299762955
2.13600e-06	0.006840386668171011
2.13625e-06	0.006815116506365683
2.13650e-06	0.006789846344560355
2.13675e-06	0.006764576182755027
2.13700e-06	0.0067393060209497415
2.13725e-06	0.006714035859144414
2.13750e-06	0.006688765697339086
2.13775e-06	0.006663495535533801
2.13800e-06	0.006638940066257587
2.13825e-06	0.006617229557306151
2.13850e-06	0.006595519048354753
2.13875e-06	0.006573808539403317
2.13900e-06	0.006552098030451882
2.13925e-06	0.006530387521500446
2.13950e-06	0.006508677012549047
2.13975e-06	0.006486966503597611
2.14000e-06	0.006465255994646175
2.14025e-06	0.006443545485694776
2.14050e-06	0.00642183497674334
2.14075e-06	0.006400124467791904
2.14100e-06	0.006378413958840469
2.14125e-06	0.00635670344988907
2.14150e-06	0.006336648589122436
2.14175e-06	0.006317300673075658
2.14200e-06	0.0062979527570289125
2.14225e-06	0.006278604840982134
2.14250e-06	0.006259256924935355
2.14275e-06	0.0062399090088886095
2.14300e-06	0.006223191701079847
2.14325e-06	0.006207597635890486
2.14350e-06	0.006192003570701124
2.14375e-06	0.0061764095055117894
2.14400e-06	0.006160815440322428
2.14425e-06	0.006145221375133066
2.14450e-06	0.006141347218872784
2.14475e-06	0.006142477342996981
2.14500e-06	0.006143607467121178
2.14525e-06	0.0061447375912453755
2.14550e-06	0.006145867715369571
2.14575e-06	0.006146997839493768
2.14600e-06	0.0061548879800315025
2.14625e-06	0.006189687564433954
2.14650e-06	0.006224487148836465
2.14675e-06	0.006259286733238975
2.14700e-06	0.006294086317641426
2.14725e-06	0.006328885902043937
2.14750e-06	0.006363685486446447
2.14775e-06	0.006425550666677266
2.14800e-06	0.006498972577520578
2.14825e-06	0.006572394488364014
2.14850e-06	0.006645816399207449
2.14875e-06	0.006719238310050761
2.14900e-06	0.006792660220894196
2.14925e-06	0.006866082131737632
2.14950e-06	0.006939504042581068
2.14975e-06	0.0070180648658399
2.15000e-06	0.007117082041083071
2.15025e-06	0.007216099216326243
2.15050e-06	0.007315116391569247
2.15075e-06	0.007414133566812418
2.15100e-06	0.007513150742055589
2.15125e-06	0.0076121679172985925
2.15150e-06	0.007711185092541765
