Time(s)	Current(A)
1.50000e-06	-0.008871421473101168
1.50025e-06	-0.008876015376920893
1.50050e-06	-0.008880609280740612
1.50075e-06	-0.008886468463591552
1.50100e-06	-0.00889933681369719
1.50125e-06	-0.008912205163802816
1.50150e-06	-0.008925073513908453
1.50175e-06	-0.008937941864014079
1.50200e-06	-0.008950810214119717
1.50225e-06	-0.008963678564225343
1.50250e-06	-0.008976995268939905
1.50275e-06	-0.008992795688602598
1.50300e-06	-0.009008596108265278
1.50325e-06	-0.009024396527927971
1.50350e-06	-0.009040196947590652
1.50375e-06	-0.009055997367253332
1.50400e-06	-0.009071797786916025
1.50425e-06	-0.00908684922638646
1.50450e-06	-0.009097751598885775
1.50475e-06	-0.009108653971385081
1.50500e-06	-0.009119556343884389
1.50525e-06	-0.009130458716383705
1.50550e-06	-0.009141361088883013
1.50575e-06	-0.009152263461382329
1.50600e-06	-0.009163165833881635
1.50625e-06	-0.009174068206380951
1.50650e-06	-0.009183710530675345
1.50675e-06	-0.00918637266451474
1.50700e-06	-0.009189034798354137
1.50725e-06	-0.009191696932193533
1.50750e-06	-0.00919435906603293
1.50775e-06	-0.009197021199872325
1.50800e-06	-0.009199683333711722
1.50825e-06	-0.009202345467551118
1.50850e-06	-0.009205007601390513
1.50875e-06	-0.009206984751064568
1.50900e-06	-0.009205167347550908
1.50925e-06	-0.009203349944037249
1.50950e-06	-0.009201031462481014
1.50975e-06	-0.014703748841995089
1.51000e-06	-0.026751772319822
1.51025e-06	-0.024424100672223906
1.51050e-06	-0.021780008257485474
1.51075e-06	-0.016123810963073075
1.51100e-06	-0.0067572474216726665
1.51125e-06	-0.006744980436369701
1.51150e-06	-0.0072464435060302975
1.51175e-06	-0.010831860309577614
1.51200e-06	-0.021103123410254596
1.51225e-06	-0.01819865176031903
1.51250e-06	-0.01490335896938604
1.51275e-06	-0.010974377696968875
1.51300e-06	-0.0068863336203656795
1.51325e-06	-0.0054848807067832545
1.51350e-06	-0.006731395103397753
1.51375e-06	-0.009752922582401811
1.51400e-06	-0.012946433472712135
1.51425e-06	-0.01373718889603178
1.51450e-06	-0.012206299222662016
1.51475e-06	-0.00957038449858617
1.51500e-06	-0.007046839721199897
1.51525e-06	-0.006201125328184491
1.51550e-06	-0.007009936755791378
1.51575e-06	-0.008927529204704392
1.51600e-06	-0.010950982925448374
1.51625e-06	-0.011468419464833119
1.51650e-06	-0.010531204301472067
1.51675e-06	-0.008901788662131952
1.51700e-06	-0.007342976787297736
1.51725e-06	-0.00683546949060611
1.51750e-06	-0.007364679332924141
1.51775e-06	-0.00858874421895661
1.51800e-06	-0.009879443467573811
1.51825e-06	-0.010227153082179011
1.51850e-06	-0.009664129181771588
1.51875e-06	-0.008668010066891055
1.51900e-06	-0.007716595125621403
1.51925e-06	-0.007424114677715725
1.51950e-06	-0.007781314088490508
1.51975e-06	-0.008573934747629445
1.52000e-06	-0.00940836435266276
1.52025e-06	-0.009652121875167079
1.52050e-06	-0.009325382443899811
1.52075e-06	-0.008727288520930613
1.52100e-06	-0.008157053524930362
1.52125e-06	-0.007999315397819458
1.52150e-06	-0.008248144581826806
1.52175e-06	-0.008769199816208915
1.52200e-06	-0.009315810015323861
1.52225e-06	-0.00949170468285138
1.52250e-06	-0.009309452585693333
1.52275e-06	-0.008956357082953042
1.52300e-06	-0.008619748919690704
1.52325e-06	-0.008540447408903902
1.52350e-06	-0.008714609468291305
1.52375e-06	-0.009057959077478894
1.52400e-06	-0.009415868700569815
1.52425e-06	-0.0095400181586891
1.52450e-06	-0.009438195426390267
1.52475e-06	-0.009227635369740925
1.52500e-06	-0.009025578956211554
1.52525e-06	-0.008982768503560761
1.52550e-06	-0.009096837275168959
1.52575e-06	-0.009315632617688415
1.52600e-06	-0.009543401518001482
1.52625e-06	-0.009625294095131146
1.52650e-06	-0.009566309735121743
1.52675e-06	-0.009439852727859155
1.52700e-06	-0.00931932556577869
1.52725e-06	-0.00929910843410033
1.52750e-06	-0.009377669080274433
1.52775e-06	-0.009522290900298757
1.52800e-06	-0.00967295071521366
1.52825e-06	-0.009732614049132534
1.52850e-06	-0.009704380235590431
1.52875e-06	-0.009634196460020332
1.52900e-06	-0.009568001102589378
1.52925e-06	-0.009564871212985396
1.52950e-06	-0.009623800328817758
1.52975e-06	-0.009724249822848018
1.53000e-06	-0.009828579083186673
1.53025e-06	-0.009875966947750862
1.53050e-06	-0.009868318876179099
1.53075e-06	-0.00983437987934857
1.53100e-06	-0.00980288688197568
1.53125e-06	-0.00981080265264098
1.53150e-06	-0.009857451636369
1.53175e-06	-0.009925719079655683
1.53200e-06	-0.009991397810262715
1.53225e-06	-0.01004334973913195
1.53250e-06	-0.010047320112854485
1.53275e-06	-0.01003735849483358
1.53300e-06	-0.010031828767046795
1.53325e-06	-0.010035369356885728
1.53350e-06	-0.010071743019305588
1.53375e-06	-0.010121080361225112
1.53400e-06	-0.01016816803059767
1.53425e-06	-0.010206437707468636
1.53450e-06	-0.01021380400910853
1.53475e-06	-0.010211687970888039
1.53500e-06	-0.010211539424937388
1.53525e-06	-0.01021678825176041
1.53550e-06	-0.010241381176024274
1.53575e-06	-0.010272064856476084
1.53600e-06	-0.010298220585322895
1.53625e-06	-0.010317686379792562
1.53650e-06	-0.010313398532481524
1.53675e-06	-0.010299852218269916
1.53700e-06	-0.010284355010628314
1.53725e-06	-0.010271312207604922
1.53750e-06	-0.010266917726681746
1.53775e-06	-0.010263827571135087
1.53800e-06	-0.010255538800221002
1.53825e-06	-0.010242394092477217
1.53850e-06	-0.010211296506759011
1.53875e-06	-0.010171697136547649
1.53900e-06	-0.010132139726778242
1.53925e-06	-0.010093527833313106
1.53950e-06	-0.01005700682126864
1.53975e-06	-0.010019029349320937
1.54000e-06	-0.009981051877373267
1.54025e-06	-0.009939470082207661
1.54050e-06	-0.0098848717560472
1.54075e-06	-0.009824933076908382
1.54100e-06	-0.00976499439776951
1.54125e-06	-0.009705903739537622
1.54150e-06	-0.00964947537040291
1.54175e-06	-0.009592737866430449
1.54200e-06	-0.009535029860078263
1.54225e-06	-0.009475442745891032
1.54250e-06	-0.009409956333395657
1.54275e-06	-0.009344092951889506
1.54300e-06	-0.009277730974829576
1.54325e-06	-0.009214342086911236
1.54350e-06	-0.00915426030685933
1.54375e-06	-0.009097001512282562
1.54400e-06	-0.009041386289786938
1.54425e-06	-0.00898543074305021
1.54450e-06	-0.0089296177835741
1.54475e-06	-0.008875466176580657
1.54500e-06	-0.008824493173579206
1.54525e-06	-0.008778529350434425
1.54550e-06	-0.008738008417670582
1.54575e-06	-0.008702990282755618
1.54600e-06	-0.008673103850208244
1.54625e-06	-0.008647187823152826
1.54650e-06	-0.008625369448151482
1.54675e-06	-0.008609146080335712
1.54700e-06	-0.008599347169866888
1.54725e-06	-0.008592673131131906
1.54750e-06	-0.008595809359901924
1.54775e-06	-0.00860236748333765
1.54800e-06	-0.008619668352365424
1.54825e-06	-0.008636969221393212
1.54850e-06	-0.008659170965046911
1.54875e-06	-0.008696758585364846
1.54900e-06	-0.008734346205682813
1.54925e-06	-0.00877193382600075
1.54950e-06	-0.008809521446318717
1.54975e-06	-0.008852417186288396
1.55000e-06	-0.008911977313844771
1.55025e-06	-0.008971537441401094
1.55050e-06	-0.009031097568957418
1.55075e-06	-0.009090657696513793
1.55100e-06	-0.009153211707228635
1.55125e-06	-0.009225164758020913
1.55150e-06	-0.00929711780881313
1.55175e-06	-0.00937037894544745
1.55200e-06	-0.009447746705688547
1.55225e-06	-0.009525114465929579
1.55250e-06	-0.009602740738491383
1.55275e-06	-0.009681178588370648
1.55300e-06	-0.009759616438249913
1.55325e-06	-0.009837576186578762
1.55350e-06	-0.009914034975986969
1.55375e-06	-0.009990493765395242
1.55400e-06	-0.010065674392493663
1.55425e-06	-0.01013684233835554
1.55450e-06	-0.010206404875458071
1.55475e-06	-0.010270927369088719
1.55500e-06	-0.010332867476878062
1.55525e-06	-0.010386700405217702
1.55550e-06	-0.010440533333557388
1.55575e-06	-0.010490603996425379
1.55600e-06	-0.010528863348672299
1.55625e-06	-0.010567122700919251
1.55650e-06	-0.010601334351694327
1.55675e-06	-0.010622838589942216
1.55700e-06	-0.010644342828190087
1.55725e-06	-0.010659982831334588
1.55750e-06	-0.010657212570003547
1.55775e-06	-0.01065444230867251
1.55800e-06	-0.01065167204734147
1.55825e-06	-0.010648901786010433
1.55850e-06	-0.010646131524679392
1.55875e-06	-0.01062206386987898
1.55900e-06	-0.010590574668311589
1.55925e-06	-0.010559085466744169
1.55950e-06	-0.010527596265176777
1.55975e-06	-0.010496107063609358
1.56000e-06	-0.010459408843892902
1.56025e-06	-0.010406357357281536
1.56050e-06	-0.010353305870670125
1.56075e-06	-0.010300254384058759
1.56100e-06	-0.010247202897447348
1.56125e-06	-0.01019111621970332
1.56150e-06	-0.010125500819031361
1.56175e-06	-0.010059885418359346
1.56200e-06	-0.009994270017687388
1.56225e-06	-0.009928654617015373
1.56250e-06	-0.009862134085737445
1.56275e-06	-0.009792771974347749
1.56300e-06	-0.009723417737571885
1.56325e-06	-0.009654222990862361
1.56350e-06	-0.009585685326508516
1.56375e-06	-0.009518223107390677
1.56400e-06	-0.009452278261753747
1.56425e-06	-0.009388295579965962
1.56450e-06	-0.009329003411390285
1.56475e-06	-0.009278937372424065
1.56500e-06	-0.009228871333457886
1.56525e-06	-0.009178805294491664
1.56550e-06	-0.009128739255525485
1.56575e-06	-0.009078673216559306
1.56600e-06	-0.009028607177593085
1.56625e-06	-0.008981252416360943
1.56650e-06	-0.008942409479649258
1.56675e-06	-0.008903566542937606
1.56700e-06	-0.008864723606225922
1.56725e-06	-0.00882588066951427
1.56750e-06	-0.008787037732802618
1.56775e-06	-0.008748194796090934
1.56800e-06	-0.008709899158185229
1.56825e-06	-0.00867332171806424
1.56850e-06	-0.00863674427794328
1.56875e-06	-0.00860016683782232
1.56900e-06	-0.008563589397701328
1.56925e-06	-0.008527011957580368
1.56950e-06	-0.008490992311717663
1.56975e-06	-0.008455167041574244
1.57000e-06	-0.008419341771430824
1.57025e-06	-0.008383516501287373
1.57050e-06	-0.008347691231143954
1.57075e-06	-0.008311903479614871
1.57100e-06	-0.008276233514566241
1.57125e-06	-0.00824056354951758
1.57150e-06	-0.008205181757834896
1.57175e-06	-0.008170704661783918
1.57200e-06	-0.008136284487941046
1.57225e-06	-0.008102043016501446
1.57250e-06	-0.008067985248551705
1.57275e-06	-0.008034504201994279
1.57300e-06	-0.008001290892305151
1.57325e-06	-0.007969164032550189
1.57350e-06	-0.007938067257773417
1.57375e-06	-0.007908002936744275
1.57400e-06	-0.007878845038092018
1.57425e-06	-0.007850584898778067
1.57450e-06	-0.007823378510494213
1.57475e-06	-0.0077974242449488996
1.57500e-06	-0.00777292036135599
1.57525e-06	-0.007750072415387441
1.57550e-06	-0.007729252058589247
1.57575e-06	-0.007711438871742197
1.57600e-06	-0.007697992511443723
1.57625e-06	-0.007689661137563097
1.57650e-06	-0.007686481797372086
1.57675e-06	-0.007688321424237
1.57700e-06	-0.0076950470797019855
1.57725e-06	-0.007706530068734814
1.57750e-06	-0.007723422704348737
1.57775e-06	-0.007746175613338524
1.57800e-06	-0.007771734472204886
1.57825e-06	-0.00780610237068399
1.57850e-06	-0.00784449411555547
1.57875e-06	-0.00789551838197068
1.57900e-06	-0.007946542648385848
1.57925e-06	-0.007997566914801059
1.57950e-06	-0.008048591181216225
1.57975e-06	-0.00811422484915666
1.58000e-06	-0.008184949485473027
1.58025e-06	-0.008255674121789333
1.58050e-06	-0.008326398758105698
1.58075e-06	-0.008400124447229386
1.58100e-06	-0.008483271684927693
1.58125e-06	-0.008566418922625932
1.58150e-06	-0.008650954492230667
1.58175e-06	-0.008739848611096073
1.58200e-06	-0.008828742729961404
1.58225e-06	-0.008918258493337022
1.58250e-06	-0.009009725856476017
1.58275e-06	-0.00910119321961501
1.58300e-06	-0.009192319424486863
1.58325e-06	-0.009282374592161882
1.58350e-06	-0.009371595163271414
1.58375e-06	-0.009458195589855896
1.58400e-06	-0.009543551827464086
1.58425e-06	-0.009625002040211012
1.58450e-06	-0.009704658753423592
1.58475e-06	-0.009778684928266968
1.58500e-06	-0.009850336344584985
1.58525e-06	-0.009914532409653285
1.58550e-06	-0.009975248045426025
1.58575e-06	-0.010025037171146684
1.58600e-06	-0.010074826296867387
1.58625e-06	-0.010120357431429576
1.58650e-06	-0.010152520966984806
1.58675e-06	-0.01018468450254001
1.58700e-06	-0.010212295011407324
1.58725e-06	-0.010225611682460903
1.58750e-06	-0.010238928353514472
1.58775e-06	-0.01024637968224521
1.58800e-06	-0.010235417270483927
1.58825e-06	-0.010224454858722642
1.58850e-06	-0.01021349244696135
1.58875e-06	-0.010202530035200065
1.58900e-06	-0.010185115479896697
1.58925e-06	-0.01014744497186962
1.58950e-06	-0.010109774463842511
1.58975e-06	-0.010072103955815434
1.59000e-06	-0.010034433447788357
1.59025e-06	-0.009992062710293107
1.59050e-06	-0.009934936004447904
1.59075e-06	-0.009877809298602654
1.59100e-06	-0.009820682592757451
1.59125e-06	-0.009763555886912249
1.59150e-06	-0.009697917300402117
1.59175e-06	-0.009629312561226221
1.59200e-06	-0.009560707822050266
1.59225e-06	-0.00949210308287437
1.59250e-06	-0.009422687883449058
1.59275e-06	-0.009350650692205836
1.59300e-06	-0.009278389164918344
1.59325e-06	-0.00920630537658301
1.59350e-06	-0.00913481252075594
1.59375e-06	-0.009064366668620105
1.59400e-06	-0.008995471377966096
1.59425e-06	-0.008928628176261682
1.59450e-06	-0.008864314894721014
1.59475e-06	-0.008803963066836232
1.59500e-06	-0.008749171497126408
1.59525e-06	-0.00869437992741663
1.59550e-06	-0.008643599376603774
1.59575e-06	-0.008605411076508243
1.59600e-06	-0.008567222776412744
1.59625e-06	-0.008529034476317213
1.59650e-06	-0.008490846176221714
1.59675e-06	-0.008452657876126216
1.59700e-06	-0.008414469576030686
1.59725e-06	-0.008376281275935187
1.59750e-06	-0.008342382896682357
1.59775e-06	-0.008321952356947696
1.59800e-06	-0.008301521817213017
1.59825e-06	-0.008281091277478355
1.59850e-06	-0.008260660737743694
1.59875e-06	-0.008240230198009015
1.59900e-06	-0.008219799658274353
1.59925e-06	-0.008199369118539674
1.59950e-06	-0.008182034574198731
1.59975e-06	-0.008174419642559229
1.60000e-06	-0.00816680471091972
1.60025e-06	-0.008159189779280217
1.60050e-06	-0.00815157484764071
1.60075e-06	-0.008143959916001206
1.60100e-06	-0.008136344984361703
1.60125e-06	-0.008128730052722194
1.60150e-06	-0.00812111512108269
1.60175e-06	-0.008118722480386241
1.60200e-06	-0.008118149662219172
1.60225e-06	-0.008117576844052102
1.60250e-06	-0.008117004025885033
1.60275e-06	-0.008116431207717963
1.60300e-06	-0.008115858389550893
1.60325e-06	-0.008115285571383824
1.60350e-06	-0.008114712753216754
1.60375e-06	-0.008114464632359595
1.60400e-06	-0.008115235870931662
1.60425e-06	-0.00811600710950373
1.60450e-06	-0.008116778348075799
1.60475e-06	-0.008117549586647867
1.60500e-06	-0.008118320825219934
1.60525e-06	-0.008119092063792003
1.60550e-06	-0.008119863302364071
1.60575e-06	-0.008120634540936138
1.60600e-06	-0.008120574120298468
1.60625e-06	-0.008117902776713612
1.60650e-06	-0.008115231433128754
1.60675e-06	-0.0081125600895439
1.60700e-06	-0.008109888745959044
1.60725e-06	-0.008107217402374186
1.60750e-06	-0.00810454605878933
1.60775e-06	-0.008101874715204472
1.60800e-06	-0.008099203371619618
1.60825e-06	-0.008095430950789117
1.60850e-06	-0.008088201792134302
1.60875e-06	-0.008080972633479493
1.60900e-06	-0.008073743474824677
1.60925e-06	-0.008066514316169868
1.60950e-06	-0.00805928515751506
1.60975e-06	-0.008052055998860245
1.61000e-06	-0.008044826840205436
1.61025e-06	-0.008036875804456398
1.61050e-06	-0.008026658497320935
1.61075e-06	-0.008016441190185464
1.61100e-06	-0.008006223883050001
1.61125e-06	-0.007996006575914538
1.61150e-06	-0.007985789268779067
1.61175e-06	-0.007975571961643604
1.61200e-06	-0.007965354654508133
1.61225e-06	-0.007954947445436754
1.61250e-06	-0.007943944055482186
1.61275e-06	-0.00793294066552761
1.61300e-06	-0.007921937275573044
1.61325e-06	-0.007910933885618468
1.61350e-06	-0.007900138925441086
1.61375e-06	-0.007889998312719642
1.61400e-06	-0.00787985769999819
1.61425e-06	-0.007869717087276748
1.61450e-06	-0.007859576474555296
1.61475e-06	-0.007849698963929537
1.61500e-06	-0.007840769383845887
1.61525e-06	-0.007832367304483136
1.61550e-06	-0.00782472830748033
1.61575e-06	-0.00781869897514
1.61600e-06	-0.007815534088619333
1.61625e-06	-0.007815926996066445
1.61650e-06	-0.007820289741917844
1.61675e-06	-0.007828524961783882
1.61700e-06	-0.007838283131954112
1.61725e-06	-0.007852822474327722
1.61750e-06	-0.007869485000066038
1.61775e-06	-0.007892813078355865
1.61800e-06	-0.007916141156645691
1.61825e-06	-0.007943178283018689
1.61850e-06	-0.007981859648568252
1.61875e-06	-0.00802054101411785
1.61900e-06	-0.008059222379667413
1.61925e-06	-0.008097903745216978
1.61950e-06	-0.008140371540054453
1.61975e-06	-0.008194726505741252
1.62000e-06	-0.008249081471428096
1.62025e-06	-0.008303436437114894
1.62050e-06	-0.008357791402801738
1.62075e-06	-0.008414922462330122
1.62100e-06	-0.008480768831000586
1.62125e-06	-0.008546615199671105
1.62150e-06	-0.008612461568341568
1.62175e-06	-0.00867830793701209
1.62200e-06	-0.008744154305682553
1.62225e-06	-0.008810608819525468
1.62250e-06	-0.008878972553115176
1.62275e-06	-0.008947336286704825
1.62300e-06	-0.009015700020294531
1.62325e-06	-0.00908406375388418
1.62350e-06	-0.00915242748747383
1.62375e-06	-0.00921962420330196
1.62400e-06	-0.009283157166697078
1.62425e-06	-0.009345543136348555
1.62450e-06	-0.009404328217258284
1.62475e-06	-0.009461038074950991
1.62500e-06	-0.009511232946873324
1.62525e-06	-0.009561427818795659
1.62550e-06	-0.009608446596495084
1.62575e-06	-0.009645494298072429
1.62600e-06	-0.009682541999649805
1.62625e-06	-0.009716191992873636
1.62650e-06	-0.009739175171369997
1.62675e-06	-0.009762158349866377
1.62700e-06	-0.009781533680315875
1.62725e-06	-0.009789582480446568
1.62750e-06	-0.009797631280577253
1.62775e-06	-0.009800705376973582
1.62800e-06	-0.00978816181654452
1.62825e-06	-0.009775618256115469
1.62850e-06	-0.009763074695686406
1.62875e-06	-0.009750531135257354
1.62900e-06	-0.009737987574828291
1.62925e-06	-0.009708341379414199
1.62950e-06	-0.009672735393404252
1.62975e-06	-0.009637129407394274
1.63000e-06	-0.009601523421384327
1.63025e-06	-0.00956591743537435
1.63050e-06	-0.00952701670414262
1.63075e-06	-0.009477772402128111
1.63100e-06	-0.009428528100113558
1.63125e-06	-0.009377683226601803
1.63150e-06	-0.00932181349579143
1.63175e-06	-0.009265943764981107
1.63200e-06	-0.009209252074485192
1.63225e-06	-0.009149979911868888
1.63250e-06	-0.009090438212472523
1.63275e-06	-0.00903005032541183
1.63300e-06	-0.008969663113318083
1.63325e-06	-0.008909386914884191
1.63350e-06	-0.008849647872339038
1.63375e-06	-0.008790813063087757
1.63400e-06	-0.008733281030458806
1.63425e-06	-0.008677454168537947
1.63450e-06	-0.00862406377933288
1.63475e-06	-0.008573546048918013
1.63500e-06	-0.00852690668899623
1.63525e-06	-0.008492443141471252
1.63550e-06	-0.008457979593946301
1.63575e-06	-0.008423516046421322
1.63600e-06	-0.008389052498896371
1.63625e-06	-0.00835458895137142
1.63650e-06	-0.008320125403846442
1.63675e-06	-0.008285661856321491
1.63700e-06	-0.008251198308796512
1.63725e-06	-0.008216734761271561
1.63750e-06	-0.008182271213746583
1.63775e-06	-0.008160916010682575
1.63800e-06	-0.00814412869953166
1.63825e-06	-0.008127341388380732
1.63850e-06	-0.008110554077229817
1.63875e-06	-0.008093766766078887
1.63900e-06	-0.008076979454927972
1.63925e-06	-0.008060192143777057
1.63950e-06	-0.008043404832626128
1.63975e-06	-0.008026617521475213
1.64000e-06	-0.008009830210324285
1.64025e-06	-0.007995373779212415
1.64050e-06	-0.007988234946593101
1.64075e-06	-0.007981096113973778
1.64100e-06	-0.007973957281354464
1.64125e-06	-0.007966818448735142
1.64150e-06	-0.007959679616115828
1.64175e-06	-0.007952540783496505
1.64200e-06	-0.00794540195087719
1.64225e-06	-0.007938263118257875
1.64250e-06	-0.007931124285638554
1.64275e-06	-0.007927145941274043
1.64300e-06	-0.00792426893879012
1.64325e-06	-0.0079213919363062
1.64350e-06	-0.00791851493382228
1.64375e-06	-0.007915637931338357
1.64400e-06	-0.007912760928854437
1.64425e-06	-0.007909883926370515
1.64450e-06	-0.007907006923886595
1.64475e-06	-0.007904129921402674
1.64500e-06	-0.007901408196829211
1.64525e-06	-0.007899173953972709
1.64550e-06	-0.007897310192945322
1.64575e-06	-0.007896609527928354
1.64600e-06	-0.007895908862911385
1.64625e-06	-0.007896180975182982
1.64650e-06	-0.007899507038537793
1.64675e-06	-0.007902833101892605
1.64700e-06	-0.007907690313226719
1.64725e-06	-0.007917354432662917
