Time(s)	Current(A)
8.00000e-06	0.0009186881607169318
8.00025e-06	0.0009016311332821172
8.00050e-06	0.0008874144621707424
8.00075e-06	0.0008768515179447397
8.00100e-06	0.000869227111270452
8.00125e-06	0.0008653827280977482
8.00150e-06	0.0008644277091221355
8.00175e-06	0.0008671894589056569
8.00200e-06	0.0008726822710903326
8.00225e-06	0.0008816882185945558
8.00250e-06	0.0008932811708104751
8.00275e-06	0.0009082019479860506
8.00300e-06	0.0009255582509917734
8.00325e-06	0.0009460475222561579
8.00350e-06	0.0009692111468110405
8.00375e-06	0.0009958149582315408
8.00400e-06	0.0010224187696518609
8.00425e-06	0.0010516146944835887
8.00450e-06	0.0010841450159127617
8.00475e-06	0.0011166753373417144
8.00500e-06	0.0011515574226040153
8.00525e-06	0.0011894647278622567
8.00550e-06	0.0012273720331202414
8.00575e-06	0.001265279338378483
8.00600e-06	0.0013031866436367247
8.00625e-06	0.0013410939488947091
8.00650e-06	0.001380129883722834
8.00675e-06	0.0014192412197386762
8.00700e-06	0.0014583525557542534
8.00725e-06	0.0014974638917700956
8.00750e-06	0.0015365752277859378
8.00775e-06	0.0015721841340040025
8.00800e-06	0.001603287647074548
8.00825e-06	0.0016343911601450932
8.00850e-06	0.0016654946732156386
8.00875e-06	0.001696598186285973
8.00900e-06	0.0017277016993565183
8.00925e-06	0.0017588052124270638
8.00950e-06	0.0017816533192081833
8.00975e-06	0.0017938819837511426
8.01000e-06	0.0018061106482941019
8.01025e-06	0.0018183393128369783
8.01050e-06	0.0018305679773799378
8.01075e-06	0.001842796641922897
8.01100e-06	0.0018550253064657735
8.01125e-06	0.0018602158414958408
8.01150e-06	0.0018563527930665418
8.01175e-06	0.0018524897446372686
8.01200e-06	0.0018445474760040612
8.01225e-06	0.0018313578528716835
8.01250e-06	0.001818168229739395
8.01275e-06	0.0018012800778669223
8.01300e-06	0.0017796342785877093
8.01325e-06	0.0017579884793086432
8.01350e-06	0.0017330975865611806
8.01375e-06	0.0017040323283810787
8.01400e-06	0.001674967070201174
8.01425e-06	0.001642991516582945
8.01450e-06	0.0016072722690480738
8.01475e-06	0.0015715530215134447
8.01500e-06	0.0015358337739785736
8.01525e-06	0.0014980200444959994
8.01550e-06	0.0014575120526980519
8.01575e-06	0.0014170040608998298
8.01600e-06	0.0013764960691016077
8.01625e-06	0.001339592765512802
8.01650e-06	0.0013164510247353346
8.01675e-06	0.0012632449915439502
8.01700e-06	-0.001706984397612266
8.01725e-06	-0.006947173240918821
8.01750e-06	-0.008753275414173783
8.01775e-06	-0.0077240489995822215
8.01800e-06	-0.005060389697046027
8.01825e-06	-0.0013025800120836596
8.01850e-06	0.0005934310663564928
8.01875e-06	0.00046669393164237865
8.01900e-06	-0.0013444882589658909
8.01925e-06	-0.004163790132773489
8.01950e-06	-0.0054188083769450435
8.01975e-06	-0.004835375172292031
8.02000e-06	-0.003118082396778781
8.02025e-06	-0.0008911871693263095
8.02050e-06	0.0003740015198283931
8.02075e-06	0.0003434329514764141
8.02100e-06	-0.0007821288513340292
8.02125e-06	-0.0024856108621687696
8.02150e-06	-0.0035693154784794162
8.02175e-06	-0.0031262324106720034
8.02200e-06	-0.0019313108825740844
8.02225e-06	-0.0003725746969500135
8.02250e-06	0.0007765593285230526
8.02275e-06	0.0011105864404873655
8.02300e-06	0.0005417081708666471
8.02325e-06	-0.0005179903550082028
8.02350e-06	-0.0012909017224267635
8.02375e-06	-0.0013763357226065653
8.02400e-06	-0.000722276333534751
8.02425e-06	0.0002695091174137275
8.02450e-06	0.0009998068695752475
8.02475e-06	0.0012192122743980892
8.02500e-06	0.000872752228419559
8.02525e-06	0.00021856852630403983
8.02550e-06	-0.0002562704929956522
8.02575e-06	-0.0003008322998178281
8.02600e-06	0.00011739191731465474
8.02625e-06	0.0007466702314281482
8.02650e-06	0.0012116178879774393
8.02675e-06	0.0013559930867415916
8.02700e-06	0.0011453534645700471
8.02725e-06	0.0007413844708898896
8.02750e-06	0.0004491487547206711
8.02775e-06	0.0004257717616704687
8.02800e-06	0.0006915498591962214
8.02825e-06	0.0010887369946657008
8.02850e-06	0.0013821484811417718
8.02875e-06	0.0014738852399901338
8.02900e-06	0.0013423429157147968
8.02925e-06	0.0010887192640037329
8.02950e-06	0.0009039208659378097
8.02975e-06	0.0008861880414744067
8.03000e-06	0.0010481885733370443
8.03025e-06	0.0012911637149182116
8.03050e-06	0.0014678717752669675
8.03075e-06	0.0015170759303217772
8.03100e-06	0.0014253334158587268
8.03125e-06	0.0012561220076069376
8.03150e-06	0.001129104474003991
8.03175e-06	0.0011058892891406618
8.03200e-06	0.0011944788755493291
8.03225e-06	0.0013330806662589071
8.03250e-06	0.0014295392242062266
8.03275e-06	0.0014455783755005125
8.03300e-06	0.0013728623178403346
8.03325e-06	0.001251236333188801
8.03350e-06	0.0011557347693958143
8.03375e-06	0.0011250216177999528
8.03400e-06	0.0011641798825070193
8.03425e-06	0.0012345746296345418
8.03450e-06	0.0012785562101825737
8.03475e-06	0.0012722283223622862
8.03500e-06	0.0012104504832402795
8.03525e-06	0.0011182621426879737
8.03550e-06	0.0010427415688285557
8.03575e-06	0.0010081814354856748
8.03600e-06	0.0010178381376121607
8.03625e-06	0.0010475840915969198
8.03650e-06	0.0010613835962503028
8.03675e-06	0.0010443464207754612
8.03700e-06	0.0009933316888316075
8.03725e-06	0.0009241026525157144
8.03750e-06	0.0008662255287169251
8.03775e-06	0.0008349916011394615
8.03800e-06	0.0008325142776319233
8.03825e-06	0.0008437542490231402
8.03850e-06	0.0008462147099348681
8.03875e-06	0.0008306457572386902
8.03900e-06	0.0007951602835687013
8.03925e-06	0.0007497320156248456
8.03950e-06	0.0007130033805284653
8.03975e-06	0.0006946288565918558
8.04000e-06	0.0006959058745418776
8.04025e-06	0.0007073297331801563
8.04050e-06	0.0007147180149759336
8.04075e-06	0.000712187106090702
8.04100e-06	0.0006984657554474511
8.04125e-06	0.0006797120703049813
8.04150e-06	0.0006675133742617496
8.04175e-06	0.000667826245526577
8.04200e-06	0.0006813720127247976
8.04225e-06	0.0007021057878919887
8.04250e-06	0.000721053329886953
8.04275e-06	0.0007344392678443044
8.04300e-06	0.0007418799228428958
8.04325e-06	0.0007464179958145383
8.04350e-06	0.0007543827464302438
8.04375e-06	0.0007712578043015313
8.04400e-06	0.0007966222134984809
8.04425e-06	0.0008265986150645651
8.04450e-06	0.0008554751961156792
8.04475e-06	0.0008807970277292725
8.04500e-06	0.0009021740970642157
8.04525e-06	0.0009215087320630288
8.04550e-06	0.0009427750801296127
8.04575e-06	0.0009690980782397915
8.04600e-06	0.001000105367586246
8.04625e-06	0.0010334379264006822
8.04650e-06	0.0010656130852063732
8.04675e-06	0.0010936688118070238
8.04700e-06	0.001118116572662182
8.04725e-06	0.0011425643335171746
8.04750e-06	0.0011675257759544827
8.04775e-06	0.0011932868568602778
8.04800e-06	0.0012190838790844928
8.04825e-06	0.0012449368504843167
8.04850e-06	0.0012707898218841406
8.04875e-06	0.0012929449810412503
8.04900e-06	0.0013093438253504014
8.04925e-06	0.0013257426696595526
8.04950e-06	0.001341762650275998
8.04975e-06	0.0013571928608998882
8.05000e-06	0.0013727338779411728
8.05025e-06	0.0013884473852506223
8.05050e-06	0.0014041608925601783
8.05075e-06	0.0014176852578666748
8.05100e-06	0.0014278018269435813
8.05125e-06	0.0014379183960205567
8.05150e-06	0.0014480349650975318
8.05175e-06	0.001458151534174507
8.05200e-06	0.001467460464723017
8.05225e-06	0.0014766707275845339
8.05250e-06	0.0014858809904460507
8.05275e-06	0.001495091253307505
8.05300e-06	0.0015029508011153868
8.05325e-06	0.0015087077161745049
8.05350e-06	0.001514464631233584
8.05375e-06	0.001520221546292702
8.05400e-06	0.0015259784613518201
8.05425e-06	0.001531735376410899
8.05450e-06	0.001537492291470017
8.05475e-06	0.0015432492065291352
8.05500e-06	0.0015490061215882142
8.05525e-06	0.0015547630366473323
8.05550e-06	0.0015605199517064502
8.05575e-06	0.0015641158834609206
8.05600e-06	0.0015674478119305161
8.05625e-06	0.0015707797404001115
8.05650e-06	0.0015741116688696845
8.05675e-06	0.0015774435973392798
8.05700e-06	0.0015807755258088754
8.05725e-06	0.0015841074542784482
8.05750e-06	0.0015874393827480437
8.05775e-06	0.001590771311217639
8.05800e-06	0.001594103239687212
8.05825e-06	0.0015962790064835302
8.05850e-06	0.001596654998122949
8.05875e-06	0.0015970309897623653
8.05900e-06	0.001597406981401784
8.05925e-06	0.0015977829730412028
8.05950e-06	0.001598158964680619
8.05975e-06	0.0015985349563200377
8.06000e-06	0.0015989109479594564
8.06025e-06	0.0015992869395988752
8.06050e-06	0.0015996629312382913
8.06075e-06	0.00160003892287771
8.06100e-06	0.0016004149145171288
8.06125e-06	0.001600790906156545
8.06150e-06	0.0016011668977959637
8.06175e-06	0.0016015428894353824
8.06200e-06	0.0016019188810747988
8.06225e-06	0.0016022948727142175
8.06250e-06	0.0016026708643536362
8.06275e-06	0.0016030468559930524
8.06300e-06	0.0016034228476324711
8.06325e-06	0.0016021001718423066
8.06350e-06	0.0016005699730321232
8.06375e-06	0.0015990397742219292
8.06400e-06	0.0015975095754117354
8.06425e-06	0.001595979376601552
8.06450e-06	0.0015944491777913582
8.06475e-06	0.0015929189789811642
8.06500e-06	0.0015913887801709808
8.06525e-06	0.001589858581360787
8.06550e-06	0.0015883283825505932
8.06575e-06	0.0015867981837404095
8.06600e-06	0.0015852679849302157
8.06625e-06	0.001583737786120022
8.06650e-06	0.0015822075873098383
8.06675e-06	0.0015806773884996445
8.06700e-06	0.0015791471896894507
8.06725e-06	0.0015776169908792673
8.06750e-06	0.0015760867920690733
8.06775e-06	0.0015745565932588795
8.06800e-06	0.001573463699561133
8.06825e-06	0.001573051550516758
8.06850e-06	0.0015726394014723831
8.06875e-06	0.0015722272524280082
8.06900e-06	0.0015718151033836361
8.06925e-06	0.0015714029543392612
8.06950e-06	0.0015709908052948863
8.06975e-06	0.001570578656250514
8.07000e-06	0.001570166507206139
8.07025e-06	0.0015697543581617642
8.07050e-06	0.001569342209117392
8.07075e-06	0.0015689300600730172
8.07100e-06	0.0015685179110286422
8.07125e-06	0.0015681057619842701
8.07150e-06	0.0015676936129398952
8.07175e-06	0.00156728146389552
8.07200e-06	0.001566869314851148
8.07225e-06	0.001566457165806773
8.07250e-06	0.001567637481777239
8.07275e-06	0.0015712967581206839
8.07300e-06	0.0015749560344641533
8.07325e-06	0.001578615310807623
8.07350e-06	0.0015822745871510676
8.07375e-06	0.0015859338634945372
8.07400e-06	0.0015895931398380067
8.07425e-06	0.0015932524161814514
8.07450e-06	0.001596911692524921
8.07475e-06	0.0016005709688683906
8.07500e-06	0.0016042302452118353
8.07525e-06	0.0016078895215553047
8.07550e-06	0.0016115487978987744
8.07575e-06	0.001615208074242219
8.07600e-06	0.0016188673505856887
8.07625e-06	0.0016225266269291581
8.07650e-06	0.001626185903272603
8.07675e-06	0.0016298451796160724
8.07700e-06	0.0016336905853429563
8.07725e-06	0.0016378257351844683
8.07750e-06	0.001641960885025952
8.07775e-06	0.001646096034867464
8.07800e-06	0.001650231184708976
8.07825e-06	0.00165436633455046
8.07850e-06	0.0016571904306938048
8.07875e-06	0.0016579736341739502
8.07900e-06	0.00165875683765409
8.07925e-06	0.0016595400411342353
8.07950e-06	0.0016603232446143804
8.07975e-06	0.0016611064480945203
8.08000e-06	0.0016579327370327749
8.08025e-06	0.001648599371435923
8.08050e-06	0.0016392660058391342
8.08075e-06	0.0016269551569874244
8.08100e-06	0.0016100093158861158
8.08125e-06	0.001593063474784922
8.08150e-06	0.001572515988754922
8.08175e-06	0.001546361889722639
8.08200e-06	0.0015202077906905334
8.08225e-06	0.0014904762403368038
8.08250e-06	0.0014551757387145441
8.08275e-06	0.0014198752370925237
8.08300e-06	0.0013816563853984755
8.08325e-06	0.001338894592969684
8.08350e-06	0.0012961328005411824
8.08375e-06	0.0012505244192544246
8.08400e-06	0.0012004848065663004
8.08425e-06	0.0011504451938785154
8.08450e-06	0.001098421485321712
8.08475e-06	0.0010433091719977473
8.08500e-06	0.000988196858674156
8.08525e-06	0.0009317942683297437
8.08550e-06	0.0008733831279856381
8.08575e-06	0.0008149719876415324
8.08600e-06	0.0007565608472978225
8.08625e-06	0.0006980604237779736
8.08650e-06	0.0006394210148156381
8.08675e-06	0.0005807816058537
8.08700e-06	0.0005221421968913646
8.08725e-06	0.00046467608206659974
8.08750e-06	0.00040903641218577454
8.08775e-06	0.00035431198805783515
8.08800e-06	0.000301796628904597
8.08825e-06	0.00025143337006254107
8.08850e-06	0.00020359768509420158
8.08875e-06	0.00015866508934086798
8.08900e-06	0.00011698804602995201
8.08925e-06	7.867962240475605e-05
8.08950e-06	4.332479393224227e-05
8.08975e-06	1.0310623090555136e-05
8.09000e-06	-2.0575490795557582e-05
8.09025e-06	-4.9205412099334516e-05
8.09050e-06	-7.539677179607733e-05
8.09075e-06	-9.89671823490994e-05
8.09100e-06	-0.00011974871145325322
8.09125e-06	-0.00013772341327226905
8.09150e-06	-0.0001532041210060059
8.09175e-06	-0.00016662760793502603
8.09200e-06	-0.00017817983848443799
8.09225e-06	-0.0001878333558378161
8.09250e-06	-0.0001955267281459481
8.09275e-06	-0.00020119851088574035
8.09300e-06	-0.0002047963391190687
8.09325e-06	-0.00020636179298089252
8.09350e-06	-0.0002061436389257225
8.09375e-06	-0.0002044682566505225
8.09400e-06	-0.0002015049138460903
8.09425e-06	-0.00019728914723983902
8.09450e-06	-0.00019183524681255475
8.09475e-06	-0.00018515750254491592
8.09500e-06	-0.00017727586198802107
8.09525e-06	-0.00016826912133424405
8.09550e-06	-0.0001582415776264802
8.09575e-06	-0.00014760092617319378
8.09600e-06	-0.00013660417791022341
8.09625e-06	-0.00012505310043258946
8.09650e-06	-0.00011320408794111978
8.09675e-06	-0.00010089128561030199
8.09700e-06	-8.857848327940077e-05
8.09725e-06	-7.620091889103991e-05
8.09750e-06	-6.372254062444628e-05
8.09775e-06	-5.142735252076767e-05
8.09800e-06	-3.960429047327687e-05
8.09825e-06	-2.829491231490603e-05
8.09850e-06	-1.7590466387307656e-05
8.09875e-06	-7.582189520736232e-06
8.09900e-06	1.6601245060039181e-06
8.09925e-06	1.0282074479823277e-05
8.09950e-06	1.8881736941364934e-05
8.09975e-06	2.8165058525959716e-05
8.10000e-06	3.839843010519167e-05
8.10025e-06	4.950714687385639e-05
8.10050e-06	6.136430758629064e-05
8.10075e-06	7.38430302944952e-05
8.10100e-06	8.68298708944476e-05
8.10125e-06	0.00010034630587475088
8.10150e-06	0.00011469722933935461
8.10175e-06	0.00013025506262442734
8.10200e-06	0.00014711688229865434
8.10225e-06	0.00016516607983007908
8.10250e-06	0.00018425337533523013
8.10275e-06	0.00020422950729636342
8.10300e-06	0.00022495362843670723
8.10325e-06	0.00024655514324466735
8.10350e-06	0.0002688872253979653
8.10375e-06	0.0002919769723266392
8.10400e-06	0.00031624616177939165
8.10425e-06	0.0003411711892283035
8.10450e-06	0.0003671171473662608
8.10475e-06	0.0003930631055043939
8.10500e-06	0.0004194709202105387
8.10525e-06	0.0004465976983603322
8.10550e-06	0.00047372447651030953
8.10575e-06	0.0005008512546602869
8.10600e-06	0.0005279780328100804
8.10625e-06	0.0005549114586567821
8.10650e-06	0.0005815438966049196
8.10675e-06	0.0006081763345528767
8.10700e-06	0.0006348087725010142
8.10725e-06	0.0006614412104491517
8.10750e-06	0.0006870584700694781
8.10775e-06	0.0007110954206564626
8.10800e-06	0.0007351323712434471
8.10825e-06	0.0007578552249595773
8.10850e-06	0.0007785324487611902
8.10875e-06	0.000799209672562803
8.10900e-06	0.0008183081382786765
8.10925e-06	0.0008349489809380754
8.10950e-06	0.0008498857110566651
8.10975e-06	0.0008621696811927773
8.11000e-06	0.0008725868352622055
8.11025e-06	0.0008800979518265047
8.11050e-06	0.0008857255755825165
8.11075e-06	0.0008884212014632589
8.11100e-06	0.0008892061394945497
8.11125e-06	0.0008870167456407736
8.11150e-06	0.0008828329614939393
8.11175e-06	0.0008755445474402957
8.11200e-06	0.0008663206751689908
8.11225e-06	0.0008540839114458791
8.11250e-06	0.0008400620192303925
8.11275e-06	0.0008232612510226338
8.11300e-06	0.0008048191499527846
8.11325e-06	0.0007838220168467913
8.11350e-06	0.0007612919098559932
8.11375e-06	0.0007363754512140517
8.11400e-06	0.0007098429423328142
8.11425e-06	0.0006807947583999138
8.11450e-06	0.0006517465744672102
8.11475e-06	0.0006212664371018186
8.11500e-06	0.0005885572047255512
8.11525e-06	0.0005558479723495052
8.11550e-06	0.0005221451829203949
8.11575e-06	0.0004868957418898266
8.11600e-06	0.00045164630085949714
8.11625e-06	0.0004163968598289288
8.11650e-06	0.0003811474187983605
8.11675e-06	0.000345897977768031
8.11700e-06	0.0003106485367374627
8.11725e-06	0.0002758771896696357
8.11750e-06	0.00024185008249349535
8.11775e-06	0.00020837060990943382
8.11800e-06	0.00017622533150918603
8.11825e-06	0.00014540202378098439
8.11850e-06	0.00011613184674367468
8.11875e-06	8.864593638822669e-05
8.11900e-06	6.31867578853403e-05
8.11925e-06	4.010301884934602e-05
8.11950e-06	1.994140602457146e-05
8.11975e-06	3.2233942495114327e-06
8.12000e-06	-9.835317562808386e-06
8.12025e-06	-1.9225964113511133e-05
8.12050e-06	-2.4969295025415215e-05
8.12075e-06	-2.7086080011017046e-05
8.12100e-06	-2.5589990246212135e-05
8.12125e-06	-2.0428166840636187e-05
8.12150e-06	-1.1423745246064737e-05
8.12175e-06	1.5843155176466992e-06
8.12200e-06	1.8565509854403694e-05
8.12225e-06	3.935970745074651e-05
8.12250e-06	6.378829855419801e-05
8.12275e-06	9.167267509150937e-05
8.12300e-06	0.0001228386739883994
8.12325e-06	0.00015715381574400562
8.12350e-06	0.00019456331213985284
8.12375e-06	0.00023500243970941812
8.12400e-06	0.00027828650048365684
8.12425e-06	0.00032414962093872164
8.12450e-06	0.00037231438717606513
8.12475e-06	0.00042281332853267537
8.12500e-06	0.000474924435457388
8.12525e-06	0.0005283156331185891
8.12550e-06	0.0005836995239858224
8.12575e-06	0.0006390834148530557
8.12600e-06	0.0006951356844736251
8.12625e-06	0.0007522284067461255
8.12650e-06	0.0008093211290186259
8.12675e-06	0.0008664138512907393
8.12700e-06	0.0009223982475716452
8.12725e-06	0.0009766573335993867
8.12750e-06	0.0010309164196267604
8.12775e-06	0.0010851755056545018
8.12800e-06	0.0011368274952527728
8.12825e-06	0.0011844210668088841
8.12850e-06	0.0012320146383646728
8.12875e-06	0.0012760865678203993
8.12900e-06	0.001314676423165986
8.12925e-06	0.0013532662785113116
8.12950e-06	0.0013898233244501968
8.12975e-06	0.0014232159341681422
8.13000e-06	0.0014566085438858611
8.13025e-06	0.0014875921632027406
8.13050e-06	0.0015148257524104942
8.13075e-06	0.0015420593416180632
8.13100e-06	0.0015692929308258167
8.13125e-06	0.0015965265200335703
8.13150e-06	0.0016237601092411393
8.13175e-06	0.0016509936984488928
8.13200e-06	0.0016782272876566464
8.13225e-06	0.001703270446638239
8.13250e-06	0.0017249038040299317
8.13275e-06	0.0017465371614216244
8.13300e-06	0.0017681705188131705
8.13325e-06	0.0017898038762048632
8.13350e-06	0.0018114372335965559
8.13375e-06	0.001833070590988102
8.13400e-06	0.0018547039483797947
8.13425e-06	0.0018750062930077975
8.13450e-06	0.0018932366750666395
8.13475e-06	0.001911467057125605
8.13500e-06	0.0019296974391845706
8.13525e-06	0.0019479278212434126
8.13550e-06	0.0019661582033023784
8.13575e-06	0.0019843885853613437
8.13600e-06	0.002002618967420186
8.13625e-06	0.0020208493494791513
8.13650e-06	0.0020390797315381166
8.13675e-06	0.002053097196129468
8.13700e-06	0.002066599976477439
8.13725e-06	0.0020801027568255015
8.13750e-06	0.002093605537173564
8.13775e-06	0.002107108317521535
8.13800e-06	0.0021206110978695975
8.13825e-06	0.00213411387821766
8.13850e-06	0.002147616658565631
8.13875e-06	0.0021611194389136936
8.13900e-06	0.00217229201365811
8.13925e-06	0.0021798372011065377
8.13950e-06	0.0021873823885550166
8.13975e-06	0.0021911272369060284
8.14000e-06	0.0021889561687641755
8.14025e-06	0.002186785100622308
8.14050e-06	0.0021806781241864737
8.14075e-06	0.002168444193236165
8.14100e-06	0.0021562102622857742
8.14125e-06	0.0021398045884943855
8.14150e-06	0.002116904840978823
8.14175e-06	0.002094005093463105
8.14200e-06	0.0020664740763497043
8.14225e-06	0.0020317336488409896
8.14250e-06	0.0019969932213320394
8.14275e-06	0.001958413523356593
8.14300e-06	0.0019138573051574628
8.14325e-06	0.001869301086958031
8.14350e-06	0.0018211618167880196
8.14375e-06	0.00176744487691439
8.14400e-06	0.0017137279370403966
8.14425e-06	0.001657136222910988
8.14450e-06	0.001596069401693865
8.14475e-06	0.001535002580476328
8.14500e-06	0.0014718750123581515
8.14525e-06	0.0014055395182455141
8.14550e-06	0.0013392040241333265
8.14575e-06	0.0012728685300206891
8.14600e-06	0.0012065330359080518
8.14625e-06	0.0011390267160626486
