Time(s)	Current(A)
5.50000e-06	-0.0014234364935105462
5.50025e-06	-0.0014209473197256937
5.50050e-06	-0.0014184581459408413
5.50075e-06	-0.0014159689721559806
5.50100e-06	-0.0014134797983711281
5.50125e-06	-0.001410990624586276
5.50150e-06	-0.001408501450801415
5.50175e-06	-0.0014060122770165626
5.50200e-06	-0.0014035231032317103
5.50225e-06	-0.0014010339294468494
5.50250e-06	-0.0013984400147216104
5.50275e-06	-0.001393440200166562
5.50300e-06	-0.0013884403856114968
5.50325e-06	-0.0013834405710564485
5.50350e-06	-0.0013784407565013833
5.50375e-06	-0.001373440941946335
5.50400e-06	-0.0013684411273912867
5.50425e-06	-0.0013634413128362215
5.50450e-06	-0.0013584414982811732
5.50475e-06	-0.0013534416837261251
5.50500e-06	-0.00134844186917106
5.50525e-06	-0.0013434420546160116
5.50550e-06	-0.0013384422400609633
5.50575e-06	-0.0013339032891963927
5.50600e-06	-0.0013297542180226503
5.50625e-06	-0.001325605146848908
5.50650e-06	-0.0013214560756751514
5.50675e-06	-0.001317307004501409
5.50700e-06	-0.0013131579333276666
5.50725e-06	-0.00130900886215391
5.50750e-06	-0.0013048597909801679
5.50775e-06	-0.0013001275556996862
5.50800e-06	-0.001294901977493095
5.50825e-06	-0.0012896763992865036
5.50850e-06	-0.0012844508210798945
5.50875e-06	-0.0012792252428733032
5.50900e-06	-0.001273999664666712
5.50925e-06	-0.001268774086460103
5.50950e-06	-0.0012635485082535117
5.50975e-06	-0.0012565771175326768
5.51000e-06	-0.0012481288110615387
5.51025e-06	-0.0012396805045904293
5.51050e-06	-0.0012312321981193199
5.51075e-06	-0.0012227838916481818
5.51100e-06	-0.0012143355851770726
5.51125e-06	-0.0012058872787059631
5.51150e-06	-0.001197438972234825
5.51175e-06	-0.0011889906657637157
5.51200e-06	-0.0011805423592925776
5.51225e-06	-0.0011709963481015204
5.51250e-06	-0.0011605217048971592
5.51275e-06	-0.0011500470616927624
5.51300e-06	-0.0011395724184884012
5.51325e-06	-0.00112909777528404
5.51350e-06	-0.0011186231320796435
5.51375e-06	-0.0011081484888752823
5.51400e-06	-0.001097673845670921
5.51425e-06	-0.0010871992024665243
5.51450e-06	-0.001076724559262163
5.51475e-06	-0.0010665177729575705
5.51500e-06	-0.0010565375872018702
5.51525e-06	-0.0010465574014462038
5.51550e-06	-0.0010366246574065336
5.51575e-06	-0.0010277816497759724
5.51600e-06	-0.0010189386421454413
5.51625e-06	-0.00101009563451488
5.51650e-06	-0.0010019942233269587
5.51675e-06	-0.0009945201850426867
5.51700e-06	-0.0009872124475004643
5.51725e-06	-0.00098004539641985
5.51750e-06	-0.0009717934489926622
5.51775e-06	-0.0009626237051306281
5.51800e-06	-0.0009520546785299178
5.51825e-06	-0.000940301892104665
5.51850e-06	-0.0009285491056793725
5.51875e-06	-0.0009154042573856988
5.51900e-06	-0.0009010817579515456
5.51925e-06	-0.0008867592585173438
5.51950e-06	-0.0008701858235680563
5.51975e-06	-0.0008517081508570416
5.52000e-06	-0.0008332304781459641
5.52025e-06	-0.0008127833051789281
5.52050e-06	-0.0007906699819671833
5.52075e-06	-0.0007685566587555133
5.52100e-06	-0.0007448265963487181
5.52125e-06	-0.0007197288111415006
5.52150e-06	-0.0006946310259343682
5.52175e-06	-0.0006678458799491118
5.52200e-06	-0.0006396332669885285
5.52225e-06	-0.000611420654028041
5.52250e-06	-0.0005823619221895364
5.52275e-06	-0.0005525873939598263
5.52300e-06	-0.0005224439549353742
5.52325e-06	-0.000491988426176908
5.52350e-06	-0.00046120192772472804
5.52375e-06	-0.0004301354368053988
5.52400e-06	-0.00039906429488882703
5.52425e-06	-0.00036798921833940774
5.52450e-06	-0.0003373185499418627
5.52475e-06	-0.00030699000119557645
5.52500e-06	-0.0002773900902903002
5.52525e-06	-0.0002484065896205898
5.52550e-06	-0.000220075213945528
5.52575e-06	-0.00019283798440250408
5.52600e-06	-0.0001667090008109863
5.52625e-06	-0.00014188551983650524
5.52650e-06	-0.00011856475448909686
5.52675e-06	-9.69398971260008e-05
5.52700e-06	-7.70585533834993e-05
5.52725e-06	-5.863706308749198e-05
5.52750e-06	-4.126682755661198e-05
5.52775e-06	-2.477582541233642e-05
5.52800e-06	-9.218806680457129e-06
5.52825e-06	5.29455547907396e-06
5.52850e-06	1.8654618108762092e-05
5.52875e-06	3.075427226861626e-05
5.52900e-06	4.15776127620302e-05
5.52925e-06	5.1316226111700484e-05
5.52950e-06	6.023994267613517e-05
5.52975e-06	6.847037901160793e-05
5.53000e-06	7.598710652971492e-05
5.53025e-06	8.27352936139048e-05
5.53050e-06	8.866012835523125e-05
5.53075e-06	9.370840000914235e-05
5.53100e-06	9.788402659160428e-05
5.53125e-06	0.0001013208858066521
5.53150e-06	0.00010420186349643042
5.53175e-06	0.00010661699877684862
5.53200e-06	0.00010843333985297977
5.53225e-06	0.00010991900672428346
5.53250e-06	0.00011084702296768174
5.53275e-06	0.0001113032800797747
5.53300e-06	0.0001112568116881782
5.53325e-06	0.00011078504951040937
5.53350e-06	0.00011004154690643534
5.53375e-06	0.00010906815838287346
5.53400e-06	0.00010782749846336028
5.53425e-06	0.00010636073331727864
5.53450e-06	0.00010489396817119698
5.53475e-06	0.00010315244558195072
5.53500e-06	0.00010117848474874139
5.53525e-06	9.920452391553205e-05
5.53550e-06	9.723056308231602e-05
5.53575e-06	9.526684073022538e-05
5.53600e-06	9.353829633046159e-05
5.53625e-06	9.180975193069193e-05
5.53650e-06	9.008120753092813e-05
5.53675e-06	8.835266313116433e-05
5.53700e-06	8.66902588026428e-05
5.53725e-06	8.508380739696485e-05
5.53750e-06	8.319037763681569e-05
5.53775e-06	8.071154034349339e-05
5.53800e-06	7.794284565841982e-05
5.53825e-06	7.487046253173277e-05
5.53850e-06	7.136466088104328e-05
5.53875e-06	6.755141389458987e-05
5.53900e-06	6.342674373518089e-05
5.53925e-06	5.890232888811411e-05
5.53950e-06	5.3868756032519026e-05
5.53975e-06	4.8293215482831875e-05
5.54000e-06	4.220956161701247e-05
5.54025e-06	3.566723123259675e-05
5.54050e-06	2.8715656578502767e-05
5.54075e-06	2.1403578395214375e-05
5.54100e-06	1.3755416300828655e-05
5.54125e-06	5.742761729397594e-06
5.54150e-06	-2.6760028565351796e-06
5.54175e-06	-1.1494508464689514e-05
5.54200e-06	-2.0664624434718655e-05
5.54225e-06	-3.012846953892783e-05
5.54250e-06	-3.986940505486756e-05
5.54275e-06	-4.974115877333871e-05
5.54300e-06	-5.978994665821025e-05
5.54325e-06	-6.998850122561662e-05
5.54350e-06	-8.018705579298842e-05
5.54375e-06	-9.046379375540597e-05
5.54400e-06	-0.00010080667300538815
5.54425e-06	-0.0001111495522553353
5.54450e-06	-0.00012149243150528244
5.54475e-06	-0.0001314858947335417
5.54500e-06	-0.0001411837603409915
5.54525e-06	-0.00015088162594844128
5.54550e-06	-0.00016057949155592392
5.54575e-06	-0.00016965126264390453
5.54600e-06	-0.00017819337270083134
5.54625e-06	-0.00018673548275778708
5.54650e-06	-0.00019458383088379118
5.54675e-06	-0.0002018452729625589
5.54700e-06	-0.00020887882405941423
5.54725e-06	-0.0002157195848208205
5.54750e-06	-0.00022344022754722733
5.54775e-06	-0.00023190522943067823
5.54800e-06	-0.0002413164648787662
5.54825e-06	-0.0002515281913547735
5.54850e-06	-0.0002624522495907896
5.54875e-06	-0.0002739789235065856
5.54900e-06	-0.00028629219930201245
5.54925e-06	-0.0002992709215269558
5.54950e-06	-0.00031358473221830086
5.54975e-06	-0.0003290279959102032
5.55000e-06	-0.0003457024179876828
5.55025e-06	-0.0003634183706960687
5.55050e-06	-0.00038207351740894037
5.55075e-06	-0.0004015231998495491
5.55100e-06	-0.0004220766086067548
5.55125e-06	-0.0004435637435035944
5.55150e-06	-0.0004650508784004341
5.55175e-06	-0.0004882753855541491
5.55200e-06	-0.0005129696682003629
5.55225e-06	-0.0005376639508465769
5.55250e-06	-0.0005623582334928744
5.55275e-06	-0.0005870525161390883
5.55300e-06	-0.0006118134478374832
5.55325e-06	-0.0006381053085284126
5.55350e-06	-0.0006643971692192529
5.55375e-06	-0.0006906890299100931
5.55400e-06	-0.0007169808906010225
5.55425e-06	-0.0007432727512918628
5.55450e-06	-0.0007691105045690153
5.55475e-06	-0.0007945640938048444
5.55500e-06	-0.0008200176830405873
5.55525e-06	-0.0008444062517165686
5.55550e-06	-0.0008678938383998519
5.55575e-06	-0.0008913814250831352
5.55600e-06	-0.0009131995717794975
5.55625e-06	-0.0009336054120633781
5.55650e-06	-0.0009540112523472587
5.55675e-06	-0.0009721794952294582
5.55700e-06	-0.0009884547840770437
5.55725e-06	-0.0010047300729246293
5.55750e-06	-0.0010180360726373
5.55775e-06	-0.0010288301245601579
5.55800e-06	-0.0010396241764830155
5.55825e-06	-0.0010504182284059099
5.55850e-06	-0.0010612122803287678
5.55875e-06	-0.0010720063322516254
5.55900e-06	-0.0010828003841745198
5.55925e-06	-0.0010935944360973774
5.55950e-06	-0.0011043884880202717
5.55975e-06	-0.0011151825399431296
5.56000e-06	-0.0011224802023228405
5.56025e-06	-0.0011268200025391127
5.56050e-06	-0.0011311598027553705
5.56075e-06	-0.001135499602971628
5.56100e-06	-0.0011398394031879003
5.56125e-06	-0.0011441792034041578
5.56150e-06	-0.0011485190036204154
5.56175e-06	-0.0011528588038366876
5.56200e-06	-0.0011571986040529452
5.56225e-06	-0.001161538404269203
5.56250e-06	-0.0011640602021867458
5.56275e-06	-0.00116504401351959
5.56300e-06	-0.0011660278248524342
5.56325e-06	-0.0011670116361852817
5.56350e-06	-0.0011679954475181259
5.56375e-06	-0.0011689792588509733
5.56400e-06	-0.0011699630701838175
5.56425e-06	-0.0011709468815166617
5.56450e-06	-0.0011712667590513656
5.56475e-06	-0.001171024964427931
5.56500e-06	-0.0011707831698044965
5.56525e-06	-0.0011705413751810611
5.56550e-06	-0.0011702995805576266
5.56575e-06	-0.001170057785934192
5.56600e-06	-0.0011698159913107566
5.56625e-06	-0.001169574196687322
5.56650e-06	-0.0011692822974223875
5.56675e-06	-0.0011689480108257604
5.56700e-06	-0.0011681913821471612
5.56725e-06	-0.0011670774621402602
5.56750e-06	-0.001164096784245015
5.56775e-06	-0.0011595368736992684
5.56800e-06	-0.0011549769631535064
5.56825e-06	-0.0011482248089981241
5.56850e-06	-0.0011396180690350297
5.56875e-06	-0.0011310113290719061
5.56900e-06	-0.0011201397794314205
5.56925e-06	-0.0011073522548206627
5.56950e-06	-0.0010945647302098615
5.56975e-06	-0.0010789797542576046
5.57000e-06	-0.0010610282011910331
5.57025e-06	-0.0010430766481244007
5.57050e-06	-0.0010228732871512376
5.57075e-06	-0.0010007649503958526
5.57100e-06	-0.0009786566136403927
5.57125e-06	-0.0009544297450124378
5.57150e-06	-0.0009284106489483669
5.57175e-06	-0.0009023915528842079
5.57200e-06	-0.0008748127225588733
5.57225e-06	-0.0008459143942488967
5.57250e-06	-0.000816197726915354
5.57275e-06	-0.0007857887642856186
5.57300e-06	-0.0007548310155130988
5.57325e-06	-0.0007234090067528253
5.57350e-06	-0.0006915553696821581
5.57375e-06	-0.0006593365853553616
5.57400e-06	-0.000627040294918658
5.57425e-06	-0.0005946784361614452
5.57450e-06	-0.0005626594110823795
5.57475e-06	-0.0005309304151184484
5.57500e-06	-0.0004998985169279876
5.57525e-06	-0.0004694563468275979
5.57550e-06	-0.0004399701379711622
5.57575e-06	-0.0004112926495267892
5.57600e-06	-0.0003839782895442915
5.57625e-06	-0.0003578171037292925
5.57650e-06	-0.00033295881990338917
5.57675e-06	-0.00031022137578030163
5.57700e-06	-0.00028948729475401005
5.57725e-06	-0.0002709789757179874
5.57750e-06	-0.00025486585767099055
5.57775e-06	-0.00024123117144005837
5.57800e-06	-0.0002301099722035698
5.57825e-06	-0.0002215285516298873
5.57850e-06	-0.00021551317714013288
5.57875e-06	-0.0002120903738676329
5.57900e-06	-0.00021129338507682873
5.57925e-06	-0.00021315800637564046
5.57950e-06	-0.00021768685173040634
5.57975e-06	-0.00022482856352295426
5.58000e-06	-0.00023450158734449622
5.58025e-06	-0.00024661888152122715
5.58050e-06	-0.0002610933795158998
5.58075e-06	-0.0002778382088412621
5.58100e-06	-0.0002967706962086901
5.58125e-06	-0.0003178097496834515
5.58150e-06	-0.0003408535088582866
5.58175e-06	-0.0003662111023880591
5.58200e-06	-0.00039276991928667327
5.58225e-06	-0.00042093665688039135
5.58250e-06	-0.00045046365703196596
5.58275e-06	-0.0004815047065646672
5.58300e-06	-0.0005138266057627723
5.58325e-06	-0.000546148504960768
5.58350e-06	-0.0005795603351447938
5.58375e-06	-0.000613894220947487
5.58400e-06	-0.000648228106750064
5.58425e-06	-0.0006826924832437087
5.58450e-06	-0.0007172672517498163
5.58475e-06	-0.0007518420202558068
5.58500e-06	-0.000785563170478829
5.58525e-06	-0.0008185621799936774
5.58550e-06	-0.0008515611895085258
5.58575e-06	-0.0008826616146497384
5.58600e-06	-0.000912155882693326
5.58625e-06	-0.0009416501507369136
5.58650e-06	-0.0009681982406341188
5.58675e-06	-0.0009922539340879175
5.58700e-06	-0.0010163096275417163
5.58725e-06	-0.0010381276395074184
5.58750e-06	-0.001058052626304493
5.58775e-06	-0.0010779776131015675
5.58800e-06	-0.0010946277442730413
5.58825e-06	-0.0011085074256930365
5.58850e-06	-0.0011223871071130316
5.58875e-06	-0.0011362667885330736
5.58900e-06	-0.0011501464699530688
5.58925e-06	-0.001164026151373111
5.58950e-06	-0.0011779058327931059
5.58975e-06	-0.001191785514213101
5.59000e-06	-0.0012056651956331432
5.59025e-06	-0.0012159166717655029
5.59050e-06	-0.0012230987727602223
5.59075e-06	-0.001230280873754966
5.59100e-06	-0.0012374629747496854
5.59125e-06	-0.0012446450757444048
5.59150e-06	-0.0012518271767391486
5.59175e-06	-0.001259009277733868
5.59200e-06	-0.0012661913787285874
5.59225e-06	-0.001273373479723331
5.59250e-06	-0.001278407124432991
5.59275e-06	-0.0012816232263680259
5.59300e-06	-0.0012848393283030714
5.59325e-06	-0.0012880554302381062
5.59350e-06	-0.0012912715321731518
5.59375e-06	-0.0012944876341081865
5.59400e-06	-0.0012977037360432213
5.59425e-06	-0.0013009198379782668
5.59450e-06	-0.0013041359399133016
5.59475e-06	-0.001307273143340399
5.59500e-06	-0.0013085980477367495
5.59525e-06	-0.0013099229521330955
5.59550e-06	-0.0013112478565294415
5.59575e-06	-0.001312572760925792
5.59600e-06	-0.001313897665322138
5.59625e-06	-0.001315222569718484
5.59650e-06	-0.0013165474741148344
5.59675e-06	-0.0013178723785111804
5.59700e-06	-0.0013191972829075262
5.59725e-06	-0.0013194636769559398
5.59750e-06	-0.0013188345964964645
5.59775e-06	-0.0013182055160369868
5.59800e-06	-0.0013175764355775113
5.59825e-06	-0.001316947355118036
5.59850e-06	-0.0013163182746585584
5.59875e-06	-0.001315689194199083
5.59900e-06	-0.0013150601137396076
5.59925e-06	-0.00131443103328013
5.59950e-06	-0.0013138019528206545
5.59975e-06	-0.0013131728723611792
5.60000e-06	-0.0013125437919017015
5.60025e-06	-0.0013118099297043221
5.60050e-06	-0.001308669230585946
5.60075e-06	-0.0013055285314675592
5.60100e-06	-0.001302387832349183
5.60125e-06	-0.0012992471332308067
5.60150e-06	-0.00129610643411242
5.60175e-06	-0.0012929657349940438
5.60200e-06	-0.001289825035875657
5.60225e-06	-0.0012866843367572807
5.60250e-06	-0.0012835436376389044
5.60275e-06	-0.0012804029385205177
5.60300e-06	-0.0012772622394021415
5.60325e-06	-0.0012741215402837652
5.60350e-06	-0.001270529577763445
5.60375e-06	-0.0012665558571682044
5.60400e-06	-0.0012625821365729638
5.60425e-06	-0.0012586084159777098
5.60450e-06	-0.0012546346953824692
5.60475e-06	-0.0012506609747872286
5.60500e-06	-0.0012468946413708663
5.60525e-06	-0.0012433037525614535
5.60550e-06	-0.0012397128637520408
5.60575e-06	-0.001236121974942616
5.60600e-06	-0.0012325310861332033
5.60625e-06	-0.0012289401973237782
5.60650e-06	-0.001225715765054437
5.60675e-06	-0.001222801346277607
5.60700e-06	-0.001219886927500767
5.60725e-06	-0.001215975040613999
5.60750e-06	-0.0012112193194969395
5.60775e-06	-0.001206463598379864
5.60800e-06	-0.0011993837744644885
5.60825e-06	-0.001190337815014184
5.60850e-06	-0.0011812918555638488
5.60875e-06	-0.0011722458961135444
5.60900e-06	-0.0011631999366632398
5.60925e-06	-0.0011508979259801583
5.60950e-06	-0.001135841373614736
5.60975e-06	-0.0011207848212493139
5.61000e-06	-0.0011057282688838406
5.61025e-06	-0.0010906717165184183
5.61050e-06	-0.0010721719736081373
5.61075e-06	-0.0010507593736210975
5.61100e-06	-0.0010293467736340574
5.61125e-06	-0.001007934173646945
5.61150e-06	-0.000986521573659905
5.61175e-06	-0.000965108973672865
5.61200e-06	-0.0009410315256906804
5.61225e-06	-0.0009146996798645214
5.61250e-06	-0.0008883678340383625
5.61275e-06	-0.0008620359882121144
5.61300e-06	-0.0008357041423859555
5.61325e-06	-0.0008093722965597965
5.61350e-06	-0.0007821878099479757
5.61375e-06	-0.000754282009568163
5.61400e-06	-0.0007263346497688886
5.61425e-06	-0.0006983521316918971
5.61450e-06	-0.0006706927554440189
5.61475e-06	-0.0006433067494760707
5.61500e-06	-0.0006165439140748558
5.61525e-06	-0.0005903082661096332
5.61550e-06	-0.0005648996442851886
5.61575e-06	-0.0005401906668504044
5.61600e-06	-0.0005166544896110932
5.61625e-06	-0.0004941104733643329
5.61650e-06	-0.00047312280692503387
5.61675e-06	-0.00045345177530188644
5.61700e-06	-0.0004352298910844946
5.61725e-06	-0.0004182339510084941
5.61750e-06	-0.00040711860259722704
5.61775e-06	-0.0014465045140482113
5.61800e-06	-0.02830576763194503
5.61825e-06	-0.02177379123931553
5.61850e-06	-0.01662702333506717
5.61875e-06	-0.011509611663437282
5.61900e-06	0.008073412168113771
5.61925e-06	0.006340449699456368
5.61950e-06	0.0051563291192827715
5.61975e-06	0.0001397162169083071
5.62000e-06	-0.00881894521398163
5.62025e-06	-0.010349478932880086
5.62050e-06	-0.007261115860241243
5.62075e-06	-0.0026080454756424315
5.62100e-06	0.004123774473007438
5.62125e-06	0.005854656529626247
5.62150e-06	0.004573629490315105
5.62175e-06	0.0011495992547788615
5.62200e-06	-0.0045853682475150625
5.62225e-06	-0.0056388105627617905
5.62250e-06	-0.0037782578245823062
5.62275e-06	-0.0009219553526931957
5.62300e-06	0.0032482345941313717
5.62325e-06	0.004294827014203075
5.62350e-06	0.0034617964638549506
5.62375e-06	0.0012919080104419386
5.62400e-06	-0.0023211751786717714
5.62425e-06	-0.0029984218965318794
5.62450e-06	-0.001847971615128478
5.62475e-06	-7.209206168222546e-05
5.62500e-06	0.0025279940249065534
5.62525e-06	0.003172366471067135
5.62550e-06	0.0026401316118894666
5.62575e-06	0.0012711658366139922
5.62600e-06	-0.0010012187523003842
5.62625e-06	-0.0014341709052459587
5.62650e-06	-0.0007220627110007229
5.62675e-06	0.00038185659073062097
5.62700e-06	0.002001879494956959
5.62725e-06	0.0023961449798349335
5.62750e-06	0.0020520838485431334
5.62775e-06	0.001182395097642676
5.62800e-06	-0.00025458155601342696
5.62825e-06	-0.0005406711548796584
5.62850e-06	-0.00011082667937895344
5.62875e-06	0.0005631622663401993
5.62900e-06	0.0015592164993134725
5.62925e-06	0.0017863487926806927
5.62950e-06	0.0015500335481436912
5.62975e-06	0.0009836350580607915
5.63000e-06	6.118264320560554e-05
5.63025e-06	-0.00014098345947394523
5.63050e-06	0.00010472429963836961
5.63075e-06	0.0005028453117893485
5.63100e-06	0.0011022682412001844
5.63125e-06	0.0012197083969471764
5.63150e-06	0.0010466458902998615
5.63175e-06	0.0006667384005391723
5.63200e-06	6.383356341383328e-05
5.63225e-06	-8.776478054068449e-05
5.63250e-06	4.136728990368507e-05
5.63275e-06	0.0002662326863685046
5.63300e-06	0.0006175415067973381
5.63325e-06	0.0006673895516505323
5.63350e-06	0.0005358381615842788
5.63375e-06	0.00027540124130079715
5.63400e-06	-0.00012393026806446734
5.63425e-06	-0.00023968326686601022
5.63450e-06	-0.00017863070165508992
5.63475e-06	-5.656861473555619e-05
5.63500e-06	0.00014583007389039755
5.63525e-06	0.00016062854471462218
5.63550e-06	6.314364487184844e-05
5.63575e-06	-0.00011362434414918343
5.63600e-06	-0.0003758405370447168
5.63625e-06	-0.00045877560094782435
5.63650e-06	-0.0004292282736325944
5.63675e-06	-0.00035964289917150946
5.63700e-06	-0.0002377869591557754
5.63725e-06	-0.00023127581336540088
5.63750e-06	-0.00029273581513900775
5.63775e-06	-0.00040149681568509796
5.63800e-06	-0.0005615374364122688
5.63825e-06	-0.0006071611267577921
5.63850e-06	-0.00058034569164272
5.63875e-06	-0.0005266014213040962
5.63900e-06	-0.0004383952371128319
5.63925e-06	-0.0004208461441957385
5.63950e-06	-0.0004444007801862522
5.63975e-06	-0.0004962348370762172
5.64000e-06	-0.0005789642419213808
5.64025e-06	-0.0005889253978081603
5.64050e-06	-0.0005525450906352968
5.64075e-06	-0.000498460262805611
5.64100e-06	-0.0004220804586197646
5.64125e-06	-0.0003893776100142264
5.64150e-06	-0.00038196274715010764
5.64175e-06	-0.00039192719311426625
5.64200e-06	-0.00042103426414158825
5.64225e-06	-0.00040447684212444767
5.64250e-06	-0.00035893835100768293
5.64275e-06	-0.0003024850787885831
5.64300e-06	-0.0002323690609283061
5.64325e-06	-0.00019004065115613616
