Time(s)	Current(A)
7.50000e-07	-0.015839999106343518
7.50250e-07	-0.01583691588078473
7.50500e-07	-0.015833832655225945
7.50750e-07	-0.01583074942966716
7.51000e-07	-0.015827666204108373
7.51250e-07	-0.01582458297854959
7.51500e-07	-0.015821499752990804
7.51750e-07	-0.01581386055071109
7.52000e-07	-0.015806082363702626
7.52250e-07	-0.015798304176694162
7.52500e-07	-0.015790525989685698
7.52750e-07	-0.015782747802677233
7.53000e-07	-0.01577496961566877
7.53250e-07	-0.015767191428660305
7.53500e-07	-0.01575941324165184
7.53750e-07	-0.01574961239314848
7.54000e-07	-0.015737534303508938
7.54250e-07	-0.015725456213869393
7.54500e-07	-0.01571337812422985
7.54750e-07	-0.015701300034590304
7.55000e-07	-0.01568922194495076
7.55250e-07	-0.015677143855311215
7.55500e-07	-0.015665065765671678
7.55750e-07	-0.01565205289853344
7.56000e-07	-0.01563798759935031
7.56250e-07	-0.01562392230016718
7.56500e-07	-0.01560985700098405
7.56750e-07	-0.015595791701800926
7.57000e-07	-0.015581726402617796
7.57250e-07	-0.015567661103434665
7.57500e-07	-0.015553595804251535
7.57750e-07	-0.0155399347904041
7.58000e-07	-0.015526728946736911
7.58250e-07	-0.015513523103069728
7.58500e-07	-0.015500317259402537
7.58750e-07	-0.015487111415735349
7.59000e-07	-0.01547390557206816
7.59250e-07	-0.015462338847328373
7.59500e-07	-0.015452617547074108
7.59750e-07	-0.015442896246819847
7.60000e-07	-0.015433174946565582
7.60250e-07	-0.015423453646311315
7.60500e-07	-0.01541373234605705
7.60750e-07	-0.015405764798643324
7.61000e-07	-0.015402085048156636
7.61250e-07	-0.015401009769721202
7.61500e-07	-0.015399934491285768
7.61750e-07	-0.015398859212850334
7.62000e-07	-0.015397783934414898
7.62250e-07	-0.015396708655979464
7.62500e-07	-0.01539563337754403
7.62750e-07	-0.015398557497972172
7.63000e-07	-0.015405984396366484
7.63250e-07	-0.015413411294760796
7.63500e-07	-0.01542083819315511
7.63750e-07	-0.01542826509154942
7.64000e-07	-0.015435691989943729
7.64250e-07	-0.015443118888338042
7.64500e-07	-0.015453648158014897
7.64750e-07	-0.01546767027487465
7.65000e-07	-0.015481692391734404
7.65250e-07	-0.01549571450859415
7.65500e-07	-0.015509736625453904
7.65750e-07	-0.015523758742313657
7.66000e-07	-0.01553778085917341
7.66250e-07	-0.015551802976033166
7.66500e-07	-0.015568039407447252
7.66750e-07	-0.01558434338879115
7.67000e-07	-0.015600647370135057
7.67250e-07	-0.015616951351478961
7.67500e-07	-0.01563325533282287
7.67750e-07	-0.015649559314166773
7.68000e-07	-0.015665863295510677
7.68250e-07	-0.015681331657169218
7.68500e-07	-0.015695859224964564
7.68750e-07	-0.01571038679275991
7.69000e-07	-0.015724914360555255
7.69250e-07	-0.015736457995232496
7.69500e-07	-0.01574791060197862
7.69750e-07	-0.015759363208724748
7.70000e-07	-0.015770414680220876
7.70250e-07	-0.015781014528103862
7.70500e-07	-0.015791614375986848
7.70750e-07	-0.015802214223869834
7.71000e-07	-0.015812814071752817
7.71250e-07	-0.015823413919635803
7.71500e-07	-0.01583401376751879
7.71750e-07	-0.015844613615401775
7.72000e-07	-0.015856981162034465
7.72250e-07	-0.015871338896506017
7.72500e-07	-0.015885696630977577
7.72750e-07	-0.015900054365449137
7.73000e-07	-0.015914412099920696
7.73250e-07	-0.015928769834392256
7.73500e-07	-0.015943127568863815
7.73750e-07	-0.01595748530333537
7.74000e-07	-0.01597386350240234
7.74250e-07	-0.015992516469196187
7.74500e-07	-0.016011169435990034
7.74750e-07	-0.01602982240278388
7.75000e-07	-0.016048475369577726
7.75250e-07	-0.016067128336371563
7.75500e-07	-0.01608578130316541
7.75750e-07	-0.016104434269959257
7.76000e-07	-0.0161230872367531
7.76250e-07	-0.016142569954826522
7.76500e-07	-0.01616207798531122
7.76750e-07	-0.016181586015795925
7.77000e-07	-0.016201094046280628
7.77250e-07	-0.01622060207676533
7.77500e-07	-0.016240110107250034
7.77750e-07	-0.01625961813773474
7.78000e-07	-0.016279126168219436
7.78250e-07	-0.01629595097199091
7.78500e-07	-0.01630975482823129
7.78750e-07	-0.016323558684471665
7.79000e-07	-0.016337362540712046
7.79250e-07	-0.016351166396952423
7.79500e-07	-0.016364970253192796
7.79750e-07	-0.016378774109433177
7.80000e-07	-0.016392577965673553
7.80250e-07	-0.01640638182191393
7.80500e-07	-0.016415653379363616
7.80750e-07	-0.016419822186168165
7.81000e-07	-0.016423990992972714
7.81250e-07	-0.016428159799777266
7.81500e-07	-0.01643232860658182
7.81750e-07	-0.016436497413386368
7.82000e-07	-0.01644066622019092
7.82250e-07	-0.01644483502699547
7.82500e-07	-0.01644900383380002
7.82750e-07	-0.01644896989274147
7.83000e-07	-0.01644420423046147
7.83250e-07	-0.016439438568181475
7.83500e-07	-0.01643467290590148
7.83750e-07	-0.016429907243621485
7.84000e-07	-0.01642514158134149
7.84250e-07	-0.016420375919061495
7.84500e-07	-0.016415610256781496
7.84750e-07	-0.0164108445945015
7.85000e-07	-0.016406078932221506
7.85250e-07	-0.01640131326994151
7.85500e-07	-0.016394123050615588
7.85750e-07	-0.016384203110544913
7.86000e-07	-0.016374283170474242
7.86250e-07	-0.016364363230403568
7.86500e-07	-0.0163544432903329
7.86750e-07	-0.01634452335026223
7.87000e-07	-0.016334603410191557
7.87250e-07	-0.016324683470120883
7.87500e-07	-0.01631476353005021
7.87750e-07	-0.016304843589979544
7.88000e-07	-0.01629492364990887
7.88250e-07	-0.016284942388422905
7.88500e-07	-0.016274892087381983
7.88750e-07	-0.01626484178634106
7.89000e-07	-0.016254791485300138
7.89250e-07	-0.01624586596901713
7.89500e-07	-0.016236974765443356
7.89750e-07	-0.016228083561869586
7.90000e-07	-0.01621877479461878
7.90250e-07	-0.016208995907585316
7.90500e-07	-0.01619650319043503
7.90750e-07	-0.01618095507049269
7.91000e-07	-0.016165406950550344
7.91250e-07	-0.0161469423102091
7.91500e-07	-0.01612519406544668
7.91750e-07	-0.016103445820684258
7.92000e-07	-0.016078467966211152
7.92250e-07	-0.016049854011428666
7.92500e-07	-0.01602124005664618
7.92750e-07	-0.01598785226868791
7.93000e-07	-0.015949089795290125
7.93250e-07	-0.015910327321892345
7.93500e-07	-0.015871564848494578
7.93750e-07	-0.015832802375096794
7.94000e-07	-0.015784554916957034
7.94250e-07	-0.01573601810965837
7.94500e-07	-0.01568748130235971
7.94750e-07	-0.015638944495061046
7.95000e-07	-0.015587210788875339
7.95250e-07	-0.01553187781030885
7.95500e-07	-0.015476544831742364
7.95750e-07	-0.015420084132928509
7.96000e-07	-0.015362353774834532
7.96250e-07	-0.015304094859481228
7.96500e-07	-0.015244945149014229
7.96750e-07	-0.015185317061155371
7.97000e-07	-0.015125540991832442
7.97250e-07	-0.015065959667752902
7.97500e-07	-0.015006916253715596
7.97750e-07	-0.014948745207831435
7.98000e-07	-0.014891717621298421
7.98250e-07	-0.014836004161841951
7.98500e-07	-0.01478177913101384
7.98750e-07	-0.014729328203096269
7.99000e-07	-0.014679006702194346
7.99250e-07	-0.014631177406020804
7.99500e-07	-0.014586202599057126
7.99750e-07	-0.01454445245142984
8.00000e-07	-0.014506341496829226
8.00250e-07	-0.014472313706478387
8.00500e-07	-0.014442696948301666
8.00750e-07	-0.01441762722566498
8.01000e-07	-0.01439714880698754
8.01250e-07	-0.014381297082527182
8.01500e-07	-0.01437010788063313
8.01750e-07	-0.014363621465708283
8.02000e-07	-0.014363057502338232
8.02250e-07	-0.014366343208381475
8.02500e-07	-0.014375232103274353
8.02750e-07	-0.014390429425046928
8.03000e-07	-0.014405626746819503
8.03250e-07	-0.01442835427542607
8.03500e-07	-0.014459559790492838
8.03750e-07	-0.014490765305559618
8.04000e-07	-0.014521970820626399
8.04250e-07	-0.01455317633569318
8.04500e-07	-0.014599806097248617
8.04750e-07	-0.014646906391216059
8.05000e-07	-0.01469400668518352
8.05250e-07	-0.014741106979150981
8.05500e-07	-0.01479257655323599
8.05750e-07	-0.014848965341161233
8.06000e-07	-0.014905354129086477
8.06250e-07	-0.01496377493089865
8.06500e-07	-0.01502448350336582
8.06750e-07	-0.015085192075832986
8.07000e-07	-0.015146438478493878
8.07250e-07	-0.015208290404641816
8.07500e-07	-0.015270142330789728
8.07750e-07	-0.015331263301457166
8.08000e-07	-0.015391561315889358
8.08250e-07	-0.015450457875972065
8.08500e-07	-0.015507776589488062
8.08750e-07	-0.015562923683994869
8.09000e-07	-0.015615625831508474
8.09250e-07	-0.015665352243270658
8.09500e-07	-0.01571172838219621
8.09750e-07	-0.015754362344487412
8.10000e-07	-0.0157927831259806
8.10250e-07	-0.015825997921482423
8.10500e-07	-0.015853351486380587
8.10750e-07	-0.015880705051278757
8.11000e-07	-0.015901504184894014
8.11250e-07	-0.015914923922312505
8.11500e-07	-0.015928343659731
8.11750e-07	-0.015934905222504382
8.12000e-07	-0.01593374541545813
8.12250e-07	-0.015932585608411876
8.12500e-07	-0.015922789326159276
8.12750e-07	-0.015903269550053396
8.13000e-07	-0.015883749773947516
8.13250e-07	-0.015864229997841643
8.13500e-07	-0.015844710221735763
8.13750e-07	-0.015815865407586338
8.14000e-07	-0.01577652187168622
8.14250e-07	-0.015737178335786108
8.14500e-07	-0.01569783479988599
8.14750e-07	-0.015658491263985892
8.15000e-07	-0.015613453912731104
8.15250e-07	-0.015562006101505054
8.15500e-07	-0.015510558290279003
8.15750e-07	-0.015456567869653564
8.16000e-07	-0.015399714817424899
8.16250e-07	-0.015341486596329997
8.16500e-07	-0.01528171012253959
8.16750e-07	-0.015221303454287875
8.17000e-07	-0.015159978303381918
8.17250e-07	-0.015098368376873016
8.17500e-07	-0.015036810485721419
8.17750e-07	-0.014975642041371076
8.18000e-07	-0.014915210917346523
8.18250e-07	-0.014855887335887065
8.18500e-07	-0.014798060862500878
8.18750e-07	-0.014742123201040288
8.19000e-07	-0.014688463699481305
8.19250e-07	-0.014637471595520275
8.19500e-07	-0.01458953536095043
8.19750e-07	-0.01454501959007085
8.20000e-07	-0.014504099931350859
8.20250e-07	-0.014466602349202919
8.20500e-07	-0.014432254095207977
8.20750e-07	-0.014401008003407252
8.21000e-07	-0.014373787171705836
8.21250e-07	-0.014349217950864905
8.21500e-07	-0.014327998814866245
8.21750e-07	-0.014310551417753406
8.22000e-07	-0.014297131686829244
8.22250e-07	-0.014288246559026553
8.22500e-07	-0.014279361431223863
8.22750e-07	-0.014276103908564082
8.23000e-07	-0.014279182302202216
8.23250e-07	-0.014282260695840349
8.23500e-07	-0.014285339089478483
8.23750e-07	-0.014288417483116617
8.24000e-07	-0.014297539610303849
8.24250e-07	-0.014313466157652348
8.24500e-07	-0.01432939270500084
8.24750e-07	-0.01434531925234934
8.25000e-07	-0.014361245799697839
8.25250e-07	-0.014381598238306497
8.25500e-07	-0.014406933627185477
8.25750e-07	-0.014432269016064458
8.26000e-07	-0.014457604404943428
8.26250e-07	-0.01448293979382241
8.26500e-07	-0.014508275182701392
8.26750e-07	-0.014535380095710797
8.27000e-07	-0.01456447725168908
8.27250e-07	-0.01459357440766735
8.27500e-07	-0.014622671563645632
8.27750e-07	-0.014651768719623915
8.28000e-07	-0.014680865875602196
8.28250e-07	-0.014709290853361182
8.28500e-07	-0.014736959050069146
8.28750e-07	-0.014763529389759354
8.29000e-07	-0.014788863692095332
8.29250e-07	-0.014812689864828922
8.29500e-07	-0.014834818089201786
8.29750e-07	-0.014854983664157453
8.30000e-07	-0.01487293956339604
8.30250e-07	-0.0148883034949389
8.30500e-07	-0.014900749224164773
8.30750e-07	-0.014909644441738494
8.31000e-07	-0.014914542267158397
8.31250e-07	-0.0149194400925783
8.31500e-07	-0.014920033524082936
8.31750e-07	-0.014915780794766383
8.32000e-07	-0.014911528065449832
8.32250e-07	-0.014902766645600854
8.32500e-07	-0.014888929054787217
8.32750e-07	-0.01487509146397358
8.33000e-07	-0.014853428928175783
8.33250e-07	-0.014822956570935795
8.33500e-07	-0.014792484213695806
8.33750e-07	-0.014762011856455818
8.34000e-07	-0.01473153949921583
8.34250e-07	-0.014701067141975842
8.34500e-07	-0.014670594784735867
8.34750e-07	-0.01464012242749588
8.35000e-07	-0.01460965007025589
8.35250e-07	-0.014573629480297138
8.35500e-07	-0.01453136233657079
8.35750e-07	-0.01448785232757737
8.36000e-07	-0.014442943021706837
8.36250e-07	-0.014397310426955105
8.36500e-07	-0.01435051084394673
8.36750e-07	-0.014303082459488813
8.37000e-07	-0.014255285385251663
8.37250e-07	-0.014207383185523916
8.37500e-07	-0.014159639424594146
8.37750e-07	-0.01411231591438544
8.38000e-07	-0.014065664170159744
8.38250e-07	-0.014019923707238138
8.38500e-07	-0.01397534510047898
8.38750e-07	-0.013932207412788871
8.39000e-07	-0.013890805325052944
8.39250e-07	-0.013851434559758556
8.39500e-07	-0.01381439078425325
8.39750e-07	-0.013779980235217672
8.40000e-07	-0.01374857656934741
8.40250e-07	-0.013720627529214628
8.40500e-07	-0.01369648278914148
8.40750e-07	-0.013676279234730701
8.41000e-07	-0.013660043604691965
8.41250e-07	-0.013647791676369241
8.41500e-07	-0.01363953977547749
8.41750e-07	-0.013635309429688512
8.42000e-07	-0.013636167293359936
8.42250e-07	-0.01364034706907481
8.42500e-07	-0.013648480400518555
8.42750e-07	-0.013661064896808047
8.43000e-07	-0.013679458168499933
8.43250e-07	-0.013704391329506968
8.43500e-07	-0.013729324490514004
8.43750e-07	-0.013754257651521037
8.44000e-07	-0.013779190812528073
8.44250e-07	-0.013818316907212256
8.44500e-07	-0.013857875971852193
8.44750e-07	-0.01389743503649213
8.45000e-07	-0.013936994101132067
8.45250e-07	-0.013980796275569769
8.45500e-07	-0.014029375613266002
8.45750e-07	-0.014077954950962217
8.46000e-07	-0.014128649831969955
8.46250e-07	-0.014181726526379007
8.46500e-07	-0.014234803220788059
8.46750e-07	-0.014288787786583018
8.47000e-07	-0.014343794491807508
8.47250e-07	-0.014398801197032022
8.47500e-07	-0.014453513723889654
8.47750e-07	-0.014507895046005314
8.48000e-07	-0.01456132286221551
8.48250e-07	-0.01461367716074752
8.48500e-07	-0.014664447320821361
8.48750e-07	-0.014713433956923561
8.49000e-07	-0.014760129813159157
8.49250e-07	-0.014804246563518692
8.49500e-07	-0.014845356473638327
8.49750e-07	-0.014883081091506989
8.50000e-07	-0.014917171084177077
8.50250e-07	-0.014947168984305441
8.50500e-07	-0.014973236766594202
8.50750e-07	-0.014994879771905691
8.51000e-07	-0.015011414047514039
8.51250e-07	-0.015022196589842073
8.51500e-07	-0.015032979132170114
8.51750e-07	-0.015037410517619325
8.52000e-07	-0.015034691366142307
8.52250e-07	-0.015031972214665288
8.52500e-07	-0.015021623312255851
8.52750e-07	-0.015002684350299623
8.53000e-07	-0.014983745388343387
8.53250e-07	-0.014964806426387148
8.53500e-07	-0.014945867464430912
8.53750e-07	-0.014910339419205056
8.54000e-07	-0.014874305307029751
8.54250e-07	-0.014838271194854463
8.54500e-07	-0.014802237082679158
8.54750e-07	-0.01476083927161305
8.55000e-07	-0.014713402666715867
8.55250e-07	-0.014665966061818686
8.55500e-07	-0.01461587272471569
8.55750e-07	-0.014562788269285183
8.56000e-07	-0.014508469710415356
8.56250e-07	-0.014452118163043539
8.56500e-07	-0.014394549206247
8.56750e-07	-0.014336086281631123
8.57000e-07	-0.014277054969145457
8.57250e-07	-0.014217780683320086
8.57500e-07	-0.014158589004104556
8.57750e-07	-0.014099806222211776
8.58000e-07	-0.014041762846876136
8.58250e-07	-0.013984802312541468
8.58500e-07	-0.013929286517710724
8.58750e-07	-0.013875586894671733
8.59000e-07	-0.013824076958916739
8.59250e-07	-0.013775130115658363
8.59500e-07	-0.013729119880388826
8.59750e-07	-0.013686439372433214
8.60000e-07	-0.01364761573010345
8.60250e-07	-0.013613347754980272
8.60500e-07	-0.013584205654546861
8.60750e-07	-0.013560402106589329
8.61000e-07	-0.013541957443865932
8.61250e-07	-0.013528870679914304
8.61500e-07	-0.013521140938551656
8.61750e-07	-0.013518779499874477
8.62000e-07	-0.013521882097445514
8.62250e-07	-0.013532013390650958
8.62500e-07	-0.013546745051136226
8.62750e-07	-0.013567937391347209
8.63000e-07	-0.01359640357628119
8.63250e-07	-0.01362486976121517
8.63500e-07	-0.013661831706401468
8.63750e-07	-0.01370835871958411
8.64000e-07	-0.013754885732766732
8.64250e-07	-0.013801412745949374
8.64500e-07	-0.013847939759132016
8.64750e-07	-0.013911520986960984
8.65000e-07	-0.01397562247104776
8.65250e-07	-0.014039723955134534
8.65500e-07	-0.014103825439221283
8.65750e-07	-0.014172410009832615
8.66000e-07	-0.014246041924786006
8.66250e-07	-0.014319673839739396
8.66500e-07	-0.014395121935555963
8.66750e-07	-0.014472614803462819
8.67000e-07	-0.014550107671369708
8.67250e-07	-0.014627696116214358
8.67500e-07	-0.014705392167662942
8.67750e-07	-0.014782139532211339
8.68000e-07	-0.014857818804624593
8.68250e-07	-0.014931731911608077
8.68500e-07	-0.015003656557061769
8.68750e-07	-0.015072006157745678
8.69000e-07	-0.01513633074532922
8.69250e-07	-0.015200655332912762
8.69500e-07	-0.015254541900330211
8.69750e-07	-0.015296676679835626
8.70000e-07	-0.015338811459341057
8.70250e-07	-0.015380946238846489
8.70500e-07	-0.01542308101835192
8.70750e-07	-0.015465215797857352
8.71000e-07	-0.015507350577362765
8.71250e-07	-0.015549485356868196
8.71500e-07	-0.01557857180343504
8.71750e-07	-0.015592967605716837
8.72000e-07	-0.015607363407998634
8.72250e-07	-0.015621759210280431
8.72500e-07	-0.01563615501256222
8.72750e-07	-0.015650550814844018
8.73000e-07	-0.015664946617125815
8.73250e-07	-0.01567934241940761
8.73500e-07	-0.01568372051370228
8.73750e-07	-0.015676820034306094
8.74000e-07	-0.015669919554909914
8.74250e-07	-0.01566301907551373
8.74500e-07	-0.015656118596117544
8.74750e-07	-0.01564921811672136
8.75000e-07	-0.015642317637325178
8.75250e-07	-0.015635417157928995
8.75500e-07	-0.015616579792700244
8.75750e-07	-0.015597378280562195
8.76000e-07	-0.015578176768424145
8.76250e-07	-0.015558975256286096
8.76500e-07	-0.015539773744148047
8.76750e-07	-0.015520572232010005
8.77000e-07	-0.015501370719871956
8.77250e-07	-0.015480504080781242
8.77500e-07	-0.015457762735713422
8.77750e-07	-0.015435021390645603
8.78000e-07	-0.015412348533864736
8.78250e-07	-0.015389752785559426
8.78500e-07	-0.015367157037254105
8.78750e-07	-0.01534710897075914
8.79000e-07	-0.015329929246710974
8.79250e-07	-0.01531274952266281
8.79500e-07	-0.01529556979861465
8.79750e-07	-0.015278390074566486
8.80000e-07	-0.01526121035051832
8.80250e-07	-0.015244030626470156
8.80500e-07	-0.01522685090242199
8.80750e-07	-0.015209671178373824
8.81000e-07	-0.015203184655976974
8.81250e-07	-0.015197024340631658
8.81500e-07	-0.015190864025286343
8.81750e-07	-0.015184703709941027
8.82000e-07	-0.015178543394595711
8.82250e-07	-0.015172383079250399
8.82500e-07	-0.015166222763905083
8.82750e-07	-0.015160062448559768
8.83000e-07	-0.015158879887909264
8.83250e-07	-0.015163301600532966
8.83500e-07	-0.015167723313156667
8.83750e-07	-0.015172145025780367
8.84000e-07	-0.01517656673840407
8.84250e-07	-0.015180988451027772
8.84500e-07	-0.015185410163651474
8.84750e-07	-0.015189831876275177
8.85000e-07	-0.015194253588898879
8.85250e-07	-0.015201670240279708
8.85500e-07	-0.015212458784464339
8.85750e-07	-0.015223247328648971
8.86000e-07	-0.015234035872833602
8.86250e-07	-0.015244824417018235
8.86500e-07	-0.015255612961202862
8.86750e-07	-0.015266401505387493
8.87000e-07	-0.015277190049572125
8.87250e-07	-0.015287978593756758
8.87500e-07	-0.01529908825892861
8.87750e-07	-0.015310559462560436
8.88000e-07	-0.015322030666192256
8.88250e-07	-0.015333501869824082
8.88500e-07	-0.015344973073455908
8.88750e-07	-0.015354353796733358
8.89000e-07	-0.01536367074776981
8.89250e-07	-0.015372987698806264
8.89500e-07	-0.015382304649842712
8.89750e-07	-0.01538958286959104
8.90000e-07	-0.015394565755806092
8.90250e-07	-0.015399548642021142
8.90500e-07	-0.015401916501235284
8.90750e-07	-0.015401340196497772
8.91000e-07	-0.015397585238465168
8.91250e-07	-0.017038114872514283
8.91500e-07	-0.04209467065335121
8.91750e-07	-0.03575328477879464
8.92000e-07	-0.030776310507654094
8.92250e-07	-0.02539461766152594
8.92500e-07	-0.007147368597959003
8.92750e-07	-0.008703794929871547
8.93000e-07	-0.010343339252181498
8.93250e-07	-0.014682372851995584
8.93500e-07	-0.020736354383787924
8.93750e-07	-0.023146154681623208
8.94000e-07	-0.021404162413319296
8.94250e-07	-0.017185691586756865
8.94500e-07	-0.012303785625101064
8.94750e-07	-0.009932223319323473
8.95000e-07	-0.010494281168887907
8.95250e-07	-0.01345316017562154
8.95500e-07	-0.017332884445869914
8.95750e-07	-0.018903576265826307
8.96000e-07	-0.01785401249013436
8.96250e-07	-0.015238773762263118
8.96500e-07	-0.012197443054151387
8.96750e-07	-0.010720936917047353
8.97000e-07	-0.011076489757305259
8.97250e-07	-0.012929440472234512
8.97500e-07	-0.015356502842860387
8.97750e-07	-0.01633559329130051
