Time(s)	Current(A)
1.23000e-05	0.0009915834573911864
1.23003e-05	0.0009547877755830425
1.23005e-05	0.0009156245282627668
1.23008e-05	0.0008757919898033169
1.23010e-05	0.0008359594513438668
1.23013e-05	0.0007961269128846868
1.23015e-05	0.0007562943744252367
1.23018e-05	0.0007174366046588493
1.23020e-05	0.000678854393919657
1.23023e-05	0.0006402721831802034
1.23025e-05	0.0006037140861801103
1.23028e-05	0.0005677281893508385
1.23030e-05	0.0005342594826849398
1.23033e-05	0.0005015023648062941
1.23035e-05	0.00047114204578978854
1.23038e-05	0.0004433242580102316
1.23040e-05	0.0004180211156352148
1.23042e-05	0.00039526557963300626
1.23045e-05	0.00037503900735588855
1.23048e-05	0.00035737040897689345
1.23050e-05	0.00034232110217348823
1.23053e-05	0.000329957379057062
1.23055e-05	0.0003203454247052435
1.23058e-05	0.0003135488281937783
1.23060e-05	0.00030958223828278167
1.23063e-05	0.0003083690069221566
1.23065e-05	0.00030980011578339746
1.23068e-05	0.0003137964116697273
1.23070e-05	0.00032029902076620523
1.23073e-05	0.0003292520893750917
1.23075e-05	0.00034059982890038027
1.23078e-05	0.0003542847519893974
1.23080e-05	0.0003702187292622704
1.23083e-05	0.0003889975157101314
1.23085e-05	0.00040844171207869907
1.23088e-05	0.00043063388642178394
1.23090e-05	0.00045360289135255665
1.23093e-05	0.00047890407501206383
1.23095e-05	0.000504864546260318
1.23098e-05	0.0005331001166318709
1.23100e-05	0.0005619788386612987
1.23103e-05	0.0005908575606907263
1.23105e-05	0.0006214799795690526
1.23108e-05	0.0006525953270885696
1.23110e-05	0.0006837106746080865
1.23113e-05	0.0007148260221273926
1.23115e-05	0.0007459413696469096
1.23118e-05	0.000776049205790742
1.23120e-05	0.000805872226822456
1.23123e-05	0.0008356952478543721
1.23125e-05	0.0008655182688862883
1.23127e-05	0.0008953412899180024
1.23130e-05	0.0009215745838890808
1.23133e-05	0.0009467930917849479
1.23135e-05	0.0009720115996806441
1.23138e-05	0.0009938493734017906
1.23140e-05	0.0010147314416036903
1.23143e-05	0.0010356135098055898
1.23145e-05	0.0010564955780073477
1.23148e-05	0.0010773776462092474
1.23150e-05	0.0010988089855439665
1.23153e-05	0.0011203955992734162
1.23155e-05	0.0011419822130030125
1.23158e-05	0.0011635688267326086
1.23160e-05	0.0011851554404620586
1.23163e-05	0.0012101506300838197
1.23165e-05	0.001236109395847609
1.23168e-05	0.0012620681616112225
1.23170e-05	0.001288026927375012
1.23173e-05	0.0013139856931388013
1.23175e-05	0.0013399444589024148
1.23178e-05	0.0013659032246662044
1.23180e-05	0.0013918619904299938
1.23183e-05	0.0014178207561936073
1.23185e-05	0.0014437795219573966
1.23188e-05	0.0014732654034391949
1.23190e-05	0.0015037483712888092
1.23193e-05	0.00153423133913863
1.23195e-05	0.001564714306988451
1.23198e-05	0.001595197274838065
1.23200e-05	0.001625680242687886
1.23203e-05	0.0016561632105377068
1.23205e-05	0.0016866461783873212
1.23208e-05	0.001717129146237142
1.23210e-05	0.001747612114086963
1.23212e-05	0.00177677169730564
1.23215e-05	0.0018055571706622842
1.23218e-05	0.0018343426440189286
1.23220e-05	0.0018631281173753778
1.23223e-05	0.0018919135907320222
1.23225e-05	0.0019206990640886663
1.23228e-05	0.0019441693802197198
1.23230e-05	0.0019661371454738497
1.23233e-05	0.001988104910728129
1.23235e-05	0.002010072675982408
1.23238e-05	0.002032040441236538
1.23240e-05	0.002054008206490817
1.23243e-05	0.0020664203300441225
1.23245e-05	0.0020761311529193796
1.23248e-05	0.0020858419757947026
1.23250e-05	0.002086001120095159
1.23253e-05	0.002083460084060541
1.23255e-05	0.0020809190480259063
1.23258e-05	0.002068972817819551
1.23260e-05	0.002054367817204497
1.23263e-05	0.002039762816589344
1.23265e-05	0.002014576601933376
1.23268e-05	0.001986399165802825
1.23270e-05	0.0019582217296720827
1.23273e-05	0.001920549218088851
1.23275e-05	0.0018801925274041702
1.23278e-05	0.0018398358367192158
1.23280e-05	0.0017911529810261974
1.23283e-05	0.0017401163875222932
1.23285e-05	0.0016890797940180432
1.23288e-05	0.0016306936284467793
1.23290e-05	0.0015702297997916084
1.23293e-05	0.0015097659711360276
1.23295e-05	0.001443440941095286
1.23297e-05	0.0013754589980215467
1.23300e-05	0.0013074770549473468
1.23303e-05	0.001239495111873147
1.23305e-05	0.001170497325884849
1.23308e-05	0.0010988823193171457
1.23310e-05	0.0010272673127494423
1.23313e-05	0.0009556523061817389
1.23315e-05	0.0008840372996145208
1.23318e-05	0.0008145194422593013
1.23320e-05	0.0007455944315980171
1.23323e-05	0.0006766694209372001
1.23325e-05	0.0006114107708845846
1.23328e-05	0.0005471885705765895
1.23330e-05	0.00048615873645214643
1.23333e-05	0.0004286445705546123
1.23335e-05	0.0003748460434749197
1.23338e-05	0.00032520862720296476
1.23340e-05	0.0002798258759485467
1.23343e-05	0.00023823703606852672
1.23345e-05	0.00019999195870453186
1.23348e-05	0.0001650499177123951
1.23350e-05	0.0001335734101651474
1.23353e-05	0.00010575276771818399
1.23355e-05	8.177825087029291e-05
1.23358e-05	6.182695543119831e-05
1.23360e-05	4.585550877100353e-05
1.23363e-05	3.347331523424687e-05
1.23365e-05	2.4296490309367088e-05
1.23368e-05	1.8197613436120702e-05
1.23370e-05	1.5176559051138155e-05
1.23373e-05	1.5250633946896298e-05
1.23375e-05	1.843709944101776e-05
1.23378e-05	2.4744959139960637e-05
1.23380e-05	3.40451229730852e-05
1.23382e-05	4.5991011335942656e-05
1.23385e-05	6.024027793108619e-05
1.23388e-05	7.661124380090698e-05
1.23390e-05	9.500197323352138e-05
1.23393e-05	0.00011532145608600851
1.23395e-05	0.00013747866605963173
1.23398e-05	0.00016137738906284792
1.23400e-05	0.0001868349385775539
1.23403e-05	0.00021386611078733233
1.23405e-05	0.00024124785304402587
1.23408e-05	0.00026990739069089403
1.23410e-05	0.00029892815050012404
1.23413e-05	0.0003279489103093541
1.23415e-05	0.0003570402103590672
1.23418e-05	0.0003863132504860764
1.23420e-05	0.00041558629061308553
1.23423e-05	0.00044485933073989633
1.23425e-05	0.00047227748412750296
1.23428e-05	0.0004991712764133973
1.23430e-05	0.0005260650686991095
1.23433e-05	0.0005502792431558506
1.23435e-05	0.000573735911869912
1.23438e-05	0.00059431312741282
1.23440e-05	0.0006140763454189391
1.23443e-05	0.0006303917344331143
1.23445e-05	0.000645732450778246
1.23448e-05	0.0006573882766314788
1.23450e-05	0.0006680024144952191
1.23453e-05	0.000674837749390969
1.23455e-05	0.0006806048480189731
1.23458e-05	0.0006825001614788285
1.23460e-05	0.0006833009533738428
1.23463e-05	0.0006801764805873418
1.23465e-05	0.0006759423680209905
1.23467e-05	0.0006679369854516608
1.23470e-05	0.0006588654961212488
1.23473e-05	0.0006462664463564093
1.23475e-05	0.0006326701845050119
1.23478e-05	0.0006157906390290131
1.23480e-05	0.0005979829364951124
1.23483e-05	0.0005771609134896556
1.23485e-05	0.0005554867670797247
1.23488e-05	0.0005311972069968371
1.23490e-05	0.0005061682911538421
1.23493e-05	0.00047897903667426056
1.23495e-05	0.00045117907237390376
1.23498e-05	0.0004213438121173965
1.23500e-05	0.00039093319056953107
1.23503e-05	0.00036052256902145956
1.23505e-05	0.00032860089974367786
1.23508e-05	0.0002962520698014521
1.23510e-05	0.0002639032398590071
1.23513e-05	0.00023155440991656217
1.23515e-05	0.00019920557997433642
1.23518e-05	0.00016685675003189144
1.23520e-05	0.00013502656775304697
1.23523e-05	0.00010388512676045475
1.23525e-05	7.359869664615761e-05
1.23528e-05	4.437886983146772e-05
1.23530e-05	1.6440252219549684e-05
1.23533e-05	-1.0002255755768818e-05
1.23535e-05	-3.473378522923406e-05
1.23538e-05	-5.752085565643086e-05
1.23540e-05	-7.784621445291894e-05
1.23543e-05	-9.483093703691075e-05
1.23545e-05	-0.00010780721378663743
1.23548e-05	-0.00011659952860433847
1.23550e-05	-0.00012124412768299374
1.23552e-05	-0.00012180438954403149
1.23555e-05	-0.00011834370233022268
1.23558e-05	-0.00011091381439203451
1.23560e-05	-9.93887228612261e-05
1.23563e-05	-8.34159114138265e-05
1.23565e-05	-6.27751346290969e-05
1.23568e-05	-3.75545377990659e-05
1.23570e-05	-7.9749062805213e-06
1.23573e-05	2.572598893787045e-05
1.23575e-05	6.331037989467387e-05
1.23578e-05	0.00010454780141775719
1.23580e-05	0.00014931915316051647
1.23583e-05	0.00019764719891330343
1.23585e-05	0.0002494718407397197
1.23588e-05	0.0003045398415768048
1.23590e-05	0.000362514863469956
1.23593e-05	0.0004230499532417076
1.23595e-05	0.0004864981399413541
1.23598e-05	0.0005506151007984176
1.23600e-05	0.0006176427660418422
1.23603e-05	0.0006854932632826637
1.23605e-05	0.0007533437605234852
1.23608e-05	0.0008227554912254212
1.23610e-05	0.0008926085696829481
1.23613e-05	0.000962461648140475
1.23615e-05	0.0010323147265975286
1.23618e-05	0.001099461689492563
1.23620e-05	0.0011658436559549218
1.23623e-05	0.001232225622416831
1.23625e-05	0.0012986075888791898
1.23628e-05	0.0013588110643641073
1.23630e-05	0.0014172679316761029
1.23633e-05	0.0014757247989884944
1.23635e-05	0.0015271988195427284
1.23637e-05	0.0015766988472138493
1.23640e-05	0.0016202143123766701
1.23643e-05	0.0016620379913370729
1.23645e-05	0.0017038616702971924
1.23648e-05	0.0017384655317581213
1.23650e-05	0.0017710284106722987
1.23653e-05	0.0018035912895864761
1.23655e-05	0.0018361541685004328
1.23658e-05	0.0018687170474146102
1.23660e-05	0.0019012799263287876
1.23663e-05	0.0019338428052427443
1.23665e-05	0.0019664056841569217
1.23668e-05	0.0019907427922194235
1.23670e-05	0.0020127545430626502
1.23673e-05	0.002034766293906026
1.23675e-05	0.002056778044749402
1.23678e-05	0.002078789795592629
1.23680e-05	0.0021008015464360047
1.23683e-05	0.0021228132972793807
1.23685e-05	0.0021448250481226074
1.23688e-05	0.0021609276806360996
1.23690e-05	0.0021753598543905943
1.23693e-05	0.0021897920281449914
1.23695e-05	0.0022042242018994857
1.23698e-05	0.0022186563756539804
1.23700e-05	0.0022330885494083776
1.23703e-05	0.0022475207231628723
1.23705e-05	0.002261952896917367
1.23708e-05	0.0022763850706717637
1.23710e-05	0.0022908172444262584
1.23713e-05	0.002305249418180753
1.23715e-05	0.0023196815919351503
1.23718e-05	0.002334113765689645
1.23720e-05	0.0023485459394441397
1.23723e-05	0.0023560924516293907
1.23725e-05	0.002361692444378276
1.23728e-05	0.0023672924371271604
1.23730e-05	0.0023728924298760073
1.23733e-05	0.002378492422624892
1.23735e-05	0.002384092415373777
1.23738e-05	0.0023896924081226617
1.23740e-05	0.0023952924008715086
1.23743e-05	0.0024008923936203936
1.23745e-05	0.0024064923863692782
1.23748e-05	0.002412092379118125
1.23750e-05	0.0024176923718670098
1.23753e-05	0.002423292364615895
1.23755e-05	0.0024288923573647413
1.23758e-05	0.002424053073906152
1.23760e-05	0.0024162626936155705
1.23763e-05	0.0024084723133250417
1.23765e-05	0.0024006819330344605
1.23768e-05	0.002392891552743879
1.23770e-05	0.0023851011724533504
1.23773e-05	0.002377310792162769
1.23775e-05	0.0023695204118721874
1.23778e-05	0.002361730031581659
1.23780e-05	0.0023539396512910777
1.23783e-05	0.002343482002495313
1.23785e-05	0.0023261523955139148
1.23788e-05	0.002308822788532399
1.23790e-05	0.002291493181550883
1.23793e-05	0.002274163574569485
1.23795e-05	0.002256833967587969
1.23798e-05	0.0022395043606064534
1.23800e-05	0.002222174753625055
1.23803e-05	0.0022048451466435393
1.23805e-05	0.0021875155396620235
1.23808e-05	0.0021701859326806253
1.23810e-05	0.002152323426556229
1.23813e-05	0.002134310274262368
1.23815e-05	0.0021162971219686293
1.23818e-05	0.0020982839696747683
1.23820e-05	0.0020802708173809073
1.23823e-05	0.0020622576650870463
1.23825e-05	0.0020442445127933076
1.23828e-05	0.0020262313604994466
1.23830e-05	0.0020082182082055856
1.23833e-05	0.001990205055911847
1.23835e-05	0.0019757226769061805
1.23838e-05	0.001962238418235821
1.23840e-05	0.0019487541595655524
1.23843e-05	0.0019352699008951925
1.23845e-05	0.0019217856422248326
1.23848e-05	0.0019083013835545642
1.23850e-05	0.0018948171248842044
1.23853e-05	0.0018813328662138445
1.23855e-05	0.001867848607543576
1.23858e-05	0.0018543643488732162
1.23860e-05	0.0018393686700344917
1.23863e-05	0.0018239457252452488
1.23865e-05	0.0018085227804559014
1.23868e-05	0.001793099835666554
1.23870e-05	0.0017776768908773111
1.23873e-05	0.0017622539460879637
1.23875e-05	0.001746831001298616
1.23878e-05	0.0017314080565093732
1.23880e-05	0.0017159851117200258
1.23883e-05	0.0017005621669306783
1.23885e-05	0.0016851392221414354
1.23888e-05	0.001669001815065615
1.23890e-05	0.0016510236653159524
1.23893e-05	0.0016330455155664117
1.23895e-05	0.001615067365816749
1.23898e-05	0.0015970892160670866
1.23900e-05	0.0015791110663175459
1.23903e-05	0.0015611329165678832
1.23905e-05	0.0015431547668182206
1.23908e-05	0.0015251766170685582
1.23910e-05	0.0015071984673190174
1.23913e-05	0.0014892203175693548
1.23915e-05	0.0014712421678196922
1.23918e-05	0.001458163117499943
1.23920e-05	0.001446469001971562
1.23923e-05	0.0014347748864431808
1.23925e-05	0.001423080770914879
1.23928e-05	0.0014113866553864978
1.23930e-05	0.0013996925398581169
1.23933e-05	0.001387998424329815
1.23935e-05	0.001376304308801434
1.23938e-05	0.0013646101932730528
1.23940e-05	0.001352916077744751
1.23943e-05	0.0013412219622163698
1.23945e-05	0.0013295278466879889
1.23948e-05	0.0013178337311596869
1.23950e-05	0.001306139615631306
1.23953e-05	0.0012944455001029248
1.23955e-05	0.001282751384574623
1.23958e-05	0.0012823250927948484
1.23960e-05	0.0012850841213702339
1.23963e-05	0.0012878431499456005
1.23965e-05	0.001290602178520986
1.23968e-05	0.0012933612070963716
1.23970e-05	0.0012961202356717382
1.23973e-05	0.0012988792642471237
1.23975e-05	0.0013016382928225092
1.23978e-05	0.001304397321397876
1.23980e-05	0.0013071563499732614
1.23983e-05	0.001309915378548647
1.23985e-05	0.0013126744071240138
1.23988e-05	0.001315433435699399
1.23990e-05	0.0013181924642747846
1.23993e-05	0.00132095149285017
1.23995e-05	0.001323710521425537
1.23998e-05	0.001331814823956439
1.24000e-05	0.0013414301911184804
1.24003e-05	0.0013510455582804567
1.24005e-05	0.001360660925442498
1.24008e-05	0.0013702762926045395
1.24010e-05	0.0013798916597665156
1.24013e-05	0.001389507026928557
1.24015e-05	0.0013991223940905983
1.24018e-05	0.0014082863052165015
1.24020e-05	0.0014173225934639452
1.24023e-05	0.001426358881711389
1.24025e-05	0.0014353951699587713
1.24028e-05	0.001444431458206215
1.24030e-05	0.0014534677464536588
1.24033e-05	0.0014625040347010414
1.24035e-05	0.0014715403229484851
1.24038e-05	0.001472578725855242
1.24040e-05	0.001471356192883851
1.24043e-05	0.0014701336599124521
1.24045e-05	0.001468911126941053
1.24048e-05	0.001467688593969662
1.24050e-05	0.001466466060998263
1.24053e-05	0.0014652435280268637
1.24055e-05	0.001464020995055473
1.24058e-05	0.0014627984620840739
1.24060e-05	0.0014615759291126747
1.24063e-05	0.0014603533961412838
1.24065e-05	0.001453788549787859
1.24068e-05	0.0014334597519829145
1.24070e-05	0.0014131309541781077
1.24073e-05	0.0013928021563731632
1.24075e-05	0.0013724733585682187
1.24078e-05	0.0013521445607632741
1.24080e-05	0.0013318157629584673
1.24083e-05	0.0013114869651535228
1.24085e-05	0.0012911581673485783
1.24088e-05	0.0012708293695437717
1.24090e-05	0.0012505005717388272
1.24093e-05	0.0012301717739338826
1.24095e-05	0.0012022580860534277
1.24098e-05	0.0011722002126317685
1.24100e-05	0.0011421423392101095
1.24103e-05	0.0011120844657886541
1.24105e-05	0.0010820265923669951
1.24108e-05	0.001051968718945336
1.24110e-05	0.00102151108408177
1.24113e-05	0.0009909404399725706
1.24115e-05	0.0009603697958633712
1.24118e-05	0.0009297991517543788
1.24120e-05	0.0008992285076451794
1.24123e-05	0.00086865786353598
1.24125e-05	0.0008406204436100168
1.24128e-05	0.0008132991451585435
1.24130e-05	0.0007859778467070701
1.24133e-05	0.0007613531606337658
1.24135e-05	0.0007374907845231376
1.24138e-05	0.0007165465020616915
1.24140e-05	0.0006964271404824097
1.24143e-05	0.0006799940761512705
1.24145e-05	0.000664603097490836
1.24148e-05	0.0006532459081223613
1.24150e-05	0.0006430290375443554
1.24153e-05	0.0006369078763226389
1.24155e-05	0.0006319445381803948
1.24158e-05	0.0006311460447686992
1.24160e-05	0.0006315249184335863
1.24163e-05	0.0006362079286120325
1.24165e-05	0.0006421076824992189
1.24168e-05	0.0006521874151159593
1.24170e-05	0.0006634487930652651
1.24173e-05	0.0006785870613522859
1.24175e-05	0.0006948212943963738
1.24178e-05	0.0007146339353862677
1.24180e-05	0.0007354581626353764
1.24183e-05	0.0007596061972282901
1.24185e-05	0.0007846938446011469
1.24188e-05	0.000813301209349148
1.24190e-05	0.000842903569019052
1.24193e-05	0.0008725059286889559
1.24195e-05	0.000906138039579684
1.24198e-05	0.0009409093277321294
1.24200e-05	0.0009756806158845748
1.24203e-05	0.0010104519040367846
1.24205e-05	0.00104522319218923
1.24208e-05	0.00108052819760625
1.24210e-05	0.0011172082737079658
1.24213e-05	0.00115388834980993
1.24215e-05	0.001190568425911894
1.24218e-05	0.0012272485020136097
1.24220e-05	0.001263928578115574
1.24223e-05	0.0012962149395868135
1.24225e-05	0.0013272592343576968
1.24228e-05	0.0013583035291287902
1.24230e-05	0.0013893478238998838
1.24233e-05	0.0014203921186707671
1.24235e-05	0.0014514364134418606
1.24238e-05	0.0014800571044610536
1.24240e-05	0.0015024336158501485
1.24243e-05	0.0015248101272393947
1.24245e-05	0.0015471866386286412
1.24248e-05	0.0015695631500178874
1.24250e-05	0.0015919396614069822
1.24253e-05	0.0016143161727962285
1.24255e-05	0.0016326915071190264
1.24258e-05	0.0016499357418564827
1.24260e-05	0.001667179976594056
1.24263e-05	0.0016844242113316292
1.24265e-05	0.0017016684460690857
1.24268e-05	0.0017189126808066588
1.24270e-05	0.0017361569155442322
1.24273e-05	0.0017534011502816885
1.24275e-05	0.0017706453850192619
1.24278e-05	0.001787889619756835
1.24280e-05	0.0018051338544942915
1.24283e-05	0.0018223780892318647
1.24285e-05	0.001839622323969438
1.24288e-05	0.0018568665587068943
1.24290e-05	0.0018741107934444677
1.24293e-05	0.0018913550281820408
1.24295e-05	0.0019074648523385884
1.24298e-05	0.0019206519778331226
1.24300e-05	0.001933839103327657
1.24303e-05	0.001947026228822102
1.24305e-05	0.0019602133543166365
1.24308e-05	0.0019734004798111705
1.24310e-05	0.0019865876053056157
1.24313e-05	0.0019997747308001497
1.24315e-05	0.002012961856294684
1.24318e-05	0.0020261489817891293
1.24320e-05	0.0020393361072836634
1.24323e-05	0.002052523232778198
1.24325e-05	0.0020657103582726426
1.24328e-05	0.002078897483767177
1.24330e-05	0.0020920846092617115
1.24333e-05	0.0021052717347562456
1.24335e-05	0.0021184588602506907
1.24338e-05	0.002124692579985916
1.24340e-05	0.002128960629558825
1.24343e-05	0.002133228679131705
1.24345e-05	0.0021374967287046136
1.24348e-05	0.0021417647782775223
1.24350e-05	0.0021460328278504024
1.24353e-05	0.002150300877423311
1.24355e-05	0.0021545689269962197
1.24358e-05	0.0021588369765690994
1.24360e-05	0.0021631050261420085
1.24363e-05	0.002167373075714917
1.24365e-05	0.002171641125287797
1.24368e-05	0.0021759091748607055
1.24370e-05	0.002180177224433614
1.24373e-05	0.0021844452740064943
1.24375e-05	0.002183050082871946
1.24378e-05	0.0021800539405391907
1.24380e-05	0.002177057798206456
1.24383e-05	0.0021740616558737005
1.24385e-05	0.0021710655135409452
1.24388e-05	0.0021680693712082103
1.24390e-05	0.002165073228875455
1.24393e-05	0.0021620770865426998
1.24395e-05	0.002159080944209965
1.24398e-05	0.0021560848018772096
1.24400e-05	0.0021530886595444543
1.24403e-05	0.0021500925172117193
1.24405e-05	0.002147096374878964
1.24408e-05	0.0021441002325462088
1.24410e-05	0.002141104090213474
1.24413e-05	0.0021368439483410583
1.24415e-05	0.0021322264842776354
1.24417e-05	0.0021276090202142434
1.24420e-05	0.0021229915561508206
1.24423e-05	0.0021183740920873973
1.24425e-05	0.0021137566280239745
1.24428e-05	0.002109139163960583
1.24430e-05	0.002104371870390888
1.24433e-05	0.002099562221261889
1.24435e-05	0.0020947525721329227
1.24438e-05	0.0020899429230039237
1.24440e-05	0.0020851332738749243
1.24443e-05	0.002080323624745958
1.24445e-05	0.002075513975616959
1.24448e-05	0.0020598236911468417
1.24450e-05	0.0020410575412684673
1.24453e-05	0.0020222913913899654
1.24455e-05	0.0020035252415114635
1.24458e-05	0.0019847590916330887
1.24460e-05	0.001965992941754587
1.24463e-05	0.001947226791876085
1.24465e-05	0.00192846064199771
1.24468e-05	0.0019096944921192082
1.24470e-05	0.0018852287594349232
1.24473e-05	0.0018460786053151447
