Time(s)	Current(A)
1.75000e-06	-0.008025484946930637
1.75025e-06	-0.008020402409200102
1.75050e-06	-0.008012288010672447
1.75075e-06	-0.007993751587029002
1.75100e-06	-0.007975215163385571
1.75125e-06	-0.007956678739742125
1.75150e-06	-0.007938142316098696
1.75175e-06	-0.00791960589245525
1.75200e-06	-0.00789902617037025
1.75225e-06	-0.007871422607448966
1.75250e-06	-0.007843819044527656
1.75275e-06	-0.00781621548160637
1.75300e-06	-0.007788611918685061
1.75325e-06	-0.0077600309867656885
1.75350e-06	-0.007728090347746676
1.75375e-06	-0.007696149708727636
1.75400e-06	-0.007664209069708623
1.75425e-06	-0.007632268430689584
1.75450e-06	-0.0076001891689337206
1.75475e-06	-0.007567633391354175
1.75500e-06	-0.007535244464759911
1.75525e-06	-0.007503429088627184
1.75550e-06	-0.007471850766818843
1.75575e-06	-0.007441308108510933
1.75600e-06	-0.007411791793902108
1.75625e-06	-0.007383508471666258
1.75650e-06	-0.0073566645346913595
1.75675e-06	-0.0073316931922029855
1.75700e-06	-0.007308899537850559
1.75725e-06	-0.007287083221014908
1.75750e-06	-0.0072686265030618225
1.75775e-06	-0.007251223307415052
1.75800e-06	-0.00723744159595588
1.75825e-06	-0.0072247458325605625
1.75850e-06	-0.0072157830169331
1.75875e-06	-0.0072082204378606934
1.75900e-06	-0.0072054711736204285
1.75925e-06	-0.007202721909380162
1.75950e-06	-0.007202293676856701
1.75975e-06	-0.007209843993634804
1.76000e-06	-0.007217394310412901
1.76025e-06	-0.0072249446271910045
1.76050e-06	-0.007232494943969102
1.76075e-06	-0.007240045260747198
1.76100e-06	-0.007255868077625038
1.76125e-06	-0.007274823201320497
1.76150e-06	-0.0072937783250159715
1.76175e-06	-0.007312733448711431
1.76200e-06	-0.0073316885724068895
1.76225e-06	-0.007352523989367431
1.76250e-06	-0.007379822916674562
1.76275e-06	-0.007407121843981716
1.76300e-06	-0.007434420771288847
1.76325e-06	-0.007461719698595977
1.76350e-06	-0.0074890186259031315
1.76375e-06	-0.007516317553210262
1.76400e-06	-0.00754554643702077
1.76425e-06	-0.007575506081283375
1.76450e-06	-0.0076054657255459806
1.76475e-06	-0.007635425369808611
1.76500e-06	-0.007665385014071217
1.76525e-06	-0.007695344658333847
1.76550e-06	-0.007724693791047264
1.76575e-06	-0.007751944289580536
1.76600e-06	-0.007779194788113785
1.76625e-06	-0.007805485246365458
1.76650e-06	-0.007828475565001576
1.76675e-06	-0.007851465883637675
1.76700e-06	-0.00787308956328081
1.76725e-06	-0.007890015419751872
1.76750e-06	-0.007906941276222934
1.76775e-06	-0.007922279354931793
1.76800e-06	-0.00793215944568503
1.76825e-06	-0.007942039536438275
1.76850e-06	-0.00794939734399451
1.76875e-06	-0.00794808480004602
1.76900e-06	-0.007946772256097526
1.76925e-06	-0.007945459712149036
1.76950e-06	-0.007944147168200542
1.76975e-06	-0.007942834624252052
1.77000e-06	-0.007938344985692422
1.77025e-06	-0.0079229340806094
1.77050e-06	-0.00790752317552638
1.77075e-06	-0.007892112270443346
1.77100e-06	-0.007876701365360325
1.77125e-06	-0.007861290460277292
1.77150e-06	-0.007843477467033306
1.77175e-06	-0.007817407292864847
1.77200e-06	-0.007791337118696367
1.77225e-06	-0.007765266944527908
1.77250e-06	-0.0077391967703594276
1.77275e-06	-0.007713126596190969
1.77300e-06	-0.007682749936713933
1.77325e-06	-0.0076507426657979665
1.77350e-06	-0.007618735394882028
1.77375e-06	-0.007586728123966061
1.77400e-06	-0.007554720853050122
1.77425e-06	-0.007522402713658829
1.77450e-06	-0.0074890159635120825
1.77475e-06	-0.007455726123355872
1.77500e-06	-0.007422769411407926
1.77525e-06	-0.0073900800283185795
1.77550e-06	-0.007358309588500051
1.77575e-06	-0.007326854014330283
1.77600e-06	-0.007296753944106749
1.77625e-06	-0.007267913527004214
1.77650e-06	-0.007240543707585876
1.77675e-06	-0.007214855325477114
1.77700e-06	-0.007191066520033878
1.77725e-06	-0.007169434460896904
1.77750e-06	-0.0071505540532366425
1.77775e-06	-0.007134768834088841
1.77800e-06	-0.007120218994327718
1.77825e-06	-0.0071099157726847466
1.77850e-06	-0.007100862674179052
1.77875e-06	-0.007096106875451778
1.77900e-06	-0.007092958687717161
1.77925e-06	-0.007095336664691015
1.77950e-06	-0.007097714641664866
1.77975e-06	-0.007102745431648101
1.78000e-06	-0.007116895269521298
1.78025e-06	-0.007131045107394496
1.78050e-06	-0.007145194945267706
1.78075e-06	-0.0071593447831409035
1.78100e-06	-0.007173494621014112
1.78125e-06	-0.007196837715564745
1.78150e-06	-0.00722366175302451
1.78175e-06	-0.007250485790484299
1.78200e-06	-0.007277309827944064
1.78225e-06	-0.007304133865403853
1.78250e-06	-0.007332404502814456
1.78275e-06	-0.00736564782928474
1.78300e-06	-0.007399724074743707
1.78325e-06	-0.007436663480221668
1.78350e-06	-0.0074736028856996605
1.78375e-06	-0.007510542291177622
1.78400e-06	-0.007547481696655615
1.78425e-06	-0.007584421102133577
1.78450e-06	-0.0076213605076115385
1.78475e-06	-0.007657342521635059
1.78500e-06	-0.007692962028104201
1.78525e-06	-0.007728581534573373
1.78550e-06	-0.007764201041042515
1.78575e-06	-0.007799820547511657
1.78600e-06	-0.00783544005398083
1.78625e-06	-0.007869519881836325
1.78650e-06	-0.007898307062617713
1.78675e-06	-0.007927094243399078
1.78700e-06	-0.007952890304696298
1.78725e-06	-0.00797389604180173
1.78750e-06	-0.008866402597239429
1.78775e-06	-0.022193474341615935
1.78800e-06	-0.024602511073583366
1.78825e-06	-0.02189047524935345
1.78850e-06	-0.01864649856800196
1.78875e-06	-0.0096145437162463
1.78900e-06	-0.005000854278017876
1.78925e-06	-0.005864895916382172
1.78950e-06	-0.0071655635746467675
1.78975e-06	-0.014439673754408086
1.79000e-06	-0.019736487891834305
1.79025e-06	-0.015552349631378694
1.79050e-06	-0.012089360634597684
1.79075e-06	-0.007710460117397838
1.79100e-06	-0.004969830731133425
1.79125e-06	-0.004970942514206475
1.79150e-06	-0.00716567405993759
1.79175e-06	-0.010602424509410454
1.79200e-06	-0.0125775899357807
1.79225e-06	-0.012039010965996879
1.79250e-06	-0.009873642591755442
1.79275e-06	-0.007073691564210614
1.79300e-06	-0.005371134666710456
1.79325e-06	-0.00538132697562328
1.79350e-06	-0.006761724658365623
1.79375e-06	-0.008916947286967769
1.79400e-06	-0.010154151400011177
1.79425e-06	-0.009814964173114107
1.79450e-06	-0.008455597302965164
1.79475e-06	-0.006698068335823489
1.79500e-06	-0.005627653749565444
1.79525e-06	-0.005630064396118489
1.79550e-06	-0.006490938022641864
1.79575e-06	-0.007837531029334682
1.79600e-06	-0.008609687601981246
1.79625e-06	-0.008395288264905664
1.79650e-06	-0.0075430124396281585
1.79675e-06	-0.006442710401331129
1.79700e-06	-0.005774330170344292
1.79725e-06	-0.005779253617410598
1.79750e-06	-0.0063225176681468605
1.79775e-06	-0.007170023515886077
1.79800e-06	-0.007657506682924804
1.79825e-06	-0.007526859865095319
1.79850e-06	-0.006996561467590527
1.79875e-06	-0.006310854693869377
1.79900e-06	-0.005895666702758059
1.79925e-06	-0.005902177871820351
1.79950e-06	-0.006245822451518694
1.79975e-06	-0.006779943315540724
1.80000e-06	-0.007088453566667339
1.80025e-06	-0.007009707823034485
1.80050e-06	-0.0066805931653011325
1.80075e-06	-0.006254122385644527
1.80100e-06	-0.005997093524676059
1.80125e-06	-0.006004187938356573
1.80150e-06	-0.006222412045903063
1.80175e-06	-0.006559885845571456
1.80200e-06	-0.0067559745848164345
1.80225e-06	-0.0067094409981182206
1.80250e-06	-0.006506048688612338
1.80275e-06	-0.00624165395432458
1.80300e-06	-0.00608337619049683
1.80325e-06	-0.0060905098904801645
1.80350e-06	-0.006229845686310375
1.80375e-06	-0.006443820017733774
1.80400e-06	-0.00656917059984404
1.80425e-06	-0.006542492364494048
1.80450e-06	-0.006417517290729073
1.80475e-06	-0.006254295026275097
1.80500e-06	-0.006157506051075662
1.80525e-06	-0.006164283189543512
1.80550e-06	-0.006253813890111671
1.80575e-06	-0.0063900335847997146
1.80600e-06	-0.00647067330770093
1.80625e-06	-0.0064560218968568875
1.80650e-06	-0.006379742839349959
1.80675e-06	-0.0062794531585812965
1.80700e-06	-0.006220716624923882
1.80725e-06	-0.0062267194504014
1.80750e-06	-0.006284267089804797
1.80775e-06	-0.006370643792060414
1.80800e-06	-0.006421763681832742
1.80825e-06	-0.006412773608591867
1.80850e-06	-0.006364788236569573
1.80875e-06	-0.006301396784413376
1.80900e-06	-0.006263691723867787
1.80925e-06	-0.0062662173241537136
1.80950e-06	-0.00630072827855264
1.80975e-06	-0.006353017040615119
1.81000e-06	-0.006382963497355622
1.81025e-06	-0.0063750263754627405
1.81050e-06	-0.006342457874419679
1.81075e-06	-0.006308874611552407
1.81100e-06	-0.006276859932388712
1.81125e-06	-0.006272195920042356
1.81150e-06	-0.0062907192115759835
1.81175e-06	-0.006312105753703686
1.81200e-06	-0.006332761557086101
1.81225e-06	-0.006327524104633575
1.81250e-06	-0.006303809888913073
1.81275e-06	-0.006279480269342373
1.81300e-06	-0.006256141791283796
1.81325e-06	-0.006249992199806906
1.81350e-06	-0.00625844667920656
1.81375e-06	-0.0062688383671810856
1.81400e-06	-0.00627881748856809
1.81425e-06	-0.006272734167161418
1.81450e-06	-0.006255264646734542
1.81475e-06	-0.006237685119445697
1.81500e-06	-0.006220810718546868
1.81525e-06	-0.006214964083402355
1.81550e-06	-0.006218558320768723
1.81575e-06	-0.006223766432899466
1.81600e-06	-0.006228837484318247
1.81625e-06	-0.006224210245494247
1.81650e-06	-0.006212849727983241
1.81675e-06	-0.006199578203156207
1.81700e-06	-0.0061908057057821
1.81725e-06	-0.006189215886244609
1.81750e-06	-0.006194460522814502
1.81775e-06	-0.006205080481511251
1.81800e-06	-0.0062150692460733225
1.81825e-06	-0.006221951527254406
1.81850e-06	-0.006228197375681078
1.81875e-06	-0.006234534094478767
1.81900e-06	-0.00624586080634663
1.81925e-06	-0.006263771582286958
1.81950e-06	-0.006289881030818918
1.81975e-06	-0.006318377483736573
1.82000e-06	-0.0063468739366542536
1.82025e-06	-0.006375782342921047
1.82050e-06	-0.006407511571485113
1.82075e-06	-0.006440229088751784
1.82100e-06	-0.006472946606018455
1.82125e-06	-0.006513352201247621
1.82150e-06	-0.006556605382749844
1.82175e-06	-0.006603727720268033
1.82200e-06	-0.0066522831540181855
1.82225e-06	-0.006700838587768379
1.82250e-06	-0.0067493940215185315
1.82275e-06	-0.006801396407240373
1.82300e-06	-0.00685467550908902
1.82325e-06	-0.0069079546109376225
1.82350e-06	-0.00696123371278627
1.82375e-06	-0.007017066653557908
1.82400e-06	-0.007073845510421486
1.82425e-06	-0.007130624367285112
1.82450e-06	-0.007185442679600907
1.82475e-06	-0.007239534826057195
1.82500e-06	-0.007293626972513435
1.82525e-06	-0.007346845714439781
1.82550e-06	-0.0073997409561672575
1.82575e-06	-0.007452636197894689
1.82600e-06	-0.007501675988955461
1.82625e-06	-0.0075492877601068846
1.82650e-06	-0.007592431134331291
1.82675e-06	-0.007633919459554618
1.82700e-06	-0.007671200525724533
1.82725e-06	-0.007706923265719089
1.82750e-06	-0.007735754253849809
1.82775e-06	-0.007762032606835611
1.82800e-06	-0.0077883109598213904
1.82825e-06	-0.007804300333337943
1.82850e-06	-0.007816478772984912
1.82875e-06	-0.007828657212631871
1.82900e-06	-0.0078314191712007
1.82925e-06	-0.007830693360474218
1.82950e-06	-0.007829967549747734
1.82975e-06	-0.007817067084722022
1.83000e-06	-0.007799657250953016
1.83025e-06	-0.0077822474171839965
1.83050e-06	-0.007764837583414991
1.83075e-06	-0.00774341423010946
1.83100e-06	-0.007708532991801246
1.83125e-06	-0.007673651753493031
1.83150e-06	-0.007638770515184787
1.83175e-06	-0.007603889276876573
1.83200e-06	-0.007560295249775111
1.83225e-06	-0.007513474093879321
1.83250e-06	-0.007466652937983532
1.83275e-06	-0.00741549698399901
1.83300e-06	-0.00736273546467125
1.83325e-06	-0.0073076813009276854
1.83350e-06	-0.00725177796489446
1.83375e-06	-0.007194597482864995
1.83400e-06	-0.007136273189641235
1.83425e-06	-0.007077274678312763
1.83450e-06	-0.00701799783563007
1.83475e-06	-0.006958844175128921
1.83500e-06	-0.00690025355731039
1.83525e-06	-0.006842601797150834
1.83550e-06	-0.0067862131336556206
1.83575e-06	-0.006731418702128886
1.83600e-06	-0.006678513040227531
1.83625e-06	-0.006627854252939677
1.83650e-06	-0.006579866808879649
1.83675e-06	-0.006534979041059376
1.83700e-06	-0.006493623787821993
1.83725e-06	-0.0064559331251018565
1.83750e-06	-0.006421600060905135
1.83775e-06	-0.006390300971737493
1.83800e-06	-0.006361960190952446
1.83825e-06	-0.0063366828810176214
1.83850e-06	-0.0063146369313569865
1.83875e-06	-0.006297313477679134
1.83900e-06	-0.006281410911886931
1.83925e-06	-0.006270565280168485
1.83950e-06	-0.006261592685653996
1.83975e-06	-0.006257923098529483
1.84000e-06	-0.006256217691674931
1.84025e-06	-0.006254512284820381
1.84050e-06	-0.006260854455168308
1.84075e-06	-0.006270177366669238
1.84100e-06	-0.0062795002781701695
1.84125e-06	-0.0062888231896711085
1.84150e-06	-0.006298146101172039
1.84175e-06	-0.006315406448705082
1.84200e-06	-0.0063356067422162335
1.84225e-06	-0.006355807035727386
1.84250e-06	-0.006376007329238555
1.84275e-06	-0.006396207622749708
1.84300e-06	-0.0064208949569937585
1.84325e-06	-0.0064472442457156375
1.84350e-06	-0.0064735935344375165
1.84375e-06	-0.006501688726080481
1.84400e-06	-0.006530430582496547
1.84425e-06	-0.006559172438912638
1.84450e-06	-0.006588444726325159
1.84475e-06	-0.006617913480010737
1.84500e-06	-0.006647382233696291
1.84525e-06	-0.00667641428511688
1.84550e-06	-0.006705284586438053
1.84575e-06	-0.006732499655351195
1.84600e-06	-0.006759101642931676
1.84625e-06	-0.0067857036305121335
1.84650e-06	-0.006809118274885189
1.84675e-06	-0.006831352359590719
1.84700e-06	-0.006853586444296231
1.84725e-06	-0.0068738032375119254
1.84750e-06	-0.00689327284637512
1.84775e-06	-0.006912742455238315
1.84800e-06	-0.006933392876217279
1.84825e-06	-0.006954480658053868
1.84850e-06	-0.006975568439890475
1.84875e-06	-0.0069981761724674735
1.84900e-06	-0.007021346879416556
1.84925e-06	-0.00704451758636562
1.84950e-06	-0.007067688293314684
1.84975e-06	-0.007090859000263767
1.85000e-06	-0.007114029707212831
1.85025e-06	-0.007137200414161915
1.85050e-06	-0.007164308892869179
1.85075e-06	-0.0071928758823846875
1.85100e-06	-0.007221442871900221
1.85125e-06	-0.0072500098614157295
1.85150e-06	-0.007278576850931263
1.85175e-06	-0.0073071438404467715
1.85200e-06	-0.007335710829962281
1.85225e-06	-0.007367033089818655
1.85250e-06	-0.007399375873925385
1.85275e-06	-0.007431718658032142
1.85300e-06	-0.007464061442138872
1.85325e-06	-0.007496404226245629
1.85350e-06	-0.007528747010352358
1.85375e-06	-0.007561089794459088
1.85400e-06	-0.007593065395655735
1.85425e-06	-0.0076238097818717415
1.85450e-06	-0.007654554168087774
1.85475e-06	-0.007685298554303781
1.85500e-06	-0.007716042940519787
1.85525e-06	-0.00774678732673582
1.85550e-06	-0.007777531712951826
1.85575e-06	-0.007808276099167858
1.85600e-06	-0.007835369516262514
1.85625e-06	-0.00786111065134317
1.85650e-06	-0.007886851786423846
1.85675e-06	-0.007908801183721519
1.85700e-06	-0.007929346159717554
1.85725e-06	-0.007949891135713571
1.85750e-06	-0.007965032806081698
1.85775e-06	-0.007978173146727805
1.85800e-06	-0.007991313487373914
1.85825e-06	-0.007998393571766554
1.85850e-06	-0.008003228998573957
1.85875e-06	-0.008008064425381366
1.85900e-06	-0.008003511348145354
1.85925e-06	-0.007995480864025304
1.85950e-06	-0.007987450379905245
1.85975e-06	-0.007979419895785194
1.86000e-06	-0.007971389411665137
1.86025e-06	-0.007963358927545084
1.86050e-06	-0.007943812438760906
1.86075e-06	-0.007920000538393547
1.86100e-06	-0.007896188638026207
1.86125e-06	-0.007872376737658848
1.86150e-06	-0.007848564837291508
1.86175e-06	-0.007824752936924148
1.86200e-06	-0.007792717281259593
1.86225e-06	-0.007757635629859155
1.86250e-06	-0.0077225539784586865
1.86275e-06	-0.0076874723270582476
1.86300e-06	-0.007652390675657779
1.86325e-06	-0.007616087760911265
1.86350e-06	-0.007575689781592173
1.86375e-06	-0.007535291802273046
1.86400e-06	-0.007494893822953954
1.86425e-06	-0.007454495843634827
1.86450e-06	-0.007414097864315734
1.86475e-06	-0.007373517921000091
1.86500e-06	-0.007332870580061608
1.86525e-06	-0.007293187597334559
1.86550e-06	-0.0072538618031294565
1.86575e-06	-0.007216173345091279
1.86600e-06	-0.00717909133979907
1.86625e-06	-0.007145162017905552
1.86650e-06	-0.007112400418037016
1.86675e-06	-0.007079638818168452
1.86700e-06	-0.007051704559457048
1.86725e-06	-0.007025558299056413
1.86750e-06	-0.0069994120386558
1.86775e-06	-0.006979917924368945
1.86800e-06	-0.006962887697681341
1.86825e-06	-0.0069458574709937515
1.86850e-06	-0.006928827244306148
1.86875e-06	-0.006911797017618558
1.86900e-06	-0.006894766790930969
1.86925e-06	-0.006877736564243365
1.86950e-06	-0.006863467897060097
1.86975e-06	-0.006858459120077467
1.87000e-06	-0.006853450343094841
1.87025e-06	-0.006848441566112212
1.87050e-06	-0.006843432789129586
1.87075e-06	-0.006838424012146961
1.87100e-06	-0.0068334152351643305
1.87125e-06	-0.006828406458181705
1.87150e-06	-0.006829850145471232
1.87175e-06	-0.0068336837602266534
1.87200e-06	-0.006837517374982075
1.87225e-06	-0.0068413509897375
1.87250e-06	-0.006845184604492922
1.87275e-06	-0.006849018219248347
1.87300e-06	-0.006852851834003769
1.87325e-06	-0.006856685448759191
1.87350e-06	-0.006863727474449144
1.87375e-06	-0.006871957863079326
1.87400e-06	-0.006880188251709514
1.87425e-06	-0.006888418640339696
1.87450e-06	-0.006896649028969884
1.87475e-06	-0.006904879417600066
1.87500e-06	-0.006913109806230247
1.87525e-06	-0.006921340194860436
1.87550e-06	-0.006929508951894213
1.87575e-06	-0.006937654881208416
1.87600e-06	-0.006945800810522612
1.87625e-06	-0.006953946739836808
1.87650e-06	-0.006960747562745122
1.87675e-06	-0.00696705017185351
1.87700e-06	-0.006973352780961905
1.87725e-06	-0.006979655390070293
1.87750e-06	-0.006986981228094872
1.87775e-06	-0.006994686059754672
1.87800e-06	-0.0070023908914144655
1.87825e-06	-0.007010095723074266
1.87850e-06	-0.00701780055473406
1.87875e-06	-0.007025505386393854
1.87900e-06	-0.007033210218053654
1.87925e-06	-0.007040915049713448
1.87950e-06	-0.007051994073231845
1.87975e-06	-0.007064322863266944
1.88000e-06	-0.007076651653302053
1.88025e-06	-0.007088980443337152
1.88050e-06	-0.0071013092333722504
1.88075e-06	-0.00711363802340736
1.88100e-06	-0.007125966813442458
1.88125e-06	-0.007138295603477568
1.88150e-06	-0.007153857392623358
1.88175e-06	-0.007170616651920924
1.88200e-06	-0.0071873759112185045
1.88225e-06	-0.007204135170516071
1.88250e-06	-0.007220894429813652
1.88275e-06	-0.007237653689111218
1.88300e-06	-0.007254412948408785
1.88325e-06	-0.007271172207706365
1.88350e-06	-0.007288098430488375
1.88375e-06	-0.007305584504879924
1.88400e-06	-0.007323070579271458
1.88425e-06	-0.007340556653663007
1.88450e-06	-0.0073580427280545415
1.88475e-06	-0.007375528802446076
1.88500e-06	-0.007393014876837625
1.88525e-06	-0.007410500951229158
1.88550e-06	-0.007427987025620707
1.88575e-06	-0.0074414317055336585
1.88600e-06	-0.007453379493831788
1.88625e-06	-0.0074653272821299296
1.88650e-06	-0.0074772750704280595
1.88675e-06	-0.0074892228587262
1.88700e-06	-0.0075011706470243305
1.88725e-06	-0.007513118435322461
1.88750e-06	-0.007525066223620602
1.88775e-06	-0.007537014011918732
1.88800e-06	-0.007548961800216873
1.88825e-06	-0.007560909588515003
1.88850e-06	-0.007572857376813144
1.88875e-06	-0.007584309981645258
1.88900e-06	-0.0075941021679650856
1.88925e-06	-0.007603894354284922
1.88950e-06	-0.00761368654060475
1.88975e-06	-0.007623478726924586
1.89000e-06	-0.007633270913244413
1.89025e-06	-0.007643063099564241
1.89050e-06	-0.007652855285884077
1.89075e-06	-0.007662647472203904
1.89100e-06	-0.00767243965852374
1.89125e-06	-0.007682231844843569
1.89150e-06	-0.007692024031163396
1.89175e-06	-0.007701816217483232
1.89200e-06	-0.007712152546846368
1.89225e-06	-0.007722690421285866
1.89250e-06	-0.007733228295725355
1.89275e-06	-0.007743766170164852
1.89300e-06	-0.007754304044604341
1.89325e-06	-0.0077648419190438295
1.89350e-06	-0.0077753797934833275
1.89375e-06	-0.007785917667922816
1.89400e-06	-0.007796455542362314
1.89425e-06	-0.007806993416801802
1.89450e-06	-0.00781753129124129
1.89475e-06	-0.007827412231033708
1.89500e-06	-0.007835090378277124
1.89525e-06	-0.007842768525520547
1.89550e-06	-0.007850446672763963
1.89575e-06	-0.00785812482000738
1.89600e-06	-0.007865802967250804
1.89625e-06	-0.00787348111449422
1.89650e-06	-0.007881159261737642
