Time(s)	Current(A)
1.22500e-05	0.0025202417304778808
1.22503e-05	0.0025155710419340993
1.22505e-05	0.002510900353390286
1.22508e-05	0.002506229664846473
1.22510e-05	0.0025015589763026915
1.22513e-05	0.0024968882877588784
1.22515e-05	0.0024922175992150653
1.22518e-05	0.002487546910671284
1.22520e-05	0.0024828762221274707
1.22523e-05	0.0024782055335836575
1.22525e-05	0.002473534845039876
1.22528e-05	0.002469271799909878
1.22530e-05	0.002467131133805701
1.22532e-05	0.0024649904677015383
1.22535e-05	0.002462849801597361
1.22538e-05	0.0024607091354931837
1.22540e-05	0.0024585684693890068
1.22543e-05	0.002456427803284844
1.22545e-05	0.002454287137180667
1.22548e-05	0.00245214647107649
1.22550e-05	0.002450005804972327
1.22553e-05	0.00244786513886815
1.22555e-05	0.0024469728172002397
1.22558e-05	0.0024525799505927884
1.22560e-05	0.002458187083985375
1.22563e-05	0.0024637942173779616
1.22565e-05	0.0024694013507705107
1.22568e-05	0.002475008484163097
1.22570e-05	0.002480615617555684
1.22573e-05	0.0024862227509482326
1.22575e-05	0.0024918298843408194
1.22578e-05	0.002497437017733406
1.22580e-05	0.002503044151125955
1.22583e-05	0.002509528500541597
1.22585e-05	0.0025205800398732715
1.22588e-05	0.002531631579204871
1.22590e-05	0.0025426831185365456
1.22593e-05	0.00255373465786822
1.22595e-05	0.0025647861971998197
1.22598e-05	0.0025758377365314943
1.22600e-05	0.002586889275863169
1.22603e-05	0.002597940815194769
1.22605e-05	0.0026089923545264434
1.22608e-05	0.002620043893858118
1.22610e-05	0.0026299118097982462
1.22613e-05	0.0026400213855875473
1.22615e-05	-0.002655479637716133
1.22617e-05	-0.010472324882067242
1.22620e-05	-0.009965475560441287
1.22623e-05	-0.00797265252087669
1.22625e-05	-0.0035716388726640654
1.22628e-05	0.0025004576791902854
1.22630e-05	0.003835914666590271
1.22633e-05	0.002628685045083521
1.22635e-05	2.5312894707404943e-05
1.22638e-05	-0.0046926143662017455
1.22640e-05	-0.0056644521102176505
1.22643e-05	-0.00331697230588808
1.22645e-05	-0.0009839178112140464
1.22648e-05	0.0025730345236026366
1.22650e-05	0.004923105048375068
1.22653e-05	0.004163742670725134
1.22655e-05	0.0036060087365515307
1.22658e-05	0.0014292361680881842
1.22660e-05	-0.0009125337203309317
1.22663e-05	-0.0011551103174937292
1.22665e-05	-1.1378840834818342e-05
1.22668e-05	0.001865156407732601
1.22670e-05	0.003722353520576209
1.22673e-05	0.004216180329798555
1.22675e-05	0.0037120961574056244
1.22678e-05	0.002331183130645999
1.22680e-05	0.0008478126801764397
1.22683e-05	0.000680142868457018
1.22685e-05	0.0013814638468104337
1.22688e-05	0.002542312500468658
1.22690e-05	0.003691489170593654
1.22693e-05	0.003987103499357548
1.22695e-05	0.0036581240536628715
1.22698e-05	0.0027804341201065953
1.22700e-05	0.0018391171952677361
1.22702e-05	0.0017224659747534176
1.22705e-05	0.002150599225866521
1.22708e-05	0.0028669951537789594
1.22710e-05	0.003576489458719787
1.22713e-05	0.0037517578658102877
1.22715e-05	0.003536280789716742
1.22718e-05	0.0029776404122585074
1.22720e-05	0.002379727039107109
1.22723e-05	0.002298963107796926
1.22725e-05	0.0025600124297193634
1.22728e-05	0.003002188674975025
1.22730e-05	0.0034406159581774616
1.22733e-05	0.003545019041047383
1.22735e-05	0.003405310487215817
1.22738e-05	0.0030510942985394703
1.22740e-05	0.002672052617879274
1.22743e-05	0.0026160104370049723
1.22745e-05	0.00277290565251657
1.22748e-05	0.0030421327874584647
1.22750e-05	0.00330794547105063
1.22753e-05	0.0033635352983627667
1.22755e-05	0.003265305817270664
1.22758e-05	0.0030318800680934556
1.22760e-05	0.002782147741270749
1.22763e-05	0.002734044117135835
1.22765e-05	0.002818677544231846
1.22768e-05	0.0029730870099121376
1.22770e-05	0.0031248330000068288
1.22773e-05	0.0031444443543304276
1.22775e-05	0.003067329713774812
1.22778e-05	0.0029052302080785648
1.22780e-05	0.0027326905152002044
1.22783e-05	0.0026862869289224858
1.22785e-05	0.0027229240254372368
1.22787e-05	0.002803225153477709
1.22790e-05	0.002881880071902594
1.22793e-05	0.0028778599198571275
1.22795e-05	0.0028134191645730372
1.22798e-05	0.002695985479661629
1.22800e-05	0.0025723241764272846
1.22803e-05	0.002528051326243734
1.22805e-05	0.0025362338142421426
1.22808e-05	0.002572270621533807
1.22810e-05	0.0026078462694070943
1.22813e-05	0.002592275112799838
1.22815e-05	0.0025395691141559887
1.22818e-05	0.0024544528543866454
1.22820e-05	0.0023662891694363314
1.22823e-05	0.002328774216506814
1.22825e-05	0.002325213362646202
1.22828e-05	0.0023414303662226046
1.22830e-05	0.0023555809668706503
1.22833e-05	0.0023403837199512173
1.22835e-05	0.002303078680934812
1.22838e-05	0.002245608161838958
1.22840e-05	0.0021903774675081735
1.22843e-05	0.002166906736493811
1.22845e-05	0.0021661454779184795
1.22848e-05	0.002179586790976663
1.22850e-05	0.0021918578548029946
1.22853e-05	0.0021874924546009204
1.22855e-05	0.00217040300360079
1.22858e-05	0.002142072170881083
1.22860e-05	0.002115237050181252
1.22863e-05	0.0021095986187917586
1.22865e-05	0.0021189910653606893
1.22868e-05	0.002138238359764367
1.22870e-05	0.0021568131786563016
1.22872e-05	0.0021658156474628604
1.22875e-05	0.0021673368182909764
1.22878e-05	0.00216234935307325
1.22880e-05	0.002158666564569723
1.22883e-05	0.0021725466469757794
1.22885e-05	0.002187231652067992
1.22888e-05	0.0022127521025036576
1.22890e-05	0.002237680996347634
1.22893e-05	0.0022546466668587604
1.22895e-05	0.0022713082447328886
1.22898e-05	0.0022838762876568105
1.22900e-05	0.002296444330580817
1.22903e-05	0.0023097868617036744
1.22905e-05	0.0023336804304594904
1.22908e-05	0.0023592605243449517
1.22910e-05	0.0023848406182304135
1.22913e-05	0.0024097432965678755
1.22915e-05	0.002425526963511386
1.22918e-05	0.0024413106304548965
1.22920e-05	0.0024573921110103277
1.22923e-05	0.002477482601589933
1.22925e-05	0.002497573092169538
1.22928e-05	0.0025174087241070123
1.22930e-05	0.0025338135832077913
1.22933e-05	0.00255021844230857
1.22935e-05	0.0025659944114536574
1.22938e-05	0.002573304595172458
1.22940e-05	0.0025806147788912585
1.22943e-05	0.002587154445760664
1.22945e-05	0.002583321820535472
1.22948e-05	0.00257948919531028
1.22950e-05	0.0025756565700851136
1.22953e-05	0.0025718239448599216
1.22955e-05	0.002567991319634729
1.22957e-05	0.0025641586944095632
1.22960e-05	0.0025603260691843713
1.22963e-05	0.002556493443959179
1.22965e-05	0.0025511910832731865
1.22968e-05	0.002526103917730393
1.22970e-05	0.002501016752187599
1.22973e-05	0.0024759295866448056
1.22975e-05	0.002450842421102182
1.22978e-05	0.0024257552555593882
1.22980e-05	0.0024006680900165948
1.22983e-05	0.0023755809244739713
1.22985e-05	0.0023504937589311774
1.22988e-05	0.0023245850309431696
1.22990e-05	0.00228761686192594
1.22993e-05	0.0022506486929084603
1.22995e-05	0.00221368052389098
1.22998e-05	0.0021767123548737505
1.23000e-05	0.0021397441858562708
1.23003e-05	0.0021027760168387906
1.23005e-05	0.0020644919394627193
1.23008e-05	0.0020252117084236083
1.23010e-05	0.0019859314773844968
1.23013e-05	0.0019466512463456513
1.23015e-05	0.00190737101530654
1.23018e-05	0.0018680907842674285
1.23020e-05	0.001829438477614398
1.23023e-05	0.0017992389584028734
1.23025e-05	0.0017690394391913491
1.23028e-05	0.0017388399199800293
1.23030e-05	0.001708640400768505
1.23033e-05	0.0016784408815569804
1.23035e-05	0.0016482413623456608
1.23038e-05	0.0016180418431341365
1.23040e-05	0.001587842323922612
1.23042e-05	0.001557642804711292
1.23045e-05	0.0015347093760935153
1.23048e-05	0.0015172764389890642
1.23050e-05	0.0014998435018847313
1.23053e-05	0.0014824105647802802
1.23055e-05	0.0014649776276758292
1.23058e-05	0.0014475446905713781
1.23060e-05	0.0014301117534670452
1.23063e-05	0.0014126788163625942
1.23065e-05	0.0013952458792581431
1.23068e-05	0.0013783973069073348
1.23070e-05	0.0013694151451700337
1.23073e-05	0.0013604329834327326
1.23075e-05	0.0013514508216954924
1.23078e-05	0.0013424686599581913
1.23080e-05	0.00133348649822089
1.23083e-05	0.0013245043364836498
1.23085e-05	0.0013155221747463486
1.23088e-05	0.0013065400130090475
1.23090e-05	0.0012975578512718073
1.23093e-05	0.001288575689534506
1.23095e-05	0.0012799327715074227
1.23098e-05	0.001275856573679369
1.23100e-05	0.0012717803758512873
1.23103e-05	0.0012677041780232057
1.23105e-05	0.0012636279801951518
1.23108e-05	0.0012595517823670705
1.23110e-05	0.0012554755845389889
1.23113e-05	0.001251399386710935
1.23115e-05	0.0012473231888828534
1.23118e-05	0.0012432469910547718
1.23120e-05	0.001239170793226718
1.23123e-05	0.0012352181575328498
1.23125e-05	0.0012329288502291212
1.23127e-05	0.0012306395429254081
1.23130e-05	0.0012283502356216795
1.23133e-05	0.001226060928317951
1.23135e-05	0.0012237716210142379
1.23138e-05	0.0012214823137105093
1.23140e-05	0.0012191930064067806
1.23143e-05	0.0012172211048147924
1.23145e-05	0.0012195219517872834
1.23148e-05	0.00122182279875979
1.23150e-05	0.0012241236457322968
1.23153e-05	0.0012264244927047878
1.23155e-05	0.0012287253396772945
1.23158e-05	0.0012310261866498012
1.23160e-05	0.0012333270336222922
1.23163e-05	0.001236127523598158
1.23165e-05	0.0012456539446036852
1.23168e-05	0.0012551803656091478
1.23170e-05	0.001264706786614675
1.23173e-05	0.0012742332076202021
1.23175e-05	0.0012837596286256647
1.23178e-05	0.001293286049631192
1.23180e-05	0.0013028124706367192
1.23183e-05	0.0013123388916421819
1.23185e-05	0.0013222151142589808
1.23188e-05	0.0013368001819839968
1.23190e-05	0.001351385249708914
1.23193e-05	0.00136597031743393
1.23195e-05	0.001380555385158946
1.23198e-05	0.0013951404528838632
1.23200e-05	0.0014097255206088793
1.23203e-05	0.0014243105883338953
1.23205e-05	0.0014388956560588125
1.23208e-05	0.0014535141895550673
1.23210e-05	0.0014685832216429894
1.23212e-05	0.0014836522537308094
1.23215e-05	0.0014987212858187315
1.23218e-05	0.0015137903179066536
1.23220e-05	0.0015288593499944735
1.23223e-05	0.0015423517381194694
1.23225e-05	0.001554650593542042
1.23228e-05	0.0015669494489646146
1.23230e-05	0.001579248304387104
1.23233e-05	0.0015915471598096766
1.23235e-05	0.0016034142729976562
1.23238e-05	0.0016094694995471487
1.23240e-05	0.0016155247260966823
1.23243e-05	0.0016209228406226031
1.23245e-05	0.001617475259074371
1.23248e-05	0.001613496170149219
1.23250e-05	0.0016023622087696532
1.23253e-05	0.001590728545689049
1.23255e-05	0.001572368161414775
1.23258e-05	0.0015534319945885156
1.23260e-05	0.0015267449462130899
1.23263e-05	0.001499418161807651
1.23265e-05	0.001463479587806458
1.23268e-05	0.0014269735710866153
1.23270e-05	0.0013828289392575025
1.23273e-05	0.0013381951069938974
1.23275e-05	0.0012869759160577087
1.23278e-05	0.0012352781990289383
1.23280e-05	0.0011771388157017224
1.23283e-05	0.0011185391838799859
1.23285e-05	0.0010537439291502977
1.23288e-05	0.0009885920298353655
1.23290e-05	0.0009186391688955917
1.23293e-05	0.0008483893905813023
1.23295e-05	0.0007741426669107898
1.23297e-05	0.0006998959432407805
1.23300e-05	0.0006254159582254517
1.23303e-05	0.0005477959318027873
1.23305e-05	0.0004701759053806487
1.23308e-05	0.00039255587895798414
1.23310e-05	0.00031493585253531965
1.23313e-05	0.0002373923674252923
1.23315e-05	0.00016097543954961605
1.23318e-05	8.597003655068866e-05
1.23320e-05	1.2670410035944054e-05
1.23323e-05	-5.8621470876565976e-05
1.23325e-05	-0.00012747494618156954
1.23328e-05	-0.0001933915311983287
1.23330e-05	-0.0002558725236642143
1.23333e-05	-0.0003144193493436208
1.23335e-05	-0.000368560156003654
1.23338e-05	-0.0004182500099448086
1.23340e-05	-0.00046433724609778223
1.23343e-05	-0.0005078239177584909
1.23345e-05	-0.0005489118267073548
1.23348e-05	-0.0005873390590593958
1.23350e-05	-0.0006228412637935766
1.23353e-05	-0.0006551544450173617
1.23355e-05	-0.0006839313583651405
1.23358e-05	-0.000708148422857545
1.23360e-05	-0.0007320469415530036
1.23363e-05	-0.0007516573644492249
1.23365e-05	-0.0007709781049377679
1.23368e-05	-0.0007863992933741119
1.23370e-05	-0.000801498396012316
1.23373e-05	-0.000812261749214808
1.23375e-05	-0.0008226464611204497
1.23378e-05	-0.0008279341032455019
1.23380e-05	-0.0008332217453705541
1.23382e-05	-0.0008382056410115193
1.23385e-05	-0.0008391006614082804
1.23388e-05	-0.0008399956818050416
1.23390e-05	-0.0008405990012486945
1.23393e-05	-0.0008372755960437178
1.23395e-05	-0.0008339521908387411
1.23398e-05	-0.0008303534825954319
1.23400e-05	-0.0008230487897993604
1.23403e-05	-0.0008157440970032393
1.23405e-05	-0.0008084394042071183
1.23408e-05	-0.0008011347114110467
1.23410e-05	-0.0007938300186149257
1.23413e-05	-0.0007864070701805039
1.23415e-05	-0.0007773922266055295
1.23418e-05	-0.0007683773830304939
1.23420e-05	-0.0007593625394554584
1.23423e-05	-0.0007503476958804839
1.23425e-05	-0.0007413328523054485
1.23428e-05	-0.0007326669878870341
1.23430e-05	-0.0007286988971367818
1.23433e-05	-0.0007247308063865026
1.23435e-05	-0.0007207627156362234
1.23438e-05	-0.0007167946248859711
1.23440e-05	-0.0007128265341356919
1.23443e-05	-0.0007088584433854127
1.23445e-05	-0.0007048903526351604
1.23448e-05	-0.0007009222618848812
1.23450e-05	-0.000696954171134602
1.23453e-05	-0.0006929860803843497
1.23455e-05	-0.0006890179896340705
1.23458e-05	-0.0006850498988837914
1.23460e-05	-0.0006866232808663071
1.23463e-05	-0.0006923916041834835
1.23465e-05	-0.00069815992750066
1.23467e-05	-0.0007039282508177972
1.23470e-05	-0.0007096965741349736
1.23473e-05	-0.00071546489745215
1.23475e-05	-0.0007212332207692873
1.23478e-05	-0.0007270015440864637
1.23480e-05	-0.0007327698674036401
1.23483e-05	-0.0007385381907208166
1.23485e-05	-0.0007443065140379538
1.23488e-05	-0.0007500748373551302
1.23490e-05	-0.0007561982052862293
1.23493e-05	-0.000767100996880621
1.23495e-05	-0.0007780037884750865
1.23498e-05	-0.0007889065800695521
1.23500e-05	-0.0007998093716639438
1.23503e-05	-0.0008107121632584094
1.23505e-05	-0.000821614954852875
1.23508e-05	-0.0008325177464472667
1.23510e-05	-0.0008434359628325993
1.23513e-05	-0.0008543658559139861
1.23515e-05	-0.0008652957489952989
1.23518e-05	-0.0008762256420766858
1.23520e-05	-0.0008871555351580727
1.23523e-05	-0.0008980854282393855
1.23525e-05	-0.0009090153213207724
1.23528e-05	-0.0009198208811241463
1.23530e-05	-0.0009289527317988329
1.23533e-05	-0.0009379691953301019
1.23535e-05	-0.0009454323778856388
1.23538e-05	-0.000952587886212773
1.23540e-05	-0.0009551782465910372
1.23543e-05	-0.0009516007437500977
1.23545e-05	-0.0009412726967005149
1.23548e-05	-0.0009245054891834586
1.23550e-05	-0.0009016148355265516
1.23552e-05	-0.0008729164039255038
1.23555e-05	-0.0008386961214222446
1.23558e-05	-0.0007987711082243597
1.23560e-05	-0.0007520534343407579
1.23563e-05	-0.0006974861703557799
1.23565e-05	-0.0006350671887807317
1.23568e-05	-0.0005653543744406047
1.23570e-05	-0.0004889082671105528
1.23573e-05	-0.0004062894065640965
1.23575e-05	-0.000318039629333689
1.23578e-05	-0.00022440704298670296
1.23580e-05	-0.0001250729139720192
1.23583e-05	-1.9737996143194405e-05
1.23585e-05	9.123628574063411e-05
1.23588e-05	0.00020713771083022908
1.23590e-05	0.0003272524473466307
1.23593e-05	0.00045094590229587513
1.23595e-05	0.0005783447186988766
1.23598e-05	0.0007060935934184174
1.23600e-05	0.0008385547688952729
1.23603e-05	0.000971015944373026
1.23605e-05	0.00110354894357624
1.23608e-05	0.0012370487959569819
1.23610e-05	0.0013705486483386285
1.23613e-05	0.0015040485007202752
1.23615e-05	0.0016368978380807905
1.23618e-05	0.0017609902847209244
1.23620e-05	0.0018850827313610583
1.23623e-05	0.002009175178000351
1.23625e-05	0.0021323248854157543
1.23628e-05	0.002242783933716736
1.23630e-05	0.002352305604113512
1.23633e-05	0.002449208786679678
1.23635e-05	0.002544953070567188
1.23637e-05	0.0026250968705719612
1.23640e-05	0.002703970464108984
1.23643e-05	0.0027657452068985504
1.23645e-05	0.002826203101335262
1.23648e-05	0.002868934276534413
1.23650e-05	0.0029103012289439724
1.23653e-05	0.002933303732383834
1.23655e-05	0.0029549064238433374
1.23658e-05	0.0029576655833859667
1.23660e-05	0.002959058459330719
1.23663e-05	0.002942059144791642
1.23665e-05	0.002923767518396818
1.23668e-05	0.002888079470168076
1.23670e-05	0.002851172639074452
1.23673e-05	0.002797859194705911
1.23675e-05	0.002743407902491994
1.23678e-05	0.0026736395016296543
1.23680e-05	0.002602857424662139
1.23683e-05	0.0025184297736442346
1.23685e-05	0.0024329530317490577
1.23688e-05	0.002333353980770238
1.23690e-05	0.0022337549297914185
1.23693e-05	0.0021331984751144064
1.23695e-05	0.002019753955885173
1.23698e-05	0.00190630943665594
1.23700e-05	0.0017922761254515244
1.23703e-05	0.0016703168066455063
1.23705e-05	0.0015483574878394882
1.23708e-05	0.0014263981690342963
1.23710e-05	0.0013039221443443454
1.23713e-05	0.00118105496896644
1.23715e-05	0.0010581877935893673
1.23718e-05	0.0009356868141580028
1.23720e-05	0.0008181153717700047
1.23723e-05	0.0007009220675514809
1.23725e-05	0.0005891466160771934
1.23728e-05	0.0004821646192962838
1.23730e-05	0.00038079337097628494
1.23733e-05	0.00028585015783896275
1.23735e-05	0.00019811160264698903
1.23738e-05	0.00011770923964040845
1.23740e-05	4.341719984850237e-05
1.23743e-05	-2.6244284664235622e-05
1.23745e-05	-9.156434048321105e-05
1.23748e-05	-0.00015213703798399556
1.23750e-05	-0.00020755297486154913
1.23753e-05	-0.0002574028689790158
1.23755e-05	-0.0003013029208846327
1.23758e-05	-0.0003392734451760925
1.23760e-05	-0.000372184996319631
1.23763e-05	-0.00040106708384205115
1.23765e-05	-0.0004262033320119805
1.23768e-05	-0.00044744203014587363
1.23770e-05	-0.00046462922904306423
1.23773e-05	-0.00047761112300983384
1.23775e-05	-0.00048624992963029696
1.23778e-05	-0.0004906609339953381
1.23780e-05	-0.0004914919864864389
1.23783e-05	-0.0004894905227042274
1.23785e-05	-0.0004849365941664221
1.23788e-05	-0.0004778376612060097
1.23790e-05	-0.00046819975435335266
1.23793e-05	-0.0004560289874255855
1.23795e-05	-0.00044127665847658803
1.23798e-05	-0.00042343938645094325
1.23800e-05	-0.0004054142297021193
1.23803e-05	-0.00038485986772077954
1.23805e-05	-0.00036415845949826453
1.23808e-05	-0.0003414775921902883
1.23810e-05	-0.00031879672488215846
1.23813e-05	-0.0002960122521890163
1.23815e-05	-0.00027183309834632866
1.23818e-05	-0.00024765394450347713
1.23820e-05	-0.0002238401819585884
1.23823e-05	-0.0002003030236910159
1.23825e-05	-0.0001768729612352959
1.23828e-05	-0.0001549634494836375
1.23830e-05	-0.00013420637102166892
1.23833e-05	-0.00011477041792054337
1.23835e-05	-9.680892987292494e-05
1.23838e-05	-8.023259650420561e-05
1.23840e-05	-6.445903440683346e-05
1.23843e-05	-4.885701315760134e-05
1.23845e-05	-3.328425818235177e-05
1.23848e-05	-1.787190452046625e-05
1.23850e-05	-2.752439580806345e-06
1.23853e-05	1.1941656377629564e-05
1.23855e-05	2.60875170204539e-05
1.23858e-05	3.971427914757669e-05
1.23860e-05	5.315992540465026e-05
1.23863e-05	6.679812891990796e-05
1.23865e-05	8.074475359637208e-05
1.23868e-05	9.469168610269757e-05
1.23870e-05	0.00010864276245246744
1.23873e-05	0.00012259383880233184
1.23875e-05	0.00013653388258363287
1.23878e-05	0.00015032541173484002
1.23880e-05	0.0001641169408861406
1.23883e-05	0.0001779084700374412
1.23885e-05	0.00019169999918864833
1.23888e-05	0.00020558602837415996
1.23890e-05	0.0002195435948782162
1.23893e-05	0.00023350116138217788
1.23895e-05	0.00024745872788623413
1.23898e-05	0.00026137840587895197
1.23900e-05	0.00027478804867785654
1.23903e-05	0.000288197691476852
1.23905e-05	0.0003016073342758474
1.23908e-05	0.00031501697707484285
1.23910e-05	0.00032842661987374743
1.23913e-05	0.00034097448801611896
1.23915e-05	0.00035286998551498343
1.23918e-05	0.00036476548301376735
1.23920e-05	0.0003766609805126318
1.23923e-05	0.0003885564780114963
1.23925e-05	0.0004003390452735306
1.23928e-05	0.00041060140513854036
1.23930e-05	0.00042077612330129695
1.23933e-05	0.00042977105500560073
1.23935e-05	0.00043861957071944155
1.23938e-05	0.00044549711144661083
1.23940e-05	0.00045216696437256563
1.23943e-05	0.00045587618288902095
1.23945e-05	0.00045720601993442926
1.23948e-05	0.0004562230873655498
1.23950e-05	0.0004529950746544524
1.23953e-05	0.00044758959804937454
1.23955e-05	0.0004400670344972719
1.23958e-05	0.0004303727263129522
1.23960e-05	0.0004182350708232118
1.23963e-05	0.0004034032694164497
