Time(s)	Current(A)
1.37500e-05	0.009781529188871098
1.37503e-05	0.009799698733508302
1.37505e-05	0.009817868278145505
1.37508e-05	0.009836037822782584
1.37510e-05	0.009854207367419788
1.37513e-05	0.009872376912056991
1.37515e-05	0.009888431588028284
1.37518e-05	0.009899337582337612
1.37520e-05	0.00991024357664694
1.37523e-05	0.009921149570956193
1.37525e-05	0.00993205556526552
1.37528e-05	0.009942961559574847
1.37530e-05	0.009953867553884102
1.37533e-05	0.00996477354819343
1.37535e-05	0.009975679542502756
1.37538e-05	0.009979852163717438
1.37540e-05	0.009967632280215891
1.37543e-05	0.009955412396714342
1.37545e-05	0.009943192513212877
1.37548e-05	0.00993097262971133
1.37550e-05	0.009918752746209781
1.37553e-05	0.009906532862708315
1.37555e-05	0.009894312979206768
1.37558e-05	0.00988209309570522
1.37560e-05	0.009861051431275285
1.37563e-05	0.009818532999785167
1.37565e-05	0.00977601456829505
1.37568e-05	0.009733496136805221
1.37570e-05	0.009690977705315103
1.37573e-05	0.009648459273824985
1.37575e-05	0.009605940842334867
1.37578e-05	0.009563422410845037
1.37580e-05	0.009520903979354919
1.37583e-05	0.009478385547864801
1.37585e-05	0.009435867116374971
1.37588e-05	0.009389194945682864
1.37590e-05	0.009332410430329098
1.37593e-05	0.009275625914975716
1.37595e-05	0.00921884139962195
1.37598e-05	0.009162056884268183
1.37600e-05	0.009105272368914803
1.37603e-05	0.009048487853561035
1.37605e-05	0.00899170333820727
1.37608e-05	0.008934918822853887
1.37610e-05	0.008878134307500122
1.37613e-05	0.008821349792146355
1.37615e-05	0.008770645921877691
1.37618e-05	0.008734745479527396
1.37620e-05	0.0086988450371771
1.37623e-05	0.008662944594827048
1.37625e-05	0.008627044152476752
1.37628e-05	0.008591143710126457
1.37630e-05	0.008555243267776406
1.37633e-05	0.00851934282542611
1.37635e-05	0.008483442383075815
1.37638e-05	0.008447541940725762
1.37640e-05	0.008411641498375467
1.37643e-05	0.008375741056025171
1.37645e-05	0.00833984061367512
1.37648e-05	0.008303940171324825
1.37650e-05	0.00826803972897453
1.37653e-05	0.008232139286624477
1.37655e-05	0.008215264997822089
1.37658e-05	0.008203412926652205
1.37660e-05	0.008191560855482321
1.37663e-05	0.008179708784312517
1.37665e-05	0.008167856713142633
1.37668e-05	0.008156004641972749
1.37670e-05	0.008144152570802945
1.37673e-05	0.008132300499633061
1.37675e-05	0.008120448428463177
1.37678e-05	0.008108596357293375
1.37680e-05	0.00809674428612349
1.37683e-05	0.008084892214953607
1.37685e-05	0.008073040143783803
1.37688e-05	0.008061188072613919
1.37690e-05	0.008049336001444035
1.37693e-05	0.008040327674897874
1.37695e-05	0.008038242490219437
1.37698e-05	0.008036157305540999
1.37700e-05	0.008034072120862577
1.37703e-05	0.00803198693618414
1.37705e-05	0.008029901751505704
1.37708e-05	0.008027816566827281
1.37710e-05	0.008025731382148845
1.37713e-05	0.008023646197470407
1.37715e-05	0.008021561012791984
1.37718e-05	0.008019475828113548
1.37720e-05	0.008017390643435112
1.37723e-05	0.00801530545875669
1.37725e-05	0.008013220274078253
1.37728e-05	0.008011135089399815
1.37730e-05	0.008009049904721392
1.37733e-05	0.008006964720042956
1.37735e-05	0.00800487953536452
1.37738e-05	0.008002794350686097
1.37740e-05	0.00800070916600766
1.37743e-05	0.008001420878160193
1.37745e-05	0.008008941680479246
1.37748e-05	0.008016462482798251
1.37750e-05	0.008023983285117305
1.37753e-05	0.00803150408743636
1.37755e-05	0.008039024889755364
1.37758e-05	0.008046545692074419
1.37760e-05	0.008054066494393474
1.37763e-05	0.008061587296712478
1.37765e-05	0.008069108099031533
1.37768e-05	0.008076628901350589
1.37770e-05	0.008084149703669592
1.37773e-05	0.008091670505988647
1.37775e-05	0.008099191308307703
1.37778e-05	0.008106712110626706
1.37780e-05	0.008114232912945761
1.37783e-05	0.008121753715264815
1.37785e-05	0.00812927451758382
1.37788e-05	0.008136795319902876
1.37790e-05	0.00814431612222193
1.37793e-05	0.008153001433557223
1.37795e-05	0.008164521760759134
1.37798e-05	0.008176042087961046
1.37800e-05	0.008187562415162879
1.37803e-05	0.008199082742364791
1.37805e-05	0.008210603069566702
1.37808e-05	0.008222123396768536
1.37810e-05	0.008233643723970447
1.37813e-05	0.008245164051172357
1.37815e-05	0.008256684378374192
1.37818e-05	0.008268204705576102
1.37820e-05	0.008279725032778015
1.37823e-05	0.008291245359979847
1.37825e-05	0.00830276568718176
1.37828e-05	0.008312676569115506
1.37830e-05	0.00831866923074491
1.37833e-05	0.008324661892374274
1.37835e-05	0.008330654554003678
1.37838e-05	0.008336647215633083
1.37840e-05	0.008342639877262446
1.37843e-05	0.008348632538891851
1.37845e-05	0.008354625200521255
1.37848e-05	0.008360617862150619
1.37850e-05	0.008366610523780023
1.37853e-05	0.008372603185409428
1.37855e-05	0.00837859584703879
1.37858e-05	0.008384588508668196
1.37860e-05	0.0083905811702976
1.37863e-05	0.008395845093765817
1.37865e-05	0.008399334892498986
1.37868e-05	0.008402824691232153
1.37870e-05	0.008406314489965297
1.37873e-05	0.008409804288698466
1.37875e-05	0.008413294087431633
1.37878e-05	0.008416783886164778
1.37880e-05	0.008420273684897946
1.37883e-05	0.008423763483631113
1.37885e-05	0.008427253282364258
1.37888e-05	0.008430743081097427
1.37890e-05	0.008434232879830594
1.37893e-05	0.008437722678563738
1.37895e-05	0.008441212477296907
1.37898e-05	0.008444201859297933
1.37900e-05	0.008445972968742676
1.37903e-05	0.00844774407818743
1.37905e-05	0.008449515187632187
1.37908e-05	0.00845128629707693
1.37910e-05	0.008453057406521686
1.37913e-05	0.00845482851596644
1.37915e-05	0.008456599625411195
1.37918e-05	0.00845837073485594
1.37920e-05	0.008460141844300694
1.37923e-05	0.00846191295374545
1.37925e-05	0.008463684063190193
1.37928e-05	0.008465455172634948
1.37930e-05	0.008467226282079705
1.37933e-05	0.00846544115690535
1.37935e-05	0.008454998321541876
1.37938e-05	0.008444555486178403
1.37940e-05	0.008434112650814998
1.37943e-05	0.008423669815451522
1.37945e-05	0.008413226980088048
1.37948e-05	0.008402784144724644
1.37950e-05	0.00839234130936117
1.37953e-05	0.008381898473997694
1.37955e-05	0.008371455638634291
1.37958e-05	0.008361012803270815
1.37960e-05	0.00834504472244518
1.37963e-05	0.00831562534296721
1.37965e-05	0.00828620596348904
1.37968e-05	0.008256786584010871
1.37970e-05	0.008227367204532902
1.37973e-05	0.008197947825054732
1.37975e-05	0.008168528445576563
1.37978e-05	0.008139109066098592
1.37980e-05	0.008109689686620423
1.37983e-05	0.008080270307142255
1.37985e-05	0.008050850927664284
1.37988e-05	0.008018973409903651
1.37990e-05	0.00798111151508749
1.37993e-05	0.007943249620271587
1.37995e-05	0.007905387725455426
1.37998e-05	0.007867525830639266
1.38000e-05	0.007829663935823107
1.38003e-05	0.007791802041007202
1.38005e-05	0.007753940146191043
1.38008e-05	0.007716078251374882
1.38010e-05	0.007678216356558978
1.38013e-05	0.0076429708571951836
1.38015e-05	0.0076140950145047155
1.38018e-05	0.0075852191718144436
1.38020e-05	0.0075563433291239756
1.38023e-05	0.007527467486433508
1.38025e-05	0.0074985916437432356
1.38028e-05	0.0074697158010527676
1.38030e-05	0.0074408399583623
1.38033e-05	0.0074119641156720276
1.38035e-05	0.00738308827298156
1.38038e-05	0.007359346490738285
1.38040e-05	0.007348103660961307
1.38043e-05	0.007336860831184254
1.38045e-05	0.0073256180014072
1.38048e-05	0.007314375171630222
1.38050e-05	0.007303132341853168
1.38053e-05	0.007291889512076114
1.38055e-05	0.0072806466822991365
1.38058e-05	0.007269403852522082
1.38060e-05	0.007258161022745028
1.38063e-05	0.007246918192968051
1.38065e-05	0.007235675363190997
1.38068e-05	0.007224432533413943
1.38070e-05	0.007213189703636965
1.38073e-05	0.007201946873859911
1.38075e-05	0.007200332313367774
1.38078e-05	0.007201259268360655
1.38080e-05	0.007202186223353542
1.38083e-05	0.007203113178346429
1.38085e-05	0.00720404013333931
1.38088e-05	0.007204967088332197
1.38090e-05	0.007205894043325084
1.38093e-05	0.007206820998317971
1.38095e-05	0.007207747953310852
1.38098e-05	0.007208674908303739
1.38100e-05	0.007209601863296626
1.38103e-05	0.007210528818289507
1.38105e-05	0.007211455773282394
1.38108e-05	0.007212382728275281
1.38110e-05	0.0072140167989784175
1.38113e-05	0.0072164954924188365
1.38115e-05	0.0072168394517591146
1.38118e-05	0.007217183411099391
1.38120e-05	0.007217527370439668
1.38123e-05	0.007217871329779946
1.38125e-05	0.007218215289120222
1.38128e-05	0.0072185592484605
1.38130e-05	0.007218903207800778
1.38133e-05	0.007219247167141053
1.38135e-05	0.0072195911264813315
1.38138e-05	0.00721993508582161
1.38140e-05	0.007220279045161885
1.38143e-05	0.007220623004502163
1.38145e-05	0.007220966963842441
1.38148e-05	0.007221310923182717
1.38150e-05	0.007221654882522995
1.38153e-05	0.007221998841863273
1.38155e-05	0.007219817778986126
1.38158e-05	0.007211489509038142
1.38160e-05	0.007203161239090158
1.38163e-05	0.00719483296914223
1.38165e-05	0.007186504699194246
1.38168e-05	0.0071781764292462615
1.38170e-05	0.007169848159298334
1.38173e-05	0.007161519889350349
1.38175e-05	0.007153191619402365
1.38178e-05	0.007144863349454381
1.38180e-05	0.007136535079506453
1.38183e-05	0.007128206809558469
1.38185e-05	0.007119878539610484
1.38188e-05	0.0071115502696625565
1.38190e-05	0.007103221999714572
1.38193e-05	0.007094893729766588
1.38195e-05	0.00708656545981866
1.38198e-05	0.007078072911374439
1.38200e-05	0.007069180424297287
1.38203e-05	0.007060287937220196
1.38205e-05	0.007051395450143043
1.38208e-05	0.007042502963065891
1.38210e-05	0.0070336104759888
1.38213e-05	0.007024717988911648
1.38215e-05	0.007015825501834496
1.38218e-05	0.0070069330147574035
1.38220e-05	0.006998040527680252
1.38223e-05	0.0069891480406031
1.38225e-05	0.0069802555535260075
1.38228e-05	0.0069713630664488555
1.38230e-05	0.0069624705793717035
1.38233e-05	0.006953578092294612
1.38235e-05	0.00694468560521746
1.38238e-05	0.006935793118140308
1.38240e-05	0.006926900631063216
1.38243e-05	0.006918008143986064
1.38245e-05	0.006909115656908912
1.38248e-05	0.00690022316983182
1.38250e-05	0.006891330682754668
1.38253e-05	0.006882438195677516
1.38255e-05	0.006873545708600425
1.38258e-05	0.006864653221523273
1.38260e-05	0.00685576073444612
1.38263e-05	0.0068485336783831825
1.38265e-05	0.006841746235981884
1.38268e-05	0.006834958793580541
1.38270e-05	0.006828171351179197
1.38273e-05	0.0068213839087779
1.38275e-05	0.0068145964663765555
1.38278e-05	0.006807809023975212
1.38280e-05	0.006801021581573914
1.38283e-05	0.006794234139172571
1.38285e-05	0.006787446696771227
1.38288e-05	0.006780659254369929
1.38290e-05	0.006773871811968585
1.38293e-05	0.006767084369567242
1.38295e-05	0.006760296927165944
1.38298e-05	0.0067535094847646
1.38300e-05	0.006746722042363256
1.38303e-05	0.006739934599961959
1.38305e-05	0.006733147157560615
1.38308e-05	0.0067263597151592715
1.38310e-05	0.006719572272757973
1.38313e-05	0.00671278483035663
1.38315e-05	0.006705997387955286
1.38318e-05	0.006699209945553989
1.38320e-05	0.0066924225031526445
1.38323e-05	0.006685635060751301
1.38325e-05	0.006681306776570671
1.38328e-05	0.006682965352508703
1.38330e-05	0.006684623928446733
1.38333e-05	0.006686282504384754
1.38335e-05	0.006687941080322784
1.38338e-05	0.006689599656260816
1.38340e-05	0.006691258232198836
1.38343e-05	0.006692916808136867
1.38345e-05	0.006694575384074898
1.38348e-05	0.006714722680132283
1.38350e-05	0.006739750330814518
1.38353e-05	0.006764777981496924
1.38355e-05	0.006789805632179329
1.38358e-05	0.006814833282861564
1.38360e-05	0.006839860933543969
1.38363e-05	0.006864888584226374
1.38365e-05	0.00688991623490861
1.38368e-05	0.006921780177534311
1.38370e-05	0.006970287182510583
1.38373e-05	0.007018794187486527
1.38375e-05	0.0070673011924628
1.38378e-05	0.007115808197439072
1.38380e-05	0.007164315202415016
1.38383e-05	0.007212822207391289
1.38385e-05	0.007261329212367561
1.38388e-05	0.007309836217343505
1.38390e-05	0.007358343222319778
1.38393e-05	0.00740895441805888
1.38395e-05	0.007464688299949276
1.38398e-05	0.00752042218184005
1.38400e-05	0.007576156063730823
1.38403e-05	0.0076318899456212196
1.38405e-05	0.007687623827511993
1.38408e-05	0.007743357709402767
1.38410e-05	0.007799091591293163
1.38413e-05	0.007854825473183938
1.38415e-05	0.00791055935507471
1.38418e-05	0.007960689533716642
1.38420e-05	0.007997177406946413
1.38423e-05	0.008033665280176183
1.38425e-05	0.008070153153405707
1.38428e-05	0.008106641026635478
1.38430e-05	0.008143128899865248
1.38433e-05	0.00817961677309502
1.38435e-05	0.008216104646324543
1.38438e-05	0.008252592519554312
1.38440e-05	0.008278863114304695
1.38443e-05	0.00828025958076518
1.38445e-05	0.008281656047225677
1.38448e-05	0.00828305251368617
1.38450e-05	0.008284448980146656
1.38453e-05	0.008285845446607152
1.38455e-05	0.008287241913067647
1.38458e-05	0.008288638379528132
1.38460e-05	0.008290034845988628
1.38463e-05	0.008281528766834035
1.38465e-05	0.008248914781593798
1.38468e-05	0.008216300796353338
1.38470e-05	0.008183686811112879
1.38473e-05	0.00815107282587264
1.38475e-05	0.00811845884063218
1.38478e-05	0.008085844855391721
1.38480e-05	0.008053230870151482
1.38483e-05	0.008020616884911022
1.38485e-05	0.007988002899670563
1.38488e-05	0.007950487420093594
1.38490e-05	0.007901039173957286
1.38493e-05	0.007851590927820978
1.38495e-05	0.007802142681685007
1.38498e-05	0.007752694435548699
1.38500e-05	0.007703246189412391
1.38503e-05	0.007653797943276418
1.38505e-05	0.00760434969714011
1.38508e-05	0.007554901451003803
1.38510e-05	0.007505453204867831
1.38513e-05	0.00745877290712384
1.38515e-05	0.007418831224126163
1.38518e-05	0.007378889541128486
1.38520e-05	0.007338947858131079
1.38523e-05	0.007299006175133403
1.38525e-05	0.007259064492135725
1.38528e-05	0.007219122809138319
1.38530e-05	0.007179181126140642
1.38533e-05	0.007139239443142965
1.38535e-05	0.007105647298327957
1.38538e-05	0.00708751320603676
1.38540e-05	0.007069379113745564
1.38543e-05	0.00705124502145449
1.38545e-05	0.0070331109291632945
1.38548e-05	0.0070149768368720986
1.38550e-05	0.006996842744581025
1.38553e-05	0.006978708652289829
1.38555e-05	0.006960574559998632
1.38558e-05	0.0069487491734501776
1.38560e-05	0.006952282432197777
1.38563e-05	0.006955815690945377
1.38565e-05	0.0069593489496929525
1.38568e-05	0.006962882208440552
1.38570e-05	0.006966415467188152
1.38573e-05	0.0069699487259357274
1.38575e-05	0.006973481984683327
1.38578e-05	0.006977015243430927
1.38580e-05	0.006980548502178503
1.38583e-05	0.006984081760926103
1.38585e-05	0.006987615019673702
1.38588e-05	0.006991148278421278
1.38590e-05	0.006997789824915958
1.38593e-05	0.007011998547775594
1.38595e-05	0.007026207270635134
1.38598e-05	0.0070404159934947695
1.38600e-05	0.007054624716354405
1.38603e-05	0.007068833439214041
1.38605e-05	0.007083042162073581
1.38608e-05	0.007097250884933216
1.38610e-05	0.007111459607792853
1.38613e-05	0.0071256683306523926
1.38615e-05	0.007139877053512028
1.38618e-05	0.007154085776371664
1.38620e-05	0.007168294499231204
1.38623e-05	0.007179410565391764
1.38625e-05	0.007182997509223903
1.38628e-05	0.007186584453056017
1.38630e-05	0.007190171396888157
1.38633e-05	0.007193758340720296
1.38635e-05	0.007197345284552411
1.38638e-05	0.00720093222838455
1.38640e-05	0.007204519172216689
1.38643e-05	0.007208106116048804
1.38645e-05	0.007211693059880943
1.38648e-05	0.007215280003713082
1.38650e-05	0.007218866947545197
1.38653e-05	0.007222453891377336
1.38655e-05	0.007226040835209475
1.38658e-05	0.00722962777904159
1.38660e-05	0.007233214722873729
1.38663e-05	0.007224048191704827
1.38665e-05	0.007211515203562318
1.38668e-05	0.007198982215419724
1.38670e-05	0.007186449227277131
1.38673e-05	0.0071739162391346225
1.38675e-05	0.007161383250992029
1.38678e-05	0.007148850262849435
1.38680e-05	0.007136317274706926
1.38683e-05	0.007123784286564332
1.38685e-05	0.0071112512984217386
1.38688e-05	0.007098718310279146
1.38690e-05	0.007086185322136637
1.38693e-05	0.007073652333994043
1.38695e-05	0.007061119345851449
1.38698e-05	0.0070485863577089405
1.38700e-05	0.007035468672819654
1.38703e-05	0.0070209275343239355
1.38705e-05	0.007006386395828317
1.38708e-05	0.006991845257332599
1.38710e-05	0.0069773041188368815
1.38713e-05	0.006962762980341262
1.38715e-05	0.006948221841845544
1.38718e-05	0.0069336807033498265
1.38720e-05	0.006919139564854207
1.38723e-05	0.00690459842635849
1.38725e-05	0.006890057287862772
1.38728e-05	0.006875516149367153
1.38730e-05	0.006860975010871435
1.38733e-05	0.0068464338723757175
1.38735e-05	0.0068341386047893644
1.38738e-05	0.006827310945948776
1.38740e-05	0.006820483287108188
1.38743e-05	0.006813655628267646
1.38745e-05	0.006806827969427058
1.38748e-05	0.00680000031058647
1.38750e-05	0.006793172651745928
1.38753e-05	0.00678634499290534
1.38755e-05	0.006779517334064752
1.38758e-05	0.00677268967522421
1.38760e-05	0.006765862016383622
1.38763e-05	0.006759034357543034
1.38765e-05	0.006752206698702492
1.38768e-05	0.006745379039861904
1.38770e-05	0.00674011444668135
1.38773e-05	0.006678906428106549
1.38775e-05	0.0018421904729632819
1.38778e-05	-0.004076983425359498
1.38780e-05	-0.004698502995821756
1.38783e-05	-0.003084974816341932
1.38785e-05	0.0006351886706879218
1.38788e-05	0.005378122270722603
1.38790e-05	0.007179839253550929
1.38793e-05	0.006462855033937292
1.38795e-05	0.004225744337166647
1.38798e-05	0.0007169438023471221
1.38800e-05	-0.0005792901875238826
1.38803e-05	0.0007679865003321256
1.38805e-05	0.0030153740717877454
1.38808e-05	0.005680665130965773
1.38810e-05	0.007292202809575404
1.38813e-05	0.00699958060137379
1.38815e-05	0.00563370520052732
1.38818e-05	0.004280121425753464
1.38820e-05	0.003498281057336214
1.38823e-05	0.004042076202678653
1.38825e-05	0.005290066048161189
1.38828e-05	0.00646646567994624
1.38830e-05	0.007257924508491208
1.38833e-05	0.0071062692644625804
1.38835e-05	0.006368017703237364
1.38838e-05	0.005568757264551257
1.38840e-05	0.005079948880571218
1.38843e-05	0.005424152543029282
1.38845e-05	0.006211858330486246
1.38848e-05	0.006956920386607119
1.38850e-05	0.0074628971088081765
1.38853e-05	0.007380020445542784
1.38855e-05	0.006931490889931814
1.38858e-05	0.006446393803098893
1.38860e-05	0.006157246563396899
1.38863e-05	0.006391192054620448
1.38865e-05	0.006904051487976126
1.38868e-05	0.007391140773276262
1.38870e-05	0.007729268345258298
1.38873e-05	0.007699214811734775
1.38875e-05	0.007440673788621823
1.38878e-05	0.007159650639081296
1.38880e-05	0.007001644953831122
1.38883e-05	0.007171414037723842
1.38885e-05	0.007515839506538478
1.38888e-05	0.00784391922449372
1.38890e-05	0.008078350075922232
1.38893e-05	0.008081686965704108
1.38895e-05	0.007941313100082665
1.38898e-05	0.007786134842100607
1.38900e-05	0.007707153098259125
1.38903e-05	0.007832475592874335
1.38905e-05	0.008066036515504528
1.38908e-05	0.008288049271054317
1.38910e-05	0.008449957621663735
1.38913e-05	0.008465537524561967
1.38915e-05	0.008389399648584248
1.38918e-05	0.00830215732055567
1.38920e-05	0.008260675559066264
1.38923e-05	0.008345055484877266
1.38925e-05	0.008494976068046564
1.38928e-05	0.008635260979837994
1.38930e-05	0.008735314862762803
1.38933e-05	0.008740875936597796
1.38935e-05	0.008685966654274114
1.38938e-05	0.008621122284519415
1.38940e-05	0.00858212179078701
1.38943e-05	0.00861930049237697
1.38945e-05	0.00869503403687203
1.38948e-05	0.008762396703066869
1.38950e-05	0.00880238974165659
1.38953e-05	0.00878119366735488
1.38955e-05	0.008720288897077974
1.38958e-05	0.008651499766690234
1.38960e-05	0.008597403359856218
1.38963e-05	0.00858969290104141
1.38965e-05	0.00860496132342025
1.38968e-05	0.008613980089489244
1.38970e-05	0.008605015202274108
1.38973e-05	0.008557050629576719
1.38975e-05	0.00848371006419765
1.38978e-05	0.008405095791498292
1.38980e-05	0.008335515259525094
1.38983e-05	0.008294984889942307
1.38985e-05	0.00826759698469952
1.38988e-05	0.008224562431171688
1.38990e-05	0.008181527877644148
1.38993e-05	0.008134976699782236
1.38995e-05	0.008056804236453248
1.38998e-05	0.007985129651111327
1.39000e-05	0.00791345506576892
1.39003e-05	0.00784444252703757
1.39005e-05	0.0077991785622308985
1.39008e-05	0.007747263847954108
1.39010e-05	0.007695349133677317
1.39013e-05	0.007641628823584949
