Time(s)	Current(A)
1.05500e-05	-0.0032843177413472866
1.05503e-05	-0.0033236767182972756
1.05505e-05	-0.003363236478846544
1.05508e-05	-0.003402661127170722
1.05510e-05	-0.00344171154619851
1.05512e-05	-0.003480161514964423
1.05515e-05	-0.0035178241753310523
1.05518e-05	-0.0035545361372393107
1.05520e-05	-0.0035896469782577193
1.05523e-05	-0.0036239664479629434
1.05525e-05	-0.0036561666108890166
1.05527e-05	-0.0036869659140926292
1.05530e-05	-0.0037151105118637838
1.05533e-05	-0.003741500351922766
1.05535e-05	-0.003766288411535455
1.05538e-05	-0.0037900176958294046
1.05540e-05	-0.0038135641217535324
1.05543e-05	-0.0038369896784728355
1.05545e-05	-0.0038596274513373317
1.05548e-05	-0.0038817444998393
1.05550e-05	-0.0039038615483412684
1.05553e-05	-0.003924970644689334
1.05555e-05	-0.003945413485643002
1.05558e-05	-0.00396585632659667
1.05560e-05	-0.003986647082056817
1.05563e-05	-0.004007667808668034
1.05565e-05	-0.004028688535279251
1.05568e-05	-0.004049516404366011
1.05570e-05	-0.004070216794816667
1.05573e-05	-0.0040909171852673235
1.05575e-05	-0.004111617575717839
1.05578e-05	-0.004132493955960216
1.05580e-05	-0.0041534866652839795
1.05583e-05	-0.004174479374607601
1.05585e-05	-0.004195472083931365
1.05588e-05	-0.0042162618197637645
1.05590e-05	-0.004236917390315378
1.05593e-05	-0.004257572960867131
1.05595e-05	-0.004278228531418884
1.05597e-05	-0.004298884101970497
1.05600e-05	-0.00431953967252225
1.05603e-05	-0.004339171778213336
1.05605e-05	-0.0043581273746254295
1.05608e-05	-0.0043770829710376505
1.05610e-05	-0.004396038567449872
1.05612e-05	-0.004414994163861965
1.05615e-05	-0.004433949760274187
1.05618e-05	-0.00445135011436142
1.05620e-05	-0.004467722454782191
1.05623e-05	-0.004484094795203073
1.05625e-05	-0.004499248920875671
1.05628e-05	-0.0045135978077827715
1.05630e-05	-0.004526600733734011
1.05633e-05	-0.004538713980800747
1.05635e-05	-0.004548295012077833
1.05638e-05	-0.004556202251177123
1.05640e-05	-0.004564109490276466
1.05643e-05	-0.00456658545965647
1.05645e-05	-0.00456547136502659
1.05648e-05	-0.004564357270396704
1.05650e-05	-0.0045632431757668184
1.05653e-05	-0.004562129081136939
1.05655e-05	-0.004561014986507053
1.05658e-05	-0.0045524839022141475
1.05660e-05	-0.004539050194957111
1.05663e-05	-0.004525616487699985
1.05665e-05	-0.004512182780442858
1.05668e-05	-0.004498749073185822
1.05670e-05	-0.004485315365928695
1.05673e-05	-0.004465136661586071
1.05675e-05	-0.004440499520720401
1.05678e-05	-0.004415862379854565
1.05680e-05	-0.004391225238988728
1.05682e-05	-0.004366588098123058
1.05685e-05	-0.004341950957257221
1.05688e-05	-0.004317313816391384
1.05690e-05	-0.004288583363433706
1.05693e-05	-0.004257147235157971
1.05695e-05	-0.004225711106882236
1.05697e-05	-0.004194274978606714
1.05700e-05	-0.004162838850330979
1.05703e-05	-0.004131402722055244
1.05705e-05	-0.004099966593779722
1.05708e-05	-0.004068177104194981
1.05710e-05	-0.004036154043128115
1.05713e-05	-0.004004130982061249
1.05715e-05	-0.003973259786212905
1.05718e-05	-0.0039431499721551575
1.05720e-05	-0.003913040158097411
1.05723e-05	-0.00388728625608985
1.05725e-05	-0.0038644116077175177
1.05728e-05	-0.0038415369593451853
1.05730e-05	-0.003818662310973008
1.05733e-05	-0.003795787662600676
1.05735e-05	-0.003772913014228344
1.05738e-05	-0.0037500383658561664
1.05740e-05	-0.003728269758782419
1.05743e-05	-0.003716233625224861
1.05745e-05	-0.0037041974916673845
1.05748e-05	-0.0036921613581098263
1.05750e-05	-0.0036801252245522685
1.05753e-05	-0.003668089090994792
1.05755e-05	-0.003656052957437234
1.05758e-05	-0.0036440168238796758
1.05760e-05	-0.003638136556981741
1.05763e-05	-0.0036363253119688875
1.05765e-05	-0.003634514066956034
1.05767e-05	-0.003632702821943193
1.05770e-05	-0.0036308915769303397
1.05773e-05	-0.0036290803319174864
1.05775e-05	-0.0036272690869046456
1.05778e-05	-0.0036254578418917923
1.05780e-05	-0.003623646596878939
1.05782e-05	-0.003621835351866098
1.05785e-05	-0.003620734575161369
1.05788e-05	-0.003625885476403757
1.05790e-05	-0.00363103637764611
1.05793e-05	-0.0036361872788884973
1.05795e-05	-0.003641338180130885
1.05798e-05	-0.003646489081373273
1.05800e-05	-0.0036516399826156255
1.05803e-05	-0.0036567908838580133
1.05805e-05	-0.003661941785100401
1.05808e-05	-0.0036670926863427537
1.05810e-05	-0.0036722435875851415
1.05813e-05	-0.0036781281918076038
1.05815e-05	-0.00368449777298752
1.05818e-05	-0.0036908673541674797
1.05820e-05	-0.003697149927175042
1.05823e-05	-0.0037026668825379033
1.05825e-05	-0.0037081838379008024
1.05828e-05	-0.0037137007932637016
1.05830e-05	-0.0037185686246095566
1.05833e-05	-0.0037230073856103886
1.05835e-05	-0.0037274461466112207
1.05838e-05	-0.0037327048850058775
1.05840e-05	-0.00373850562766187
1.05843e-05	-0.0037443063703178625
1.05845e-05	-0.003751579736116237
1.05848e-05	-0.0037598265043821996
1.05850e-05	-0.003768073272648162
1.05853e-05	-0.003776320040914069
1.05855e-05	-0.0037845668091800316
1.05858e-05	-0.0037951317085337197
1.05860e-05	-0.003807228890285962
1.05863e-05	-0.003819326072038286
1.05865e-05	-0.00383142325379061
1.05867e-05	-0.0038435204355428522
1.05870e-05	-0.0038581632364901716
1.05873e-05	-0.003874488689254291
1.05875e-05	-0.0038908141420182997
1.05878e-05	-0.003907139594782419
1.05880e-05	-0.003923465047546539
1.05883e-05	-0.003939790500310658
1.05885e-05	-0.0039561159530746666
1.05888e-05	-0.003974234785570391
1.05890e-05	-0.003993539040327897
1.05893e-05	-0.004012843295085273
1.05895e-05	-0.00403214754984278
1.05898e-05	-0.004051451804600286
1.05900e-05	-0.004070756059357662
1.05903e-05	-0.004090060314115168
1.05905e-05	-0.004109433748603788
1.05908e-05	-0.004128852910827393
1.05910e-05	-0.004148272073051129
1.05913e-05	-0.004166945410489443
1.05915e-05	-0.004185125758468388
1.05918e-05	-0.004203306106447457
1.05920e-05	-0.004220578961068405
1.05923e-05	-0.004237251963460346
1.05925e-05	-0.004253169422262623
1.05928e-05	-0.004267979668412048
1.05930e-05	-0.004281701302154946
1.05933e-05	-0.004294059748094062
1.05935e-05	-0.004304331934969395
1.05938e-05	-0.0043103885046081826
1.05940e-05	-0.004314307510002178
1.05943e-05	-0.004312733428475853
1.05945e-05	-0.00430752842182678
1.05948e-05	-0.004302323415177671
1.05950e-05	-0.004290842864406363
1.05952e-05	-0.004275214185061382
1.05955e-05	-0.004259585505716295
1.05958e-05	-0.004234360142515489
1.05960e-05	-0.004202791380600734
1.05963e-05	-0.004171222618685766
1.05965e-05	-0.004139653856770798
1.05968e-05	-0.004108085094855829
1.05970e-05	-0.0040661683855077145
1.05973e-05	-0.004017411692949188
1.05975e-05	-0.00396865500039066
1.05978e-05	-0.003919898307832464
1.05980e-05	-0.003871141615273937
1.05983e-05	-0.0038156202236934744
1.05985e-05	-0.0037556273726253044
1.05988e-05	-0.0036956345215567285
1.05990e-05	-0.003632914611361885
1.05993e-05	-0.0035683921177316743
1.05995e-05	-0.00350235909762181
1.05998e-05	-0.003435327620975148
1.06000e-05	-0.003367467429356314
1.06003e-05	-0.0032988112079077466
1.06005e-05	-0.003229986968524127
1.06008e-05	-0.0031614002546676827
1.06010e-05	-0.0030934565646631444
1.06013e-05	-0.0030265393418322656
1.06015e-05	-0.0029609625814653903
1.06018e-05	-0.002896999705092552
1.06020e-05	-0.002834985462100992
1.06023e-05	-0.002775335726451222
1.06025e-05	-0.0027184920852178582
1.06028e-05	-0.002664896077957263
1.06030e-05	-0.0026149895720953215
1.06033e-05	-0.002569147008468208
1.06035e-05	-0.0025274966437021256
1.06037e-05	-0.0024899183644519983
1.06040e-05	-0.0024563225677076707
1.06043e-05	-0.0024267784716463375
1.06045e-05	-0.0024027283693769403
1.06048e-05	-0.002381230650387091
1.06050e-05	-0.0023651211206446206
1.06053e-05	-0.00235257317876614
1.06055e-05	-0.0023465022592996853
1.06058e-05	-0.002344712645362343
1.06060e-05	-0.002342923031425001
1.06063e-05	-0.0023482097817440683
1.06065e-05	-0.0023581740019699244
1.06068e-05	-0.0023681382221957805
1.06070e-05	-0.0023837075525790312
1.06073e-05	-0.0024029818553373077
1.06075e-05	-0.0024262806542424487
1.06078e-05	-0.002452239641195174
1.06080e-05	-0.002480800417492778
1.06083e-05	-0.0025126528971792387
1.06085e-05	-0.0025470030782524743
1.06088e-05	-0.0025836633942531288
1.06090e-05	-0.002622446088643229
1.06093e-05	-0.0026631469141301756
1.06095e-05	-0.0027055013460581183
1.06098e-05	-0.0027491837443321134
1.06100e-05	-0.0027938758249916127
1.06103e-05	-0.0028392985454998715
1.06105e-05	-0.002885187550420463
1.06108e-05	-0.0029312788573226537
1.06110e-05	-0.0029773082485626203
1.06113e-05	-0.003023001276099387
1.06115e-05	-0.003068045794481771
1.06118e-05	-0.0031120912864876023
1.06120e-05	-0.003154792008292482
1.06122e-05	-0.003195193856002186
1.06125e-05	-0.003234464935005997
1.06128e-05	-0.0032716499287220938
1.06130e-05	-0.003305814992624166
1.06133e-05	-0.003337295519649749
1.06135e-05	-0.00336675752830144
1.06138e-05	-0.003395417481967246
1.06140e-05	-0.0034240181992148244
1.06143e-05	-0.0034524333392078775
1.06145e-05	-0.0034807035195450085
1.06148e-05	-0.0035078986272362297
1.06150e-05	-0.0035343831129518574
1.06153e-05	-0.003560867598667485
1.06155e-05	-0.0035867406407581112
1.06158e-05	-0.0036122095192061207
1.06160e-05	-0.003638393897900722
1.06163e-05	-0.0036650512215639745
1.06165e-05	-0.003691708545227408
1.06168e-05	-0.003718354247710618
1.06170e-05	-0.0037449922686047946
1.06173e-05	-0.003771630289499152
1.06175e-05	-0.003798323718109926
1.06178e-05	-0.0038255047000650996
1.06180e-05	-0.0038526856820204577
1.06183e-05	-0.0038798666639758153
1.06185e-05	-0.003907365269273736
1.06188e-05	-0.003935073823293266
1.06190e-05	-0.003962782377312796
1.06193e-05	-0.0039900893765016775
1.06195e-05	-0.004017130948337355
1.06198e-05	-0.004044172520173031
1.06200e-05	-0.004071019342121005
1.06203e-05	-0.004097737434582432
1.06205e-05	-0.004124455527043859
1.06207e-05	-0.004150448727529349
1.06210e-05	-0.004175962775122228
1.06213e-05	-0.00420029524038412
1.06215e-05	-0.0042238466808712655
1.06218e-05	-0.004247398121358571
1.06220e-05	-0.004269734150599702
1.06222e-05	-0.004291266794185953
1.06225e-05	-0.00431183391193848
1.06228e-05	-0.004330985687502175
1.06230e-05	-0.004348746284632354
1.06233e-05	-0.004364860966648496
1.06235e-05	-0.004377868775399885
1.06238e-05	-0.00438928865280982
1.06240e-05	-0.00439679105773441
1.06243e-05	-0.004401704017146167
1.06245e-05	-0.004401799112917995
1.06248e-05	-0.004398709605497151
1.06250e-05	-0.004395620098076286
1.06253e-05	-0.004384993720168722
1.06255e-05	-0.004369385478180275
1.06258e-05	-0.004353777236191722
1.06260e-05	-0.0043381689942031685
1.06263e-05	-0.004321035313473077
1.06265e-05	-0.0042904787232801835
1.06268e-05	-0.00425992213308729
1.06270e-05	-0.004229365542894603
1.06273e-05	-0.004198808952701709
1.06275e-05	-0.004161867232639819
1.06278e-05	-0.004120704947928102
1.06280e-05	-0.004079542663216105
1.06283e-05	-0.004034164473309827
1.06285e-05	-0.003985999574159623
1.06288e-05	-0.003937834675009092
1.06290e-05	-0.003886871367626219
1.06292e-05	-0.003834058315116355
1.06295e-05	-0.003781245262606133
1.06298e-05	-0.003726909394936718
1.06300e-05	-0.0036715669479244297
1.06303e-05	-0.0036157499382360537
1.06305e-05	-0.0035596192430793006
1.06307e-05	-0.003503802890501653
1.06310e-05	-0.003448194318063294
1.06313e-05	-0.0033936452588384453
1.06315e-05	-0.003339796536820144
1.06318e-05	-0.003287131663296565
1.06320e-05	-0.003236281421467929
1.06323e-05	-0.003187362923191191
1.06325e-05	-0.0031415790400481244
1.06328e-05	-0.003097321194318535
1.06330e-05	-0.0030568301328811743
1.06333e-05	-0.003018828912208109
1.06335e-05	-0.0029847493692715566
1.06338e-05	-0.002953262051515738
1.06340e-05	-0.0029254152203205407
1.06343e-05	-0.002899974747211057
1.06345e-05	-0.002879443531881948
1.06348e-05	-0.002862157331184842
1.06350e-05	-0.0028448711304876182
1.06353e-05	-0.0028359807576642066
1.06355e-05	-0.0028326400189233867
1.06358e-05	-0.0028292992801825442
1.06360e-05	-0.0028259585414417017
1.06363e-05	-0.002822617802700882
1.06365e-05	-0.002820869489330863
1.06368e-05	-0.002833133525989028
1.06370e-05	-0.0028453975626471107
1.06373e-05	-0.0028576615993052765
1.06375e-05	-0.002869925635963442
1.06377e-05	-0.0028821896726215243
1.06380e-05	-0.0028996825704512893
1.06383e-05	-0.00292063174044469
1.06385e-05	-0.0029437611232798113
1.06388e-05	-0.0029683316246892823
1.06390e-05	-0.0029947758461654384
1.06392e-05	-0.003022458594788443
1.06395e-05	-0.0030512722057321117
1.06398e-05	-0.003081372288690085
1.06400e-05	-0.0031122324767122087
1.06403e-05	-0.0031436532722189936
1.06405e-05	-0.0031754519506750805
1.06408e-05	-0.0032074459728556335
1.06410e-05	-0.003239452939710874
1.06413e-05	-0.00327127933084222
1.06415e-05	-0.0033026926740148143
1.06418e-05	-0.0033334236695309765
1.06420e-05	-0.0033632134812169
1.06423e-05	-0.0033918323101420475
1.06425e-05	-0.0034190606445287566
1.06428e-05	-0.00344467929808614
1.06430e-05	-0.0034684688968282034
1.06433e-05	-0.0034901184873167906
1.06435e-05	-0.003509040975253681
1.06438e-05	-0.00352331994731853
1.06440e-05	-0.003535323298321421
1.06443e-05	-0.0035414447167825746
1.06445e-05	-0.0035436781835369367
1.06448e-05	-0.0035459116502912836
1.06450e-05	-0.0035411850980946106
1.06453e-05	-0.003531857980120009
1.06455e-05	-0.0035225308621454707
1.06458e-05	-0.003505581164422221
1.06460e-05	-0.0034835929488764078
1.06462e-05	-0.0034616047333307434
1.06465e-05	-0.003432545573634103
1.06468e-05	-0.0033988125267100286
1.06470e-05	-0.0033650794797861826
1.06473e-05	-0.0033251923737981576
1.06475e-05	-0.003281237440735962
1.06477e-05	-0.003237282507674064
1.06480e-05	-0.0031878478977758625
1.06483e-05	-0.003134791226802164
1.06485e-05	-0.0030817345558284658
1.06488e-05	-0.0030252743175140716
1.06490e-05	-0.002966564324486921
1.06493e-05	-0.002906360415726347
1.06495e-05	-0.002844343679344211
1.06498e-05	-0.002781072801959265
1.06500e-05	-0.0027168135011303184
1.06503e-05	-0.002651919024141531
1.06505e-05	-0.002586770098997262
1.06508e-05	-0.0025217479621171906
1.06510e-05	-0.0024572337572654136
1.06513e-05	-0.0023935943303482945
1.06515e-05	-0.0023311541352644878
1.06518e-05	-0.002270216552726468
1.06520e-05	-0.0022111308434437675
1.06523e-05	-0.002154301660221711
1.06525e-05	-0.002100150286350609
1.06528e-05	-0.002049098332989279
1.06530e-05	-0.002001567549089338
1.06533e-05	-0.0019579091529775975
1.06535e-05	-0.0019182196435822084
1.06538e-05	-0.0018823457161569915
1.06540e-05	-0.0018501784131790238
1.06543e-05	-0.00182178222619843
1.06545e-05	-0.0017972859153281516
1.06547e-05	-0.0017768188868867055
1.06550e-05	-0.0017605105721436299
1.06553e-05	-0.0017484465263824678
1.06555e-05	-0.0017417051923745575
1.06558e-05	-0.0017373598158643697
1.06560e-05	-0.001738548726057981
1.06562e-05	-0.0017433957943975454
1.06565e-05	-0.0017482428627371425
1.06568e-05	-0.0017584050540696346
1.06570e-05	-0.0017720805365476738
1.06573e-05	-0.0017897616616242265
1.06575e-05	-0.001810090512575272
1.06578e-05	-0.00183383507937256
1.06580e-05	-0.0018598374310326653
1.06583e-05	-0.0018880738578023273
1.06585e-05	-0.0019191413775116347
1.06588e-05	-0.0019523574406793151
1.06590e-05	-0.0019875537558865534
1.06593e-05	-0.002024545072914638
1.06595e-05	-0.002063083531107542
1.06598e-05	-0.0021028598384190502
1.06600e-05	-0.0021435756512019582
1.06603e-05	-0.0021849752147497527
1.06605e-05	-0.0022268186683639343
1.06608e-05	-0.002268866289136842
1.06610e-05	-0.0023108782615052278
1.06613e-05	-0.0023526043969520423
1.06615e-05	-0.0023937549896567425
1.06618e-05	-0.0024340019240409413
1.06620e-05	-0.00247302390826544
1.06623e-05	-0.0025099494084021854
1.06625e-05	-0.002545843744580841
1.06628e-05	-0.002579087370319713
1.06630e-05	-0.0026105788790271173
1.06632e-05	-0.0026398458094856166
1.06635e-05	-0.0026666892456253762
1.06638e-05	-0.0026926068069139464
1.06640e-05	-0.002718091175539771
1.06643e-05	-0.0027434184929564388
1.06645e-05	-0.002767710617533384
1.06647e-05	-0.002791318480646508
1.06650e-05	-0.002814926343759792
1.06653e-05	-0.002837143530073784
1.06655e-05	-0.002858441480371378
1.06658e-05	-0.002879744710596198
1.06660e-05	-0.0029010514308480365
1.06663e-05	-0.0029223581510998747
1.06665e-05	-0.0029433255075242315
1.06668e-05	-0.002964068544787784
1.06670e-05	-0.0029848115820513364
1.06673e-05	-0.003005554619314748
1.06675e-05	-0.003026251235324144
1.06678e-05	-0.0030465393732501396
1.06680e-05	-0.003066827511175998
1.06683e-05	-0.0030871156491019936
1.06685e-05	-0.0031074037870279896
1.06688e-05	-0.003127318311686149
1.06690e-05	-0.0031469858783365924
1.06693e-05	-0.003166653444987036
1.06695e-05	-0.0031863210116373467
1.06698e-05	-0.0032058847165395725
1.06700e-05	-0.0032245345028363904
1.06703e-05	-0.0032431842891330817
1.06705e-05	-0.0032618340754298997
1.06708e-05	-0.003280483861726718
1.06710e-05	-0.0032980692676206915
1.06713e-05	-0.0033149511191001026
1.06715e-05	-0.0033318329705795137
1.06717e-05	-0.003347573376521517
1.06720e-05	-0.0033625592880696547
1.06723e-05	-0.0033775451996177924
1.06725e-05	-0.0033922363410294476
1.06728e-05	-0.003404333689089374
1.06730e-05	-0.0034164310371493007
1.06732e-05	-0.0034285283852091455
1.06735e-05	-0.0034394052223213206
1.06738e-05	-0.00344947530287978
1.06740e-05	-0.0034595453834382387
1.06743e-05	-0.0034690114029255403
1.06745e-05	-0.0034780781386302803
1.06748e-05	-0.0034871448743350204
1.06750e-05	-0.003496211610039699
1.06753e-05	-0.0035052783457444384
1.06755e-05	-0.0035143450814491784
1.06758e-05	-0.0035229533278856077
1.06760e-05	-0.003531258513360063
1.06763e-05	-0.0035395636988345184
1.06765e-05	-0.0035478688843089174
1.06768e-05	-0.0035561740697833727
1.06770e-05	-0.003564479255257828
1.06773e-05	-0.0035726094469214647
1.06775e-05	-0.003580623967845807
1.06778e-05	-0.0035886384887701493
1.06780e-05	-0.0035966530096944375
1.06783e-05	-0.0036046675306187796
1.06785e-05	-0.003612682051543122
1.06788e-05	-0.00362069657246741
1.06790e-05	-0.0036287110933917524
1.06793e-05	-0.003636725614316095
1.06795e-05	-0.003644651033710347
1.06798e-05	-0.0036517924152124986
1.06800e-05	-0.00365893379671465
1.06802e-05	-0.003666075178216753
1.06805e-05	-0.0036732165597189045
1.06808e-05	-0.003680357941221056
1.06810e-05	-0.0036874993227231593
1.06813e-05	-0.0036946407042253108
1.06815e-05	-0.0037017820857274623
1.06817e-05	-0.003708923467229565
1.06820e-05	-0.0037145451366645834
1.06823e-05	-0.0037191622778956048
1.06825e-05	-0.0037237794191266266
1.06828e-05	-0.003728396560357617
1.06830e-05	-0.0037330137015886386
1.06833e-05	-0.00373763084281966
1.06835e-05	-0.0037422479840506506
1.06838e-05	-0.003746865125281672
1.06840e-05	-0.003751084872264726
1.06843e-05	-0.0037518077977173477
1.06845e-05	-0.003752530723169974
1.06848e-05	-0.0037532536486226
1.06850e-05	-0.0037539765740752214
1.06853e-05	-0.0037546994995278477
1.06855e-05	-0.0037554224249804736
1.06858e-05	-0.003756145350433095
1.06860e-05	-0.0037568682758857214
1.06863e-05	-0.003754853035097144
1.06865e-05	-0.0037510278690759376
1.06868e-05	-0.0037472027030547054
1.06870e-05	-0.0037433775370334732
1.06873e-05	-0.003739552371012267
1.06875e-05	-0.003735727204991035
1.06878e-05	-0.0037319020389698023
1.06880e-05	-0.003728076872948596
1.06883e-05	-0.003724251706927364
1.06885e-05	-0.0037204265409061317
1.06887e-05	-0.003716601374884925
1.06890e-05	-0.003712776208863693
1.06893e-05	-0.0037089510428424607
1.06895e-05	-0.0037049368126417766
1.06898e-05	-0.003699258935578773
1.06900e-05	-0.0036935810585157695
1.06902e-05	-0.0036879031814528044
1.06905e-05	-0.003682225304389801
1.06908e-05	-0.0036765474273267977
1.06910e-05	-0.003670869550263794
1.06913e-05	-0.0036651916732008292
1.06915e-05	-0.0036595137961378255
1.06918e-05	-0.003653835919074822
1.06920e-05	-0.003648158042011857
1.06923e-05	-0.0036424801649488536
1.06925e-05	-0.00363680228788585
1.06928e-05	-0.003631124410822885
1.06930e-05	-0.0036262409473745527
1.06933e-05	-0.003621882590555996
1.06935e-05	-0.0036175242337374686
1.06938e-05	-0.003612410454815074
1.06940e-05	-0.003606797342613781
1.06943e-05	-0.0036011842304125253
1.06945e-05	-0.003595571118211232
1.06948e-05	-0.003589958006009939
1.06950e-05	-0.0035843448938086835
