Time(s)	Current(A)
1.47500e-05	0.000306005306099855
1.47503e-05	0.00034828916921952245
1.47505e-05	0.0003871045201890152
1.47508e-05	0.0004227502328827234
1.47510e-05	0.00045516375081159195
1.47513e-05	0.00048415901167948535
1.47515e-05	0.0005095500113985057
1.47518e-05	0.0005311509696637479
1.47520e-05	0.0005488677183667348
1.47523e-05	0.0005628879806198353
1.47525e-05	0.0005736177030675466
1.47528e-05	0.0005813415548945132
1.47530e-05	0.0005861178548756477
1.47533e-05	0.000587927544525461
1.47535e-05	0.0005867515287155094
1.47538e-05	0.0005825709391165903
1.47540e-05	0.0005748146055774776
1.47543e-05	0.0005648502980402089
1.47545e-05	0.0005527484190150828
1.47548e-05	0.0005382753751672537
1.47550e-05	0.0005219584501416335
1.47553e-05	0.0005035961450145492
1.47555e-05	0.00048355212653725246
1.47558e-05	0.0004616426174504195
1.47560e-05	0.0004383208974390246
1.47563e-05	0.00041343264040862693
1.47565e-05	0.00038753446217813125
1.47568e-05	0.00036051599878383705
1.47570e-05	0.0003334975353895429
1.47573e-05	0.0003059335061973899
1.47575e-05	0.0002777642918989426
1.47578e-05	0.0002495950776003044
1.47580e-05	0.0002216740846208046
1.47583e-05	0.00019402843853099353
1.47585e-05	0.00016638279244099517
1.47588e-05	0.00013946878730139496
1.47590e-05	0.00011390330837504735
1.47593e-05	8.956123532278942e-05
1.47595e-05	6.66342486677638e-05
1.47598e-05	4.5313827297460075e-05
1.47600e-05	2.56904358656585e-05
1.47603e-05	7.552031409208488e-06
1.47605e-05	-9.524332956756986e-06
1.47608e-05	-2.5789413379954826e-05
1.47610e-05	-4.12231376446642e-05
1.47613e-05	-5.571600645704301e-05
1.47615e-05	-6.915853810610701e-05
1.47618e-05	-8.144139306393674e-05
1.47620e-05	-9.251851030821951e-05
1.47623e-05	-0.0001025333129796154
1.47625e-05	-0.00011176132055477518
1.47628e-05	-0.000120370172499736
1.47630e-05	-0.0001283578513103569
1.47633e-05	-0.00013566633084764412
1.47635e-05	-0.00014223759952453746
1.47638e-05	-0.00014801373619499205
1.47640e-05	-0.00015283031859195445
1.47643e-05	-0.0001570640891882549
1.47645e-05	-0.00016085299174960254
1.47648e-05	-0.00016414841119626088
1.47650e-05	-0.00016704693823429179
1.47653e-05	-0.0001695052005497774
1.47655e-05	-0.00017151768071316194
1.47658e-05	-0.00017303566375020902
1.47660e-05	-0.0001740703927319844
1.47663e-05	-0.00017456905776303122
1.47665e-05	-0.000175067722794078
1.47668e-05	-0.00017516627220504012
1.47670e-05	-0.0001748209814501179
1.47673e-05	-0.0001744756906951957
1.47675e-05	-0.00017413039994027584
1.47678e-05	-0.00017378510918535363
1.47680e-05	-0.0001731553493202296
1.47683e-05	-0.00017221003362393437
1.47685e-05	-0.00017126471792763273
1.47688e-05	-0.0001703194022313311
1.47690e-05	-0.00016937408653503586
1.47693e-05	-0.00016846120026486595
1.47695e-05	-0.0001676099791667741
1.47698e-05	-0.00016681662656649332
1.47700e-05	-0.00016625824831853684
1.47703e-05	-0.0001665974222960667
1.47705e-05	-0.00016877003856428498
1.47708e-05	-0.00017331800520786593
1.47710e-05	-0.00018027066137603945
1.47713e-05	-0.00018949599209378703
1.47715e-05	-0.00020086198238623577
1.47718e-05	-0.00021423684494531448
1.47720e-05	-0.00022959513778775308
1.47723e-05	-0.0002472155095091196
1.47725e-05	-0.00026754777027407627
1.47728e-05	-0.0002907948972210691
1.47730e-05	-0.0003168387600410372
1.47733e-05	-0.0003454602038748095
1.47735e-05	-0.0003764400798945125
1.47738e-05	-0.00040955938501948346
1.47740e-05	-0.00044516671238480494
1.47743e-05	-0.0004823529821495934
1.47745e-05	-0.0005215924555649113
1.47748e-05	-0.0005631095062688988
1.47750e-05	-0.0006066598340201555
1.47753e-05	-0.0006524656348812136
1.47755e-05	-0.0006982714357425822
1.47758e-05	-0.0007458985037884867
1.47760e-05	-0.0007955458666909108
1.47763e-05	-0.0008451932295936713
1.47765e-05	-0.0008948405924964317
1.47768e-05	-0.0009444879553988559
1.47770e-05	-0.0009943747410996288
1.47773e-05	-0.0010445271136684745
1.47775e-05	-0.0010946794862369805
1.47778e-05	-0.0011448318588058262
1.47780e-05	-0.0011949842313746719
1.47783e-05	-0.0012432223658727986
1.47785e-05	-0.0012893370747906348
1.47788e-05	-0.0013354517837084713
1.47790e-05	-0.0013787867302864434
1.47793e-05	-0.001419038142715359
1.47795e-05	-0.0014592895551442744
1.47798e-05	-0.0014953624013606347
1.47800e-05	-0.0015268000485791403
1.47803e-05	-0.0015582376957976457
1.47805e-05	-0.0015843962119795514
1.47808e-05	-0.0016046986948602033
1.47810e-05	-0.0016250011777408553
1.47813e-05	-0.001639682578490379
1.47815e-05	-0.001648128626504264
1.47818e-05	-0.001656574674518149
1.47820e-05	-0.0016592086025698281
1.47823e-05	-0.0016553952634829406
1.47825e-05	-0.001651581924396053
1.47828e-05	-0.001642116466889367
1.47830e-05	-0.0016263812287198075
1.47833e-05	-0.0016106459905501417
1.47835e-05	-0.0015897834544738815
1.47838e-05	-0.0015632333105169234
1.47840e-05	-0.0015366831665597853
1.47843e-05	-0.0015055974194885732
1.47845e-05	-0.0014694804196043714
1.47848e-05	-0.001433363419719925
1.47850e-05	-0.0013935967215481558
1.47853e-05	-0.0013497814868724492
1.47855e-05	-0.0013059662521964458
1.47858e-05	-0.0012595183969928148
1.47860e-05	-0.0012101502290762156
1.47863e-05	-0.0011607820611592818
1.47865e-05	-0.0011100155952961173
1.47868e-05	-0.0010576980257984991
1.47870e-05	-0.001004915946820694
1.47873e-05	-0.0009516185968703953
1.47875e-05	-0.000898440723753543
1.47878e-05	-0.0008453953838711691
1.47880e-05	-0.0007930527620430962
1.47883e-05	-0.0007414896511424028
1.47885e-05	-0.0006912387984940909
1.47888e-05	-0.0006424436073886357
1.47890e-05	-0.0005956177764211811
1.47893e-05	-0.0005509765168291547
1.47895e-05	-0.0005082282730720564
1.47898e-05	-0.00046906340486239863
1.47900e-05	-0.00043302368875763696
1.47903e-05	-0.0003997772380950196
1.47905e-05	-0.00036862968447248806
1.47908e-05	-0.00033916823247873514
1.47910e-05	-0.00031143196172429984
1.47913e-05	-0.00028560988628216255
1.47915e-05	-0.0002618909665413209
1.47918e-05	-0.00024046386559320758
1.47920e-05	-0.00022141056390795135
1.47923e-05	-0.00020449225260290376
1.47925e-05	-0.00018924307626689253
1.47928e-05	-0.00017537361842266683
1.47930e-05	-0.00016287752133388315
1.47933e-05	-0.00015184233007630674
1.47935e-05	-0.00014235553992513966
1.47938e-05	-0.00013450447681000524
1.47940e-05	-0.00012830961485124805
1.47943e-05	-0.0001235904905567023
1.47945e-05	-0.00012002445384153902
1.47948e-05	-0.00011739938865177159
1.47950e-05	-0.00011568050369777956
1.47953e-05	-0.00011489181384311262
1.47955e-05	-0.00011505731557293198
1.47958e-05	-0.00011620089423454244
1.47960e-05	-0.00011830454350406109
1.47963e-05	-0.00012122440731943483
1.47965e-05	-0.00012481635783395713
1.47968e-05	-0.00012874887468120193
1.47970e-05	-0.00013310044696536043
1.47973e-05	-0.00013791686897147575
1.47975e-05	-0.00014273329097755843
1.47978e-05	-0.00014794233663762958
1.47980e-05	-0.00015358691177737007
1.47983e-05	-0.0001592314869170723
1.47985e-05	-0.00016487606205681278
1.47988e-05	-0.00016996399678377642
1.47990e-05	-0.00017311380212113538
1.47993e-05	-0.000672335597688316
1.47995e-05	-0.004756142992575627
1.47998e-05	-0.009143709608879648
1.48000e-05	-0.010033331835044824
1.48003e-05	-0.008468479062530048
1.48005e-05	-0.005244167597467609
1.48008e-05	-0.0018884131965472074
1.48010e-05	-0.00048342011967522993
1.48013e-05	-0.0010525294002246368
1.48015e-05	-0.0033616042111529352
1.48018e-05	-0.005846949409046025
1.48020e-05	-0.006608108681470041
1.48023e-05	-0.005688462335678147
1.48025e-05	-0.0036345632907696422
1.48028e-05	-0.0015195288350338442
1.48030e-05	-0.0005457099755651322
1.48033e-05	-0.0008903047625991348
1.48035e-05	-0.00235521734364353
1.48038e-05	-0.004267363664132296
1.48040e-05	-0.004842509751679734
1.48043e-05	-0.00409939112678736
1.48045e-05	-0.0026156675300900646
1.48048e-05	-0.0011729259047148232
1.48050e-05	-0.00015068621121488177
1.48053e-05	-0.00013743749135691378
1.48055e-05	-0.0010364100712870314
1.48058e-05	-0.00210182867734086
1.48060e-05	-0.0029093815629175216
1.48063e-05	-0.002804466727099231
1.48065e-05	-0.0019336914895972694
1.48068e-05	-0.0010535851766660135
1.48070e-05	-0.00043629186026786384
1.48073e-05	-0.00045025189171584785
1.48075e-05	-0.0010346484956931096
1.48078e-05	-0.0017221543914401414
1.48080e-05	-0.002246841757745533
1.48083e-05	-0.002198561565691156
1.48085e-05	-0.001669057042720067
1.48088e-05	-0.001132100941303112
1.48090e-05	-0.0007580194187713538
1.48093e-05	-0.0007774411055582926
1.48095e-05	-0.0011521006018731027
1.48098e-05	-0.001589114914907849
1.48100e-05	-0.0019218557223631616
1.48103e-05	-0.0018937466630512538
1.48105e-05	-0.0015629432256797633
1.48108e-05	-0.001226664846413024
1.48110e-05	-0.0009917051579762177
1.48113e-05	-0.001002553225590582
1.48115e-05	-0.0012352580676115736
1.48118e-05	-0.0015063863042562625
1.48120e-05	-0.0017116038320292382
1.48123e-05	-0.0016902454466323949
1.48125e-05	-0.0014787996997752129
1.48128e-05	-0.0012634944034046515
1.48130e-05	-0.001111263351044627
1.48133e-05	-0.0011126460463005332
1.48135e-05	-0.0012526679087135062
1.48138e-05	-0.0014164607194743569
1.48140e-05	-0.0015387125942543413
1.48143e-05	-0.0015188334499336965
1.48145e-05	-0.001379733598657409
1.48148e-05	-0.0012381138343120742
1.48150e-05	-0.0011359419345749698
1.48153e-05	-0.0011299680506790504
1.48155e-05	-0.0012108459520039341
1.48158e-05	-0.0013066604130258855
1.48160e-05	-0.0013765432331945102
1.48163e-05	-0.0013575326723370671
1.48165e-05	-0.0012640299944920602
1.48168e-05	-0.001169182445633612
1.48170e-05	-0.0010993204465154095
1.48173e-05	-0.0010900309501022895
1.48175e-05	-0.0011354972621006607
1.48178e-05	-0.0011907114274204713
1.48180e-05	-0.0012301168819312674
1.48183e-05	-0.0012143206947809538
1.48185e-05	-0.0011523912939666457
1.48188e-05	-0.0010901930791495582
1.48190e-05	-0.0010442616737061376
1.48193e-05	-0.0010369291065374152
1.48195e-05	-0.001064591311757968
1.48198e-05	-0.0010990825109354603
1.48200e-05	-0.0011241795792211254
1.48203e-05	-0.001113856200918059
1.48205e-05	-0.001071581286809582
1.48208e-05	-0.0010248922059420008
1.48210e-05	-0.0009841569415824482
1.48213e-05	-0.00096360475624891
1.48215e-05	-0.0009612181026969144
1.48218e-05	-0.0009595947583116518
1.48220e-05	-0.0009488146800853899
1.48223e-05	-0.0009128183145108286
1.48225e-05	-0.0008540226851298778
1.48228e-05	-0.0007899200029849586
1.48230e-05	-0.0007272468145310582
1.48233e-05	-0.0006751576293403092
1.48235e-05	-0.0006326294460570631
1.48238e-05	-0.0005890029624176706
1.48240e-05	-0.0005383065455865636
1.48243e-05	-0.0004707234810966569
1.48245e-05	-0.0003880110507735211
1.48248e-05	-0.00030136912536631613
1.48250e-05	-0.0002152595188311093
1.48253e-05	-0.00013565810986373346
1.48255e-05	-6.216547597411945e-05
1.48258e-05	1.1653685877209095e-05
1.48260e-05	8.929790912101304e-05
1.48263e-05	0.00017667382682673403
1.48265e-05	0.0002724378773335897
1.48268e-05	0.0003693320802901227
1.48270e-05	0.00046431964238227285
1.48273e-05	0.0005534156629801344
1.48275e-05	0.0006366288022936449
1.48278e-05	0.0007177486085027281
1.48280e-05	0.0007987245594186612
1.48283e-05	0.0008830143865890868
1.48285e-05	0.0009695341838465241
1.48288e-05	0.001053495599038642
1.48290e-05	0.0011327546185468937
1.48293e-05	0.001204573562821686
1.48295e-05	0.001268716580411189
1.48298e-05	0.0013273262688956774
1.48300e-05	0.001381578127429899
1.48303e-05	0.0014344843606113214
1.48305e-05	0.001486990451609283
1.48308e-05	0.0015367837498689724
1.48310e-05	0.0015814965466762615
1.48313e-05	0.0016251481239655742
1.48315e-05	0.0016612471910234033
1.48318e-05	0.0016933178174419817
1.48320e-05	0.0017218042392394062
1.48323e-05	0.001750026612657457
1.48325e-05	0.0017765008538247638
1.48328e-05	0.0018020823101649805
1.48330e-05	0.0018217530847041588
1.48333e-05	0.0018414238592434704
1.48335e-05	0.0018600121848842586
1.48338e-05	0.0018714341577699865
1.48340e-05	0.001882856130655637
1.48343e-05	0.001893959242724223
1.48345e-05	0.0019029513368051182
1.48348e-05	0.0019111923628264233
1.48350e-05	0.0019144609428823275
1.48353e-05	0.0019177295229382315
1.48355e-05	0.0019209981029941134
1.48358e-05	0.0019242666830500174
1.48360e-05	0.0019244233516579757
1.48363e-05	0.0019227619756651566
1.48365e-05	0.0019211005996723261
1.48368e-05	0.0019194392236794957
1.48370e-05	0.0019173336041815123
1.48373e-05	0.0019122868706299494
1.48375e-05	0.0019072401370783868
1.48378e-05	0.0019021934035268581
1.48380e-05	0.0018971466699752952
1.48383e-05	0.0018916739400028566
1.48385e-05	0.0018859523338956737
1.48388e-05	0.001880230727788452
1.48390e-05	0.00187450912168123
1.48393e-05	0.0018687765274557132
1.48395e-05	0.0018629711863945085
1.48398e-05	0.0018572070921511793
1.48400e-05	0.0018517160724589447
1.48403e-05	0.0018459801459664
1.48405e-05	0.0018386228140422596
1.48408e-05	0.0018306526206032002
1.48410e-05	0.001818624977603114
1.48413e-05	0.0018065973346030279
1.48415e-05	0.0017939584646842015
1.48418e-05	0.001777272967047605
1.48420e-05	0.0017605874694110089
1.48423e-05	0.0017431859575694044
1.48425e-05	0.0017210440737989298
1.48428e-05	0.001698902190028305
1.48430e-05	0.0016759458190942016
1.48433e-05	0.001647597136025244
1.48435e-05	0.0016192484529560945
1.48438e-05	0.0015899888262761017
1.48440e-05	0.001554698297566651
1.48443e-05	0.0015194077688569611
1.48445e-05	0.0014841172401472715
1.48448e-05	0.0014488267114378208
1.48450e-05	0.001413536182728131
1.48453e-05	0.0013773903808813046
1.48455e-05	0.001335582243366649
1.48458e-05	0.00129377410585171
1.48460e-05	0.001251965968336771
1.48463e-05	0.0012101578308221154
1.48465e-05	0.0011683496933071766
1.48468e-05	0.0011263347386460867
1.48470e-05	0.001082950551101995
1.48473e-05	0.0010395663635576096
1.48475e-05	0.000996365968778262
1.48478e-05	0.0009543823739710608
1.48480e-05	0.000912398779163575
1.48483e-05	0.000870745202182603
1.48485e-05	0.0008312765081702584
1.48488e-05	0.0007921752316450933
1.48490e-05	0.0007555064425377408
1.48493e-05	0.0007193391001611713
1.48495e-05	0.000686491585785127
1.48498e-05	0.0006541121387703589
1.48500e-05	0.0006251863153874984
1.48503e-05	0.0005989777481650365
1.48505e-05	0.0005755791352911232
1.48508e-05	0.0005550121058519141
1.48510e-05	0.0005373161035675399
1.48513e-05	0.0005225314951012041
1.48515e-05	0.0005107130676147455
1.48518e-05	0.0005019292314022241
1.48520e-05	0.000496235284715298
1.48523e-05	0.0004936545672408425
1.48525e-05	0.0004941321497370217
1.48528e-05	0.0004975686946836372
1.48530e-05	0.0005038760775228475
1.48533e-05	0.0005129665990928706
1.48535e-05	0.0005247618039300831
1.48538e-05	0.0005391916094607607
1.48540e-05	0.0005561777624144816
1.48543e-05	0.0005757635877939338
1.48545e-05	0.0005983143706811989
1.48548e-05	0.0006213873382821827
1.48550e-05	0.0006479174297001361
1.48553e-05	0.0006748832059081378
1.48555e-05	0.0007047334332005626
1.48558e-05	0.0007350031839143123
1.48560e-05	0.000768050389372397
1.48563e-05	0.0008010975948302578
1.48565e-05	0.0008344385081845411
1.48568e-05	0.0008697239146200704
1.48570e-05	0.0009050093210553607
1.48573e-05	0.0009403498327302976
1.48575e-05	0.0009760551686342104
1.48578e-05	0.0010116738403906347
1.48580e-05	0.0010467187521738233
1.48583e-05	0.001081556169548414
1.48585e-05	0.0011150198702226614
1.48588e-05	0.0011482461878222204
1.48590e-05	0.0011796990611056418
1.48593e-05	0.0012095812759684713
1.48595e-05	0.0012376458470432276
1.48598e-05	0.0012636450118881468
1.48600e-05	0.0012872771829272015
1.48603e-05	0.001308008886592318
1.48605e-05	0.00132492416828828
1.48608e-05	0.0013367435248751041
1.48610e-05	0.0013475352017191
1.48613e-05	0.0013515231249836169
1.48615e-05	0.0013544948641462274
1.48618e-05	0.0013507389566181378
1.48620e-05	0.0013459255876170889
1.48623e-05	0.0013341112950967643
1.48625e-05	0.001321176303621224
1.48628e-05	0.0013008217248840544
1.48630e-05	0.0012794225246555789
1.48633e-05	0.0012511074080044145
1.48635e-05	0.0012218483732036997
1.48638e-05	0.00118634012843964
1.48640e-05	0.0011499556103077425
1.48643e-05	0.0011077697244760288
1.48645e-05	0.001064761461118194
1.48648e-05	0.0010163086474745601
1.48650e-05	0.0009671745891661677
1.48653e-05	0.0009135303506606552
1.48655e-05	0.0008593614297179365
1.48658e-05	0.000801718848776617
1.48660e-05	0.0007436148076034863
1.48663e-05	0.0006824556690361551
1.48665e-05	0.0006212965304684095
1.48668e-05	0.0005598804611441062
1.48670e-05	0.000496763381785365
1.48673e-05	0.00043364630242619627
1.48675e-05	0.0003706288659583009
1.48678e-05	0.00030827111523744767
1.48680e-05	0.00024611104752884336
1.48683e-05	0.00018544451446219436
1.48685e-05	0.0001262310701355364
1.48688e-05	6.882078815707322e-05
1.48690e-05	1.3611535039966168e-05
1.48693e-05	-3.8990378736893956e-05
1.48695e-05	-8.857847594011138e-05
1.48698e-05	-0.00013476097208918347
1.48700e-05	-0.00017740347258258162
1.48703e-05	-0.0002175902145503034
1.48705e-05	-0.00025738828026800845
1.48708e-05	-0.0002979088205128695
1.48710e-05	-0.00033909645660117033
1.48713e-05	-0.00038028409268975024
1.48715e-05	-0.0004210310436705071
1.48718e-05	-0.0004615205370738165
1.48720e-05	-0.0005020521414414972
1.48723e-05	-0.0005428625414407184
1.48725e-05	-0.000583672941439663
1.48728e-05	-0.000625099647825925
1.48730e-05	-0.0006706066105561639
1.48733e-05	-0.0007161135732860944
1.48735e-05	-0.0007616205360163332
1.48738e-05	-0.000807127498746572
1.48740e-05	-0.0008526344614765025
1.48743e-05	-0.0008987019277229996
1.48745e-05	-0.0009484802074161758
1.48748e-05	-0.000998258487109015
1.48750e-05	-0.0010480367668021912
1.48753e-05	-0.0010978150464953677
1.48755e-05	-0.0011475933261882066
1.48758e-05	-0.0011975259453629223
1.48760e-05	-0.0012484803690525161
1.48763e-05	-0.0012994347927417647
1.48765e-05	-0.0013503892164313587
1.48768e-05	-0.0014013436401209525
1.48770e-05	-0.0014522980638105463
1.48773e-05	-0.0015027383357316669
1.48775e-05	-0.0015497746659472998
1.48778e-05	-0.0015968109961629327
1.48780e-05	-0.0016438473263782468
1.48783e-05	-0.0016908836565938798
1.48785e-05	-0.0017379199868095127
1.48788e-05	-0.0017831388854814762
1.48790e-05	-0.0018163254788848952
1.48793e-05	-0.001849512072288314
1.48795e-05	-0.001882698665691508
1.48798e-05	-0.001915885259094927
1.48800e-05	-0.0019490718524983457
1.48803e-05	-0.00198225844590154
1.48805e-05	-0.0020154450393049584
1.48808e-05	-0.0020486316327083774
1.48810e-05	-0.00207970668099415
1.48813e-05	-0.0020968022451343642
1.48815e-05	-0.002113897809274578
1.48818e-05	-0.002130993373414676
1.48820e-05	-0.00214808893755489
1.48823e-05	-0.002165184501695104
1.48825e-05	-0.002182280065835202
1.48828e-05	-0.0021993756299754155
1.48830e-05	-0.0022164711941156296
1.48833e-05	-0.0022320083824847415
1.48835e-05	-0.002237228344284753
1.48838e-05	-0.002242448306084764
1.48840e-05	-0.00224766826788474
1.48843e-05	-0.0022528882296847515
1.48845e-05	-0.0022581081914847625
1.48848e-05	-0.0022633281532847384
1.48850e-05	-0.00226854811508475
1.48853e-05	-0.002273768076884761
1.48855e-05	-0.0022789880386847724
1.48858e-05	-0.0022842080004847483
1.48860e-05	-0.0022894279622847594
1.48863e-05	-0.0022905690492349487
1.48865e-05	-0.0022893271710739925
1.48868e-05	-0.0022880852929130276
1.48870e-05	-0.002286843414752063
1.48873e-05	-0.002285601536591107
1.48875e-05	-0.002284359658430142
1.48878e-05	-0.0022831177802691777
1.48880e-05	-0.0022818759021082215
1.48883e-05	-0.0022806340239472566
1.48885e-05	-0.002279392145786292
1.48888e-05	-0.002278150267625336
1.48890e-05	-0.0022768229268550076
1.48893e-05	-0.002274929780891458
1.48895e-05	-0.0022730628037423003
1.48898e-05	-0.0022713690772250402
1.48900e-05	-0.002269357154423657
1.48903e-05	-0.002265238613168092
1.48905e-05	-0.0022598737152926367
1.48908e-05	-0.002246257313590471
1.48910e-05	-0.002232640911888398
1.48913e-05	-0.002217620305559422
1.48915e-05	-0.0021933031626953535
1.48918e-05	-0.0021689860198314498
1.48920e-05	-0.0021431685519786776
1.48923e-05	-0.0021074181827477716
1.48925e-05	-0.0020716678135171075
1.48928e-05	-0.0020340971254670156
1.48930e-05	-0.0019844750169280704
1.48933e-05	-0.001934852908389461
1.48935e-05	-0.0018837861733425278
1.48938e-05	-0.0018231552887001256
1.48940e-05	-0.0017625244040577232
