Time(s)	Current(A)
1.17500e-05	0.000533378744159158
1.17503e-05	0.0005497320930231326
1.17505e-05	0.0005644523060016543
1.17508e-05	0.0005791725189802756
1.17510e-05	0.0005934161226964256
1.17513e-05	0.0006040206271922129
1.17515e-05	0.0006146251316880721
1.17518e-05	0.0006252296361839312
1.17520e-05	0.0006358341406797185
1.17523e-05	0.0006464386451755776
1.17525e-05	0.0006570431496714368
1.17528e-05	0.000667647654167224
1.17530e-05	0.0006782521586630832
1.17533e-05	0.0006888566631589423
1.17535e-05	0.0006968235803773681
1.17538e-05	0.000703144913971204
1.17540e-05	0.00070946624756504
1.17543e-05	0.0007157875811588331
1.17545e-05	0.0007221089147526691
1.17548e-05	0.000728430248346505
1.17550e-05	0.0007347515819402982
1.17553e-05	0.0007410729155341341
1.17555e-05	0.0007473942491279701
1.17558e-05	0.0007534830842143347
1.17560e-05	0.000757796701729211
1.17563e-05	0.0007621103192440872
1.17565e-05	0.0007664239367589342
1.17568e-05	0.0007707375542738104
1.17570e-05	0.0007750511717886866
1.17572e-05	0.0007793647893035336
1.17575e-05	0.0007834012356884041
1.17578e-05	0.0007872647557489983
1.17580e-05	0.0007911282758095664
1.17583e-05	0.0007949917958701607
1.17585e-05	0.000798855315930755
1.17588e-05	0.0008027188359913492
1.17590e-05	0.0008066062215488186
1.17593e-05	0.0008106758295641374
1.17595e-05	0.000814745437579456
1.17598e-05	0.0008186874012571397
1.17600e-05	0.0008216547502002937
1.17603e-05	0.0008246220991434477
1.17605e-05	0.00082728509913834
1.17608e-05	0.0008276242751784836
1.17610e-05	0.0008279634512186274
1.17613e-05	0.0008283026272587687
1.17615e-05	0.0008286418032989125
1.17618e-05	0.0008285606940115474
1.17620e-05	0.0008252705409030237
1.17623e-05	0.0008219803877944776
1.17625e-05	0.0008186902346859315
1.17628e-05	0.0008154000815774076
1.17630e-05	0.0008118442372632081
1.17633e-05	0.0008059632124968068
1.17635e-05	0.0007978181136119616
1.17638e-05	0.0007896730147270611
1.17640e-05	0.0007815279158421607
1.17643e-05	0.0007733828169573155
1.17645e-05	0.0007652377180724151
1.17648e-05	0.0007570926191875146
1.17650e-05	0.0007489475203026695
1.17653e-05	0.0007391126388906287
1.17655e-05	0.0007282235066939242
1.17657e-05	0.0007173343744972933
1.17660e-05	0.0007064452423005889
1.17663e-05	0.0006955561101038843
1.17665e-05	0.0006846669779072536
1.17668e-05	0.000673777845710549
1.17670e-05	0.0006629064336305965
1.17673e-05	0.000652170321613412
1.17675e-05	0.0006414342095963002
1.17678e-05	0.0006308303929249297
1.17680e-05	0.0006212367032659401
1.17683e-05	0.0006116430136070156
1.17685e-05	0.0006022660699199783
1.17688e-05	0.000594544067000215
1.17690e-05	0.000586822064080504
1.17693e-05	0.0005793477812748253
1.17695e-05	0.0005737649389974624
1.17698e-05	0.0005682483039349257
1.17700e-05	0.0005632371870043317
1.17703e-05	0.0005582260700737376
1.17705e-05	0.0005531997513114774
1.17708e-05	0.0005480573605834806
1.17710e-05	0.0005429149698554838
1.17713e-05	0.0005377725791275218
1.17715e-05	0.000532630188399525
1.17718e-05	0.0005274150451175529
1.17720e-05	0.0005216444074638239
1.17723e-05	0.0005158737698100559
1.17725e-05	0.0005101031321562878
1.17728e-05	0.0005043324945025588
1.17730e-05	0.0004984163121639547
1.17733e-05	0.0004913888388965209
1.17735e-05	0.00048436136562913455
1.17738e-05	0.0004773338923617007
1.17740e-05	0.00047030641909426676
1.17742e-05	0.0004632789458268805
1.17745e-05	0.00045625147255944656
1.17748e-05	0.00044912339210964646
1.17750e-05	0.00044122713624161205
1.17753e-05	0.00043333088037352414
1.17755e-05	0.0004254346245054362
1.17758e-05	0.0004175383686373483
1.17760e-05	0.0004096421127693139
1.17763e-05	0.000401745856901226
1.17765e-05	0.0003938944070833488
1.17768e-05	0.00038638506908654263
1.17770e-05	0.00037887573108968557
1.17773e-05	0.00037136639309282856
1.17775e-05	0.0003638570550960224
1.17778e-05	0.000357261411332575
1.17780e-05	0.0003512358189499916
1.17783e-05	0.00034521022656744914
1.17785e-05	0.0003391846341848658
1.17788e-05	0.00033330954161368316
1.17790e-05	0.00032865756241704387
1.17793e-05	0.00032465401395551834
1.17795e-05	0.00032141680170009735
1.17798e-05	0.00031939446382494966
1.17800e-05	0.00031945760931550147
1.17803e-05	0.00032226738591335303
1.17805e-05	0.00032793743670016484
1.17808e-05	0.00033637157014600275
1.17810e-05	0.00034747357909832534
1.17813e-05	0.0003611474616761289
1.17815e-05	0.00037732058274844444
1.17818e-05	0.00039612740484755275
1.17820e-05	0.0004179667977289083
1.17823e-05	0.0004431063212873237
1.17825e-05	0.0004714706105982949
1.17827e-05	0.0005028528538423665
1.17830e-05	0.0005371864940617658
1.17833e-05	0.000574914953636048
1.17835e-05	0.000613196074320426
1.17838e-05	0.0006556969800130034
1.17840e-05	0.0006987625450690901
1.17843e-05	0.0007461395065163887
1.17845e-05	0.0007940794601538384
1.17848e-05	0.0008463180806610588
1.17850e-05	0.0008985567011682792
1.17853e-05	0.0009512318199224742
1.17855e-05	0.0010072397745249143
1.17858e-05	0.0010632477291273547
1.17860e-05	0.0011195129855942846
1.17863e-05	0.0011777428430291136
1.17865e-05	0.0012359727004639426
1.17868e-05	0.0012941733891113996
1.17870e-05	0.0013521513625949025
1.17873e-05	0.0014101293360784053
1.17875e-05	0.0014678521242424572
1.17878e-05	0.001523626472099098
1.17880e-05	0.0015790695670597997
1.17883e-05	0.0016319834158358114
1.17885e-05	0.0016844193162199774
1.17888e-05	0.0017332058925916174
1.17890e-05	0.001781354121451632
1.17893e-05	0.0018246283159194447
1.17895e-05	0.0018668861572363152
1.17898e-05	0.0019013837423837007
1.17900e-05	0.00193588132753132
1.17903e-05	0.0019690089907800573
1.17905e-05	0.001991676761364328
1.17908e-05	0.0020143445319487524
1.17910e-05	0.002035578264126524
1.17912e-05	0.0020458625488770986
1.17915e-05	0.002056146833627742
1.17918e-05	0.00206496897619824
1.17920e-05	0.00206262708797416
1.17923e-05	0.002060285199750064
1.17925e-05	0.0020567877943665613
1.17928e-05	0.002044467560857575
1.17930e-05	0.0020312907599230622
1.17933e-05	0.002011573729695878
1.17935e-05	0.0019910603390077743
1.17938e-05	0.0019644664228898093
1.17940e-05	0.001937323539505833
1.17943e-05	0.0019056577884687532
1.17945e-05	0.0018711590859568966
1.17948e-05	0.0018340677756846196
1.17950e-05	0.00179485656248216
1.17953e-05	0.0017555300115777652
1.17955e-05	0.0017188836622594645
1.17958e-05	0.0011965667412103841
1.17960e-05	-0.006904648130799473
1.17963e-05	-0.012827644321660612
1.17965e-05	-0.010725255244539074
1.17968e-05	-0.008512209325736849
1.17970e-05	-0.0028507292157503947
1.17973e-05	0.0027112242611593133
1.17975e-05	0.0022106784127608856
1.17978e-05	0.0011523205973855797
1.17980e-05	-0.0027433381893510996
1.17983e-05	-0.0073095489342491615
1.17985e-05	-0.00648168457637747
1.17988e-05	-0.004490457323410887
1.17990e-05	-0.0016668733908357445
1.17993e-05	0.0028711032796825604
1.17995e-05	0.0035364775553361357
1.17997e-05	0.0029915843154795464
1.18000e-05	0.000977508111800794
1.18003e-05	-0.0021874280580614167
1.18005e-05	-0.0037788916611281973
1.18008e-05	-0.003142347906697399
1.18010e-05	-0.0012567671959407914
1.18013e-05	0.0011852409110931833
1.18015e-05	0.002583559708790623
1.18018e-05	0.0025354519970690317
1.18020e-05	0.0013002192476456334
1.18023e-05	-0.0006742916484206503
1.18025e-05	-0.0016608247570834905
1.18028e-05	-0.0012497360802812547
1.18030e-05	-5.458271391027298e-05
1.18033e-05	0.0014905165967940303
1.18035e-05	0.002383059556447217
1.18038e-05	0.0023706488856044114
1.18040e-05	0.0016156008095172068
1.18043e-05	0.0003983240468486038
1.18045e-05	-0.00019940768325563265
1.18048e-05	7.877387001405106e-05
1.18050e-05	0.0008483167964865943
1.18053e-05	0.0018371036707635372
1.18055e-05	0.0024170275723047778
1.18058e-05	0.0024298862151926285
1.18060e-05	0.001977258860151853
1.18063e-05	0.0012346875490251963
1.18065e-05	0.0008796523862064938
1.18068e-05	0.0010725639290671144
1.18070e-05	0.0015723668705105234
1.18073e-05	0.002208455150975673
1.18075e-05	0.002587258550579238
1.18078e-05	0.002609578295317999
1.18080e-05	0.002338945066456076
1.18082e-05	0.0018852127857017834
1.18085e-05	0.0016726249699792776
1.18088e-05	0.0018015104147088533
1.18090e-05	0.0021207231248365583
1.18093e-05	0.002523258700540344
1.18095e-05	0.002762504393001921
1.18098e-05	0.002776708787451688
1.18100e-05	0.002606643488815128
1.18103e-05	0.0023219050825196525
1.18105e-05	0.002188458153647093
1.18108e-05	0.0022691411737229762
1.18110e-05	0.00246924834345232
1.18113e-05	0.002721731359839393
1.18115e-05	0.0028721019247850677
1.18118e-05	0.002881677344197284
1.18120e-05	0.0027759962410304033
1.18123e-05	0.002598649927378933
1.18125e-05	0.0025162250080171043
1.18128e-05	0.0025680608388832637
1.18130e-05	0.0026948118134651777
1.18133e-05	0.002854462367390906
1.18135e-05	0.0029502303274541466
1.18138e-05	0.0029578799398620056
1.18140e-05	0.002893404304571777
1.18143e-05	0.00278410219005079
1.18145e-05	0.0027343108085006425
1.18148e-05	0.002768653716114538
1.18150e-05	0.0028499393767069526
1.18153e-05	0.002951834467196759
1.18155e-05	0.0030137037691448246
1.18158e-05	0.0030203588749041373
1.18160e-05	0.00298181059708892
1.18163e-05	0.0029151506836453084
1.18165e-05	0.0028857232965930207
1.18167e-05	0.002908937326778438
1.18170e-05	0.002961480640787994
1.18173e-05	0.0030268439616797445
1.18175e-05	0.0030670350927575673
1.18178e-05	0.0030725308611943016
1.18180e-05	0.003049593287057808
1.18183e-05	0.0030089191472743196
1.18185e-05	0.002991428203799771
1.18188e-05	0.0030067579583966937
1.18190e-05	0.003040292303899615
1.18193e-05	0.0030816771570919724
1.18195e-05	0.003107111306532639
1.18198e-05	0.003110726462175373
1.18200e-05	0.003096663501905095
1.18203e-05	0.003071787964930759
1.18205e-05	0.003061766962942307
1.18208e-05	0.003072622823251271
1.18210e-05	0.0030951802676641976
1.18213e-05	0.0031229347192743475
1.18215e-05	0.003140959600053886
1.18218e-05	0.0031455617965048628
1.18220e-05	0.003139318273661004
1.18223e-05	0.003126512211302575
1.18225e-05	0.0031232034889259333
1.18228e-05	0.0031331453108755687
1.18230e-05	0.0031505713719832615
1.18233e-05	0.0031713885115284175
1.18235e-05	0.0031862289666637527
1.18238e-05	0.0031927620678301478
1.18240e-05	0.0031925844320192533
1.18243e-05	0.003191686125226873
1.18245e-05	0.003190890077256223
1.18248e-05	0.0032002380141425155
1.18250e-05	0.00321503895850594
1.18252e-05	0.003229911941799848
1.18255e-05	0.0032446389456722924
1.18258e-05	0.0032530022869280413
1.18260e-05	0.0032566367826995122
1.18263e-05	0.0032596998466037337
1.18265e-05	0.003262802431345754
1.18268e-05	0.003272121333045521
1.18270e-05	0.0032847126514419234
1.18273e-05	0.003297126288700967
1.18275e-05	0.0033094036813715207
1.18278e-05	0.0033174682975106364
1.18280e-05	0.0033223490694869267
1.18283e-05	0.0033265487605409574
1.18285e-05	0.0033307086292357854
1.18288e-05	0.003338448342786821
1.18290e-05	0.003347937314400432
1.18293e-05	0.0033568911675075446
1.18295e-05	0.003365675285615996
1.18298e-05	0.0033714647668689436
1.18300e-05	0.003375023021801878
1.18303e-05	0.003377969987727099
1.18305e-05	0.003380858135446313
1.18308e-05	0.003385858553872153
1.18310e-05	0.0033918800199848075
1.18313e-05	0.003398024420670833
1.18315e-05	0.00340291415362001
1.18318e-05	0.0034061909747190654
1.18320e-05	0.0034079798354913838
1.18323e-05	0.00340949936588208
1.18325e-05	0.003411018896272787
1.18328e-05	0.0034137197852700894
1.18330e-05	0.003416703958878773
1.18333e-05	0.0034196915640879247
1.18335e-05	0.003422679169297077
1.18337e-05	0.0034242675758267525
1.18340e-05	0.0034247778860384214
1.18343e-05	0.003425115568081936
1.18345e-05	0.003425453250125448
1.18348e-05	0.0034265322462380967
1.18350e-05	0.003427816269439339
1.18352e-05	0.0034291086347320384
1.18355e-05	0.0034304010000247463
1.18358e-05	0.0034308626760964746
1.18360e-05	0.0034307314160623038
1.18363e-05	0.0034305083643056842
1.18365e-05	0.0034302853125490634
1.18368e-05	0.003430703067348277
1.18370e-05	0.0034312662846752735
1.18373e-05	0.003431618809411465
1.18375e-05	0.0034319235071137936
1.18378e-05	0.0034322282048161205
1.18380e-05	0.003432532902518449
1.18383e-05	0.0034329444496745297
1.18385e-05	0.003433588355754587
1.18388e-05	0.0034342322618346483
1.18390e-05	0.00343487616791471
1.18393e-05	0.003435520073994767
1.18395e-05	0.003435636759147396
1.18398e-05	0.0034356337656105494
1.18400e-05	0.003435630772073702
1.18403e-05	0.0034356277785368553
1.18405e-05	0.0034356247850000085
1.18408e-05	0.0034356217914631613
1.18410e-05	0.0034356187979263145
1.18413e-05	0.0034331560765979894
1.18415e-05	0.0034301349992120335
1.18418e-05	0.003427113921826057
1.18420e-05	0.003424092844440081
1.18422e-05	0.003421071767054125
1.18425e-05	0.0034180506896681487
1.18428e-05	0.003415029612282172
1.18430e-05	0.003408938810957199
1.18433e-05	0.0034021511849824685
1.18435e-05	0.0033953635590077383
1.18437e-05	0.003388575933033054
1.18440e-05	0.0033817883070583234
1.18443e-05	0.003375000681083593
1.18445e-05	0.0033682130551088625
1.18448e-05	0.003361425429134178
1.18450e-05	0.0033546378031594475
1.18453e-05	0.0033472157866456663
1.18455e-05	0.0033384142001118785
1.18458e-05	0.003329612613578031
1.18460e-05	0.003320811027044183
1.18463e-05	0.003312009440510395
1.18465e-05	0.0033032078539765477
1.18468e-05	0.0032944062674427
1.18470e-05	0.003285604680908912
1.18473e-05	0.003276803094375064
1.18475e-05	0.0032680015078412165
1.18478e-05	0.0032599459797561146
1.18480e-05	0.0032520598062864346
1.18483e-05	0.003244173632816755
1.18485e-05	0.003236803275946478
1.18488e-05	0.0032305546336551362
1.18490e-05	0.0032243059913637947
1.18493e-05	0.0032180573490724956
1.18495e-05	0.0032131110439762986
1.18498e-05	0.0032084603682846343
1.18500e-05	0.0032029965558169923
1.18503e-05	0.003197348162012164
1.18505e-05	0.0031916997682073355
1.18507e-05	0.0031840897258115517
1.18510e-05	0.0031760343909008016
1.18513e-05	0.003167979055990051
1.18515e-05	0.0031599237210793553
1.18518e-05	0.003151868386168605
1.18520e-05	0.0031406997978264705
1.18522e-05	0.0031288245036776292
1.18525e-05	0.0031169492095287073
1.18528e-05	0.0031050739153797853
1.18530e-05	0.0030931986212308633
1.18533e-05	0.0030777717339994163
1.18535e-05	0.0030615386382434723
1.18538e-05	0.0030453055424875283
1.18540e-05	0.0030290724467316944
1.18543e-05	0.003012839350975751
1.18545e-05	0.002996606255219807
1.18548e-05	0.0029793512394939567
1.18550e-05	0.0029598739173694387
1.18553e-05	0.0029403965952449207
1.18555e-05	0.002920919273120535
1.18558e-05	0.002901441950996017
1.18560e-05	0.002881964628871499
1.18563e-05	0.0028624873067471133
1.18565e-05	0.0028425286608218794
1.18568e-05	0.0028224607548147087
1.18570e-05	0.002802392848807674
1.18573e-05	0.0027831576560870624
1.18575e-05	0.0027641114885544596
1.18578e-05	0.0027450653210219856
1.18580e-05	0.0027275155705750835
1.18583e-05	0.002710305505498335
1.18585e-05	0.002693095440421703
1.18588e-05	0.002678242210116695
1.18590e-05	0.002663923979244342
1.18592e-05	0.0026496057483720863
1.18595e-05	0.0026380403101274154
1.18598e-05	0.002627099753402549
1.18600e-05	0.0026161591966777573
1.18603e-05	0.002606264307091107
1.18605e-05	0.002596606783030649
1.18607e-05	0.0025869492589702565
1.18610e-05	0.0025772917349097986
1.18613e-05	0.002568958092145602
1.18615e-05	0.002560924969278256
1.18618e-05	0.0025528918464109646
1.18620e-05	0.002544858723543619
1.18623e-05	0.0025373430357658183
1.18625e-05	0.002529944805301034
1.18628e-05	0.0025225465748361987
1.18630e-05	0.002515148344371364
1.18633e-05	0.002507750113906579
1.18635e-05	0.0025003518834417443
1.18638e-05	0.002492953652976909
1.18640e-05	0.0024855554225121246
1.18643e-05	0.0024781571920472895
1.18645e-05	0.002471005610684619
1.18648e-05	0.002464390401928681
1.18650e-05	0.0024577751931726985
1.18653e-05	0.002451159984416716
1.18655e-05	0.002444544775660778
1.18658e-05	0.002437929566904796
1.18660e-05	0.002431314358148813
1.18663e-05	0.0024246991493928755
1.18665e-05	0.0024180839406368927
1.18668e-05	0.0024114687318809104
1.18670e-05	0.00240582134168838
1.18673e-05	0.002400393645463664
1.18675e-05	0.002394965949238948
1.18678e-05	0.002389538253014269
1.18680e-05	0.002384574576129933
1.18683e-05	0.0023806199735175435
1.18685e-05	0.0023766653709051807
1.18688e-05	0.0023727107682927915
1.18690e-05	0.0023687561656804018
1.18692e-05	0.002366021674099137
1.18695e-05	0.002363564146655362
1.18698e-05	0.002363143177209364
1.18700e-05	0.002363184504648613
1.18703e-05	0.002367323331750102
1.18705e-05	0.0023723922876931077
1.18708e-05	0.0023840315085422352
1.18710e-05	0.0023971621737815265
1.18713e-05	0.002410292839020907
1.18715e-05	0.0024234235042602872
1.18718e-05	0.0024403648617144333
1.18720e-05	0.0024655930967571907
1.18723e-05	0.002490821331799948
1.18725e-05	0.0025160495668425345
1.18728e-05	0.0025412778018852923
1.18730e-05	0.0025770750257475454
1.18733e-05	0.0026152714008328354
1.18735e-05	0.0026534677759183847
1.18738e-05	0.0026916641510039336
1.18740e-05	0.0027298605260892236
1.18743e-05	0.0027715171353007184
1.18745e-05	0.002820698502486701
1.18748e-05	0.0028698798696723507
1.18750e-05	0.0029190612368583334
1.18753e-05	0.0029682426040443166
1.18755e-05	0.003017423971229966
1.18758e-05	0.003070533158693878
1.18760e-05	0.003124533957927593
1.18763e-05	0.003178534757160942
1.18765e-05	0.0032335182403002943
1.18768e-05	0.003288724791827278
1.18770e-05	0.0033439313433538875
1.18773e-05	0.0033979670361156088
1.18775e-05	0.0034517369449610334
1.18777e-05	0.0035055068538060938
1.18780e-05	0.0035562964523872882
1.18783e-05	0.0036064095231434852
1.18785e-05	0.003656522593899682
1.18788e-05	0.003702650026250512
1.18790e-05	0.003747872722167403
1.18793e-05	0.0037873167737142543
1.18795e-05	0.0038254490780396957
1.18798e-05	0.0038635813823653955
1.18800e-05	0.00389295606035005
1.18803e-05	0.003920342764809651
1.18805e-05	0.003947729469269437
1.18808e-05	0.003963099527491701
1.18810e-05	0.0039757418175209135
1.18813e-05	0.003988384107550213
1.18815e-05	0.004001026397579511
1.18818e-05	0.00400796081456786
1.18820e-05	0.004002482671703669
1.18823e-05	0.0039970045288394785
1.18825e-05	0.003991526385975325
1.18828e-05	0.003986048243111134
1.18830e-05	0.003969150152799479
1.18833e-05	0.003949659744398917
1.18835e-05	0.003930169335998222
1.18838e-05	0.003903896599640173
1.18840e-05	0.003876084280763976
1.18843e-05	0.003843493901754468
1.18845e-05	0.0038098189072708778
1.18848e-05	0.003773027547355998
1.18850e-05	0.0037337073058225836
1.18853e-05	0.0036923447254441147
1.18855e-05	0.003649175560055711
1.18858e-05	0.0036044352445120113
1.18860e-05	0.0035583726432814604
1.18862e-05	0.003511265485958703
1.18865e-05	0.003463412730516111
1.18868e-05	0.0034151185317655534
1.18870e-05	0.0033666881912135737
1.18873e-05	0.0033184260441280066
1.18875e-05	0.0032706369263534505
1.18878e-05	0.0032236250870087764
1.18880e-05	0.0031777035214544712
1.18883e-05	0.003133202809555968
1.18885e-05	0.0030904673101199193
1.18888e-05	0.003049844466999642
1.18890e-05	0.0030116817065893877
1.18893e-05	0.00297632717123442
1.18895e-05	0.0029455319479977176
1.18898e-05	0.002915651045267789
1.18900e-05	0.002892988941290987
1.18903e-05	0.0028719654983224035
1.18905e-05	0.0028509420553536773
1.18908e-05	0.0028389885141141256
1.18910e-05	0.0028290938326405975
1.18913e-05	0.0028191991511670018
1.18915e-05	0.002818827951899356
1.18918e-05	0.0028206185747694794
1.18920e-05	0.002822409197639615
1.18923e-05	0.0028333422723445744
1.18925e-05	0.0028463506756258865
1.18928e-05	0.0028593590789072866
1.18930e-05	0.00288078867085568
1.18933e-05	0.002904129865271608
1.18935e-05	0.0029274710596876937
1.18938e-05	0.002958359615649537
1.18940e-05	0.0029909614160860904
1.18943e-05	0.0030235632165228656
1.18945e-05	0.003062289523558465
1.18947e-05	0.003102406088239326
1.18950e-05	0.003142522652920458
1.18953e-05	0.003187282803868256
1.18955e-05	0.003233097044840457
1.18958e-05	0.0032789112858123476
1.18960e-05	0.003327665608742286
1.18963e-05	0.00337708732770726
1.18965e-05	0.0034265090466718993
1.18968e-05	0.0034769064285644093
1.18970e-05	0.0035275252850888368
1.18973e-05	0.0035781441416129216
1.18975e-05	0.0036277612753637186
1.18978e-05	0.0036771510189202972
1.18980e-05	0.0037265407624765415
