Time(s)	Current(A)
8.00000e-06	0.0015150503188326324
8.00025e-06	0.001531544662510677
8.00050e-06	0.001543881760978244
8.00075e-06	0.0015512992796237856
8.00100e-06	0.001558716798269277
8.00125e-06	0.0015619329769089591
8.00150e-06	0.0015601773950506938
8.00175e-06	0.0015584218131924404
8.00200e-06	0.0015527926964083122
8.00225e-06	0.0015425797354448412
8.00250e-06	0.0015323667744814396
8.00275e-06	0.0015185787049150031
8.00300e-06	0.0015005599414026302
8.00325e-06	0.0014825411778903793
8.00350e-06	0.0014614773497407263
8.00375e-06	0.0014368100683937097
8.00400e-06	0.0014121427870468603
8.00425e-06	0.001384345767293239
8.00450e-06	0.001352845093525044
8.00475e-06	0.0013213444197570621
8.00500e-06	0.001289843745988867
8.00525e-06	0.0012583430722206716
8.00550e-06	0.0012268423984526898
8.00575e-06	0.0011914083828868441
8.00600e-06	0.0011558019523820343
8.00625e-06	0.0011201955218774658
8.00650e-06	0.0010845890913726561
8.00675e-06	0.0010489826608678465
8.00700e-06	0.0010148226627657614
8.00725e-06	0.0009823743365282617
8.00750e-06	0.000949926010290762
8.00775e-06	0.0009174776840534821
8.00800e-06	0.0008850293578159824
8.00825e-06	0.0008525810315784827
8.00850e-06	0.000820132705340983
8.00875e-06	0.0007966625738431057
8.00900e-06	0.0007735859944385407
8.00925e-06	0.0007505094150339756
8.00950e-06	0.000727432835629567
8.00975e-06	0.000704356256225002
8.01000e-06	0.0006812796768204371
8.01025e-06	0.0006603357929846236
8.01050e-06	0.0006419156876502522
8.01075e-06	0.0006234955823158809
8.01100e-06	0.0006064440240900551
8.01125e-06	0.0005910119702235692
8.01150e-06	0.0005755799163570835
8.01175e-06	0.0005613129642409693
8.01200e-06	0.0005484247643446915
8.01225e-06	0.0005355365644484138
8.01250e-06	0.0005226483645522234
8.01275e-06	0.0005097601646559456
8.01300e-06	0.0004968719647596678
8.01325e-06	0.00048398376486347746
8.01350e-06	0.0004710955649671997
8.01375e-06	0.0004582073650709219
8.01400e-06	0.0004483559699627801
8.01425e-06	0.00043863769080024873
8.01450e-06	0.00042891941163771734
8.01475e-06	0.0004192011324752518
8.01500e-06	0.0004094828533127204
8.01525e-06	0.000399764574150189
8.01550e-06	0.0003900462949877235
8.01575e-06	0.0003803280158251921
8.01600e-06	0.00037144334329364086
8.01625e-06	0.0003635451399635799
8.01650e-06	0.00035564693663346544
8.01675e-06	0.0003477487333033509
8.01700e-06	0.00033985052997323646
8.01725e-06	0.00033264605987274454
8.01750e-06	0.0003262625362949203
8.01775e-06	0.00031987901271709606
8.01800e-06	0.0003134954891393151
8.01825e-06	0.0003071119655614909
8.01850e-06	0.0003012329888136312
8.01875e-06	0.00029595108014322666
8.01900e-06	0.0002912486221367393
8.01925e-06	0.0002872318715281548
8.01950e-06	0.00028415311505463345
8.01975e-06	0.0002829688794597832
8.02000e-06	0.0002834732096927798
8.02025e-06	0.0002856106161241328
8.02050e-06	0.00028932279289606603
8.02075e-06	0.000294551400158244
8.02100e-06	0.00030126950538299154
8.02125e-06	0.0003095745938529522
8.02150e-06	0.00031968587215716653
8.02175e-06	0.0003317436853284483
8.02200e-06	0.0003460968460839345
8.02225e-06	0.000361910426914516
8.02250e-06	0.0003791807155625489
8.02275e-06	0.0003981748357450184
8.02300e-06	0.00041846575346358924
8.02325e-06	0.00044029126889572463
8.02350e-06	0.00046344861243297796
8.02375e-06	0.00048818200798151533
8.02400e-06	0.0005142856168561213
8.02425e-06	0.0005420107018513513
8.02450e-06	0.0005697357868465814
8.02475e-06	0.0005987717100420107
8.02500e-06	0.0006293588463218022
8.02525e-06	0.0006599459826015938
8.02550e-06	0.0006905331188813854
8.02575e-06	0.0007211202551609697
8.02600e-06	0.0007520429491001663
8.02625e-06	0.0007833627335663435
8.02650e-06	0.0008146825180323085
8.02675e-06	0.0008460023024984858
8.02700e-06	0.0008773220869646629
8.02725e-06	0.0009047204280712112
8.02750e-06	0.0009274782313551663
8.02775e-06	0.0009502360346391215
8.02800e-06	0.0009729938379229223
8.02825e-06	0.0009957516412068773
8.02850e-06	0.0010185094444908325
8.02875e-06	0.0010412672477746333
8.02900e-06	0.0010640250510585885
8.02925e-06	0.0010867828543425434
8.02950e-06	0.0011095406576263444
8.02975e-06	0.0011322984609102994
8.03000e-06	0.0011550562641942546
8.03025e-06	0.0011702841458347633
8.03050e-06	0.0011766013068583837
8.03075e-06	0.001182918467882004
8.03100e-06	0.0011892356289055816
8.03125e-06	0.001195552789929202
8.03150e-06	0.0012018699509528223
8.03175e-06	0.0012081871119763998
8.03200e-06	0.0012145042730000203
8.03225e-06	0.0012208214340236406
8.03250e-06	0.0012271385950472181
8.03275e-06	0.0012334557560708386
8.03300e-06	0.0012397729170944588
8.03325e-06	0.0012414140413394875
8.03350e-06	0.0012375216608144003
8.03375e-06	0.001233629280289313
8.03400e-06	0.001229736899764226
8.03425e-06	0.0012258445192391651
8.03450e-06	0.0012219521387140779
8.03475e-06	0.0012180597581889906
8.03500e-06	0.0012141673776639298
8.03525e-06	0.0012102749971388425
8.03550e-06	0.0012028432990304498
8.03575e-06	0.001195256457723353
8.03600e-06	0.0011876696164162047
8.03625e-06	0.0011800827751090564
8.03650e-06	0.0011724959338019595
8.03675e-06	0.0011649090924948113
8.03700e-06	0.001157322251187663
8.03725e-06	0.0011497354098805664
8.03750e-06	0.0011435219391940019
8.03775e-06	0.0011389336808914977
8.03800e-06	0.0011343454225890247
8.03825e-06	0.0011297571642865205
8.03850e-06	0.0011251689059840163
8.03875e-06	0.001120580647681543
8.03900e-06	0.0011159923893790389
8.03925e-06	0.0011114041310765347
8.03950e-06	0.0011068158727740617
8.03975e-06	0.0011022276144715575
8.04000e-06	0.0010976393561690533
8.04025e-06	0.0010930510978665801
8.04050e-06	0.0010884628395640761
8.04075e-06	0.001083874581261572
8.04100e-06	0.0010792863229590987
8.04125e-06	0.0010746980646565945
8.04150e-06	0.0010777003957762531
8.04175e-06	0.0010810354544052657
8.04200e-06	0.0010843705130343007
8.04225e-06	0.0010877055716633356
8.04250e-06	0.0010910406302923482
8.04275e-06	0.0010943756889213831
8.04300e-06	0.001097710747550418
8.04325e-06	0.0011010458061794532
8.04350e-06	0.0011043808648084656
8.04375e-06	0.0011077159234375005
8.04400e-06	0.0011110509820665357
8.04425e-06	0.001114386040695548
8.04450e-06	0.0011177210993245832
8.04475e-06	0.0011210561579536181
8.04500e-06	0.0011243912165826305
8.04525e-06	0.001129235381382265
8.04550e-06	0.0011358653846154315
8.04575e-06	0.0011424953878485529
8.04600e-06	0.001149125391081719
8.04625e-06	0.0011557553943148855
8.04650e-06	0.0011623853975480068
8.04675e-06	0.001169015400781173
8.04700e-06	0.0011756454040143395
8.04725e-06	0.0011822754072474608
8.04750e-06	0.0011876110060620069
8.04775e-06	0.0011928898656782092
8.04800e-06	0.0011981687252943759
8.04825e-06	0.0012034475849105784
8.04850e-06	0.0012087264445267809
8.04875e-06	0.0012140053041429476
8.04900e-06	0.00121928416375915
8.04925e-06	0.0012245630233753526
8.04950e-06	0.001225987950158881
8.04975e-06	0.001222852229382991
8.05000e-06	0.0012197165086071011
8.05025e-06	0.0012165807878312326
8.05050e-06	0.0012134450670553427
8.05075e-06	0.001210309346279453
8.05100e-06	0.0012071736255035842
8.05125e-06	0.0012040379047276943
8.05150e-06	0.0012009021839518045
8.05175e-06	0.0011977664631759146
8.05200e-06	0.0011946307424000459
8.05225e-06	0.001186229215071686
8.05250e-06	0.0011715962641960986
8.05275e-06	0.0011569633133206101
8.05300e-06	0.0011423303624450228
8.05325e-06	0.0011276974115694352
8.05350e-06	0.0011130644606939467
8.05375e-06	0.0010984315098183594
8.05400e-06	0.0010837985589427718
8.05425e-06	0.0010691656080672836
8.05450e-06	0.001054532657191696
8.05475e-06	0.0010398997063161084
8.05500e-06	0.0010229422168837148
8.05525e-06	0.0010032339267606921
8.05550e-06	0.0009835256366376697
8.05575e-06	0.0009638173465147807
8.05600e-06	0.0009441090563917582
8.05625e-06	0.0009244007662687357
8.05650e-06	0.0009046924761458466
8.05675e-06	0.0008859010551043806
8.05700e-06	0.0008671498242971221
8.05725e-06	0.0008483985934899906
8.05750e-06	0.0008296473626827321
8.05775e-06	0.0008108961318754735
8.05800e-06	0.0007921449010683421
8.05825e-06	0.0007749815456702061
8.05850e-06	0.0007596972422496723
8.05875e-06	0.0007444129388292422
8.05900e-06	0.0007307875399000805
8.05925e-06	0.0007191252469849946
8.05950e-06	0.0007074629540699876
8.05975e-06	0.000697626294091996
8.06000e-06	0.0006899500423937107
8.06025e-06	0.0006822737906954253
8.06050e-06	0.0006765309118167951
8.06075e-06	0.0006730759378956075
8.06100e-06	0.0006696209639744199
8.06125e-06	0.0006681251692584577
8.06150e-06	0.0006689478181301514
8.06175e-06	0.0006697704670018453
8.06200e-06	0.000672408440474789
8.06225e-06	0.0006771946236010706
8.06250e-06	0.0006819808067273522
8.06275e-06	0.0006884357939019507
8.06300e-06	0.0006968656019784218
8.06325e-06	0.0007052954100548929
8.06350e-06	0.0007157987870526683
8.06375e-06	0.0007287559735624518
8.06400e-06	0.0007417131600722352
8.06425e-06	0.0007546703465819308
8.06450e-06	0.0007676275330917143
8.06475e-06	0.0007805847196014977
8.06500e-06	0.0007935419061111934
8.06525e-06	0.000809757592181355
8.06550e-06	0.0008261161120140303
8.06575e-06	0.0008424746318465948
8.06600e-06	0.00085883315167927
8.06625e-06	0.0008751916715119453
8.06650e-06	0.0008915501913445097
8.06675e-06	0.0009076902305106374
8.06700e-06	0.0009235717251295897
8.06725e-06	0.0009394532197484343
8.06750e-06	0.0009553347143673866
8.06775e-06	0.0009712162089863389
8.06800e-06	0.0009870977036051836
8.06825e-06	0.0010007668516227594
8.06850e-06	0.0010118179640982538
8.06875e-06	0.0010228690765737485
8.06900e-06	0.001033920189049168
8.06925e-06	0.0010449713015246627
8.06950e-06	0.0010560224140001573
8.06975e-06	0.0010634725937175714
8.07000e-06	0.0010666615198232838
8.07025e-06	0.0010698504459289962
8.07050e-06	0.0010702542551934398
8.07075e-06	0.0010673622269635012
8.07100e-06	0.0010644701987335627
8.07125e-06	0.001059907304688816
8.07150e-06	0.0010533671498989807
8.07175e-06	0.0010442696418681368
8.07200e-06	-0.003481797199966558
8.07225e-06	-0.019045034081824355
8.07250e-06	-0.015913595552730624
8.07275e-06	-0.012594763961837832
8.07300e-06	-0.006958280177700614
8.07325e-06	0.0046440293091374475
8.07350e-06	0.004740927841045715
8.07375e-06	0.003914907980291878
8.07400e-06	0.0005453654652910255
8.07425e-06	-0.0060532377948685785
8.07450e-06	-0.007250512798391588
8.07475e-06	-0.004875770409035548
8.07500e-06	-0.0009262808753194767
8.07525e-06	0.003089042407093847
8.07550e-06	0.004492146524998482
8.07575e-06	0.0032800511606522064
8.07600e-06	0.00035991581134333186
8.07625e-06	-0.0028898479469922334
8.07650e-06	-0.003735744620997933
8.07675e-06	-0.0023278557179815334
8.07700e-06	7.877698326166536e-05
8.07725e-06	0.0025367816262920045
8.07750e-06	0.0033669992474038455
8.07775e-06	0.0025663628260743686
8.07800e-06	0.0007021740997676841
8.07825e-06	-0.0013629105169333886
8.07850e-06	-0.0019173465963315582
8.07875e-06	-0.0010557845891839162
8.07900e-06	0.00043511321826999756
8.07925e-06	0.001961451638565562
8.07950e-06	0.00247093803038946
8.07975e-06	0.0019612728697420215
8.08000e-06	0.0007875692687126451
8.08025e-06	-0.0005099995859991674
8.08050e-06	-0.0008595602492282674
8.08075e-06	-0.00032065779526989493
8.08100e-06	0.000613733107685098
8.08125e-06	0.001571443002789508
8.08150e-06	0.0018932232699673827
8.08175e-06	0.0015775804677375877
8.08200e-06	0.0008469024056375577
8.08225e-06	3.9479420399438005e-05
8.08250e-06	-0.00017338213815726737
8.08275e-06	0.00017088034123547287
8.08300e-06	0.0007633492532473754
8.08325e-06	0.0013708068330187187
8.08350e-06	0.0015802411628543342
8.08375e-06	0.0013906780764513383
8.08400e-06	0.0009413774310714194
8.08425e-06	0.0004441855942397391
8.08450e-06	0.00031952167675100644
8.08475e-06	0.00054383137701564
8.08500e-06	0.0009235160590374202
8.08525e-06	0.0013124114529893946
8.08550e-06	0.0014517492367981412
8.08575e-06	0.0013408734140427957
8.08600e-06	0.001066966594922896
8.08625e-06	0.0007626695188133766
8.08650e-06	0.0006912549898728675
8.08675e-06	0.0008378800012030262
8.08700e-06	0.0010811924299861716
8.08725e-06	0.0013295628244321272
8.08750e-06	0.0014208383929006283
8.08775e-06	0.0013545550149264799
8.08800e-06	0.0011852681614158613
8.08825e-06	0.0009960020494749918
8.08850e-06	0.0009515971959819439
8.08875e-06	0.0010426757649618058
8.08900e-06	0.0011932026947094605
8.08925e-06	0.0013460170071746692
8.08950e-06	0.0014000785605963232
8.08975e-06	0.0013555495988917489
8.09000e-06	0.0012467378474465866
8.09025e-06	0.001125641942823585
8.09050e-06	0.0010955031892789955
8.09075e-06	0.001150428298498963
8.09100e-06	0.0012427725044531163
8.09125e-06	0.0013367173992242891
8.09150e-06	0.0013689633904123196
8.09175e-06	0.001339606719810227
8.09200e-06	0.0012701314420131078
8.09225e-06	0.001193100653402114
8.09250e-06	0.0011731714574138863
8.09275e-06	0.001206636284124195
8.09300e-06	0.0012636360696683827
8.09325e-06	0.0013217222373160704
8.09350e-06	0.0013412347246063892
8.09375e-06	0.0013222265595689952
8.09400e-06	0.001278147353930245
8.09425e-06	0.0012293850750135506
8.09450e-06	0.0012164286223174821
8.09475e-06	0.001236941483612252
8.09500e-06	0.0012722070368154379
8.09525e-06	0.001308151937199531
8.09550e-06	0.001319923427238325
8.09575e-06	0.0013075461762808562
8.09600e-06	0.0012794359532724193
8.09625e-06	0.001248353889342171
8.09650e-06	0.0012396504447549665
8.09675e-06	0.0012518492704600144
8.09700e-06	0.001273214168089688
8.09725e-06	0.0012949184282687936
8.09750e-06	0.001301384163979089
8.09775e-06	0.0012926174683172195
8.09800e-06	0.0012738805484040377
8.09825e-06	0.001253156607210119
8.09850e-06	0.0012463139308446303
8.09875e-06	0.0012524157759293793
8.09900e-06	0.0012641224559654814
8.09925e-06	0.001276020125324997
8.09950e-06	0.0012785792961034208
8.09975e-06	0.0012712473248869681
8.10000e-06	0.0012578577584393368
8.10025e-06	0.0012463079353190467
8.10050e-06	0.0012421227788318742
8.10075e-06	0.0012468350301561096
8.10100e-06	0.0012555295084667837
8.10125e-06	0.0012630725546555904
8.10150e-06	0.0012655101161497856
8.10175e-06	0.0012623007785576498
8.10200e-06	0.0012585252757768065
8.10225e-06	0.001253435423283533
8.10250e-06	0.0012516001224930492
8.10275e-06	0.0012573202475386958
8.10300e-06	0.0012635693331828426
8.10325e-06	0.0012710463982655074
8.10350e-06	0.001276370388324508
8.10375e-06	0.0012766960252627209
8.10400e-06	0.001277021662200936
8.10425e-06	0.0012791800550648689
8.10450e-06	0.001281793579039873
8.10475e-06	0.001285903032468029
8.10500e-06	0.0012934852787939563
8.10525e-06	0.001301067525119832
8.10550e-06	0.0013074319291206183
8.10575e-06	0.0013109691181290848
8.10600e-06	0.0013145063071375272
8.10625e-06	0.0013180434961459937
8.10650e-06	0.0013215806851544602
8.10675e-06	0.001326694161638146
8.10700e-06	0.0013321990800263487
8.10725e-06	0.0013377039984145515
8.10750e-06	0.0013432089168027171
8.10775e-06	0.0013478759699834587
8.10800e-06	0.0013505979231892267
8.10825e-06	0.0013533198763949763
8.10850e-06	0.001356041829600744
8.10875e-06	0.0013587637828065121
8.10900e-06	0.0013617161275838458
8.10925e-06	0.0013652033252661122
8.10950e-06	0.0013686905229483783
8.10975e-06	0.001372177720630621
8.11000e-06	0.001375664918312887
8.11025e-06	0.0013811025387850163
8.11050e-06	0.0013910680562100603
8.11075e-06	0.0014010335736351716
8.11100e-06	0.001410999091060283
8.11125e-06	0.0014209646084853943
8.11150e-06	0.001430930125910438
8.11175e-06	0.0014408956433355495
8.11200e-06	0.0014508611607606608
8.11225e-06	0.0014608266781857048
8.11250e-06	0.001470792195610816
8.11275e-06	0.0014807577130359275
8.11300e-06	0.0014975607519657516
8.11325e-06	0.0015160617631769992
8.11350e-06	0.0015345627743882468
8.11375e-06	0.0015530637855993691
8.11400e-06	0.0015715647968106167
8.11425e-06	0.0015900658080218646
8.11450e-06	0.0016085668192329869
8.11475e-06	0.0016270678304442345
8.11500e-06	0.001645568841655482
8.11525e-06	0.0016640698528666044
8.11550e-06	0.0016832591673555254
8.11575e-06	0.0017040463745324342
8.11600e-06	0.0017248335817092023
8.11625e-06	0.0017456207888861112
8.11650e-06	0.00176640799606302
8.11675e-06	0.001787195203239788
8.11700e-06	0.0018079824104166968
8.11725e-06	0.0018287696175936057
8.11750e-06	0.0018480263851248816
8.11775e-06	0.0018637302445146412
8.11800e-06	0.0018794341039044008
8.11825e-06	0.001895137963294054
8.11850e-06	0.0019108418226838136
8.11875e-06	0.0019265456820735732
8.11900e-06	0.0019422495414632263
8.11925e-06	0.001957953400852986
8.11950e-06	0.00197123696634923
8.11975e-06	0.001978901831424744
8.12000e-06	0.0019865666965002064
8.12025e-06	0.0019942315615757208
8.12050e-06	0.0020018964266512347
8.12075e-06	0.002009561291726697
8.12100e-06	0.0020172261568022114
8.12125e-06	0.0020248910218777258
8.12150e-06	0.002032555886953188
8.12175e-06	0.002040220752028702
8.12200e-06	0.0020478856171042164
8.12225e-06	0.0020555504821796787
8.12250e-06	0.002063215347255193
8.12275e-06	0.002070880212330707
8.12300e-06	0.0020785450774061694
8.12325e-06	0.0020822268766619956
8.12350e-06	0.0020849195550272097
8.12375e-06	0.0020876122333924056
8.12400e-06	0.00209030491175762
8.12425e-06	0.002092997590122834
8.12450e-06	0.0020956902684880294
8.12475e-06	0.0020983829468532436
8.12500e-06	0.0021010756252184577
8.12525e-06	0.0021037683035836537
8.12550e-06	0.002106460981948868
8.12575e-06	0.002109153660314082
8.12600e-06	0.002111846338679278
8.12625e-06	0.002114539017044492
8.12650e-06	0.002117231695409706
8.12675e-06	0.0021193594921394576
8.12700e-06	0.002120175918918553
8.12725e-06	0.002120992345697649
8.12750e-06	0.002121808772476739
8.12775e-06	0.0021226251992558344
8.12800e-06	0.0021234416260349303
8.12825e-06	0.002124258052814026
8.12850e-06	0.002125074479593116
8.12875e-06	0.0021258909063722117
8.12900e-06	0.0021267073331513076
8.12925e-06	0.002123325184739838
8.12950e-06	0.0021189003976623704
8.12975e-06	0.0021144756105849027
8.13000e-06	0.002110050823507465
8.13025e-06	0.0021056260364299972
8.13050e-06	0.0021012012493525295
8.13075e-06	0.0020967764622750918
8.13100e-06	0.002092351675197624
8.13125e-06	0.0020879268881201563
8.13150e-06	0.00208039680489363
8.13175e-06	0.002065657791861721
8.13200e-06	0.0020509187788298115
8.13225e-06	0.002036179765798002
8.13250e-06	0.0020214407527660927
8.13275e-06	0.0020067017397341833
8.13300e-06	0.001991962726702374
8.13325e-06	0.0019772237136704645
8.13350e-06	0.0019624847006385554
8.13375e-06	0.0019477456876067457
8.13400e-06	0.0019272986753511893
8.13425e-06	0.0019054341868263633
8.13450e-06	0.0018835696983016857
8.13475e-06	0.0018617052097768597
8.13500e-06	0.0018398407212520337
8.13525e-06	0.0018179762327273558
8.13550e-06	0.0017961117442025299
8.13575e-06	0.001774247255677704
8.13600e-06	0.0017523827671530262
8.13625e-06	0.0017305531095660768
8.13650e-06	0.0017088043118308775
8.13675e-06	0.0016870555140956782
8.13700e-06	0.0016653067163606263
8.13725e-06	0.001643557918625427
8.13750e-06	0.0016218091208902276
8.13775e-06	0.0016000603231551755
8.13800e-06	0.0015783115254199762
8.13825e-06	0.0015589142400389963
8.13850e-06	0.001544975979075904
8.13875e-06	0.0015310377181127174
8.13900e-06	0.0015170994571495307
8.13925e-06	0.0015031611961864387
8.13950e-06	0.001489222935223252
8.13975e-06	0.0014752846742600654
8.14000e-06	0.0014613464132969731
8.14025e-06	0.0014515021389983774
8.14050e-06	0.0014511620346992205
8.14075e-06	0.0014508219304000662
8.14100e-06	0.0014504818261009092
8.14125e-06	0.0014501417218017525
8.14150e-06	0.001449801617502598
8.14175e-06	0.0014494615132034413
8.14200e-06	0.0014491214089042846
8.14225e-06	0.00144878130460513
8.14250e-06	0.0014484412003059734
8.14275e-06	0.001458428729478491
8.14300e-06	0.001470980935833914
8.14325e-06	0.0014835331421894221
8.14350e-06	0.0014960853485449302
8.14375e-06	0.0015086375549003533
8.14400e-06	0.0015211897612558613
8.14425e-06	0.0015337419676113694
8.14450e-06	0.0015462941739667925
8.14475e-06	0.0015588463803223006
8.14500e-06	0.0015731913815407773
8.14525e-06	0.0015916983472571468
8.14550e-06	0.0016102053129733909
8.14575e-06	0.0016287122786897603
8.14600e-06	0.0016472192444061298
8.14625e-06	0.001665726210122374
8.14650e-06	0.0016842331758387433
8.14675e-06	0.0017027401415551126
8.14700e-06	0.0017206180158551038
8.14725e-06	0.0017370354575119169
